Data_Point,Test_Time(s),Date_Time,Step_Time(s),Step_Index,Cycle_Index,Current(A),Voltage(V),Charge_Capacity(Ah),Discharge_Capacity(Ah),Charge_Energy(Wh),Discharge_Energy(Wh),dV/dt(V/s),Internal_Resistance(Ohm),Is_FC_Data,AC_Impedance(Ohm),ACI_Phase_Angle(Deg)
10858,379418.96000052174,2010-11-05 23:47:47,30.015347815894287,1,34,0.0,3.333888292312622,32.35805164178964,32.42120021776847,129.2620968844682,118.17559096486109,0.0007770538213662,0.0939245000481605,0,0,0
10859,379448.9753246084,2010-11-05 23:48:17,60.03067190756928,1,34,0.0,3.356552124023437,32.35805164178964,32.42120021776847,129.2620968844682,118.17559096486109,0.0004856586456298,0.0939245000481605,0,0,0
10860,379478.9907773061,2010-11-05 23:48:47,90.0461246102772,1,34,0.0,3.3740358352661133,32.35805164178964,32.42120021776847,129.2620968844682,118.17559096486109,0.0003885269106831,0.0939245000481605,0,0,0
10861,379508.95911,2010-11-05 23:49:17,120.01445729416892,1,34,0.0,3.38811993598938,32.35805164178964,32.42120021776847,129.2620968844682,118.17559096486109,0.0003237724304199,0.0939245000481605,0,0,0
10862,379538.97304227774,2010-11-05 23:49:47,30.01308442612521,2,34,0.5501165986061096,3.5516245365142822,32.36263830916717,32.42120021776847,129.27820636394088,118.17559096486109,0.0018131255637854,0.0939245000481605,0,0,0
10863,379568.9879520152,2010-11-05 23:50:17,60.027994173533166,2,34,0.5501165986061096,3.60569429397583,32.367225202848374,32.42120021776847,129.29462833896665,118.17559096486109,0.0012303352123126,0.0939245000481605,0,0,0
10864,379599.0034182767,2010-11-05 23:50:47,90.04346042506101,2,34,0.5501165986061096,3.645518302917481,32.371812194040224,32.42120021776847,129.31126321772942,118.17559096486109,0.0009389400365762,0.0939245000481605,0,0,0
10865,379629.0186802784,2010-11-05 23:51:17,120.0587224518124,2,34,0.5501165986061096,3.6772477626800537,32.37639910924821,32.42120021776847,129.32806074313183,118.17559096486109,0.0007446765666827,0.0939245000481605,0,0,0
10866,379659.0340956479,2010-11-05 23:51:47,150.07413779125588,2,34,0.5499359965324402,3.703149557113648,32.38098602073356,32.42120021776847,129.3449896007787,118.17559096486109,0.0006151676061563,0.0939245000481605,0,0,0
10867,379689.04936313326,2010-11-05 23:52:17,180.08940536685802,2,34,0.550297200679779,3.725327968597412,32.385572893340715,32.42120021776847,129.36202771675832,118.17559096486109,0.0005827903514727,0.0939245000481605,0,0,0
10868,379719.0648115403,2010-11-05 23:52:47,210.10485369364292,2,34,0.5501165986061096,3.7432973384857178,32.39015982957052,32.42120021776847,129.37915791911945,118.17559096486109,0.0004209041653666,0.0939245000481605,0,0,0
10869,379749.0799685048,2010-11-05 23:53:17,240.12001064310527,2,34,0.550297200679779,3.757704973220825,32.394746696554904,32.42120021776847,129.39636302374615,118.17559096486109,0.0003237724304199,0.0939245000481605,0,0,0
10870,379779.095307218,2010-11-05 23:53:47,270.1353493562778,2,34,0.550297200679779,3.766770601272583,32.39933355782768,32.42120021776847,129.41362175913258,118.17559096486109,0.0001942634553415,0.0939245000481605,0,0,0
10871,379809.11062492366,2010-11-05 23:54:17,300.150667067025,2,34,0.5501165986061096,3.7722747325897217,32.4039205538638,32.42120021776847,129.43091337233167,118.17559096486109,0.0001295089750783,0.0939245000481605,0,0,0
10872,379839.1260817868,2010-11-05 23:54:47,330.16612393011786,2,34,0.550297200679779,3.7764837741851807,32.40850750706255,32.42120021776847,129.4482261085077,118.17559096486109,0.0001295089750783,0.0939245000481605,0,0,0
10873,379869.1414154724,2010-11-05 23:55:17,360.1814576207533,2,34,0.5499359965324402,3.77988338470459,32.413094407111394,32.42120021776847,129.46555637624485,118.17559096486109,9.713172767078504e-05,0.0939245000481605,0,0,0
10874,379899.1566356096,2010-11-05 23:55:47,390.1966777579419,2,34,0.5499359965324402,3.783444881439209,32.4176813459478,32.42120021776847,129.4829034529186,118.17559096486109,6.47544875391759e-05,0.0939245000481605,0,0,0
10875,379929.1721073698,2010-11-05 23:56:17,420.21214950819547,2,34,0.5501165986061096,3.787006378173828,32.42226825320165,32.42120021776847,129.50026645682078,118.17559096486109,6.47544875391759e-05,0.0939245000481605,0,0,0
10876,379959.18731774273,2010-11-05 23:56:47,450.2273598860232,2,34,0.550297200679779,3.7905678749084473,32.426855162052526,32.42120021776847,129.51764501666406,118.17559096486109,0.0001618862152099,0.0939245000481605,0,0,0
10877,379989.20263387455,2010-11-05 23:57:17,480.2426760128166,2,34,0.550297200679779,3.793643712997437,32.4314420137906,32.42120021776847,129.5350384037232,118.17559096486109,9.713172767078504e-05,0.0939245000481605,0,0,0
10878,380019.2183139598,2010-11-05 23:57:47,510.2583561031189,2,34,0.5501165986061096,3.796719551086426,32.4360289090359,32.42120021776847,129.55244673720895,118.17559096486109,6.47544875391759e-05,0.0939245000481605,0,0,0
10879,380049.2334911248,2010-11-05 23:58:17,540.2735333031297,2,34,0.550297200679779,3.799957275390625,32.440615822849004,32.42120021776847,129.5698695838227,118.17559096486109,3.237724376958795e-05,0.0939245000481605,0,0,0
10880,380079.2486276933,2010-11-05 23:58:47,570.2886698416432,2,34,0.5501165986061096,3.802871227264404,32.44520266749155,32.42120021776847,129.5873062901779,118.17559096486109,6.47544875391759e-05,0.0939245000481605,0,0,0
10881,380109.2639941959,2010-11-05 23:59:17,600.3040363441822,2,34,0.5499359965324402,3.8059470653533936,32.44978960661284,32.42120021776847,129.60475727370977,118.17559096486109,6.47544875391759e-05,0.0939245000481605,0,0,0
10882,380139.2793538864,2010-11-05 23:59:47,630.3193960347174,2,34,0.550297200679779,3.809022903442383,32.454376575890294,32.42120021776847,129.62222223732175,118.17559096486109,9.713172767078504e-05,0.0939245000481605,0,0,0
10883,380169.29466202826,2010-11-06 00:00:17,660.3347041765793,2,34,0.550297200679779,3.812098741531372,32.45896356320716,32.42120021776847,129.63970105714958,118.17559096486109,9.713172767078504e-05,0.0939245000481605,0,0,0
10884,380199.3099975735,2010-11-06 00:00:47,690.3500397218442,2,34,0.5501165986061096,3.815174579620361,32.46355049051765,32.42120021776847,129.65719367833478,118.17559096486109,9.713172767078504e-05,0.0939245000481605,0,0,0
10885,380229.3253527728,2010-11-06 00:01:17,720.3653949261811,2,34,0.550297200679779,3.818250417709351,32.468137389831725,32.42120021776847,129.67470038000633,118.17559096486109,6.47544875391759e-05,0.0939245000481605,0,0,0
10886,380259.3408125181,2010-11-06 00:01:47,750.3808546664559,2,34,0.550297200679779,3.82148814201355,32.47272428836168,32.42120021776847,129.6922214290039,118.17559096486109,9.713172767078504e-05,0.0939245000481605,0,0,0
10887,380289.3561401888,2010-11-06 00:02:17,780.3961823370644,2,34,0.5499359965324402,3.824402093887329,32.47731115049974,32.42120021776847,129.70975704113914,118.17559096486109,6.47544875391759e-05,0.0939245000481605,0,0,0
10888,380319.37134223577,2010-11-06 00:02:47,810.4113843840972,2,34,0.5501165986061096,3.827963590621948,32.4818980288144,32.42120021776847,129.72730783189783,118.17559096486109,9.713172767078504e-05,0.0939245000481605,0,0,0
10889,380349.386875249,2010-11-06 00:03:17,840.4269174273476,2,34,0.5501165986061096,3.831525087356568,32.48648490807312,32.42120021776847,129.7448741332619,118.17559096486109,0.0001295089750783,0.0939245000481605,0,0,0
10890,380379.40201822354,2010-11-06 00:03:48,870.4420603718513,2,34,0.5501165986061096,3.834762573242188,32.49107177196975,32.42120021776847,129.76245607261137,118.17559096486109,9.713172767078504e-05,0.0939245000481605,0,0,0
10891,380409.4175523595,2010-11-06 00:04:18,900.4575945328918,2,34,0.5499359965324402,3.8381621837615967,32.49565869269691,32.42120021776847,129.78005410996067,118.17559096486109,6.47544875391759e-05,0.0939245000481605,0,0,0
10892,380439.43282853655,2010-11-06 00:04:48,930.472870694927,2,34,0.5501165986061096,3.841723680496216,32.50024553251609,32.42120021776847,129.7976676782869,118.17559096486109,6.47544875391759e-05,0.0939245000481605,0,0,0
10893,380469.4480377114,2010-11-06 00:05:18,960.4880798597268,2,34,0.5501165986061096,3.845123291015625,32.50483242516775,32.42120021776847,129.8152971165577,118.17559096486109,6.47544875391759e-05,0.0939245000481605,0,0,0
10894,380499.4633681288,2010-11-06 00:05:48,990.5034102771918,2,34,0.5501165986061096,3.848522901535034,32.50941936364745,32.42120021776847,129.83294212261518,118.17559096486109,9.713172767078504e-05,0.0939245000481605,0,0,0
10895,380529.478686396,2010-11-06 00:06:18,1020.518728544328,2,34,0.550297200679779,3.851598739624024,32.514006305160834,32.42120021776847,129.85060231978656,118.17559096486109,6.47544875391759e-05,0.0939245000481605,0,0,0
10896,380559.49403805647,2010-11-06 00:06:48,1050.5340802048188,2,34,0.550297200679779,3.854836463928223,32.518593305368874,32.42120021776847,129.86827764034118,118.17559096486109,9.713172767078504e-05,0.0939245000481605,0,0,0
10897,380589.5093539276,2010-11-06 00:07:18,1080.5493960809868,2,34,0.5501165986061096,3.858236074447632,32.52318032673246,32.42120021776847,129.88596769131237,118.17559096486109,9.713172767078504e-05,0.0939245000481605,0,0,0
10898,380619.52469713707,2010-11-06 00:07:48,1110.56473928537,2,34,0.5499359965324402,3.861311912536621,32.52776723901571,32.42120021776847,129.9036714920882,118.17559096486109,6.47544875391759e-05,0.0939245000481605,0,0,0
10899,380649.5400647874,2010-11-06 00:08:18,1140.5801069357742,2,34,0.5501165986061096,3.8640639781951904,32.532354136726674,32.42120021776847,129.92138899167233,118.17559096486109,6.47544875391759e-05,0.0939245000481605,0,0,0
10900,380679.555355566,2010-11-06 00:08:48,1170.5953977092822,2,34,0.5501165986061096,3.86681604385376,32.53694097792294,32.42120021776847,129.9391194975381,118.17559096486109,3.237724376958795e-05,0.0939245000481605,0,0,0
10901,380709.57071598334,2010-11-06 00:09:18,1200.610758131644,2,34,0.5501165986061096,3.869729995727539,32.541527833549026,32.42120021776847,129.95686285605962,118.17559096486109,9.713172767078504e-05,0.0939245000481605,0,0,0
10902,380739.58603476174,2010-11-06 00:09:48,1230.626076910056,2,34,0.550297200679779,3.8723201751708975,32.546114767885804,32.42120021776847,129.97461873892686,118.17559096486109,6.47544875391759e-05,0.0939245000481605,0,0,0
10903,380769.6014108081,2010-11-06 00:10:18,1260.6414529814806,2,34,0.5501165986061096,3.874748468399048,32.55070175590529,32.42120021776847,129.99238644404895,118.17559096486109,6.47544875391759e-05,0.0939245000481605,0,0,0
10904,380799.6166980729,2010-11-06 00:10:48,1290.6567402211674,2,34,0.550297200679779,3.8770148754119873,32.55528866300246,32.42120021776847,130.01016481721896,118.17559096486109,6.47544875391759e-05,0.0939245000481605,0,0,0
10905,380829.6320324552,2010-11-06 00:11:18,1320.6720746035296,2,34,0.5501165986061096,3.879281282424927,32.559875571168455,32.42120021776847,130.02795361309194,118.17559096486109,6.47544875391759e-05,0.0939245000481605,0,0,0
10906,380859.647379444,2010-11-06 00:11:48,1350.6874215923594,2,34,0.5501165986061096,3.8812239170074463,32.564462511648955,32.42120021776847,130.04575222514262,118.17559096486109,0.0,0.0939245000481605,0,0,0
10907,380889.6627044931,2010-11-06 00:12:18,1380.7027466414245,2,34,0.5499359965324402,3.883004665374756,32.56904951831429,32.42120021776847,130.06356024020263,118.17559096486109,0.0,0.0939245000481605,0,0,0
10908,380919.6780352164,2010-11-06 00:12:48,1410.718077369665,2,34,0.5501165986061096,3.885109186172485,32.57363653977175,32.42120021776847,130.08137682363432,118.17559096486109,9.713172767078504e-05,0.0939245000481605,0,0,0
10909,380949.6933803856,2010-11-06 00:13:18,1440.7334225339405,2,34,0.5501165986061096,3.886728048324585,32.578224002032385,32.42120021776847,130.0992031061505,118.17559096486109,6.47544875391759e-05,0.0939245000481605,0,0,0
10910,380979.7091253429,2010-11-06 00:13:48,1470.7491674911605,2,34,0.550297200679779,3.888346910476685,32.5828115898737,32.42120021776847,130.11703731546922,118.17559096486109,3.237724376958795e-05,0.0939245000481605,0,0,0
10911,381009.7240420026,2010-11-06 00:14:18,1500.7640841758853,2,34,0.550297200679779,3.889642000198364,32.58739917972785,32.42120021776847,130.13487869308062,118.17559096486109,0.0,0.0939245000481605,0,0,0
10912,381039.73950601846,2010-11-06 00:14:48,1530.77954816677,2,34,0.550297200679779,3.891422748565674,32.59198685225789,32.42120021776847,130.15272710534364,118.17559096486109,6.47544875391759e-05,0.0939245000481605,0,0,0
10913,381069.7547107472,2010-11-06 00:15:18,1560.794752925572,2,34,0.5501165986061096,3.892555952072144,32.596573936798336,32.42120021776847,130.1705797272522,118.17559096486109,3.237724376958795e-05,0.0939245000481605,0,0,0
10914,381099.77018404624,2010-11-06 00:15:48,1590.8102262196792,2,34,0.5501165986061096,3.894012928009033,32.60116092048269,32.42120021776847,130.18843834527678,118.17559096486109,6.47544875391759e-05,0.0939245000481605,0,0,0
10915,381129.7853771861,2010-11-06 00:16:18,1620.8254193644905,2,34,0.5501165986061096,3.895146131515503,32.605747883626265,32.42120021776847,130.20630291778286,118.17559096486109,3.237724376958795e-05,0.0939245000481605,0,0,0
10916,381159.8007209218,2010-11-06 00:16:48,1650.8407630701251,2,34,0.550297200679779,3.8966031074523926,32.61033475952518,32.42120021776847,130.2241731537841,118.17559096486109,3.237724376958795e-05,0.0939245000481605,0,0,0
10917,381189.8160728529,2010-11-06 00:17:18,1680.8561150263542,2,34,0.5501165986061096,3.897898197174072,32.6149216820676,32.42120021776847,130.24204973070778,118.17559096486109,0.0,0.0939245000481605,0,0,0
10918,381219.8314011852,2010-11-06 00:17:48,1710.8714433335515,2,34,0.550297200679779,3.899355173110962,32.61950858879243,32.42120021776847,130.25993239583173,118.17559096486109,6.47544875391759e-05,0.0939245000481605,0,0,0
10919,381249.8468712964,2010-11-06 00:18:18,1740.8869134747888,2,34,0.5501165986061096,3.9006502628326416,32.6240955146227,32.42120021776847,130.2778211263253,118.17559096486109,3.237724376958795e-05,0.0939245000481605,0,0,0
10920,381279.8620636091,2010-11-06 00:18:48,1770.9021057825107,2,34,0.550297200679779,3.901945352554321,32.628682346538405,32.42120021776847,130.29571556267402,118.17559096486109,3.237724376958795e-05,0.0939245000481605,0,0,0
10921,381309.877399385,2010-11-06 00:19:18,1800.9174415332889,2,34,0.5501165986061096,3.903240442276001,32.6332692554066,32.42120021776847,130.31361638162278,118.17559096486109,6.47544875391759e-05,0.0939245000481605,0,0,0
10922,381339.8927407497,2010-11-06 00:19:48,1830.932782923143,2,34,0.550297200679779,3.9045355319976807,32.63785617289518,32.42120021776847,130.33152335552168,118.17559096486109,3.237724376958795e-05,0.0939245000481605,0,0,0
10923,381369.9080666459,2010-11-06 00:20:18,1860.948108819322,2,34,0.5501165986061096,3.90583062171936,32.64244309003311,32.42120021776847,130.34943632617646,118.17559096486109,3.237724376958795e-05,0.0939245000481605,0,0,0
10924,381399.9234724616,2010-11-06 00:20:48,1890.96351460993,2,34,0.550297200679779,3.90728759765625,32.64702999018911,32.42120021776847,130.36735543338938,118.17559096486109,3.237724376958795e-05,0.0939245000481605,0,0,0
10925,381429.94214710174,2010-11-06 00:21:18,1920.9821893954525,2,34,0.5501165986061096,3.9085826873779297,32.65161731473589,32.42120021776847,130.38528231841602,118.17559096486109,3.237724376958795e-05,0.0939245000481605,0,0,0
10926,381459.9543344035,2010-11-06 00:21:48,1950.994376566892,2,34,0.5501165986061096,3.9100396633148193,32.65620369897915,32.42120021776847,130.40321175958806,118.17559096486109,3.237724376958795e-05,0.0939245000481605,0,0,0
10927,381489.96955292166,2010-11-06 00:22:18,1981.009595095064,2,34,0.5501165986061096,3.911172866821289,32.660790585038825,32.42120021776847,130.42114936582948,118.17559096486109,0.0,0.0939245000481605,0,0,0
10928,381519.98475951,2010-11-06 00:22:48,2011.0248016884457,2,34,0.550297200679779,3.9127917289733887,32.66537737745566,32.42120021776847,130.4390929368517,118.17559096486109,6.47544875391759e-05,0.0939245000481605,0,0,0
10929,381550.0000842284,2010-11-06 00:23:18,2041.0401263766096,2,34,0.5499359965324402,3.9139246940612793,32.66996426517542,32.42120021776847,130.4570431620347,118.17559096486109,3.237724376958795e-05,0.0939245000481605,0,0,0
10930,381580.0154912821,2010-11-06 00:23:48,2071.0555334554333,2,34,0.5499359965324402,3.915543556213379,32.67455118403135,32.42120021776847,130.47499988561466,118.17559096486109,6.47544875391759e-05,0.0939245000481605,0,0,0
10931,381610.0307903513,2010-11-06 00:24:18,2101.070832524648,2,34,0.5501165986061096,3.9168386459350586,32.67913807319131,32.42120021776847,130.49296268772397,118.17559096486109,3.237724376958795e-05,0.0939245000481605,0,0,0
10932,381640.0461137112,2010-11-06 00:24:48,2131.0861558844963,2,34,0.5501165986061096,3.918295621871948,32.68372490528127,32.42120021776847,130.51093177844857,118.17559096486109,3.237724376958795e-05,0.0939245000481605,0,0,0
10933,381670.0614377627,2010-11-06 00:25:18,2161.101479916021,2,34,0.550297200679779,3.919590711593628,32.68831177168026,32.42120021776847,130.5289074700237,118.17559096486109,3.237724376958795e-05,0.0939245000481605,0,0,0
10934,381700.0768616936,2010-11-06 00:25:48,2191.11690386696,2,34,0.5501165986061096,3.9210476875305176,32.69289861914256,32.42120021776847,130.5468895958324,118.17559096486109,3.237724376958795e-05,0.0939245000481605,0,0,0
10935,381730.09222121874,2010-11-06 00:26:18,2221.13226336702,2,34,0.5501165986061096,3.9225046634674072,32.69748545432002,32.42120021776847,130.56487825183274,118.17559096486109,3.237724376958795e-05,0.0939245000481605,0,0,0
10936,381760.1074419774,2010-11-06 00:26:48,2251.14748412576,2,34,0.550297200679779,3.923961639404297,32.702072256264884,32.42120021776847,130.58287343676298,118.17559096486109,3.237724376958795e-05,0.0939245000481605,0,0,0
10937,381790.122769212,2010-11-06 00:27:18,2281.162811370305,2,34,0.5501165986061096,3.9254186153411865,32.70665910145962,32.42120021776847,130.6008754996725,118.17559096486109,3.237724376958795e-05,0.0939245000481605,0,0,0
10938,381820.1381392634,2010-11-06 00:27:48,2311.1781814417527,2,34,0.5501165986061096,3.926875591278076,32.71124601315531,32.42120021776847,130.61888440588956,118.17559096486109,3.237724376958795e-05,0.0939245000481605,0,0,0
10939,381850.1534433602,2010-11-06 00:28:18,2341.193485533505,2,34,0.5501165986061096,3.928332567214966,32.71583284025439,32.42120021776847,130.63689973357808,118.17559096486109,3.237724376958795e-05,0.0939245000481605,0,0,0
10940,381880.1687970807,2010-11-06 00:28:48,2371.208839254138,2,34,0.550297200679779,3.929789543151856,32.720419686120934,32.42120021776847,130.65492190552553,118.17559096486109,3.237724376958795e-05,0.0939245000481605,0,0,0
10941,381910.1841170471,2010-11-06 00:29:18,2401.224159195453,2,34,0.5501165986061096,3.931408405303955,32.72500657539063,32.42120021776847,130.67295115440416,118.17559096486109,6.47544875391759e-05,0.0939245000481605,0,0,0
10942,381940.1996529676,2010-11-06 00:29:48,2431.2396951158853,2,34,0.5501165986061096,3.9328653812408447,32.72959344347744,32.42120021776847,130.69098720499852,118.17559096486109,3.237724376958795e-05,0.0939245000481605,0,0,0
10943,381970.214914889,2010-11-06 00:30:18,2461.254957067449,2,34,0.5499359965324402,3.9343223571777344,32.73418034472943,32.42120021776847,130.7090303821508,118.17559096486109,6.47544875391759e-05,0.0939245000481605,0,0,0
10944,382000.23012112646,2010-11-06 00:30:48,2491.270163299929,2,34,0.5499359965324402,3.935779333114624,32.73876717871176,32.42120021776847,130.72708033333438,118.17559096486109,0.0,0.0939245000481605,0,0,0
10945,382030.24548307766,2010-11-06 00:31:18,2521.2855252561203,2,34,0.5501165986061096,3.9375600814819336,32.74335402832883,32.42120021776847,130.74513726771232,118.17559096486109,6.47544875391759e-05,0.0939245000481605,0,0,0
10946,382060.260799806,2010-11-06 00:31:48,2551.300841979403,2,34,0.550297200679779,3.9390170574188232,32.74794082370175,32.42120021776847,130.76320124340293,118.17559096486109,3.237724376958795e-05,0.0939245000481605,0,0,0
10947,382090.27612788766,2010-11-06 00:32:18,2581.316170030961,2,34,0.5501165986061096,3.940635919570923,32.75252761752541,32.42120021776847,130.7812724076688,118.17559096486109,3.237724376958795e-05,0.0939245000481605,0,0,0
10948,382120.29146595416,2010-11-06 00:32:48,2611.331508102533,2,34,0.5499359965324402,3.942092895507813,32.75711450747329,32.42120021776847,130.79935122020152,118.17559096486109,3.237724376958795e-05,0.0939245000481605,0,0,0
10949,382150.30681954446,2010-11-06 00:33:18,2641.346861697853,2,34,0.550297200679779,3.944035530090332,32.76170137549601,32.42120021776847,130.81743723241058,118.17559096486109,9.713172767078504e-05,0.0939245000481605,0,0,0
10950,382180.3222694452,2010-11-06 00:33:48,2671.3623115935543,2,34,0.5501165986061096,3.9454925060272217,32.76628828379776,32.42120021776847,130.8355307464294,118.17559096486109,6.47544875391759e-05,0.0939245000481605,0,0,0
10951,382210.33760184265,2010-11-06 00:34:18,2701.3776439959747,2,34,0.550297200679779,3.947111368179321,32.7708751622956,32.42120021776847,130.85363161489082,118.17559096486109,3.237724376958795e-05,0.0939245000481605,0,0,0
10952,382240.35284502734,2010-11-06 00:34:48,2731.3928871857056,2,34,0.550297200679779,3.948730230331421,32.775462009898305,32.42120021776847,130.87173980873317,118.17559096486109,6.47544875391759e-05,0.0939245000481605,0,0,0
10953,382270.3681461266,2010-11-06 00:35:18,2761.408188300026,2,34,0.5501165986061096,3.950349092483521,32.78004886340042,32.42120021776847,130.8898556114824,118.17559096486109,6.47544875391759e-05,0.0939245000481605,0,0,0
10954,382300.38348891,2010-11-06 00:35:49,2791.4235310833574,2,34,0.5499359965324402,3.95196795463562,32.78463568618966,32.42120021776847,130.90797894350183,118.17559096486109,3.237724376958795e-05,0.0939245000481605,0,0,0
10955,382330.3988199089,2010-11-06 00:36:19,2821.4388620822747,2,34,0.5501165986061096,3.9537487030029297,32.7892225359442,32.42120021776847,130.9261100481063,118.17559096486109,3.237724376958795e-05,0.0939245000481605,0,0,0
10956,382360.4141474842,2010-11-06 00:36:49,2851.454189632583,2,34,0.5501165986061096,3.9555294513702393,32.793809417262985,32.42120021776847,130.9442490414694,118.17559096486109,6.47544875391759e-05,0.0939245000481605,0,0,0
10957,382390.42949230265,2010-11-06 00:37:19,2881.4695344760576,2,34,0.5501165986061096,3.956986427307129,32.79839633474497,32.42120021776847,130.96239602195274,118.17559096486109,3.237724376958795e-05,0.0939245000481605,0,0,0
10958,382420.4449791405,2010-11-06 00:37:49,2911.4850212889096,2,34,0.550297200679779,3.958929061889648,32.8029832383936,32.42120021776847,130.9805506895887,118.17559096486109,6.47544875391759e-05,0.0939245000481605,0,0,0
10959,382450.4601676488,2010-11-06 00:38:19,2941.500209797148,2,34,0.550297200679779,3.960547924041748,32.80757013212867,32.42120021776847,130.99871326474752,118.17559096486109,3.237724376958795e-05,0.0939245000481605,0,0,0
10960,382480.47564332886,2010-11-06 00:38:49,2971.5156854872357,2,34,0.5501165986061096,3.9623286724090576,32.81215703765184,32.42120021776847,131.01688389039975,118.17559096486109,6.47544875391759e-05,0.0939245000481605,0,0,0
10961,382510.49084292987,2010-11-06 00:39:19,3001.5308851082123,2,34,0.550297200679779,3.964271306991577,32.81674390953427,32.42120021776847,131.0350623540091,118.17559096486109,6.47544875391759e-05,0.0939245000481605,0,0,0
10962,382540.5061602896,2010-11-06 00:39:49,3031.5462024380085,2,34,0.5501165986061096,3.965728282928467,32.821330786305985,32.42120021776847,131.05324899442127,118.17559096486109,3.237724376958795e-05,0.0939245000481605,0,0,0
10963,382570.5214801057,2010-11-06 00:40:19,3061.561522254011,2,34,0.550297200679779,3.9676709175109854,32.82591764749642,32.42120021776847,131.0714437315383,118.17559096486109,6.47544875391759e-05,0.0939245000481605,0,0,0
10964,382600.53686717455,2010-11-06 00:40:49,3091.576909322887,2,34,0.5501165986061096,3.969451665878296,32.83050458635766,32.42120021776847,131.08964701629264,118.17559096486109,6.47544875391759e-05,0.0939245000481605,0,0,0
10965,382630.55220540153,2010-11-06 00:41:19,3121.592247574908,2,34,0.550297200679779,3.9712324142456055,32.83509144540176,32.42120021776847,131.10785837445528,118.17559096486109,0.0,0.0939245000481605,0,0,0
10966,382660.56755532266,2010-11-06 00:41:49,3151.60759750107,2,34,0.5501165986061096,3.973013162612915,32.83967830352239,32.42120021776847,131.1260781445108,118.17559096486109,6.47544875391759e-05,0.0939245000481605,0,0,0
10967,382690.5828655096,2010-11-06 00:42:19,3181.6229076679865,2,34,0.550297200679779,3.9749557971954346,32.84426513588202,32.42120021776847,131.14430630471182,118.17559096486109,6.47544875391759e-05,0.0939245000481605,0,0,0
10968,382720.5982117767,2010-11-06 00:42:49,3211.638253955065,2,34,0.5501165986061096,3.976736545562744,32.848852001777594,32.42120021776847,131.1625431703262,118.17559096486109,3.237724376958795e-05,0.0939245000481605,0,0,0
10969,382750.6135511164,2010-11-06 00:43:19,3241.6535932948013,2,34,0.5501165986061096,3.978679180145264,32.85343893176142,32.42120021776847,131.18078857371972,118.17559096486109,3.237724376958795e-05,0.0939245000481605,0,0,0
10970,382780.62888663664,2010-11-06 00:43:49,3271.668928815004,2,34,0.5501165986061096,3.980621814727783,32.85802568499592,32.42120021776847,131.1990424385713,118.17559096486109,6.47544875391759e-05,0.0939245000481605,0,0,0
10971,382810.6442671742,2010-11-06 00:44:19,3301.6843093074635,2,34,0.5501165986061096,3.9824025630950928,32.862612526792056,32.42120021776847,131.21730550455104,118.17559096486109,3.237724376958795e-05,0.0939245000481605,0,0,0
10972,382840.6595571557,2010-11-06 00:44:49,3331.6995993290943,2,34,0.5501165986061096,3.984668970108032,32.86719924381403,32.42120021776847,131.23557695328213,118.17559096486109,9.713172767078504e-05,0.0939245000481605,0,0,0
10973,382870.67502425925,2010-11-06 00:45:19,3361.7150664327496,2,34,0.5501165986061096,3.986611604690552,32.87178604028442,32.42120021776847,131.25385782656528,118.17559096486109,3.237724376958795e-05,0.0939245000481605,0,0,0
10974,382900.6902585418,2010-11-06 00:45:49,3391.730300715247,2,34,0.550297200679779,3.9885542392730713,32.87637283765213,32.42120021776847,131.27214783598967,118.17559096486109,6.47544875391759e-05,0.0939245000481605,0,0,0
10975,382930.7055673956,2010-11-06 00:46:19,3421.7456095488355,2,34,0.5501165986061096,3.990496873855591,32.88095958195356,32.42120021776847,131.29044690719172,118.17559096486109,6.47544875391759e-05,0.0939245000481605,0,0,0
10976,382960.7209100083,2010-11-06 00:46:49,3451.7609521617424,2,34,0.5501165986061096,3.99260139465332,32.885546341551894,32.42120021776847,131.30875539841034,118.17559096486109,6.47544875391759e-05,0.0939245000481605,0,0,0
10977,382990.7362386865,2010-11-06 00:47:19,3481.7762808649286,2,34,0.5499359965324402,3.9945437908172607,32.890133089903905,32.42120021776847,131.32707327107218,118.17559096486109,3.237724376958795e-05,0.0939245000481605,0,0,0
10978,383020.75170655205,2010-11-06 00:47:49,3511.7917487054224,2,34,0.550297200679779,3.99697208404541,32.89471987813866,32.42120021776847,131.3454009293094,118.17559096486109,9.713172767078504e-05,0.0939245000481605,0,0,0
10979,383050.7669146542,2010-11-06 00:48:19,3541.80695682762,2,34,0.5501165986061096,3.99875283241272,32.899306629472655,32.42120021776847,131.36373808776912,118.17559096486109,0.0,0.0939245000481605,0,0,0
10980,383080.7822763448,2010-11-06 00:48:49,3571.8223185231595,2,34,0.5501165986061096,4.001019477844238,32.90389328287388,32.42120021776847,131.3820846407364,118.17559096486109,3.24249267578125e-05,0.0939245000481605,0,0,0
10981,383110.7975919302,2010-11-06 00:49:19,3601.8376340735144,2,34,0.5499359965324402,4.003285884857178,32.90848002064706,32.42120021776847,131.40044140230123,118.17559096486109,9.71794142969884e-05,0.0939245000481605,0,0,0
10982,383140.81293925486,2010-11-06 00:49:49,3631.8529814282574,2,34,0.5499359965324402,4.005390167236328,32.91306673560946,32.42120021776847,131.41880806596734,118.17559096486109,3.23295607813634e-05,0.0939245000481605,0,0,0
10983,383170.8283948398,2010-11-06 00:50:19,3661.8684369880966,2,34,0.5501165986061096,4.007656574249268,32.91765347886408,32.42120021776847,131.43718505313714,118.17559096486109,6.47544875391759e-05,0.0939245000481605,0,0,0
10984,383200.8436134983,2010-11-06 00:50:49,3691.8836556716574,2,34,0.5501165986061096,4.009922981262207,32.92224022034599,32.42120021776847,131.45557223237546,118.17559096486109,6.47544875391759e-05,0.0939245000481605,0,0,0
10985,383230.85891586565,2010-11-06 00:51:19,3721.898958044118,2,34,0.5501165986061096,4.0121893882751465,32.92682693956334,32.42120021776847,131.47396959836652,118.17559096486109,3.23295607813634e-05,0.0939245000481605,0,0,0
10986,383260.87425470416,2010-11-06 00:51:49,3751.9142968775914,2,34,0.5501165986061096,4.014455795288086,32.931413659860155,32.42120021776847,131.49237738499428,118.17559096486109,6.47544875391759e-05,0.0939245000481605,0,0,0
10987,383290.88963412907,2010-11-06 00:52:19,3781.9296762773233,2,34,0.550297200679779,4.016722202301025,32.936000435264724,32.42120021776847,131.5107959117135,118.17559096486109,3.23295607813634e-05,0.0939245000481605,0,0,0
10988,383320.90504999977,2010-11-06 00:52:49,3811.9450921531056,2,34,0.5501165986061096,4.018988609313965,32.94058719464915,32.42120021776847,131.52922497036403,118.17559096486109,6.47544875391759e-05,0.0939245000481605,0,0,0
10989,383350.9228860466,2010-11-06 00:53:19,3841.9629283052695,2,34,0.5501165986061096,4.021417140960693,32.94517438717209,32.42120021776847,131.5476663137735,118.17559096486109,3.24249267578125e-05,0.0939245000481605,0,0,0
10990,383380.9361937751,2010-11-06 00:53:49,3871.976235953592,2,34,0.5501165986061096,4.023683547973633,32.94976085635848,32.42120021776847,131.56611558718382,118.17559096486109,6.47544875391759e-05,0.0939245000481605,0,0,0
10991,383410.9509785356,2010-11-06 00:54:19,3901.9910206989753,2,34,0.5501165986061096,4.026111602783203,32.95434751650914,32.42120021776847,131.58457643301662,118.17559096486109,9.70840483205393e-05,0.0939245000481605,0,0,0
10992,383440.96627370006,2010-11-06 00:54:49,3932.0063158484063,2,34,0.550297200679779,4.028540134429932,32.95893422401458,32.42120021776847,131.6030484384023,118.17559096486109,6.47544875391759e-05,0.0939245000481605,0,0,0
10993,383470.9816266137,2010-11-06 00:55:19,3962.021668787088,2,34,0.5501165986061096,4.030968189239502,32.96352103549516,32.42120021776847,131.62153185825753,118.17559096486109,6.47544875391759e-05,0.0939245000481605,0,0,0
10994,383500.9969828406,2010-11-06 00:55:49,3992.037024993928,2,34,0.5501165986061096,4.033234596252441,32.96810780399302,32.42120021776847,131.6400261488494,118.17559096486109,3.23295607813634e-05,0.0939245000481605,0,0,0
10995,383531.0123701751,2010-11-06 00:56:19,4022.0524124387416,2,34,0.5501165986061096,4.035824775695801,32.97269462603914,32.42120021776847,131.65853177192224,118.17559096486109,9.71794142969884e-05,0.0939245000481605,0,0,0
10996,383561.0276256906,2010-11-06 00:56:49,4052.067667869027,2,34,0.5499359965324402,4.03809118270874,32.97728139785546,32.42120021776847,131.67704851819445,118.17559096486109,3.24249267578125e-05,0.0939245000481605,0,0,0
10997,383591.04297578224,2010-11-06 00:57:19,4082.0830179606014,2,34,0.5501165986061096,4.0406813621521,32.98186815466054,32.42120021776847,131.69557661506855,118.17559096486109,6.47544875391759e-05,0.0939245000481605,0,0,0
10998,383621.058437322,2010-11-06 00:57:49,4112.098479480318,2,34,0.550297200679779,4.04343318939209,32.98645493885968,32.42120021776847,131.71411645193,118.17559096486109,9.70840483205393e-05,0.0939245000481605,0,0,0
10999,383651.073634933,2010-11-06 00:58:19,4142.113677106316,2,34,0.5499359965324402,4.045861721038818,32.991041731348055,32.42120021776847,131.7326679457421,118.17559096486109,9.71794142969884e-05,0.0939245000481605,0,0,0
11000,383681.08897128014,2010-11-06 00:58:49,4172.129013428519,2,34,0.5501165986061096,4.048289775848389,32.99562849309829,32.42120021776847,131.75123097753576,118.17559096486109,6.47544875391759e-05,0.0939245000481605,0,0,0
11001,383711.10432492057,2010-11-06 00:59:19,4202.144367068953,2,34,0.550297200679779,4.051042079925537,33.00021530803528,32.42120021776847,131.76980606729373,118.17559096486109,0.0001295089750783,0.0939245000481605,0,0,0
11002,383741.1196857189,2010-11-06 00:59:49,4232.159727897329,2,34,0.5501165986061096,4.0536322593688965,33.004802131384,32.42120021776847,131.78839311493405,118.17559096486109,6.47544875391759e-05,0.0939245000481605,0,0,0
11003,383771.1349859511,2010-11-06 01:00:19,4262.175028129446,2,34,0.5497553944587708,4.056060314178467,33.00938897836027,32.42120021776847,131.80699234129273,118.17559096486109,3.23295607813634e-05,0.0939245000481605,0,0,0
11004,383801.1504492152,2010-11-06 01:00:49,4292.190491363442,2,34,0.5501165986061096,4.058974266052246,33.0139758535588,32.42120021776847,131.82560379781071,118.17559096486109,9.70840483205393e-05,0.0939245000481605,0,0,0
11005,383831.1656720841,2010-11-06 01:01:19,4322.205714257512,2,34,0.5501165986061096,4.061402797698975,33.018562637352794,32.42120021776847,131.8442269782687,118.17559096486109,3.24249267578125e-05,0.0939245000481605,0,0,0
11006,383861.1812087615,2010-11-06 01:01:49,4352.221250914783,2,34,0.5501165986061096,4.064316749572754,33.023149420603104,32.42120021776847,131.86286238096935,118.17559096486109,9.71794142969884e-05,0.0939245000481605,0,0,0
11007,383891.19645970553,2010-11-06 01:02:19,4382.2365018538585,2,34,0.5501165986061096,4.066906929016113,33.02773620209411,32.42120021776847,131.88151025456418,118.17559096486109,6.47544875391759e-05,0.0939245000481605,0,0,0
11008,383921.21169235895,2010-11-06 01:02:49,4412.251734537364,2,34,0.5501165986061096,4.069820880889893,33.03232298090855,32.42120021776847,131.90017072854877,118.17559096486109,9.71794142969884e-05,0.0939245000481605,0,0,0
11009,383951.22713352286,2010-11-06 01:03:19,4442.26717568122,2,34,0.5501165986061096,4.072411060333252,33.03690975682115,32.42120021776847,131.91884391749832,118.17559096486109,6.47544875391759e-05,0.0939245000481605,0,0,0
11010,383981.2423597503,2010-11-06 01:03:49,4472.28240190861,2,34,0.550297200679779,4.075325012207031,33.041496501035006,32.42120021776847,131.9375297679465,118.17559096486109,9.71794142969884e-05,0.0939245000481605,0,0,0
11011,384011.25766495976,2010-11-06 01:04:19,4502.297707138203,2,34,0.550297200679779,4.0782389640808105,33.04608327517749,32.42120021776847,131.9562286452859,118.17559096486109,9.71794142969884e-05,0.0939245000481605,0,0,0
11012,384041.2729951317,2010-11-06 01:04:49,4532.313037305043,2,34,0.5501165986061096,4.080990791320801,33.050670099709386,32.42120021776847,131.97494081058886,118.17559096486109,9.70840483205393e-05,0.0939245000481605,0,0,0
11013,384071.28839201,2010-11-06 01:05:19,4562.328434183404,2,34,0.5501165986061096,4.08390474319458,33.05525688241396,32.42120021776847,131.99366577640768,118.17559096486109,6.47544875391759e-05,0.0939245000481605,0,0,0
11014,384101.30385745456,2010-11-06 01:05:49,4592.343899607867,2,34,0.5501165986061096,4.086818695068359,33.05984371870211,32.42120021776847,132.01240420033284,118.17559096486109,6.47544875391759e-05,0.0939245000481605,0,0,0
11015,384131.319211892,2010-11-06 01:06:19,4622.3592540302525,2,34,0.5501165986061096,4.089570999145508,33.06443057585849,32.42120021776847,132.03115609944845,118.17559096486109,9.71794142969884e-05,0.0939245000481605,0,0,0
11016,384161.3345207656,2010-11-06 01:06:49,4652.374562939029,2,34,0.5499359965324402,4.092484951019287,33.06901743666635,32.42120021776847,132.0499215275834,118.17559096486109,3.24249267578125e-05,0.0939245000481605,0,0,0
11017,384191.34974041657,2010-11-06 01:07:19,4682.389782590004,2,34,0.5501165986061096,4.095560550689697,33.07360417808565,32.42120021776847,132.0687001416031,118.17559096486109,6.47544875391759e-05,0.0939245000481605,0,0,0
11018,384221.36509448814,2010-11-06 01:07:50,4712.405136661513,2,34,0.5501165986061096,4.098636627197266,33.078190968558275,32.42120021776847,132.08749275281497,118.17559096486109,6.47544875391759e-05,0.0939245000481605,0,0,0
11019,384251.3804075823,2010-11-06 01:08:20,4742.420449760749,2,34,0.5501165986061096,4.101550579071045,33.082777828072935,32.42120021776847,132.10629955262695,118.17559096486109,6.47544875391759e-05,0.0939245000481605,0,0,0
11020,384281.3958809717,2010-11-06 01:08:50,4772.435923120019,2,34,0.5501165986061096,4.104626178741455,33.08736460846604,32.42120021776847,132.12511990320036,118.17559096486109,6.47544875391759e-05,0.0939245000481605,0,0,0
11021,384311.4110822218,2010-11-06 01:09:20,4802.451124370062,2,34,0.5501165986061096,4.107702255249023,33.0919521374035,32.42120021776847,132.1439575416284,118.17559096486109,6.47544875391759e-05,0.0939245000481605,0,0,0
11022,384341.4264475864,2010-11-06 01:09:50,4832.466489734761,2,34,0.5504778623580933,4.110939979553223,33.09653973762332,32.42120021776847,132.16280968430897,118.17559096486109,6.47544875391759e-05,0.0939245000481605,0,0,0
11023,384371.4419225648,2010-11-06 01:10:20,4862.481964723097,2,34,0.5499359965324402,4.114015579223633,33.10112663335095,32.42120021776847,132.18167309271757,118.17559096486109,6.47544875391759e-05,0.0939245000481605,0,0,0
11024,384401.4571464162,2010-11-06 01:10:50,4892.497188564533,2,34,0.5501165986061096,4.117253303527832,33.1057134321361,32.42120021776847,132.2005506068058,118.17559096486109,6.47544875391759e-05,0.0939245000481605,0,0,0
11025,384431.4724617159,2010-11-06 01:11:20,4922.512503884311,2,34,0.5501165986061096,4.120328903198242,33.11029958769122,32.42120021776847,132.21943988051504,118.17559096486109,9.70840483205393e-05,0.0939245000481605,0,0,0
11026,384461.4878053514,2010-11-06 01:11:50,4952.52784751977,2,34,0.5499359965324402,4.1234049797058105,33.11488545272673,32.42120021776847,132.23834255372256,118.17559096486109,6.47544875391759e-05,0.0939245000481605,0,0,0
11027,384491.5031316687,2010-11-06 01:12:20,4982.543173806926,2,34,0.5499359965324402,4.12664270401001,33.119471268926,32.42120021776847,132.25725977436394,118.17559096486109,3.24249267578125e-05,0.0939245000481605,0,0,0
11028,384521.5184715096,2010-11-06 01:12:50,5012.558513647913,2,34,0.5501165986061096,4.13004207611084,33.12405714216281,32.42120021776847,132.27619203364773,118.17559096486109,6.47544875391759e-05,0.0939245000481605,0,0,0
11029,384551.5338365836,2010-11-06 01:13:20,5042.573878726898,2,34,0.5501165986061096,4.133279800415039,33.12864361014952,32.42120021776847,132.2951417963146,118.17559096486109,6.47544875391759e-05,0.0939245000481605,0,0,0
11030,384581.5491651565,2010-11-06 01:13:50,5072.589207299759,2,34,0.550297200679779,4.136679649353027,33.13323041018096,32.42120021776847,132.31410807460412,118.17559096486109,9.71794142969884e-05,0.0939245000481605,0,0,0
11031,384611.56448970427,2010-11-06 01:14:20,5102.6045318475735,2,34,0.5501165986061096,4.140079021453857,33.13781723085734,32.42120021776847,132.33308978341083,118.17559096486109,0.0001295089750783,0.0939245000481605,0,0,0
11032,384641.5798315903,2010-11-06 01:14:50,5132.619873758728,2,34,0.5501165986061096,4.143316745758057,33.14240406478144,32.42120021776847,132.35208686883843,118.17559096486109,0.0001295089750783,0.0939245000481605,0,0,0
11033,384671.5952914058,2010-11-06 01:15:20,5162.635333554142,2,34,0.5501165986061096,4.146716594696045,33.14699087459548,32.42120021776847,132.37109932679343,118.17559096486109,0.0001295089750783,0.0939245000481605,0,0,0
11034,384701.610537984,2010-11-06 01:15:50,5192.650580137343,2,34,0.5501165986061096,4.150115966796875,33.15157766417755,32.42120021776847,132.39012747123036,118.17559096486109,6.47544875391759e-05,0.0939245000481605,0,0,0
11035,384731.6258505168,2010-11-06 01:16:20,5222.665892685203,2,34,0.5501165986061096,4.153677463531494,33.15616438170729,32.42120021776847,132.40917103844168,118.17559096486109,0.0001295089750783,0.0939245000481605,0,0,0
11036,384761.6413321868,2010-11-06 01:16:50,5252.681374335167,2,34,0.5499359965324402,4.157077312469482,33.16075110434961,32.42120021776847,132.42823036363467,118.17559096486109,9.71794142969884e-05,0.0939245000481605,0,0,0
11037,384791.6566342986,2010-11-06 01:17:20,5282.696676446977,2,34,0.5501165986061096,4.1604766845703125,33.16533781916128,32.42120021776847,132.44730557884108,118.17559096486109,9.70840483205393e-05,0.0939245000481605,0,0,0
11038,384821.67223545694,2010-11-06 01:17:50,5312.712277595228,2,34,0.5501165986061096,4.164038181304932,33.169924667098336,32.42120021776847,132.46639738452376,118.17559096486109,9.70840483205393e-05,0.0939245000481605,0,0,0
11039,384851.6872361363,2010-11-06 01:18:20,5342.727278314716,2,34,0.5501165986061096,4.167599678039551,33.17451137254215,32.42120021776847,132.48550457479416,118.17559096486109,0.0001295089750783,0.0939245000481605,0,0,0
11040,384881.7026621875,2010-11-06 01:18:50,5372.742704345847,2,34,0.5501165986061096,4.17116117477417,33.179098116380494,32.42120021776847,132.50462820185768,118.17559096486109,9.70840483205393e-05,0.0939245000481605,0,0,0
11041,384911.7179975773,2010-11-06 01:19:20,5402.758039715674,2,34,0.5501165986061096,4.174561023712158,33.18368487072736,32.42120021776847,132.52376821963887,118.17559096486109,6.47544875391759e-05,0.0939245000481605,0,0,0
11042,384941.73321651656,2010-11-06 01:19:50,5432.773258654873,2,34,0.5501165986061096,4.178284168243408,33.18827162716698,32.42120021776847,132.54292458280133,118.17559096486109,9.70840483205393e-05,0.0939245000481605,0,0,0
11043,384971.74856737006,2010-11-06 01:20:20,5462.788609513362,2,34,0.5501165986061096,4.181845664978027,33.19285840659928,32.42120021776847,132.56209755198867,118.17559096486109,9.70840483205393e-05,0.0939245000481605,0,0,0
11044,385001.7640190602,2010-11-06 01:20:50,5492.804061203543,2,34,0.5499359965324402,4.185245513916016,33.19744524415485,32.42120021776847,132.5812873059208,118.17559096486109,6.47544875391759e-05,0.0939245000481605,0,0,0
11045,385031.7792251975,2010-11-06 01:21:20,5522.819267340785,2,34,0.5497553944587708,4.189130783081055,33.202031979965966,32.42120021776847,132.60049339564333,118.17559096486109,9.71794142969884e-05,0.0939245000481605,0,0,0
11046,385061.7945754344,2010-11-06 01:21:50,5552.834617577723,2,34,0.5501165986061096,4.192692279815674,33.20661876604042,32.42120021776847,132.6197165014908,118.17559096486109,6.47544875391759e-05,0.0939245000481605,0,0,0
11047,385091.8100275958,2010-11-06 01:22:20,5582.850069744092,2,34,0.5501165986061096,4.196577072143555,33.21120555836156,32.42120021776847,132.63895651473905,118.17559096486109,0.0001295089750783,0.0939245000481605,0,0,0
11048,385118.6221462338,2010-11-06 01:22:47,5609.662188377141,2,34,0.550297200679779,4.200138568878174,33.215302783850376,32.42120021776847,132.65615741489,118.17559096486109,0.0001942634553415,0.0939245000481605,0,0,0
11049,385148.6297044351,2010-11-06 01:23:17,30.015324838539275,3,34,0.0,4.116605758666992,33.215302783850376,32.42120021776847,132.65615741489,118.17559096486109,-0.0003561019839253,0.0939245000481605,0,0,0
11050,385178.64503865707,2010-11-06 01:23:47,60.03065908055108,3,34,0.0,4.106407165527344,33.215302783850376,32.42120021776847,132.65615741489,118.17559096486109,-0.0001942634553415,0.0939245000481605,0,0,0
11051,385208.6603831747,2010-11-06 01:24:17,90.04600357816241,3,34,0.0,4.100417137145996,33.215302783850376,32.42120021776847,132.65615741489,118.17559096486109,-0.0001619339018361,0.0939245000481605,0,0,0
11052,385238.62883858994,2010-11-06 01:24:47,120.01445901346052,3,34,0.0,4.096855640411377,33.215302783850376,32.42120021776847,132.65615741489,118.17559096486109,-3.24249267578125e-05,0.0939245000481605,0,0,0
11053,385238.6375921156,2010-11-06 01:24:47,0.015371619928205,4,34,0.9810503721237184,4.199653148651123,33.215306972831925,32.42120021776847,132.65617500715956,118.17559096486109,0.0,0.0939245000481605,0,0,0
11054,385239.5438264009,2010-11-06 01:24:48,0.921605854999595,4,34,0.9301185607910156,4.199491024017334,33.21554579496637,32.42120021776847,132.65717797704244,118.17559096486109,-3.24249267578125e-05,0.0939245000481605,0,0,0
11055,385241.71572373074,2010-11-06 01:24:50,3.093503214948082,4,34,0.8797285556793213,4.199653148651123,33.21609064122789,32.42120021776847,132.6594661343539,118.17559096486109,0.0,0.0939245000481605,0,0,0
11056,385245.04377468285,2010-11-06 01:24:53,6.42155413204499,4,34,0.8296997547149658,4.199814796447754,33.21687950642833,32.42120021776847,132.66277910010993,118.17559096486109,3.23295607813634e-05,0.0939245000481605,0,0,0
11057,385249.590630279,2010-11-06 01:24:58,10.968409728129062,4,34,0.7796710133552551,4.199814796447754,33.21789438970917,32.42120021776847,132.66704127954426,118.17559096486109,3.23295607813634e-05,0.0939245000481605,0,0,0
11058,385255.5749191046,2010-11-06 01:25:04,16.9526985536975,4,34,0.7294616103172302,4.199814796447754,33.21914724868084,32.42120021776847,132.6723028809966,118.17559096486109,6.47544875391759e-05,0.0939245000481605,0,0,0
11059,385263.5124761782,2010-11-06 01:25:12,24.89025563232839,4,34,0.6794328689575195,4.199814796447754,33.2206985128145,32.42120021776847,132.67881771259945,118.17559096486109,0.0,0.0939245000481605,0,0,0
11060,385274.23101264425,2010-11-06 01:25:23,35.60879209835319,4,34,0.6292234659194946,4.199491024017334,33.222642933958795,32.42120021776847,132.6869836538613,118.17559096486109,-3.24249267578125e-05,0.0939245000481605,0,0,0
11061,385289.4653608611,2010-11-06 01:25:38,50.84314035033603,4,34,0.5791947245597839,4.199653148651123,33.225193192851926,32.42120021776847,132.69769391985236,118.17559096486109,0.0,0.0939245000481605,0,0,0
11062,385313.0587647821,2010-11-06 01:26:02,74.43654424120209,4,34,0.5288047194480896,4.199653148651123,33.22881276319595,32.42120021776847,132.71289497152645,118.17559096486109,-3.23295607813634e-05,0.0939245000481605,0,0,0
11063,385355.10522334126,2010-11-06 01:26:44,116.4830027954394,4,34,0.4787759482860565,4.199653148651123,33.23467092973528,32.42120021776847,132.73749739213693,118.17559096486109,3.24249267578125e-05,0.0939245000481605,0,0,0
11064,385427.385796933,2010-11-06 01:27:56,188.7635763922252,4,34,0.4287471771240234,4.199814796447754,33.2437457555057,32.42120021776847,132.77560883758716,118.17559096486109,0.0,0.0939245000481605,0,0,0
11065,385530.3380470983,2010-11-06 01:29:39,291.71582656747034,4,34,0.3787184059619903,4.199491024017334,33.25527028077043,32.42120021776847,132.82400826421298,118.17559096486109,-3.24249267578125e-05,0.0939245000481605,0,0,0
11066,385655.0398911109,2010-11-06 01:31:43,416.4176705649873,4,34,0.3286896347999573,4.199491024017334,33.267505411813055,32.42120021776847,132.8753920140751,118.17559096486109,-3.24249267578125e-05,0.0939245000481605,0,0,0
11067,385802.42919502873,2010-11-06 01:34:11,563.8069744828438,4,34,0.2786608636379242,4.199491024017334,33.27992965597956,32.42120021776847,132.92756997914333,118.17559096486109,-3.24249267578125e-05,0.0939245000481605,0,0,0
11068,385980.9274900493,2010-11-06 01:37:09,742.305269508504,4,34,0.2286321073770523,4.199653148651123,33.29248688389177,32.42120021776847,132.98030640956367,118.17559096486109,0.0,0.0939245000481605,0,0,0
11069,386203.613049876,2010-11-06 01:40:52,964.9908293451732,4,34,0.1786033362150192,4.199653148651123,33.305034584663176,32.42120021776847,133.03300279001562,118.17559096486109,-3.23295607813634e-05,0.0939245000481605,0,0,0
11070,386511.2973749424,2010-11-06 01:46:00,1272.6751544115891,4,34,0.1285745650529861,4.199653148651123,33.318062334355915,32.42120021776847,133.08771519426605,118.17559096486109,-3.23295607813634e-05,0.0939245000481605,0,0,0
11071,387013.8708340853,2010-11-06 01:54:22,1775.248613549591,4,34,0.078545793890953,4.199491024017334,33.332225071289336,32.42120021776847,133.14719405920542,118.17559096486109,-3.24249267578125e-05,0.0939245000481605,0,0,0
11072,387523.7565843721,2010-11-06 02:02:52,2285.1343638312555,4,34,0.0498289167881011,4.199653148651123,33.341198214556954,32.42120021776847,133.18487844347024,118.17559096486109,0.0,0.0939245000481605,0,0,0
11073,387553.7713544757,2010-11-06 02:03:22,30.01538471299513,5,34,0.0,4.192044734954834,33.341198214556954,32.42120021776847,133.18487844347024,118.17559096486109,0.0,0.0939245000481605,0,0,0
11074,387583.771045219,2010-11-06 02:03:52,60.015075451415264,5,34,0.0,4.190749645233154,33.341198214556954,32.42120021776847,133.18487844347024,118.17559096486109,-3.23295607813634e-05,0.0939245000481605,0,0,0
11075,387583.95844946685,2010-11-06 02:03:53,0.187446304814711,6,34,-1.9243103452026844e-05,4.190749645233154,33.341198214556954,32.42120021877043,133.18487844347024,118.17559096906004,0.0,0.0939245000481605,0,0,0
11076,387588.7865190563,2010-11-06 02:03:58,5.015515904315001,6,34,0.0010644125286489,4.190911293029785,33.34119899223321,32.42120021885423,133.18488170265192,118.17559096941125,3.23295607813634e-05,0.0939245000481605,0,0,0
11077,387618.8020851362,2010-11-06 02:04:28,30.01542833688708,7,34,-1.0997490882873535,4.018826961517334,33.34119899223321,32.43036972456347,133.18488170265192,118.21263017391271,-0.0008741378551349,0.0939245000481605,0,0,0
11078,387648.81734896736,2010-11-06 02:04:58,60.03069207791757,7,34,-1.099929690361023,3.99308705329895,33.34119899223321,32.43953910673934,133.18488170265192,118.24935303721756,-0.0005503654247149,0.0939245000481605,0,0,0
11079,387678.8327031842,2010-11-06 02:05:28,90.04604627473964,7,34,-1.099929690361023,3.9752795696258554,33.34119899223321,32.44870850307583,133.18488170265192,118.28588178660657,-0.0004209041653666,0.0939245000481605,0,0,0
11080,387708.84801344137,2010-11-06 02:05:58,120.061356526869,7,34,-1.0997490882873535,3.961519241333008,33.34119899223321,32.457877822192415,133.18488170265192,118.32226738393872,-0.0003237724304199,0.0939245000481605,0,0,0
11081,387738.86335683626,2010-11-06 02:06:28,150.0766999217277,7,34,-1.099568486213684,3.949539661407471,33.34119899223321,32.46704716153768,133.18488170265192,118.35853613310286,-0.0003237724304199,0.0939245000481605,0,0,0
11082,387768.8787011985,2010-11-06 02:06:58,180.09204428901373,7,34,-1.0997490882873535,3.9390170574188232,33.34119899223321,32.47621653804412,133.18488170265192,118.39470248012216,-0.0002913951757363,0.0939245000481605,0,0,0
11083,387798.8940453152,2010-11-06 02:07:28,210.10738840066165,7,34,-1.0997490882873535,3.929141998291016,33.34119899223321,32.485385867330315,133.18488170265192,118.43077453709438,-0.0002266406954731,0.0939245000481605,0,0,0
11084,387828.9094500933,2010-11-06 02:07:58,240.12279318375485,7,34,-1.099568486213684,3.919752597808838,33.34119899223321,32.494555249259484,133.18488170265192,118.46675817788235,-0.0002590179501567,0.0939245000481605,0,0,0
11085,387858.924722551,2010-11-06 02:08:28,270.1380656465562,7,34,-1.0997490882873535,3.910525321960449,33.34119899223321,32.50372461557259,133.18488170265192,118.50265737043432,-0.0002590179501567,0.0939245000481605,0,0,0
11086,387888.9400460913,2010-11-06 02:08:58,300.1533891768298,7,34,-1.0997490882873535,3.901945352554321,33.34119899223321,32.512893969310326,133.18488170265192,118.53847516424862,-0.0002266406954731,0.0939245000481605,0,0,0
11087,387918.9554008546,2010-11-06 02:09:28,330.1687439400658,7,34,-1.099929690361023,3.893365383148194,33.34119899223321,32.52206332046137,133.18488170265192,118.57421389464444,-0.0002590179501567,0.0939245000481605,0,0,0
11088,387948.9707286956,2010-11-06 02:09:58,360.18407178109976,7,34,-1.099929690361023,3.885109186172485,33.34119899223321,32.53123269115015,133.18488170265192,118.6098757098019,-0.0001942634553415,0.0939245000481605,0,0,0
11089,387978.9860903912,2010-11-06 02:10:28,390.1994334766398,7,34,-1.0997490882873535,3.876852989196777,33.34119899223321,32.54040209398761,133.18488170265192,118.64546094543653,-0.0001942634553415,0.0939245000481605,0,0,0
11090,388009.00243494,2010-11-06 02:10:58,420.21577804558297,7,34,-1.099929690361023,3.868596792221069,33.34119899223321,32.54957177185157,133.18488170265192,118.6809723502526,-0.0002266406954731,0.0939245000481605,0,0,0
11091,388039.0167957122,2010-11-06 02:11:28,450.2301388076391,7,34,-1.0997490882873535,3.8605024814605713,33.34119899223321,32.558740856431825,133.18488170265192,118.71640758507316,-0.0002266406954731,0.0939245000481605,0,0,0
11092,388069.0323823191,2010-11-06 02:11:58,480.2457255298803,7,34,-1.0997490882873535,3.852731943130493,33.34119899223321,32.56791033218224,133.18488170265192,118.75177176513992,-0.0001942634553415,0.0939245000481605,0,0,0
11093,388099.0476754735,2010-11-06 02:12:28,510.2610186843313,7,34,-1.0997490882873535,3.845123291015625,33.34119899223321,32.57707973752371,133.18488170265192,118.78706405517622,-0.0001618862152099,0.0939245000481605,0,0,0
11094,388129.0627633255,2010-11-06 02:12:58,540.2761064160153,7,34,-1.0997490882873535,3.837514638900757,33.34119899223321,32.586249025451764,133.18488170265192,118.82228541227974,-0.0001942634553415,0.0939245000481605,0,0,0
11095,388159.0782585995,2010-11-06 02:13:28,570.2916016899877,7,34,-1.0993878841400146,3.8300681114196777,33.34119899223321,32.595418513657044,133.18488170265192,118.85743837354988,-0.0001942634553415,0.0939245000481605,0,0,0
11096,388189.09346149367,2010-11-06 02:13:58,600.3068045791225,7,34,-1.0997490882873535,3.82262134552002,33.34119899223321,32.60458788964988,133.18488170265192,118.892522999804,-0.0001618862152099,0.0939245000481605,0,0,0
11097,388219.10890706856,2010-11-06 02:14:28,630.3222501540383,7,34,-1.099568486213684,3.815498352050781,33.34119899223321,32.61375730036659,133.18488170265192,118.9275412345284,-0.0001942634553415,0.0939245000481605,0,0,0
11098,388249.12412226346,2010-11-06 02:14:58,660.3374653488902,7,34,-1.0997490882873535,3.808213472366333,33.34119899223321,32.62292666601584,133.18488170265192,118.96249339320384,-0.0001942634553415,0.0939245000481605,0,0,0
11099,388279.1394795229,2010-11-06 02:15:28,690.3528226083571,7,34,-1.0997490882873535,3.8012523651123047,33.34119899223321,32.632096083068134,133.18488170265192,118.99738154496976,-0.0001942634553415,0.0939245000481605,0,0,0
11100,388309.1550415384,2010-11-06 02:15:58,720.3683846289392,7,34,-1.099568486213684,3.794615030288696,33.34119899223321,32.64126549494679,133.18488170265192,119.03220676830244,-0.0001618862152099,0.0939245000481605,0,0,0
11101,388339.170143616,2010-11-06 02:16:28,750.38348670142,7,34,-1.0997490882873535,3.787653923034668,33.34119899223321,32.650434813862525,133.18488170265192,119.066969448717,-0.0002266406954731,0.0939245000481605,0,0,0
11102,388369.1854847953,2010-11-06 02:16:58,780.3988278857611,7,34,-1.1001102924346924,3.7811784744262695,33.34119899223321,32.65960420954404,133.18488170265192,119.10167149141871,-0.0001942634553415,0.0939245000481605,0,0,0
11103,388399.2008416136,2010-11-06 02:17:28,810.4141847091394,7,34,-1.0997490882873535,3.775026798248291,33.34119899223321,32.668773651830165,133.18488170265192,119.13631449523749,-0.0001295089750783,0.0939245000481605,0,0,0
11104,388429.2161677003,2010-11-06 02:17:58,840.4295107857691,7,34,-1.099568486213684,3.768713235855103,33.34119899223321,32.67794307694556,133.18488170265192,119.17089929075892,-0.0001295089750783,0.0939245000481605,0,0,0
11105,388459.2315156515,2010-11-06 02:18:28,870.4448587370011,7,34,-1.099929690361023,3.762399673461914,33.34119899223321,32.687112465430125,133.18488170265192,119.20542690305273,-0.0001942634553415,0.0939245000481605,0,0,0
11106,388489.24756477296,2010-11-06 02:18:58,900.4609078785122,7,34,-1.0997490882873535,3.7564098834991455,33.34119899223321,32.69628204321647,133.18488170265192,119.23989951050764,-0.0001618862152099,0.0939245000481605,0,0,0
11107,388519.2625208912,2010-11-06 02:19:28,930.475864066844,7,34,-1.099568486213684,3.750905990600586,33.34119899223321,32.70545140642217,133.18488170265192,119.27431721351788,-9.713172767078504e-05,0.0939245000481605,0,0,0
11108,388549.2776578006,2010-11-06 02:19:58,960.4910008960828,7,34,-1.099929690361023,3.7445924282073975,33.34119899223321,32.71462079002535,133.18488170265192,119.30868163986835,-0.0002266406954731,0.0939245000481605,0,0,0
11109,388579.2928688752,2010-11-06 02:20:28,990.5062119606248,7,34,-1.0997490882873535,3.7392501831054688,33.34119899223321,32.72379021817351,133.18488170265192,119.34299317583915,-9.713172767078504e-05,0.0939245000481605,0,0,0
11110,388609.30811269645,2010-11-06 02:20:58,1020.5214557819326,7,34,-1.0997490882873535,3.73358416557312,33.34119899223321,32.732959666164255,133.18488170265192,119.37725341350357,-0.0001295089750783,0.0939245000481605,0,0,0
11111,388639.3235542513,2010-11-06 02:21:28,1050.5368973668888,7,34,-1.0997490882873535,3.728241920471192,33.34119899223321,32.742129126416486,133.18488170265192,119.4114633997229,-0.0001618862152099,0.0939245000481605,0,0,0
11112,388669.3388844082,2010-11-06 02:21:58,1080.5522274986408,7,34,-1.099929690361023,3.722899675369263,33.34119899223321,32.75129855277012,133.18488170265192,119.44562440677367,-0.0001618862152099,0.0939245000481605,0,0,0
11113,388699.3543822335,2010-11-06 02:22:28,1110.567725323982,7,34,-1.0997490882873535,3.717557430267334,33.34119899223321,32.76046803485624,133.18488170265192,119.4797363643798,-9.713172767078504e-05,0.0939245000481605,0,0,0
11114,388729.36958207,2010-11-06 02:22:58,1140.5829251604966,7,34,-1.099929690361023,3.712215185165405,33.34119899223321,32.769637428823685,133.18488170265192,119.5137996721978,-0.0001618862152099,0.0939245000481605,0,0,0
11115,388759.38491697866,2010-11-06 02:23:28,1170.5982600641605,7,34,-1.0997490882873535,3.707196712493897,33.34119899223321,32.778806871279414,133.18488170265192,119.54781526319994,-0.0001295089750783,0.0939245000481605,0,0,0
11116,388789.40025060414,2010-11-06 02:23:58,1200.613593689633,7,34,-1.0997490882873535,3.701854467391968,33.34119899223321,32.787976355957355,133.18488170265192,119.58178330461296,-0.0001618862152099,0.0939245000481605,0,0,0
11117,388819.4155901244,2010-11-06 02:24:28,1230.6289332148324,7,34,-1.099929690361023,3.696835994720459,33.34119899223321,32.79714578881832,133.18488170265192,119.61570402899488,-9.713172767078504e-05,0.0939245000481605,0,0,0
11118,388849.43093525857,2010-11-06 02:24:58,1260.6442783440202,7,34,-1.0997490882873535,3.69181752204895,33.34119899223321,32.806315302139986,133.18488170265192,119.64957843368,-9.713172767078504e-05,0.0939245000481605,0,0,0
11119,388879.4462943576,2010-11-06 02:25:28,1290.6596374430792,7,34,-1.0997490882873535,3.6867990493774414,33.34119899223321,32.815484770840484,133.18488170265192,119.6834064075412,-9.713172767078504e-05,0.0939245000481605,0,0,0
11120,388909.4616202187,2010-11-06 02:25:58,1320.674963304171,7,34,-1.099568486213684,3.682104349136353,33.34119899223321,32.82465421117228,133.18488170265192,119.7171893524786,-6.47544875391759e-05,0.0939245000481605,0,0,0
11121,388939.4769463053,2010-11-06 02:26:28,1350.6902893908257,7,34,-1.099568486213684,3.6772477626800537,33.34119899223321,32.83382375028373,133.18488170265192,119.75092809411215,-6.47544875391759e-05,0.0939245000481605,0,0,0
11122,388969.49243675225,2010-11-06 02:26:58,1380.705779847774,7,34,-1.0997490882873535,3.672391414642334,33.34119899223321,32.84299328635906,133.18488170265192,119.78462353578117,-0.0001294612884521,0.0939245000481605,0,0,0
11123,388999.50784458296,2010-11-06 02:27:28,1410.7211876684491,7,34,-1.0997490882873535,3.667696714401245,33.34119899223321,32.85216286740319,133.18488170265192,119.81827625706772,-0.0001295089750783,0.0939245000481605,0,0,0
11124,389029.5230877576,2010-11-06 02:27:58,1440.7364308481556,7,34,-1.0997490882873535,3.663163900375366,33.34119899223321,32.86133240613317,133.18488170265192,119.85188682670366,-0.0001295089750783,0.0939245000481605,0,0,0
11125,389059.5383238997,2010-11-06 02:28:28,1470.751666990295,7,34,-1.0997490882873535,3.6586310863494873,33.34119899223321,32.87050190831881,133.18488170265192,119.88545551555512,-9.713172767078504e-05,0.0939245000481605,0,0,0
11126,389089.5536446431,2010-11-06 02:28:58,1500.7669877285994,7,34,-1.0997490882873535,3.6542601585388175,33.34119899223321,32.87967141692302,133.18488170265192,119.9189834754627,-9.713172767078504e-05,0.0939245000481605,0,0,0
11127,389119.5690109352,2010-11-06 02:29:28,1530.7823540256254,7,34,-1.099568486213684,3.649889230728149,33.34119899223321,32.88884095608654,133.18488170265192,119.95247106148484,-0.0001295089750783,0.0939245000481605,0,0,0
11128,389149.5843333526,2010-11-06 02:29:58,1560.797676438109,7,34,-1.0997490882873535,3.645518302917481,33.34119899223321,32.89801047279485,133.18488170265192,119.98591876211768,-9.713172767078504e-05,0.0939245000481605,0,0,0
11129,389179.5996849078,2010-11-06 02:30:28,1590.8130279933373,7,34,-1.0997490882873535,3.6413092613220215,33.34119899223321,32.90717988944753,133.18488170265192,120.01932710064074,-0.0001295089750783,0.0939245000481605,0,0,0
11130,389209.6150348991,2010-11-06 02:30:58,1620.8283779846615,7,34,-1.099929690361023,3.637262105941773,33.34119899223321,32.916349372850895,133.18488170265192,120.0526973213202,-9.713172767078504e-05,0.0939245000481605,0,0,0
11131,389239.6303525748,2010-11-06 02:31:28,1650.8436956603214,7,34,-1.099568486213684,3.633214950561523,33.34119899223321,32.92551884044285,133.18488170265192,120.08603005272396,-9.713172767078504e-05,0.0939245000481605,0,0,0
11132,389269.6457909568,2010-11-06 02:31:58,1680.8591340422824,7,34,-1.0997490882873535,3.6291677951812735,33.34119899223321,32.934688314917345,133.18488170265192,120.11932642561936,-0.0001295089750783,0.0939245000481605,0,0,0
11133,389299.6610020214,2010-11-06 02:32:28,1710.874345101812,7,34,-1.099568486213684,3.625444412231445,33.34119899223321,32.94385773148185,133.18488170265192,120.15258633565792,-9.713172767078504e-05,0.0939245000481605,0,0,0
11134,389329.67644823785,2010-11-06 02:32:58,1740.889791313317,7,34,-1.099929690361023,3.621397256851196,33.34119899223321,32.95302716993888,133.18488170265192,120.18581106418968,-9.713172767078504e-05,0.0939245000481605,0,0,0
11135,389359.6916937083,2010-11-06 02:33:29,1770.9050367837408,7,34,-1.0997490882873535,3.617835760116577,33.34119899223321,32.96219656418152,133.18488170265192,120.21900098013084,-6.47544875391759e-05,0.0939245000481605,0,0,0
11136,389389.7070406821,2010-11-06 02:33:59,1800.9203837675582,7,34,-1.099568486213684,3.614274263381958,33.34119899223321,32.97136597777091,133.18488170265192,120.2521573837046,-9.713172767078504e-05,0.0939245000481605,0,0,0
11137,389419.7223919616,2010-11-06 02:34:29,1830.9357350470984,7,34,-1.0997490882873535,3.610712766647339,33.34119899223321,32.980535336880656,133.18488170265192,120.28528106900512,-9.713172767078504e-05,0.0939245000481605,0,0,0
11138,389449.73775380256,2010-11-06 02:34:59,1860.9510970032893,7,34,-1.0997490882873535,3.60747504234314,33.34119899223321,32.98970467918645,133.18488170265192,120.31837303566093,-3.237724376958795e-05,0.0939245000481605,0,0,0
11139,389479.7530592327,2010-11-06 02:35:29,1890.966402348169,7,34,-1.099929690361023,3.603913545608521,33.34119899223321,32.998874051047444,133.18488170265192,120.35143404197385,-9.713172767078504e-05,0.0939245000481605,0,0,0
11140,389509.76841387554,2010-11-06 02:35:59,1920.9817569610293,7,34,-1.0997490882873535,3.6006758213043213,33.34119899223321,33.00804338983348,133.18488170265192,120.38446476217204,-0.0001295089750783,0.0939245000481605,0,0,0
11141,389539.7837460123,2010-11-06 02:36:29,1950.9970890977863,7,34,-1.0997490882873535,3.597438097000122,33.34119899223321,33.01721272529442,133.18488170265192,120.41746589430733,-9.713172767078504e-05,0.0939245000481605,0,0,0
11142,389569.79919514107,2010-11-06 02:36:59,1981.0125382365984,7,34,-1.0997490882873535,3.5945241451263428,33.34119899223321,33.026382115734606,133.18488170265192,120.4504383339292,-3.237724376958795e-05,0.0939245000481605,0,0,0
11143,389599.81442150887,2010-11-06 02:37:29,2011.0277645943145,7,34,-1.0997490882873535,3.5912866592407227,33.34119899223321,33.03555143462098,133.18488170265192,120.48338246588114,-9.713172767078504e-05,0.0939245000481605,0,0,0
11144,389629.8297522772,2010-11-06 02:37:59,2041.043095362655,7,34,-1.099929690361023,3.588372707366944,33.34119899223321,33.04472081891621,133.18488170265192,120.51629909911478,-6.47544875391759e-05,0.0939245000481605,0,0,0
11145,389659.8450925092,2010-11-06 02:38:29,2071.058435594619,7,34,-1.0997490882873535,3.585458755493164,33.34119899223321,33.05389021840544,133.18488170265192,120.54918860993052,-6.47544875391759e-05,0.0939245000481605,0,0,0
11146,389689.8604382949,2010-11-06 02:38:59,2101.073781380446,7,34,-1.0997490882873535,3.5825448036193848,33.34119899223321,33.06305953442791,133.18488170265192,120.58205093012612,-6.47544875391759e-05,0.0939245000481605,0,0,0
11147,389719.8757814192,2010-11-06 02:39:29,2131.089124504629,7,34,-1.0997490882873535,3.579630851745605,33.34119899223321,33.072228882543044,133.18488170265192,120.61488678756729,-6.47544875391759e-05,0.0939245000481605,0,0,0
11148,389749.8911244731,2010-11-06 02:39:59,2161.1044675586368,7,34,-1.099929690361023,3.576555013656616,33.34119899223321,33.0813982754784,133.18488170265192,120.64769629911332,-0.0001295089750783,0.0939245000481605,0,0,0
11149,389779.9064569407,2010-11-06 02:40:29,2191.1198000262198,7,34,-1.099929690361023,3.573802947998047,33.34119899223321,33.0905676930535,133.18488170265192,120.68047955344728,-9.713172767078504e-05,0.0939245000481605,0,0,0
11150,389809.92178852606,2010-11-06 02:40:59,2221.1351316116,7,34,-1.099929690361023,3.570888996124268,33.34119899223321,33.099737060474155,133.18488170265192,120.7132363905652,-9.713172767078504e-05,0.0939245000481605,0,0,0
11151,389839.9372706673,2010-11-06 02:41:29,2251.150613752791,7,34,-1.099929690361023,3.5678131580352783,33.34119899223321,33.10890648009905,133.18488170265192,120.74596658556412,-0.0001295089750783,0.0939245000481605,0,0,0
11152,389869.952471371,2010-11-06 02:41:59,2281.1658144664952,7,34,-1.0997490882873535,3.565061092376709,33.34119899223321,33.118075787985326,133.18488170265192,120.77866914635236,-6.47544875391759e-05,0.0939245000481605,0,0,0
11153,389899.9678102144,2010-11-06 02:42:29,2311.1811533250307,7,34,-1.099929690361023,3.5621471405029297,33.34119899223321,33.1272451535337,133.18488170265192,120.8113446674633,-9.713172767078504e-05,0.0939245000481605,0,0,0
11154,389929.98332714255,2010-11-06 02:42:59,2341.1966702380173,7,34,-1.099568486213684,3.5590713024139404,33.34119899223321,33.13641457711952,133.18488170265192,120.8439934567832,-6.47544875391759e-05,0.0939245000481605,0,0,0
11155,389959.998745314,2010-11-06 02:43:29,2371.212088424568,7,34,-1.0997490882873535,3.555833578109741,33.34119899223321,33.145583932922555,133.18488170265192,120.87661370060124,-6.47544875391759e-05,0.0939245000481605,0,0,0
11156,389990.0138686797,2010-11-06 02:43:59,2401.227211765137,7,34,-1.0997490882873535,3.552757740020752,33.34119899223321,33.15475324214173,133.18488170265192,120.90920475517372,-6.47544875391759e-05,0.0939245000481605,0,0,0
11157,390020.02920900186,2010-11-06 02:44:29,2431.242552112388,7,34,-1.0997490882873535,3.5496819019317627,33.34119899223321,33.163922657056446,133.18488170265192,120.94176696360452,-3.237724376958795e-05,0.0939245000481605,0,0,0
11158,390050.0445213492,2010-11-06 02:44:59,2461.257864434685,7,34,-1.099568486213684,3.546282291412353,33.34119899223321,33.17309209014943,133.18488170265192,120.97429913415738,-9.713172767078504e-05,0.0939245000481605,0,0,0
11159,390080.0598701274,2010-11-06 02:45:29,2491.273213212982,7,34,-1.099568486213684,3.5427207946777344,33.34119899223321,33.1822615137811,133.18488170265192,121.00680043969768,-9.713172767078504e-05,0.0939245000481605,0,0,0
11160,390110.0751929911,2010-11-06 02:45:59,2521.2885360765918,7,34,-1.099568486213684,3.539321184158325,33.34119899223321,33.19143084999806,133.18488170265192,121.03926964979388,-0.0001295089750783,0.0939245000481605,0,0,0
11161,390140.09054520295,2010-11-06 02:46:29,2551.3038882884584,7,34,-1.099568486213684,3.535759687423706,33.34119899223321,33.20060018994446,133.18488170265192,121.0717057910326,-6.47544875391759e-05,0.0939245000481605,0,0,0
11162,390170.1059193396,2010-11-06 02:46:59,2581.319262420041,7,34,-1.0997490882873535,3.531874418258667,33.34119899223321,33.20976953844906,133.18488170265192,121.10410758516126,-6.47544875391759e-05,0.0939245000481605,0,0,0
11163,390200.1212243787,2010-11-06 02:47:29,2611.3345674691827,7,34,-1.0997490882873535,3.527989149093628,33.34119899223321,33.218938924980115,133.18488170265192,121.13647434007204,-9.713172767078504e-05,0.0939245000481605,0,0,0
11164,390230.13668926177,2010-11-06 02:47:59,2641.3500323723447,7,34,-1.099568486213684,3.523941993713379,33.34119899223321,33.22810841171324,133.18488170265192,121.16880464513828,-9.713172767078504e-05,0.0939245000481605,0,0,0
11165,390260.1519014893,2010-11-06 02:48:29,2671.365244574727,7,34,-1.099568486213684,3.51957106590271,33.34119899223321,33.2372777432583,133.18488170265192,121.20109565402184,-6.47544875391759e-05,0.0939245000481605,0,0,0
11166,390290.167242413,2010-11-06 02:48:59,2701.380585498417,7,34,-1.0997490882873535,3.514876365661621,33.34119899223321,33.24644718848585,133.18488170265192,121.23334649492908,-0.0001295089750783,0.0939245000481605,0,0,0
11167,390320.1825944794,2010-11-06 02:49:29,2731.395937564921,7,34,-1.099929690361023,3.5100200176239014,33.34119899223321,33.2556165430725,133.18488170265192,121.26555430672298,-0.0001618862152099,0.0939245000481605,0,0,0
11168,390350.19791960873,2010-11-06 02:49:59,2761.4112626992,7,34,-1.0997490882873535,3.5050015449523926,33.34119899223321,33.26478593733121,133.18488170265192,121.29771699358962,-0.0001618862152099,0.0939245000481605,0,0,0
11169,390380.2132918605,2010-11-06 02:50:29,2791.426634946077,7,34,-1.0997490882873535,3.499335527420044,33.34119899223321,33.273955314905194,133.18488170265192,121.32983026152937,-0.0001618862152099,0.0939245000481605,0,0,0
11170,390410.231226228,2010-11-06 02:50:59,2821.444569308389,7,34,-1.099568486213684,3.493183851242065,33.34119899223321,33.283125550402126,133.18488170265192,121.3618923584549,-0.0001295089750783,0.0939245000481605,0,0,0
11171,390440.2441923888,2010-11-06 02:51:29,2851.457535479331,7,34,-1.0997490882873535,3.486222743988037,33.34119899223321,33.29229420048903,133.18488170265192,121.39388864992056,-0.0001942634553415,0.0939245000481605,0,0,0
11172,390470.2592990328,2010-11-06 02:51:59,2881.4726421232226,7,34,-1.0997490882873535,3.478290319442749,33.34119899223321,33.30146351607569,133.18488170265192,121.42581882296172,-0.0001942634553415,0.0939245000481605,0,0,0
11173,390500.2746356306,2010-11-06 02:52:29,2911.487978716103,7,34,-1.099929690361023,3.4687390327453613,33.34119899223321,33.31063287270127,133.18488170265192,121.4576699619997,-0.0002913951757363,0.0939245000481605,0,0,0
11174,390530.289967221,2010-11-06 02:52:59,2941.503310306496,7,34,-1.0997490882873535,3.457730770111084,33.34119899223321,33.31980225429497,133.18488170265192,121.4894280166959,-0.0003561496851034,0.0939245000481605,0,0,0
11175,390560.3053252624,2010-11-06 02:53:29,2971.5186683529278,7,34,-1.099929690361023,3.4441323280334477,33.34119899223321,33.3289716088638,133.18488170265192,121.52107401099946,-0.0004209041653666,0.0939245000481605,0,0,0
11176,390590.3206708077,2010-11-06 02:53:59,3001.534013893141,7,34,-1.0997490882873535,3.4274582862854004,33.34119899223321,33.33814100223566,133.18488170265192,121.55258186467476,-0.0005180359003134,0.0939245000481605,0,0,0
11177,390620.3359994357,2010-11-06 02:54:29,3031.5493425061018,7,34,-1.099568486213684,3.405603647232056,33.34119899223321,33.34731038304285,133.18488170265192,121.58391392641369,-0.0006475448608398,0.0939245000481605,0,0,0
11178,390650.35134098085,2010-11-06 02:54:59,3061.564684066381,7,34,-1.099929690361023,3.3764641284942627,33.34119899223321,33.35647975205456,133.18488170265192,121.61501434953924,-0.0009065627818927,0.0939245000481605,0,0,0
11179,390680.36662810034,2010-11-06 02:55:29,3091.579971195793,7,34,-1.099568486213684,3.3363165855407715,33.34119899223321,33.36564912948823,133.18488170265192,121.6458001586124,-0.0012303352123126,0.0939245000481605,0,0,0
11180,390710.38199030206,2010-11-06 02:55:59,3121.595333392584,7,34,-1.099929690361023,3.280142068862915,33.34119899223321,33.37481855004032,133.18488170265192,121.67614927435731,-0.0017159938579425,0.0939245000481605,0,0,0
11181,390740.397332925,2010-11-06 02:56:29,3151.610676015516,7,34,-1.0997490882873535,3.199846744537353,33.34119899223321,33.38398788384497,133.18488170265192,121.7058814654885,-0.0025254250504076,0.0939245000481605,0,0,0
11182,390770.41267754295,2010-11-06 02:56:59,3181.6260206284146,7,34,-1.099568486213684,3.077461242675781,33.34119899223321,33.39315722996277,133.18488170265192,121.7347058427541,-0.0039824009872972,0.0939245000481605,0,0,0
11183,390796.1155635156,2010-11-06 02:57:25,3207.328906601093,7,34,-1.0997490882873535,2.8772084712982178,33.34119899223321,33.4010092188241,133.18488170265192,121.75819521209294,-0.0087742330506443,0.0939245000481605,0,0,0
11184,390808.97493583226,2010-11-06 02:57:38,3220.1882789177603,7,34,-1.099929690361023,2.699620008468628,33.34119899223321,33.40493757990949,133.18488170265192,121.76916330007695,-0.0118176462128758,0.0939245000481605,0,0,0
11185,390869.0050946321,2010-11-06 02:58:38,60.01515705511064,8,34,0.0,3.2911503314971924,33.34119899223321,33.40493757990949,133.18488170265192,121.76916330007695,0.0011979580158367,0.0939245000481605,0,0,0
11186,390869.1891512648,2010-11-06 02:58:38,0.184111184842164,9,34,-1.9243103452026844e-05,3.2913122177124023,33.34119899586751,33.40493757990949,133.1848817146141,121.76916330007695,-6.47544875391759e-05,0.0931989923119545,0,0,0
11187,390874.0174753595,2010-11-06 02:58:43,5.012435279601776,9,34,0.0005225847125984,3.2989208698272705,33.341199775758525,33.404937580076634,133.18488428493032,121.76916330062708,0.0011008263099938,0.0931989923119545,0,0,0
