Data_Point,Test_Time(s),Date_Time,Step_Time(s),Step_Index,Cycle_Index,Current(A),Voltage(V),Charge_Capacity(Ah),Discharge_Capacity(Ah),Charge_Energy(Wh),Discharge_Energy(Wh),dV/dt(V/s),Internal_Resistance(Ohm),Is_FC_Data,AC_Impedance(Ohm),ACI_Phase_Angle(Deg)
13845,482685.32950065006,2010-11-07 04:29:04,30.01537010653516,1,43,0.0,3.3244988918304443,41.21834701144579,41.28497252080898,164.59847559616594,150.57744617570762,0.0007446765666827,0.0940094217658042,0,0,0
13846,482715.3450416432,2010-11-07 04:29:34,60.03091110965448,1,43,0.0,3.347486734390259,41.21834701144579,41.28497252080898,164.59847559616594,150.57744617570762,0.0005180359003134,0.0940094217658042,0,0,0
13847,482745.36024075287,2010-11-07 04:30:04,90.04611020933022,1,43,0.0,3.364808320999145,41.21834701144579,41.28497252080898,164.59847559616594,150.57744617570762,0.0003885269106831,0.0940094217658042,0,0,0
13848,482775.3287451605,2010-11-07 04:30:34,120.01461461687056,1,43,0.0,3.379054307937622,41.21834701144579,41.28497252080898,164.59847559616594,150.57744617570762,0.0003885269106831,0.0940094217658042,0,0,0
13849,482805.3335531672,2010-11-07 04:31:04,30.01557178495552,2,43,0.5501165986061096,3.5420732498168945,41.22293384560446,41.28497252080898,164.61454025827655,150.57744617570762,0.0017807483673095,0.0940094217658042,0,0,0
13850,482835.3487156254,2010-11-07 04:31:34,60.03073426321858,2,43,0.5501165986061096,3.596952438354492,41.22752062400452,41.28497252080898,164.6309204909296,150.57744617570762,0.0012626647949218,0.0940094217658042,0,0,0
13851,482865.3640863183,2010-11-07 04:32:04,90.04610493115507,2,43,0.5501165986061096,3.6374239921569824,41.23210738168909,41.28497252080898,164.64751621006195,150.57744617570762,0.0009389400365762,0.0940094217658042,0,0,0
13852,482895.37946596375,2010-11-07 04:32:34,120.0614845865256,2,43,0.550297200679779,3.669963121414185,41.23669406889831,41.28497252080898,164.66427748296033,150.57744617570762,0.0008094310760498,0.0940094217658042,0,0,0
13853,482925.39485309774,2010-11-07 04:33:04,150.07687171053902,2,43,0.5501165986061096,3.696512222290039,41.24128078114626,41.28497252080898,164.68117293681618,150.57744617570762,0.0006475448608398,0.0940094217658042,0,0,0
13854,482955.4102261617,2010-11-07 04:33:34,180.09224477445625,2,43,0.5501165986061096,3.718690633773804,41.245867507042114,41.28497252080898,164.69818011763505,150.57744617570762,0.0005504131549969,0.0940094217658042,0,0,0
13855,482985.425701561,2010-11-07 04:34:04,210.10772017883104,2,43,0.5501165986061096,3.737631320953369,41.2504542624217,41.28497252080898,164.71528157827592,150.57744617570762,0.0005180359003134,0.0940094217658042,0,0,0
13856,483015.4409642695,2010-11-07 04:34:34,240.122982887284,2,43,0.5501165986061096,3.752686738967896,41.25504090121115,41.28497252080898,164.7324605273577,150.57744617570762,0.0003561496851034,0.0940094217658042,0,0,0
13857,483045.4563266718,2010-11-07 04:35:04,270.13834528457573,2,43,0.5501165986061096,3.762723445892334,41.2596275336225,41.28497252080898,164.74969750368697,150.57744617570762,0.0001942634553415,0.0940094217658042,0,0,0
13858,483075.47192927374,2010-11-07 04:35:34,300.1539478914676,2,43,0.5499359965324402,3.7683894634246826,41.26421421625426,41.28497252080898,164.76697051775832,150.57744617570762,6.47544875391759e-05,0.0940094217658042,0,0,0
13859,483105.4870602132,2010-11-07 04:36:04,330.1690788259926,2,43,0.5499359965324402,3.772760391235352,41.26880085112048,41.28497252080898,164.78426587939757,150.57744617570762,6.47544875391759e-05,0.0940094217658042,0,0,0
13860,483135.50243606913,2010-11-07 04:36:34,360.184454681879,2,43,0.5501165986061096,3.7764837741851807,41.273387613110046,41.28497252080898,164.80157960147346,150.57744617570762,9.713172767078504e-05,0.0940094217658042,0,0,0
13861,483165.5178215791,2010-11-07 04:37:04,390.19984019186353,2,43,0.5501165986061096,3.7800452709198,41.27797433637502,41.28497252080898,164.81890972114263,150.57744617570762,9.713172767078504e-05,0.0940094217658042,0,0,0
13862,483195.5331755203,2010-11-07 04:37:34,420.21519413304753,2,43,0.5501165986061096,3.783606767654419,41.28256109592547,41.28497252080898,164.83625585018933,150.57744617570762,0.0001295089750783,0.0940094217658042,0,0,0
13863,483225.5488896656,2010-11-07 04:38:04,450.2309084187068,2,43,0.5501165986061096,3.786844491958618,41.2871478964049,41.28497252080898,164.85361750158617,150.57744617570762,0.0001295089750783,0.0940094217658042,0,0,0
13864,483255.5666986951,2010-11-07 04:38:34,480.24871739303103,2,43,0.5501165986061096,3.7902441024780273,41.2917350055622,41.28497252080898,164.87099524430295,150.57744617570762,0.0001618862152099,0.0940094217658042,0,0,0
13865,483285.5795906708,2010-11-07 04:39:04,510.2616092885703,2,43,0.5499359965324402,3.7929961681365967,41.29632144320798,41.28497252080898,164.88838492584432,150.57744617570762,6.47544875391759e-05,0.0940094217658042,0,0,0
13866,483315.5946772296,2010-11-07 04:39:34,540.2766958473266,2,43,0.5501165986061096,3.796072006225586,41.30090812635994,41.28497252080898,164.9057896918345,150.57744617570762,6.47544875391759e-05,0.0940094217658042,0,0,0
13867,483345.610037687,2010-11-07 04:40:04,570.2920562997637,2,43,0.5501165986061096,3.799147844314575,41.30549490020999,41.28497252080898,164.9232087338927,150.57744617570762,3.237724376958795e-05,0.0940094217658042,0,0,0
13868,483375.62540900666,2010-11-07 04:40:34,600.3074276193267,2,43,0.550297200679779,3.802223682403565,41.31008167109078,41.28497252080898,164.94064145131324,150.57744617570762,9.713172767078504e-05,0.0940094217658042,0,0,0
13869,483405.64079041634,2010-11-07 04:41:04,630.3228090290764,2,43,0.5501165986061096,3.804975748062134,41.31466844990388,41.28497252080898,164.95808768471835,150.57744617570762,6.47544875391759e-05,0.0940094217658042,0,0,0
13870,483435.656171761,2010-11-07 04:41:34,660.3381903736635,2,43,0.5501165986061096,3.807889699935913,41.31925526440094,41.28497252080898,164.97554749687706,150.57744617570762,6.47544875391759e-05,0.0940094217658042,0,0,0
13871,483465.6715243938,2010-11-07 04:42:04,690.3535430065818,2,43,0.5501165986061096,3.8109655380249023,41.3238420343805,41.28497252080898,164.99302068044074,150.57744617570762,9.713172767078504e-05,0.0940094217658042,0,0,0
13872,483495.6869041745,2010-11-07 04:42:34,720.3689227872652,2,43,0.550297200679779,3.814041376113892,41.32842879557179,41.28497252080898,165.0105076735016,150.57744617570762,6.47544875391759e-05,0.0940094217658042,0,0,0
13873,483525.7022887822,2010-11-07 04:43:04,750.3843074000101,2,43,0.5501165986061096,3.817117214202881,41.33301553081055,41.28497252080898,165.02800885067077,150.57744617570762,6.47544875391759e-05,0.0940094217658042,0,0,0
13874,483555.71764248784,2010-11-07 04:43:34,780.3996611005934,2,43,0.550297200679779,3.82035493850708,41.337602272187866,41.28497252080898,165.0455244780503,150.57744617570762,6.47544875391759e-05,0.0940094217658042,0,0,0
13875,483585.73301556177,2010-11-07 04:44:04,810.4150341745357,2,43,0.5499359965324402,3.8235926628112793,41.34218898214517,41.28497252080898,165.06305482041603,150.57744617570762,9.713172767078504e-05,0.0940094217658042,0,0,0
13876,483615.74838123226,2010-11-07 04:44:34,840.4303998500102,2,43,0.550297200679779,3.826992273330689,41.34677571117011,41.28497252080898,165.08060054655,150.57744617570762,9.713172767078504e-05,0.0940094217658042,0,0,0
13877,483645.7639057041,2010-11-07 04:45:04,870.4459243168525,2,43,0.5501165986061096,3.8303918838500977,41.351362516260245,41.28497252080898,165.09816207929006,150.57744617570762,9.713172767078504e-05,0.0940094217658042,0,0,0
13878,483675.77912774106,2010-11-07 04:45:34,900.4611463537831,2,43,0.5501165986061096,3.8339531421661377,41.35594922356662,41.28497252080898,165.1157389308173,150.57744617570762,9.713172767078504e-05,0.0940094217658042,0,0,0
13879,483705.7946318672,2010-11-07 04:46:04,930.4766504798516,2,43,0.550297200679779,3.837352752685547,41.36053591722506,41.28497252080898,165.13333145018825,150.57744617570762,9.713172767078504e-05,0.0940094217658042,0,0,0
13880,483735.8098701295,2010-11-07 04:46:34,960.4918887422835,2,43,0.5501165986061096,3.840590476989746,41.365122596808725,41.28497252080898,165.1509395178836,150.57744617570762,6.47544875391759e-05,0.0940094217658042,0,0,0
13881,483765.8254495335,2010-11-07 04:47:04,990.5074681763324,2,43,0.5499359965324402,3.844151973724365,41.36970940597598,41.28497252080898,165.16856348833485,150.57744617570762,0.0001295089750783,0.0940094217658042,0,0,0
13882,483795.840866878,2010-11-07 04:47:34,1020.5228855007308,2,43,0.5499359965324402,3.8472278118133545,41.374296144853055,41.28497252080898,165.1862022857647,150.57744617570762,6.47544875391759e-05,0.0940094217658042,0,0,0
13883,483825.85598618846,2010-11-07 04:48:04,1050.5380048012153,2,43,0.5499359965324402,3.8504655361175537,41.37888287878349,41.28497252080898,165.20385596399086,150.57744617570762,0.0001295089750783,0.0940094217658042,0,0,0
13884,483855.8713732473,2010-11-07 04:48:34,1080.553391860066,2,43,0.5501165986061096,3.853541374206543,41.38346966384661,41.28497252080898,165.2215244153104,150.57744617570762,9.713172767078504e-05,0.0940094217658042,0,0,0
13885,483885.8867471935,2010-11-07 04:49:04,1110.5687658061856,2,43,0.550297200679779,3.856617212295532,41.38805636480669,41.28497252080898,165.2392066659198,150.57744617570762,6.47544875391759e-05,0.0940094217658042,0,0,0
13886,483915.902118904,2010-11-07 04:49:34,1140.584137541787,2,43,0.5501165986061096,3.859531164169312,41.39264299697785,41.28497252080898,165.25690248739082,150.57744617570762,3.237724376958795e-05,0.0940094217658042,0,0,0
13887,483945.9175076721,2010-11-07 04:50:04,1170.599526284842,2,43,0.5501165986061096,3.862445116043091,41.39722966624623,41.28497252080898,165.27461178912603,150.57744617570762,3.237724376958795e-05,0.0940094217658042,0,0,0
13888,483975.9329000893,2010-11-07 04:50:34,1200.6149187020678,2,43,0.5499359965324402,3.86519718170166,41.40181640963637,41.28497252080898,165.29233423727814,150.57744617570762,6.47544875391759e-05,0.0940094217658042,0,0,0
13889,484005.9482999,2010-11-07 04:51:04,1230.6303185127492,2,43,0.5501165986061096,3.86778736114502,41.40640309311775,41.28497252080898,165.3100686992955,150.57744617570762,6.47544875391759e-05,0.0940094217658042,0,0,0
13890,484035.9637642869,2010-11-07 04:51:34,1260.6457829096476,2,43,0.5499359965324402,3.870215654373169,41.41098982540558,41.28497252080898,165.32781500936312,150.57744617570762,6.47544875391759e-05,0.0940094217658042,0,0,0
13891,484065.9790433211,2010-11-07 04:52:04,1290.6610619538772,2,43,0.5501165986061096,3.8726439476013184,41.41557653658297,41.28497252080898,165.34557231231796,150.57744617570762,6.47544875391759e-05,0.0940094217658042,0,0,0
13892,484095.9943548063,2010-11-07 04:52:34,1320.6763734190345,2,43,0.5501165986061096,3.874910354614258,41.42016329488614,41.28497252080898,165.36334017985757,150.57744617570762,6.47544875391759e-05,0.0940094217658042,0,0,0
13893,484126.00974699296,2010-11-07 04:53:05,1350.691765630747,2,43,0.5501165986061096,3.876852989196777,41.42475000217602,41.28497252080898,165.38111769881027,150.57744617570762,3.237724376958795e-05,0.0940094217658042,0,0,0
13894,484156.0250934404,2010-11-07 04:53:35,1380.7071120531637,2,43,0.550297200679779,3.878795623779297,41.4293367139204,41.28497252080898,165.39890441830184,150.57744617570762,6.47544875391759e-05,0.0940094217658042,0,0,0
13895,484186.0404814466,2010-11-07 04:54:05,1410.7225000593787,2,43,0.550297200679779,3.880738258361816,41.43392338809028,41.28497252080898,165.41669959433997,150.57744617570762,6.47544875391759e-05,0.0940094217658042,0,0,0
13896,484216.0558285007,2010-11-07 04:54:35,1440.7378471133711,2,43,0.5501165986061096,3.882357120513916,41.43851011971643,41.28497252080898,165.4345030990958,150.57744617570762,3.237724376958795e-05,0.0940094217658042,0,0,0
13897,484246.07122111326,2010-11-07 04:55:05,1470.753239731098,2,43,0.5501165986061096,3.8838140964508057,41.443096842087165,41.28497252080898,165.45231420631737,150.57744617570762,0.0,0.0940094217658042,0,0,0
13898,484276.0867192394,2010-11-07 04:55:35,1500.7687378622022,2,43,0.550297200679779,3.8855948448181152,41.4476836282806,41.28497252080898,165.4701326610689,150.57744617570762,6.47544875391759e-05,0.0940094217658042,0,0,0
13899,484306.10194838914,2010-11-07 04:56:05,1530.7839670068747,2,43,0.5501165986061096,3.887051820755005,41.45227036766427,41.28497252080898,165.48795781427555,150.57744617570762,3.237724376958795e-05,0.0940094217658042,0,0,0
13900,484336.11731699685,2010-11-07 04:56:35,1560.7993356096565,2,43,0.5501165986061096,3.8881850242614746,41.45685710121544,41.28497252080898,165.5057895238826,150.57744617570762,0.0,0.0940094217658042,0,0,0
13901,484366.1327011835,2010-11-07 04:57:05,1590.8147197963378,2,43,0.5499359965324402,3.889642000198364,41.461443863883424,41.28497252080898,165.523627842474,150.57744617570762,3.237724376958795e-05,0.0940094217658042,0,0,0
13902,484396.1480539718,2010-11-07 04:57:35,1620.830072584644,2,43,0.5501165986061096,3.891098976135254,41.46603059750927,41.28497252080898,165.54147226747045,150.57744617570762,0.0,0.0940094217658042,0,0,0
13903,484426.16355592245,2010-11-07 04:58:05,1650.8455745352824,2,43,0.5499359965324402,3.8923940658569336,41.470617353514,41.28497252080898,165.55932298927866,150.57744617570762,3.237724376958795e-05,0.0940094217658042,0,0,0
13904,484456.1788115132,2010-11-07 04:58:35,1680.8608301259685,2,43,0.5501165986061096,3.8938510417938232,41.47520414954294,41.28497252080898,165.5771799690002,150.57744617570762,3.237724376958795e-05,0.0940094217658042,0,0,0
13905,484486.19431290746,2010-11-07 04:59:05,1710.8763315302426,2,43,0.5501165986061096,3.894822359085083,41.47979098598073,41.28497252080898,165.59504303016507,150.57744617570762,0.0,0.0940094217658042,0,0,0
13906,484516.2095465885,2010-11-07 04:59:35,1740.8915652012138,2,43,0.5501165986061096,3.8962793350219727,41.48437767316794,41.28497252080898,165.61291102427634,150.57744617570762,3.237724376958795e-05,0.0940094217658042,0,0,0
13907,484546.2249253767,2010-11-07 05:00:05,1770.90694398942,2,43,0.5501165986061096,3.8977363109588623,41.48896436564781,41.28497252080898,165.63078517316487,150.57744617570762,6.47544875391759e-05,0.0940094217658042,0,0,0
13908,484576.2402918892,2010-11-07 05:00:35,1800.922310501984,2,43,0.5501165986061096,3.898869514465332,41.49355105773287,41.28497252080898,165.64866526810889,150.57744617570762,6.47544875391759e-05,0.0940094217658042,0,0,0
13909,484606.25562974525,2010-11-07 05:01:05,1830.9376483580168,2,43,0.5499359965324402,3.900164604187012,41.49813697909478,41.28497252080898,165.66654820536667,150.57744617570762,0.0,0.0940094217658042,0,0,0
13910,484636.27098923526,2010-11-07 05:01:35,1860.9530078480511,2,43,0.5501165986061096,3.9014596939086914,41.5027228652357,41.28497252080898,165.68443702983032,150.57744617570762,0.0,0.0940094217658042,0,0,0
13911,484666.286381828,2010-11-07 05:02:05,1890.9684004407152,2,43,0.5501165986061096,3.902916669845581,41.50730882959193,41.28497252080898,165.70233222855992,150.57744617570762,6.47544875391759e-05,0.0940094217658042,0,0,0
13912,484696.30177070136,2010-11-07 05:02:35,1920.983789314096,2,43,0.5501165986061096,3.9042117595672607,41.51189472854615,41.28497252080898,165.72023318848073,150.57744617570762,9.713172767078504e-05,0.0940094217658042,0,0,0
13913,484726.3174940898,2010-11-07 05:03:05,1950.9995128177643,2,43,0.5501165986061096,3.905506849288941,41.51648073584676,41.28497252080898,165.73814072136383,150.57744617570762,3.237724376958795e-05,0.0940094217658042,0,0,0
13914,484756.3325139018,2010-11-07 05:03:35,1981.014532524648,2,43,0.5499359965324402,3.90664005279541,41.52106656796566,41.28497252080898,165.75605365582254,150.57744617570762,-3.237724376958795e-05,0.0940094217658042,0,0,0
13915,484786.34787856985,2010-11-07 05:04:05,2011.0298971825823,2,43,0.5499359965324402,3.9080970287323,41.52565312002958,41.28497252080898,165.77397571529116,150.57744617570762,0.0,0.0940094217658042,0,0,0
13916,484816.3632509771,2010-11-07 05:04:35,2041.0452695898607,2,43,0.5501165986061096,3.9095540046691895,41.5302398470446,41.28497252080898,165.79190480864312,150.57744617570762,0.0,0.0940094217658042,0,0,0
13917,484846.37862864754,2010-11-07 05:05:05,2071.0606472602767,2,43,0.550297200679779,3.910849094390869,41.53482661459581,41.28497252080898,165.80984035854834,150.57744617570762,0.0,0.0940094217658042,0,0,0
13918,484876.3939992603,2010-11-07 05:05:35,2101.076017873075,2,43,0.5501165986061096,3.912306070327759,41.53941338938514,41.28497252080898,165.82778228512717,150.57744617570762,0.0,0.0940094217658042,0,0,0
13919,484906.4095211708,2010-11-07 05:06:05,2131.091539793562,2,43,0.5501165986061096,3.9136011600494394,41.54400017214135,41.28497252080898,165.84573062559315,150.57744617570762,0.0,0.0940094217658042,0,0,0
13920,484936.4247433581,2010-11-07 05:06:35,2161.106761970843,2,43,0.5501165986061096,3.915219783782959,41.548586951873766,41.28497252080898,165.86368542681993,150.57744617570762,6.47544875391759e-05,0.0940094217658042,0,0,0
13921,484966.44009731925,2010-11-07 05:07:05,2191.122115957139,2,43,0.550297200679779,3.916514873504639,41.55317378548352,41.28497252080898,165.881646757008,150.57744617570762,3.237724376958795e-05,0.0940094217658042,0,0,0
13922,484996.4555890444,2010-11-07 05:07:35,2221.1376076471656,2,43,0.5501165986061096,3.917971849441528,41.55776055508342,41.28497252080898,165.89961444708038,150.57744617570762,3.237724376958795e-05,0.0940094217658042,0,0,0
13923,485026.4708290111,2010-11-07 05:08:05,2251.1528476238764,2,43,0.550297200679779,3.919590711593628,41.56234724883647,41.28497252080898,165.91758838075046,150.57744617570762,6.47544875391759e-05,0.0940094217658042,0,0,0
13924,485056.4861994735,2010-11-07 05:08:35,2281.168218091312,2,43,0.550297200679779,3.9210476875305176,41.56693402783048,41.28497252080898,165.93556933488338,150.57744617570762,6.47544875391759e-05,0.0940094217658042,0,0,0
13925,485086.501589184,2010-11-07 05:09:05,2311.1836077967696,2,43,0.5501165986061096,3.922342777252197,41.57152077164691,41.28497252080898,165.95355678465395,150.57744617570762,3.237724376958795e-05,0.0940094217658042,0,0,0
13926,485116.5169573256,2010-11-07 05:09:35,2341.1989759384,2,43,0.5501165986061096,3.923799753189087,41.5761075464104,41.28497252080898,165.97155107566914,150.57744617570762,3.237724376958795e-05,0.0940094217658042,0,0,0
13927,485146.53244808834,2010-11-07 05:10:05,2371.214466701112,2,43,0.5501165986061096,3.925256729125977,41.58069435724482,41.28497252080898,165.9895522846357,150.57744617570762,3.237724376958795e-05,0.0940094217658042,0,0,0
13928,485176.55048468587,2010-11-07 05:10:35,2401.232503408894,2,43,0.5501165986061096,3.926713705062866,41.58528152874056,41.28497252080898,166.0075616042095,150.57744617570762,3.237724376958795e-05,0.0940094217658042,0,0,0
13929,485206.56331270194,2010-11-07 05:11:05,2431.245331319717,2,43,0.5499359965324402,3.928332567214966,41.589867905488326,41.28497252080898,166.02557469398727,150.57744617570762,6.47544875391759e-05,0.0940094217658042,0,0,0
13930,485236.578442634,2010-11-07 05:11:35,2461.260461246728,2,43,0.5499359965324402,3.929789543151856,41.59445463520515,41.28497252080898,166.0435960813409,150.57744617570762,3.237724376958795e-05,0.0940094217658042,0,0,0
13931,485266.5938044347,2010-11-07 05:12:05,2491.275823042517,2,43,0.5501165986061096,3.931246519088745,41.599041475176335,41.28497252080898,166.0616249329503,150.57744617570762,3.237724376958795e-05,0.0940094217658042,0,0,0
13932,485296.60915351385,2010-11-07 05:12:35,2521.2911721265777,2,43,0.550297200679779,3.9331891536712646,41.60362832540875,41.28497252080898,166.0796608825476,150.57744617570762,9.713172767078504e-05,0.0940094217658042,0,0,0
13933,485326.6093226716,2010-11-07 05:13:05,2551.291341324305,2,43,0.5501165986061096,3.934484243392944,41.60821291625695,41.28497252080898,166.0976950381897,150.57744617570762,9.713172767078504e-05,0.0940094217658042,0,0,0
13934,485356.6243033759,2010-11-07 05:13:35,2581.3063219937458,2,43,0.550297200679779,3.936103105545044,41.61279976838068,41.28497252080898,166.11574523040673,150.57744617570762,6.47544875391759e-05,0.0940094217658042,0,0,0
13935,485386.63977648463,2010-11-07 05:14:05,2611.3217950973776,2,43,0.550297200679779,3.937721967697144,41.617386570406616,41.28497252080898,166.13380222422978,150.57744617570762,6.47544875391759e-05,0.0940094217658042,0,0,0
13936,485416.6550196242,2010-11-07 05:14:35,2641.337038236984,2,43,0.550297200679779,3.939178943634033,41.62197337788668,41.28497252080898,166.1518666416659,150.57744617570762,6.47544875391759e-05,0.0940094217658042,0,0,0
13937,485446.6704026931,2010-11-07 05:15:05,2671.352421305875,2,43,0.5501165986061096,3.940797805786133,41.62656026860935,41.28497252080898,166.1699387560907,150.57744617570762,6.47544875391759e-05,0.0940094217658042,0,0,0
13938,485476.68580287474,2010-11-07 05:15:35,2701.3678214874826,2,43,0.550297200679779,3.942416667938232,41.6311471861608,41.28497252080898,166.18801838321787,150.57744617570762,6.47544875391759e-05,0.0940094217658042,0,0,0
13939,485506.701159262,2010-11-07 05:16:05,2731.383177879785,2,43,0.550297200679779,3.944197416305542,41.63573399562232,41.28497252080898,166.20610505140482,150.57744617570762,9.713172767078504e-05,0.0940094217658042,0,0,0
13940,485536.7166307366,2010-11-07 05:16:35,2761.398649359362,2,43,0.550297200679779,3.9458162784576416,41.64032087162184,41.28497252080898,166.22419953999693,150.57744617570762,6.47544875391759e-05,0.0940094217658042,0,0,0
13941,485566.7318766381,2010-11-07 05:17:05,2791.413895250838,2,43,0.5501165986061096,3.9472732543945312,41.64490776920996,41.28497252080898,166.2423017020164,150.57744617570762,6.47544875391759e-05,0.0940094217658042,0,0,0
13942,485596.7474194458,2010-11-07 05:17:35,2821.429438048436,2,43,0.5499359965324402,3.948892116546631,41.64949463894703,41.28497252080898,166.26041142566234,150.57744617570762,3.237724376958795e-05,0.0940094217658042,0,0,0
13943,485626.76262299647,2010-11-07 05:18:05,2851.4446416192727,2,43,0.550297200679779,3.950672864913941,41.654081492713,41.28497252080898,166.27852876012037,150.57744617570762,3.237724376958795e-05,0.0940094217658042,0,0,0
13944,485656.7781249572,2010-11-07 05:18:35,2881.4601435648983,2,43,0.550297200679779,3.95245361328125,41.65866852465177,41.28497252080898,166.2966546272025,150.57744617570762,3.237724376958795e-05,0.0940094217658042,0,0,0
13945,485686.79338067817,2010-11-07 05:19:05,2911.475399280898,2,43,0.550297200679779,3.95423436164856,41.66325546168742,41.28497252080898,166.31478799295533,150.57744617570762,9.713172767078504e-05,0.0940094217658042,0,0,0
13946,485716.8089644681,2010-11-07 05:19:35,2941.490983080844,2,43,0.550297200679779,3.956015110015869,41.66784246387947,41.28497252080898,166.3329295525703,150.57744617570762,6.47544875391759e-05,0.0940094217658042,0,0,0
13947,485746.82437156193,2010-11-07 05:20:05,2971.5063901696926,2,43,0.5501165986061096,3.9576339721679688,41.672429508884285,41.28497252080898,166.35107922075807,150.57744617570762,9.713172767078504e-05,0.0940094217658042,0,0,0
13948,485776.8396145612,2010-11-07 05:20:35,3001.521633168949,2,43,0.5501165986061096,3.9594147205352783,41.677016429421926,41.28497252080898,166.36923646447048,150.57744617570762,6.47544875391759e-05,0.0940094217658042,0,0,0
13949,485806.8548514903,2010-11-07 05:21:05,3031.5368700980525,2,43,0.5501165986061096,3.961195468902588,41.68160333326416,41.28497252080898,166.38740175245388,150.57744617570762,6.47544875391759e-05,0.0940094217658042,0,0,0
13950,485836.8702438925,2010-11-07 05:21:35,3061.5522624952287,2,43,0.550297200679779,3.9629762172698975,41.68619032720076,41.28497252080898,166.40557556906077,150.57744617570762,6.47544875391759e-05,0.0940094217658042,0,0,0
13951,485866.8855994427,2010-11-07 05:22:05,3091.567618055454,2,43,0.5501165986061096,3.964756965637207,41.69077726883804,41.28497252080898,166.4237574406803,150.57744617570762,3.237724376958795e-05,0.0940094217658042,0,0,0
13952,485896.9011178895,2010-11-07 05:22:35,3121.583136502269,2,43,0.5501165986061096,3.9665377140045166,41.69536422817724,41.28497252080898,166.44194777439466,150.57744617570762,0.0,0.0940094217658042,0,0,0
13953,485926.9163770441,2010-11-07 05:23:05,3151.598395646826,2,43,0.5499359965324402,3.968318462371826,41.69995110445269,41.28497252080898,166.4601461546182,150.57744617570762,3.237724376958795e-05,0.0940094217658042,0,0,0
13954,485956.9317628899,2010-11-07 05:23:35,3181.613781492649,2,43,0.5501165986061096,3.970099210739136,41.704538016939566,41.28497252080898,166.47835321846324,150.57744617570762,0.0,0.0940094217658042,0,0,0
13955,485986.9473403791,2010-11-07 05:24:05,3211.629358991868,2,43,0.5501165986061096,3.9720418453216553,41.70912497129832,41.28497252080898,166.49656905883745,150.57744617570762,3.237724376958795e-05,0.0940094217658042,0,0,0
13956,486016.9624739803,2010-11-07 05:24:35,3241.644492608087,2,43,0.550297200679779,3.9741463661193848,41.71371193401927,41.28497252080898,166.5147935542037,150.57744617570762,9.713172767078504e-05,0.0940094217658042,0,0,0
13957,486046.9778492848,2010-11-07 05:25:05,3271.659867922622,2,43,0.5501165986061096,3.9759271144866943,41.71829889575869,41.28497252080898,166.53302680185772,150.57744617570762,6.47544875391759e-05,0.0940094217658042,0,0,0
13958,486076.99322370207,2010-11-07 05:25:36,3301.6752423248804,2,43,0.5501165986061096,3.977869749069214,41.7228858315352,41.28497252080898,166.55126878317833,150.57744617570762,3.237724376958795e-05,0.0940094217658042,0,0,0
13959,486107.0086002848,2010-11-07 05:26:06,3331.690618897556,2,43,0.5499359965324402,3.979812383651733,41.72747280946114,41.28497252080898,166.56951964157506,150.57744617570762,3.237724376958795e-05,0.0940094217658042,0,0,0
13960,486137.02397247154,2010-11-07 05:26:36,3361.705991109346,2,43,0.5499359965324402,3.981755018234253,41.73205964288157,41.28497252080898,166.58777940254893,150.57744617570762,3.237724376958795e-05,0.0940094217658042,0,0,0
13961,486167.0393435405,2010-11-07 05:27:06,3391.721362173271,2,43,0.5501165986061096,3.9838595390319824,41.73664651547989,41.28497252080898,166.60604850661898,150.57744617570762,3.237724376958795e-05,0.0940094217658042,0,0,0
13962,486197.0546767751,2010-11-07 05:27:36,3421.7366953877176,2,43,0.550297200679779,3.985964059829712,41.74123402123207,41.28497252080898,166.62432942751346,150.57744617570762,3.237724376958795e-05,0.0940094217658042,0,0,0
13963,486227.0700234981,2010-11-07 05:28:06,3451.7520421108848,2,43,0.5501165986061096,3.987906694412232,41.74582167662849,41.28497252080898,166.64262034750686,150.57744617570762,0.0,0.0940094217658042,0,0,0
13964,486257.0854202913,2010-11-07 05:28:36,3481.7674389090457,2,43,0.550297200679779,3.990173101425171,41.7504091328606,41.28497252080898,166.66091969798143,150.57744617570762,3.237724376958795e-05,0.0940094217658042,0,0,0
13965,486287.1007914304,2010-11-07 05:29:06,3511.7828100431466,2,43,0.550297200679779,3.9921157360076895,41.75499673558915,41.28497252080898,166.67922919533186,150.57744617570762,6.47544875391759e-05,0.0940094217658042,0,0,0
13966,486317.1161945493,2010-11-07 05:29:36,3541.7982131620856,2,43,0.5501165986061096,3.994220018386841,41.75958440091819,41.28497252080898,166.6975486199471,150.57744617570762,6.470680091297254e-05,0.0940094217658042,0,0,0
13967,486347.13151038537,2010-11-07 05:30:06,3571.8135289981533,2,43,0.5501165986061096,3.99648642539978,41.76417191557257,41.28497252080898,166.71587722994445,150.57744617570762,9.713172767078504e-05,0.0940094217658042,0,0,0
13968,486377.1469350531,2010-11-07 05:30:36,3601.8289536658813,2,43,0.5501165986061096,3.9984290599823,41.768759004058566,41.28497252080898,166.73421403671415,150.57744617570762,3.237724376958795e-05,0.0940094217658042,0,0,0
13969,486407.16230748047,2010-11-07 05:31:06,3631.8443260932095,2,43,0.5501165986061096,4.000695705413818,41.77334599963596,41.28497252080898,166.75256035320993,150.57744617570762,6.47544875391759e-05,0.0940094217658042,0,0,0
13970,486437.17785616766,2010-11-07 05:31:36,3661.85987480056,2,43,0.5501165986061096,4.002962112426758,41.77793300056766,41.28497252080898,166.77091681686943,150.57744617570762,6.47544875391759e-05,0.0940094217658042,0,0,0
13971,486467.19305802434,2010-11-07 05:32:06,3691.875076637067,2,43,0.5501165986061096,4.005066394805908,41.78251998091455,41.28497252080898,166.78928343271397,150.57744617570762,6.47544875391759e-05,0.0940094217658042,0,0,0
13972,486497.2089641839,2010-11-07 05:32:36,3721.8909828367728,2,43,0.5501165986061096,4.007494926452637,41.78710703602075,41.28497252080898,166.8076607468996,150.57744617570762,6.47544875391759e-05,0.0940094217658042,0,0,0
13973,486527.22381543525,2010-11-07 05:33:06,3751.9058340480665,2,43,0.5501165986061096,4.009761333465576,41.79169398126777,41.28497252080898,166.8260480841108,150.57744617570762,6.47544875391759e-05,0.0940094217658042,0,0,0
13974,486557.2391785243,2010-11-07 05:33:36,3781.921197137084,2,43,0.550297200679779,4.0121893882751465,41.79628101431008,41.28497252080898,166.84444632925334,150.57744617570762,6.47544875391759e-05,0.0940094217658042,0,0,0
13975,486587.2545319593,2010-11-07 05:34:06,3811.9365505720048,2,43,0.5501165986061096,4.014455795288086,41.80086798253518,41.28497252080898,166.86285491390856,150.57744617570762,6.47544875391759e-05,0.0940094217658042,0,0,0
13976,486617.26990530384,2010-11-07 05:34:36,3841.9519239166234,2,43,0.5501165986061096,4.016722202301025,41.805455004263926,41.28497252080898,166.88127435024,150.57744617570762,6.47544875391759e-05,0.0940094217658042,0,0,0
13977,486647.2852731898,2010-11-07 05:35:06,3871.967291787578,2,43,0.550297200679779,4.018988609313965,41.81004201888667,41.28497252080898,166.8997044964205,150.57744617570762,3.23295607813634e-05,0.0940094217658042,0,0,0
13978,486677.3008869796,2010-11-07 05:35:36,3901.982905617483,2,43,0.550297200679779,4.021578788757324,41.81462900001099,41.28497252080898,166.91814521892476,150.57744617570762,6.47544875391759e-05,0.0940094217658042,0,0,0
13979,486707.3160440244,2010-11-07 05:36:06,3931.998062662184,2,43,0.5501165986061096,4.023845195770264,41.819215941610295,41.28497252080898,166.93659678653606,150.57744617570762,3.23295607813634e-05,0.0940094217658042,0,0,0
13980,486737.33154104266,2010-11-07 05:36:36,3962.0135596654727,2,43,0.5501165986061096,4.026111602783203,41.823802997548846,41.28497252080898,166.95505979112502,150.57744617570762,6.47544875391759e-05,0.0940094217658042,0,0,0
13981,486767.3467631798,2010-11-07 05:37:06,3992.0287817926287,2,43,0.5501165986061096,4.0287017822265625,41.82838993492447,41.28497252080898,166.97353340616235,150.57744617570762,9.70840483205393e-05,0.0940094217658042,0,0,0
13982,486797.36214571743,2010-11-07 05:37:36,4022.044164330194,2,43,0.5499359965324402,4.030968189239502,41.832976948115245,41.28497252080898,166.9920184329843,150.57744617570762,6.47544875391759e-05,0.0940094217658042,0,0,0
13983,486827.3775075282,2010-11-07 05:38:06,4052.0595261410217,2,43,0.5501165986061096,4.033558368682861,41.8375639146117,41.28497252080898,167.01051455453862,150.57744617570762,9.70840483205393e-05,0.0940094217658042,0,0,0
13984,486857.39287923375,2010-11-07 05:38:36,4082.07489785156,2,43,0.5501165986061096,4.035986423492432,41.84215094928949,41.28497252080898,167.02902234918446,150.57744617570762,3.23295607813634e-05,0.0940094217658042,0,0,0
13985,486887.4082520571,2010-11-07 05:39:06,4112.090270669864,2,43,0.5501165986061096,4.038576602935791,41.84673794425832,41.28497252080898,167.04754147562838,150.57744617570762,6.47544875391759e-05,0.0940094217658042,0,0,0
13986,486917.4236298929,2010-11-07 05:39:36,4142.105648505692,2,43,0.5501165986061096,4.04116678237915,41.85132497959341,41.28497252080898,167.06607237167245,150.57744617570762,6.47544875391759e-05,0.0940094217658042,0,0,0
13987,486947.4391348561,2010-11-07 05:40:06,4172.121153468851,2,43,0.5501165986061096,4.04375696182251,41.855912033160365,41.28497252080898,167.08461497760646,150.57744617570762,9.70840483205393e-05,0.0940094217658042,0,0,0
13988,486977.4543651938,2010-11-07 05:40:36,4202.136383806502,2,43,0.5504778623580933,4.046347141265869,41.86049902539556,41.28497252080898,167.10316913119095,150.57744617570762,9.70840483205393e-05,0.0940094217658042,0,0,0
13989,487007.4697332752,2010-11-07 05:41:06,4232.151751887982,2,43,0.550297200679779,4.0489373207092285,41.865085987216126,41.28497252080898,167.12173502184828,150.57744617570762,9.70840483205393e-05,0.0940094217658042,0,0,0
13990,487037.4851219482,2010-11-07 05:41:36,4262.167140560861,2,43,0.5501165986061096,4.051527500152588,41.86967299860097,41.28497252080898,167.1403130622645,150.57744617570762,9.70840483205393e-05,0.0940094217658042,0,0,0
13991,487067.5004815384,2010-11-07 05:42:06,4292.182500151146,2,43,0.5501165986061096,4.053956031799316,41.87426004133954,41.28497252080898,167.15890346341138,150.57744617570762,3.24249267578125e-05,0.0940094217658042,0,0,0
13992,487097.51625666086,2010-11-07 05:42:36,4322.198275293715,2,43,0.550297200679779,4.056869983673096,41.87884712575024,41.28497252080898,167.17750640475947,150.57744617570762,9.71794142969884e-05,0.0940094217658042,0,0,0
13993,487127.5338863827,2010-11-07 05:43:06,4352.215905080759,2,43,0.5501165986061096,4.059460163116455,41.88343451077,41.28497252080898,167.19612299996723,150.57744617570762,6.47544875391759e-05,0.0940094217658042,0,0,0
13994,487157.54695071874,2010-11-07 05:43:36,4382.228969421749,2,43,0.550297200679779,4.062374114990234,41.88802115298179,41.28497252080898,167.21474869550025,150.57744617570762,9.71794142969884e-05,0.0940094217658042,0,0,0
13995,487187.56197773886,2010-11-07 05:44:06,4412.243996351662,2,43,0.550297200679779,4.064964294433594,41.89260807476228,41.28497252080898,167.23338801404583,150.57744617570762,6.47544875391759e-05,0.0940094217658042,0,0,0
13996,487217.5773455096,2010-11-07 05:44:36,4442.259364122367,2,43,0.5501165986061096,4.067878246307373,41.897195001545136,41.28497252080898,167.25203994278326,150.57744617570762,6.47544875391759e-05,0.0940094217658042,0,0,0
13997,487247.5927172653,2010-11-07 05:45:06,4472.274735878019,2,43,0.5501165986061096,4.070630073547363,41.90178198565269,41.28497252080898,167.27070483954816,150.57744617570762,9.70840483205393e-05,0.0940094217658042,0,0,0
13998,487277.60810044943,2010-11-07 05:45:36,4502.290119062198,2,43,0.5501165986061096,4.073220252990723,41.90636898151716,41.28497252080898,167.28938261168898,150.57744617570762,6.47544875391759e-05,0.0940094217658042,0,0,0
13999,487307.62346530287,2010-11-07 05:46:06,4532.30548391562,2,43,0.5501165986061096,4.076134204864502,41.91095597666704,41.28497252080898,167.30807333745034,150.57744617570762,9.70840483205393e-05,0.0940094217658042,0,0,0
14000,487337.6388309482,2010-11-07 05:46:36,4562.32084956102,2,43,0.5501165986061096,4.07888650894165,41.91554294571931,41.28497252080898,167.32677697728272,150.57744617570762,3.24249267578125e-05,0.0940094217658042,0,0,0
14001,487367.6543592246,2010-11-07 05:47:06,4592.336377837371,2,43,0.550297200679779,4.0819621086120605,41.920129978468935,41.28497252080898,167.34549419560648,150.57744617570762,9.70840483205393e-05,0.0940094217658042,0,0,0
14002,487397.6695871362,2010-11-07 05:47:36,4622.351605748965,2,43,0.5499359965324402,4.084714412689209,41.92471693253098,41.28497252080898,167.36422450401113,150.57744617570762,6.47544875391759e-05,0.0940094217658042,0,0,0
14003,487427.6849406664,2010-11-07 05:48:06,4652.366959279124,2,43,0.550297200679779,4.087790012359619,41.929303892108045,41.28497252080898,167.38296824802066,150.57744617570762,6.47544875391759e-05,0.0940094217658042,0,0,0
14004,487457.7004577448,2010-11-07 05:48:36,4682.382476357523,2,43,0.550297200679779,4.090866088867188,41.93389085682389,41.28497252080898,167.4017255164061,150.57744617570762,0.0001295089750783,0.0940094217658042,0,0,0
14005,487487.7157124482,2010-11-07 05:49:06,4712.397731060994,2,43,0.5501165986061096,4.093780040740967,41.93847789351802,41.28497252080898,167.42049677548096,150.57744617570762,6.47544875391759e-05,0.0940094217658042,0,0,0
14006,487517.7312287747,2010-11-07 05:49:36,4742.413247387517,2,43,0.5501165986061096,4.096855640411377,41.94306482866934,41.28497252080898,167.43928151989664,150.57744617570762,9.70840483205393e-05,0.0940094217658042,0,0,0
14007,487547.7464350273,2010-11-07 05:50:06,4772.428453640047,2,43,0.550297200679779,4.100093364715576,41.94765184834036,41.28497252080898,167.4580804786496,150.57744617570762,0.0001295089750783,0.0940094217658042,0,0,0
14008,487577.7619571333,2010-11-07 05:50:36,4802.443975756022,2,43,0.550297200679779,4.102845668792725,41.95223888558024,41.28497252080898,167.47689350963736,150.57744617570762,0.0001295089750783,0.0940094217658042,0,0,0
14009,487607.7771779823,2010-11-07 05:51:06,4832.459196594962,2,43,0.5501165986061096,4.106083393096924,41.9568258781994,41.28497252080898,167.495720561835,150.57744617570762,9.71794142969884e-05,0.0940094217658042,0,0,0
14010,487637.7925644496,2010-11-07 05:51:36,4862.474583062337,2,43,0.5501165986061096,4.109158992767334,41.96141294764321,41.28497252080898,167.51456225229168,150.57744617570762,9.70840483205393e-05,0.0940094217658042,0,0,0
14011,487667.7926721338,2010-11-07 05:52:06,4892.47469077158,2,43,0.5501165986061096,4.112396717071533,41.9659976157634,41.28497252080898,167.53340851203086,150.57744617570762,0.0001295089750783,0.0940094217658042,0,0,0
14012,487697.8077946874,2010-11-07 05:52:36,4922.4898133001225,2,43,0.5501165986061096,4.115472316741943,41.97058460599563,41.28497252080898,167.5522788160824,150.57744617570762,9.70840483205393e-05,0.0940094217658042,0,0,0
14013,487727.82306225295,2010-11-07 05:53:06,4952.5050808657,2,43,0.5501165986061096,4.118710041046143,41.97517162921261,41.28497252080898,167.57116396137044,150.57744617570762,9.70840483205393e-05,0.0940094217658042,0,0,0
14014,487757.8384128658,2010-11-07 05:53:36,4982.520431478576,2,43,0.550297200679779,4.121947765350342,41.979758704355696,41.28497252080898,167.59006400667175,150.57744617570762,9.70840483205393e-05,0.0940094217658042,0,0,0
14015,487787.8539232927,2010-11-07 05:54:06,5012.535941905372,2,43,0.5501165986061096,4.125185489654541,41.98434578675566,41.28497252080898,167.60897884569644,150.57744617570762,0.0001295089750783,0.0940094217658042,0,0,0
14016,487817.86928927386,2010-11-07 05:54:36,5042.551307881597,2,43,0.5501165986061096,4.12842321395874,41.98893273913984,41.28497252080898,167.62790807222012,150.57744617570762,6.47544875391759e-05,0.0940094217658042,0,0,0
14017,487847.88453286455,2010-11-07 05:55:06,5072.566551477342,2,43,0.550297200679779,4.1318230628967285,41.99351975221039,41.28497252080898,167.64685266472213,150.57744617570762,9.71794142969884e-05,0.0940094217658042,0,0,0
14018,487877.8999155274,2010-11-07 05:55:36,5102.581934140219,2,43,0.550297200679779,4.135060787200928,41.99810682634848,41.28497252080898,167.66581265876914,150.57744617570762,9.71794142969884e-05,0.0940094217658042,0,0,0
14019,487907.91541108215,2010-11-07 05:56:06,5132.597429694892,2,43,0.5501165986061096,4.138298511505127,42.00269388586506,41.28497252080898,167.68478791299103,150.57744617570762,6.47544875391759e-05,0.0940094217658042,0,0,0
14020,487937.9308023866,2010-11-07 05:56:36,5162.6128210043535,2,43,0.5501165986061096,4.141697883605957,42.00728099676219,41.28497252080898,167.7037786915583,150.57744617570762,6.47544875391759e-05,0.0940094217658042,0,0,0
14021,487967.9460219774,2010-11-07 05:57:06,5192.628040590165,2,43,0.550297200679779,4.145259380340576,42.01186799958761,41.28497252080898,167.72278442584366,150.57744617570762,0.0001295089750783,0.0940094217658042,0,0,0
14022,487997.9613981191,2010-11-07 05:57:36,5222.643416731766,2,43,0.5501165986061096,4.148497104644775,42.01645501234257,41.28497252080898,167.74180611915463,150.57744617570762,6.47544875391759e-05,0.0940094217658042,0,0,0
14023,488027.97679014027,2010-11-07 05:58:07,5252.658808753003,2,43,0.5501165986061096,4.151896953582764,42.021042068293134,41.28497252080898,167.7608436528022,150.57744617570762,9.71794142969884e-05,0.0940094217658042,0,0,0
14024,488057.99228127394,2010-11-07 05:58:37,5282.674299896665,2,43,0.550297200679779,4.155620098114014,42.025629122375605,41.28497252080898,167.77989692208686,150.57744617570762,0.0001295089750783,0.0940094217658042,0,0,0
14025,488088.0075046642,2010-11-07 05:59:07,5312.689523276949,2,43,0.550297200679779,4.158857822418213,42.03021614666034,41.28497252080898,167.798965888959,150.57744617570762,6.47544875391759e-05,0.0940094217658042,0,0,0
14026,488118.0229056178,2010-11-07 05:59:37,5342.704924230484,2,43,0.5499359965324402,4.162257671356201,42.03480318629463,41.28497252080898,167.81805092352045,150.57744617570762,6.47544875391759e-05,0.0940094217658042,0,0,0
14027,488148.03840547806,2010-11-07 06:00:07,5372.7204241009285,2,43,0.5501165986061096,4.165980815887451,42.03939022602513,41.28497252080898,167.83715217518127,150.57744617570762,0.0001295089750783,0.0940094217658042,0,0,0
14028,488178.05362266296,2010-11-07 06:00:37,5402.735641275723,2,43,0.5501165986061096,4.16938066482544,42.04397717358634,41.28497252080898,167.85626934023068,150.57744617570762,9.71794142969884e-05,0.0940094217658042,0,0,0
14029,488208.0691265534,2010-11-07 06:01:07,5432.751145166203,2,43,0.550297200679779,4.1731038093566895,42.04856418107602,41.28497252080898,167.87540301013257,150.57744617570762,9.70840483205393e-05,0.0940094217658042,0,0,0
14030,488238.0843713874,2010-11-07 06:01:37,5462.766390000039,2,43,0.5501165986061096,4.176665306091309,42.05315115993204,41.28497252080898,167.89455298835264,150.57744617570762,6.47544875391759e-05,0.0940094217658042,0,0,0
14031,488268.0997767518,2010-11-07 06:02:07,5492.781795369595,2,43,0.5501165986061096,4.180388927459717,42.05773818586608,41.28497252080898,167.9137196553607,150.57744617570762,9.71794142969884e-05,0.0940094217658042,0,0,0
14032,488298.11511141993,2010-11-07 06:02:37,5522.797130032659,2,43,0.550297200679779,4.184112071990967,42.06232522283307,41.28497252080898,167.9329030047033,150.57744617570762,0.0001295089750783,0.0940094217658042,0,0,0
14033,488328.1306101876,2010-11-07 06:03:07,5552.812628800352,2,43,0.5501165986061096,4.187511920928955,42.06691227105405,41.28497252080898,167.95210316425184,150.57744617570762,6.47544875391759e-05,0.0940094217658042,0,0,0
14034,488358.1458853572,2010-11-07 06:03:37,5582.827903969909,2,43,0.5501165986061096,4.191235065460205,42.07149935781718,41.28497252080898,167.9713203677941,150.57744617570762,6.47544875391759e-05,0.0940094217658042,0,0,0
14035,488388.16140105214,2010-11-07 06:04:07,5612.843419669868,2,43,0.5501165986061096,4.194958209991455,42.076086436461296,41.28497252080898,167.9905545339597,150.57744617570762,9.70840483205393e-05,0.0940094217658042,0,0,0
14036,488418.17660372064,2010-11-07 06:04:37,5642.85862233344,2,43,0.5501165986061096,4.198681831359863,42.08067346665566,41.28497252080898,168.00980555098826,150.57744617570762,9.71794142969884e-05,0.0940094217658042,0,0,0
14037,488427.3327766119,2010-11-07 06:04:46,5652.014795224618,2,43,0.550297200679779,4.200138568878174,42.0820727061553,41.28497252080898,168.01568134542916,150.57744617570762,0.0001618385285837,0.0940094217658042,0,0,0
14038,488457.3538776216,2010-11-07 06:05:16,30.01541266276205,3,43,0.0,4.118224620819092,42.0820727061553,41.28497252080898,168.01568134542916,150.57744617570762,-0.0003561019839253,0.0940094217658042,0,0,0
14039,488487.3692191117,2010-11-07 06:05:46,60.03075415286619,3,43,0.0,4.108349800109863,42.0820727061553,41.28497252080898,168.01568134542916,150.57744617570762,-0.0002265930233988,0.0940094217658042,0,0,0
14040,488517.38457597024,2010-11-07 06:06:16,90.04611101133213,3,43,0.0,4.102683544158936,42.0820727061553,41.28497252080898,168.01568134542916,150.57744617570762,-0.0001295089750783,0.0940094217658042,0,0,0
14041,488547.35307627247,2010-11-07 06:06:46,120.01461131362517,3,43,0.0,4.099122047424316,42.0820727061553,41.28497252080898,168.01568134542916,150.57744617570762,-6.47544875391759e-05,0.0940094217658042,0,0,0
14042,488547.3597817172,2010-11-07 06:06:46,2.661643873e-06,4,43,0.984843134880066,4.199653148651123,42.08207270688344,41.28497252080898,168.01568134848708,150.57744617570762,0.0,0.0940094217658042,0,0,0
14043,488548.07852618897,2010-11-07 06:06:47,0.71874715347155,4,43,0.9346337914466858,4.199653148651123,42.08226256278776,41.28497252080898,168.016478673453,150.57744617570762,0.0,0.0940094217658042,0,0,0
14044,488550.0629027582,2010-11-07 06:06:49,2.70312372267699,4,43,0.8842437863349915,4.199653148651123,42.08276255060908,41.28497252080898,168.01857843613337,150.57744617570762,0.0,0.0940094217658042,0,0,0
14045,488553.1878592504,2010-11-07 06:06:52,5.828080214843976,4,43,0.834214985370636,4.199814796447754,42.08350707560254,41.28497252080898,168.02170518248602,150.57744617570762,3.23295607813634e-05,0.0940094217658042,0,0,0
14046,488557.5784420856,2010-11-07 06:06:56,10.218663050074994,4,43,0.783644437789917,4.199491024017334,42.08449225879468,41.28497252080898,168.0258426131407,150.57744617570762,-3.24249267578125e-05,0.0940094217658042,0,0,0
14047,488563.40669123206,2010-11-07 06:07:02,16.046912201610944,4,43,0.7334350347518921,4.199653148651123,42.08571868794946,41.28497252080898,168.03099320739182,150.57744617570762,3.24249267578125e-05,0.0940094217658042,0,0,0
14048,488570.953342234,2010-11-07 06:07:10,23.59356320854749,4,43,0.6834062337875366,4.199814796447754,42.08720163696911,41.28497252080898,168.03722111073043,150.57744617570762,6.47544875391759e-05,0.0940094217658042,0,0,0
14049,488581.1563881162,2010-11-07 06:07:20,33.796609080743856,4,43,0.6331968903541565,4.199491024017334,42.08906442885982,41.28497252080898,168.04504420730964,150.57744617570762,-3.24249267578125e-05,0.0940094217658042,0,0,0
14050,488595.6562813656,2010-11-07 06:07:34,48.29650233004693,4,43,0.583168089389801,4.199814796447754,42.09150848497328,41.28497252080898,168.05530845208236,150.57744617570762,3.23295607813634e-05,0.0940094217658042,0,0,0
14051,488617.7967070342,2010-11-07 06:07:57,70.43692801878535,4,43,0.5331393480300903,4.199653148651123,42.0949291919526,41.28497252080898,168.06967433205517,150.57744617570762,0.0,0.0940094217658042,0,0,0
14052,488655.9058778275,2010-11-07 06:08:35,108.5460987869721,4,43,0.4831105768680572,4.199653148651123,42.10028331573868,41.28497252080898,168.0921599359442,150.57744617570762,0.0,0.0940094217658042,0,0,0
14053,488722.46781926864,2010-11-07 06:09:41,175.10804023312036,4,43,0.4330818057060241,4.199653148651123,42.10871719093018,41.28497252080898,168.12757951561812,150.57744617570762,0.0,0.0940094217658042,0,0,0
14054,488819.5295505675,2010-11-07 06:11:18,272.16977153201645,4,43,0.3830530345439911,4.199653148651123,42.11969555183776,41.28497252080898,168.17368507519308,150.57744617570762,-3.23295607813634e-05,0.0940094217658042,0,0,0
14055,488937.77849487966,2010-11-07 06:13:17,390.4187158391523,4,43,0.3328436613082886,4.199653148651123,42.13144128410536,41.28497252080898,168.22301339307182,150.57744617570762,-3.23295607813634e-05,0.0940094217658042,0,0,0
14056,489077.6834977608,2010-11-07 06:15:36,530.3237187252025,4,43,0.2828148901462555,4.199653148651123,42.1433954245564,41.28497252080898,168.2732169488255,150.57744617570762,0.0,0.0940094217658042,0,0,0
14057,489246.54155658366,2010-11-07 06:18:25,699.1817775481876,4,43,0.2327861189842224,4.199653148651123,42.15546525653108,41.28497252080898,168.3239064074291,150.57744617570762,0.0,0.0940094217658042,0,0,0
14058,489457.5866718348,2010-11-07 06:21:56,910.2268927993337,4,43,0.1827573478221893,4.199653148651123,42.167599549749255,41.28497252080898,168.37486656447243,150.57744617570762,0.0,0.0940094217658042,0,0,0
14059,489747.7717158987,2010-11-07 06:26:47,1200.4119368731947,4,43,0.1327285766601562,4.199491024017334,42.18021918820791,41.28497252080898,168.42786503910074,150.57744617570762,-3.24249267578125e-05,0.0940094217658042,0,0,0
14060,490213.6270322583,2010-11-07 06:34:32,1666.2672532228526,4,43,0.0826998054981231,4.199653148651123,42.193883569340336,41.28497252080898,168.48525107404527,150.57744617570762,0.0,0.0940094217658042,0,0,0
14061,490749.2480975105,2010-11-07 06:43:28,2201.8883184849874,4,43,0.0498289167881011,4.199491024017334,42.20359394963879,41.28497252080898,168.52603146643762,150.57744617570762,-3.24249267578125e-05,0.0940094217658042,0,0,0
14062,490779.2569916313,2010-11-07 06:43:58,30.01551180523692,5,43,0.0,4.191882610321045,42.20359394963879,41.28497252080898,168.52603146643762,150.57744617570762,-3.24249267578125e-05,0.0940094217658042,0,0,0
14063,490809.2566129314,2010-11-07 06:44:28,60.01513309530328,5,43,0.0,4.191073417663574,42.20359394963879,41.28497252080898,168.52603146643762,150.57744617570762,-3.23295607813634e-05,0.0940094217658042,0,0,0
14064,490809.4382541335,2010-11-07 06:44:29,0.187191624092446,6,43,-1.9243103452026844e-05,4.191073417663574,42.20359394963879,41.28497252180957,168.52603146643762,150.5774461799012,0.0,0.0923051163554191,0,0,0
14065,490814.26657136605,2010-11-07 06:44:33,5.015508846698104,6,43,0.0005225847125984,4.190911293029785,42.20359479602326,41.28497252189404,168.5260350136541,150.5774461802552,-3.24249267578125e-05,0.0923051163554191,0,0,0
14066,490844.2763591789,2010-11-07 06:45:03,30.01552511846879,7,43,-1.099929690361023,4.022712230682373,42.20359479602326,41.294142303450855,168.5260350136541,150.6145194301257,-0.0008741378551349,0.0923051163554191,0,0,0
14067,490874.2915839126,2010-11-07 06:45:33,60.03074984210587,7,43,-1.1001102924346924,3.99794340133667,42.20359479602326,41.30331196639008,168.5260350136541,150.65128484981796,-0.0005504608270712,0.0923051163554191,0,0,0
14068,490904.3071921486,2010-11-07 06:46:03,90.04635809308621,7,43,-1.0997490882873535,3.980945587158203,42.20359479602326,41.31248165679381,168.5260350136541,150.68786282476546,-0.0003885269106831,0.0923051163554191,0,0,0
14069,490934.3223226621,2010-11-07 06:46:33,120.06148860154772,7,43,-1.099929690361023,3.9670233726501465,42.20359479602326,41.32165112191496,168.5260350136541,150.72430048125514,-0.0003561496851034,0.0923051163554191,0,0,0
14070,490964.3377640615,2010-11-07 06:47:03,150.07693003111612,7,43,-1.0997490882873535,3.955691337585449,42.20359479602326,41.33082066016521,168.5260350136541,150.7606240705954,-0.0002913951757363,0.0923051163554191,0,0,0
14071,490994.3530802083,2010-11-07 06:47:34,180.09224614287203,7,43,-1.099568486213684,3.945006847381592,42.20359479602326,41.339990233353,168.5260350136541,150.7968462564775,-0.0002913951757363,0.0923051163554191,0,0,0
14072,491024.36843671097,2010-11-07 06:48:04,210.10760264043708,7,43,-1.0997490882873535,3.935293674468994,42.20359479602326,41.34915975189164,168.5260350136541,150.8329749052911,-0.0001942634553415,0.0923051163554191,0,0,0
14073,491054.38382791006,2010-11-07 06:48:34,240.1229938496478,7,43,-1.0997490882873535,3.9257423877716064,42.20359479602326,41.35832932811061,168.5260350136541,150.8690155125799,-0.0002590179501567,0.0923051163554191,0,0,0
14074,491084.3992012246,2010-11-07 06:49:04,270.13836716419064,7,43,-1.0997490882873535,3.9166767597198486,42.20359479602326,41.36749895948272,168.5260350136541,150.90497173084157,-0.0002590179501567,0.0923051163554191,0,0,0
14075,491114.414586885,2010-11-07 06:49:34,300.1537528245505,7,43,-1.099929690361023,3.90793514251709,42.20359479602326,41.37666856930942,168.5260350136541,150.9408466954524,-0.0002590179501567,0.0923051163554191,0,0,0
14076,491144.42993677605,2010-11-07 06:50:04,330.1691027106122,7,43,-1.099929690361023,3.899517059326172,42.20359479602326,41.385838208993455,168.5260350136541,150.97664285077445,-0.0002266406954731,0.0923051163554191,0,0,0
14077,491174.4453127323,2010-11-07 06:50:34,360.18447867176144,7,43,-1.0997490882873535,3.891098976135254,42.20359479602326,41.39500780454106,168.5260350136541,151.01236153553265,-0.0002590179501567,0.0923051163554191,0,0,0
14078,491204.46068098414,2010-11-07 06:51:04,390.1998469236672,7,43,-1.0997490882873535,3.882842779159546,42.20359479602326,41.40417736785325,168.5260350136541,151.04800361693196,-0.0001942634553415,0.0923051163554191,0,0,0
14079,491234.47606822354,2010-11-07 06:51:34,420.21523416296833,7,43,-1.0997490882873535,3.874910354614258,42.20359479602326,41.41334691170741,168.5260350136541,151.08357143689375,-0.0001942634553415,0.0923051163554191,0,0,0
14080,491264.4914409415,2010-11-07 06:52:04,450.2306068709973,7,43,-1.099929690361023,3.86681604385376,42.20359479602326,41.42251651058584,168.5260350136541,151.1190663743636,-0.0002590179501567,0.0923051163554191,0,0,0
14081,491294.5067929629,2010-11-07 06:52:34,480.2459588974016,7,43,-1.099929690361023,3.858883619308472,42.20359479602326,41.43168612124888,168.5260350136541,151.1544878616205,-0.0002266406954731,0.0923051163554191,0,0,0
14082,491324.52217736014,2010-11-07 06:53:04,510.261343289596,7,43,-1.099929690361023,3.851274967193604,42.20359479602326,41.44085575628262,168.5260350136541,151.1898373227213,-0.0001942634553415,0.0923051163554191,0,0,0
14083,491354.5377967389,2010-11-07 06:53:34,540.2769626884029,7,43,-1.099929690361023,3.843504428863525,42.20359479602326,41.45002548604577,168.5260350136541,151.2251169286392,-0.0002266406954731,0.0923051163554191,0,0,0
14084,491384.5529098288,2010-11-07 06:54:04,570.2920757432977,7,43,-1.0997490882873535,3.836219549179077,42.20359479602326,41.4591950470912,168.5260350136541,151.2603263586178,-0.0001618862152099,0.0923051163554191,0,0,0
14085,491414.56828255695,2010-11-07 06:54:34,600.3074484914266,7,43,-1.0997490882873535,3.828611135482788,42.20359479602326,41.46836463467488,168.5260350136541,151.29546749101644,-0.0002266406954731,0.0923051163554191,0,0,0
14086,491444.58364428254,2010-11-07 06:55:04,630.3228102120293,7,43,-1.0997490882873535,3.82148814201355,42.20359479602326,41.47753422854653,168.5260350136541,151.33054092149345,-0.0001618862152099,0.0923051163554191,0,0,0
14087,491474.599046815,2010-11-07 06:55:34,660.3382127545295,7,43,-1.0997490882873535,3.814041376113892,42.20359479602326,41.48670390905527,168.5260350136541,151.36554804481258,-0.0001942634553415,0.0923051163554191,0,0,0
14088,491504.61440661584,2010-11-07 06:56:04,690.3535725553401,7,43,-1.099568486213684,3.8070802688598633,42.20359479602326,41.495873492443295,168.5260350136541,151.40048959188871,-0.0002266406954731,0.0923051163554191,0,0,0
14089,491534.6299310325,2010-11-07 06:56:34,720.3690969770697,7,43,-1.099929690361023,3.800119161605835,42.20359479602326,41.50504320086521,168.5260350136541,151.43536790238423,-0.0001942634553415,0.0923051163554191,0,0,0
14090,491564.6451655857,2010-11-07 06:57:04,750.3843315252304,7,43,-1.099929690361023,3.7934818267822266,42.20359479602326,41.51421282808636,168.5260350136541,151.47018374979564,-0.0001942634553415,0.0923051163554191,0,0,0
14091,491594.66072391206,2010-11-07 06:57:34,780.3998898465785,7,43,-1.0997490882873535,3.787006378173828,42.20359479602326,41.52338251335793,168.5260350136541,151.50493874230872,-0.0001295089750783,0.0923051163554191,0,0,0
14092,491624.6758876185,2010-11-07 06:58:04,810.4150535579195,7,43,-1.0997490882873535,3.78036904335022,42.20359479602326,41.53255206256882,168.5260350136541,151.53963368006382,-0.0001942634553415,0.0923051163554191,0,0,0
14093,491654.6912571285,2010-11-07 06:58:34,840.4304230629533,7,43,-1.0997490882873535,3.7740554809570312,42.20359479602326,41.541721688043,168.5260350136541,151.57427061518248,-0.0001942634553415,0.0923051163554191,0,0,0
14094,491684.7066451999,2010-11-07 06:59:04,870.4458111293188,7,43,-1.0997490882873535,3.768065690994263,42.20359479602326,41.55089135380635,168.5260350136541,151.60885010729442,-0.0001618862152099,0.0923051163554191,0,0,0
14095,491714.72201084526,2010-11-07 06:59:34,900.4611767747184,7,43,-1.099929690361023,3.761914014816284,42.20359479602326,41.56006102891462,168.5260350136541,151.64337338321485,-0.0001295089750783,0.0923051163554191,0,0,0
14096,491744.7373715182,2010-11-07 07:00:04,930.476537447706,7,43,-1.099568486213684,3.755924224853516,42.20359479602326,41.569230730692034,168.5260350136541,151.6778416342259,-0.0001618862152099,0.0923051163554191,0,0,0
14097,491774.75275718863,2010-11-07 07:00:34,960.491923128116,7,43,-1.099929690361023,3.749934673309326,42.20359479602326,41.57840038106764,168.5260350136541,151.71225513106037,-0.0001618862152099,0.0923051163554191,0,0,0
14098,491804.76811991166,2010-11-07 07:01:04,990.5072858512208,7,43,-1.0997490882873535,3.7442686557769775,42.20359479602326,41.58757001600725,168.5260350136541,151.74661527676062,-0.0001942634553415,0.0923051163554191,0,0,0
14099,491834.7836253762,2010-11-07 07:01:34,1020.5227913256552,7,43,-1.099568486213684,3.738764524459839,42.20359479602326,41.59673975078663,168.5260350136541,151.78092311780165,-0.0001295089750783,0.0923051163554191,0,0,0
14100,491864.7989936832,2010-11-07 07:02:04,1050.5381596427237,7,43,-1.099568486213684,3.73309850692749,42.20359479602326,41.6059094606745,168.5260350136541,151.81517941503498,-0.0001295089750783,0.0923051163554191,0,0,0
14101,491894.8143842809,2010-11-07 07:02:34,1080.5535502203577,7,43,-1.0997490882873535,3.7277562618255615,42.20359479602326,41.61507913441445,168.5260350136541,151.84938534586647,-0.0001295089750783,0.0923051163554191,0,0,0
14102,491924.82960819744,2010-11-07 07:03:04,1110.5687741269553,7,43,-1.099929690361023,3.722252130508423,42.20359479602326,41.624248711688985,168.5260350136541,151.88354209951126,-0.0001295089750783,0.0923051163554191,0,0,0
14103,491954.84498649446,2010-11-07 07:03:34,1140.5841524339603,7,43,-1.099568486213684,3.717071771621704,42.20359479602326,41.6334181061164,168.5260350136541,151.91764903086005,-0.0001295089750783,0.0923051163554191,0,0,0
14104,491984.8603340999,2010-11-07 07:04:04,1170.599500039329,7,43,-1.0997490882873535,3.711891412734986,42.20359479602326,41.64258710070494,168.5260350136541,151.95170653340972,-9.713172767078504e-05,0.0923051163554191,0,0,0
14105,492014.8757030736,2010-11-07 07:04:34,1200.6148690130365,7,43,-1.099568486213684,3.7067110538482666,42.20359479602326,41.651755921518976,168.5260350136541,151.98571608237572,-0.0001295089750783,0.0923051163554191,0,0,0
14106,492044.8936987489,2010-11-07 07:05:04,1230.632864688395,7,43,-1.0997490882873535,3.701692581176758,42.20359479602326,41.66092556884258,168.5260350136541,152.01968204138475,-0.0001618862152099,0.0923051163554191,0,0,0
14107,492074.9068791797,2010-11-07 07:05:34,1260.646045124175,7,43,-1.099929690361023,3.696512222290039,42.20359479602326,41.67009395342664,168.5260350136541,152.0535973306904,-0.0001618862152099,0.0923051163554191,0,0,0
14108,492104.92185341305,2010-11-07 07:06:04,1290.661019347525,7,43,-1.0997490882873535,3.69165563583374,42.20359479602326,41.67926325183584,168.5260350136541,152.08746978275622,-0.0001295089750783,0.0923051163554191,0,0,0
14109,492134.9373321057,2010-11-07 07:06:34,1320.6764980401078,7,43,-1.099929690361023,3.686637163162232,42.20359479602326,41.6884330378364,168.5260350136541,152.12129858072882,-9.713172767078504e-05,0.0923051163554191,0,0,0
14110,492164.9525864782,2010-11-07 07:07:04,1350.6917524127534,7,43,-1.0997490882873535,3.681942462921143,42.20359479602326,41.69760265456603,168.5260350136541,152.15508211248172,-9.713172767078504e-05,0.0923051163554191,0,0,0
14111,492194.9679608855,2010-11-07 07:07:34,1380.707126820024,7,43,-1.099929690361023,3.677085876464844,42.20359479602326,41.706772294640686,168.5260350136541,152.18882167554403,-0.0001295089750783,0.0923051163554191,0,0,0
14112,492224.98332087183,2010-11-07 07:08:04,1410.7224868062972,7,43,-1.099929690361023,3.672391414642334,42.20359479602326,41.715942037052685,168.5260350136541,152.2225188427242,-0.0001618385285837,0.0923051163554191,0,0,0
14113,492254.9986902416,2010-11-07 07:08:34,1440.7378561709806,7,43,-1.099929690361023,3.667858600616455,42.20359479602326,41.7251117277831,168.5260350136541,152.2561733582781,-9.713172767078504e-05,0.0923051163554191,0,0,0
14114,492285.014198949,2010-11-07 07:09:04,1470.7533648834976,7,43,-1.0997490882873535,3.663487672805786,42.20359479602326,41.73428143837259,168.5260350136541,152.28978637334416,-9.713172767078504e-05,0.0923051163554191,0,0,0
14115,492315.029592479,2010-11-07 07:09:34,1500.7687584235264,7,43,-1.0997490882873535,3.658792972564697,42.20359479602326,41.74345110015458,168.5260350136541,152.3233581882739,-0.0001295089750783,0.0923051163554191,0,0,0
14116,492345.04481550347,2010-11-07 07:10:04,1530.7839814328845,7,43,-1.0997490882873535,3.6545839309692383,42.20359479602326,41.752620766802366,168.5260350136541,152.356889611486,-0.0001295089750783,0.0923051163554191,0,0,0
14117,492375.0603140204,2010-11-07 07:10:34,1560.7994799549645,7,43,-1.0997490882873535,3.6503748893737793,42.20359479602326,41.76179044018022,168.5260350136541,152.3903811393818,-0.0001295089750783,0.0923051163554191,0,0,0
14118,492405.0755554959,2010-11-07 07:11:04,1590.8147214304167,7,43,-1.0997490882873535,3.6460039615631104,42.20359479602326,41.77096008904904,168.5260350136541,152.42383317364514,-9.713172767078504e-05,0.0923051163554191,0,0,0
14119,492435.0909352064,2010-11-07 07:11:34,1620.8301011359124,7,43,-1.0997490882873535,3.641956806182861,42.20359479602326,41.78012976657836,168.5260350136541,152.45724677070655,-6.47544875391759e-05,0.0923051163554191,0,0,0
14120,492465.1062995586,2010-11-07 07:12:04,1650.8454654880836,7,43,-1.099929690361023,3.6377477645874015,42.20359479602326,41.78929940755406,168.5260350136541,152.49062232394195,-0.0001295089750783,0.0923051163554191,0,0,0
14121,492495.12167223153,2010-11-07 07:12:34,1680.8608381660376,7,43,-1.099929690361023,3.633700609207153,42.20359479602326,41.79846905439224,168.5260350136541,152.52396091732885,-0.0001618862152099,0.0923051163554191,0,0,0
14122,492525.1370725385,2010-11-07 07:13:04,1710.8762384679453,7,43,-1.0997490882873535,3.629977226257324,42.20359479602326,41.80763869051802,168.5260350136541,152.55726342808654,-6.47544875391759e-05,0.0923051163554191,0,0,0
14123,492555.1526512306,2010-11-07 07:13:34,1740.891817185205,7,43,-1.099929690361023,3.626091957092285,42.20359479602326,41.81680846349784,168.5260350136541,152.5905312085422,-0.0001295089750783,0.0923051163554191,0,0,0
14124,492585.1679241847,2010-11-07 07:14:04,1770.9070901442446,7,43,-1.099929690361023,3.622206687927246,42.20359479602326,41.82597807832265,168.5260350136541,152.62376399303497,-0.0001295089750783,0.0923051163554191,0,0,0
14125,492615.18317125406,2010-11-07 07:14:34,1800.9223371885978,7,43,-1.0997490882873535,3.618645191192627,42.20359479602326,41.83514776220657,168.5260350136541,152.65696308793062,-9.713172767078504e-05,0.0923051163554191,0,0,0
14126,492645.19853478926,2010-11-07 07:15:04,1830.9377007187168,7,43,-1.0997490882873535,3.615083694458008,42.20359479602326,41.84431749779508,168.5260350136541,152.69012954357245,-9.713172767078504e-05,0.0923051163554191,0,0,0
14127,492675.2139241489,2010-11-07 07:15:34,1860.953090083323,7,43,-1.0997490882873535,3.611684083938599,42.20359479602326,41.85348713605666,168.5260350136541,152.7232639658268,-9.713172767078504e-05,0.0923051163554191,0,0,0
14128,492705.2293545458,2010-11-07 07:16:04,1890.9685205054152,7,43,-1.0997490882873535,3.6084463596344,42.20359479602326,41.8626568119526,168.5260350136541,152.7563674145198,-6.47544875391759e-05,0.0923051163554191,0,0,0
14129,492735.2448071784,2010-11-07 07:16:34,1920.9839731229104,7,43,-1.099568486213684,3.6050467491149902,42.20359479602326,41.8718265428114,168.5260350136541,152.7894407457232,-9.713172767078504e-05,0.0923051163554191,0,0,0
14130,492765.2600370699,2010-11-07 07:17:04,1950.9992030044225,7,43,-1.0997490882873535,3.601970911026001,42.20359479602326,41.88099619949693,168.5260350136541,152.8224841055886,-6.47544875391759e-05,0.0923051163554191,0,0,0
14131,492795.2755670305,2010-11-07 07:17:34,1981.0147329900408,7,43,-1.099929690361023,3.598895072937012,42.20359479602326,41.89016594783877,168.5260350136541,152.8554989947774,-6.47544875391759e-05,0.0923051163554191,0,0,0
14132,492825.2909076734,2010-11-07 07:18:04,2011.030073623005,7,43,-1.099929690361023,3.5958192348480225,42.20359479602326,41.89933566091128,168.5260350136541,152.88848570545844,-6.47544875391759e-05,0.0923051163554191,0,0,0
14133,492855.3061560662,2010-11-07 07:18:34,2041.0453220006864,7,43,-1.099929690361023,3.592905282974243,42.20359479602326,41.9085053240756,168.5260350136541,152.9214446023929,-6.47544875391759e-05,0.0923051163554191,0,0,0
14134,492885.3215195612,2010-11-07 07:19:04,2071.060685495718,7,43,-1.0997490882873535,3.589991569519043,42.20359479602326,41.91767510226473,168.5260350136541,152.95437678083084,-6.47544875391759e-05,0.0923051163554191,0,0,0
14135,492915.33690757246,2010-11-07 07:19:35,2101.076073501934,7,43,-1.0997490882873535,3.5869157314300537,42.20359479602326,41.926844795999976,168.5260350136541,152.98728190585825,-9.713172767078504e-05,0.0923051163554191,0,0,0
14136,492945.35229887685,2010-11-07 07:20:05,2131.091464836458,7,43,-1.0997490882873535,3.5841636657714844,42.20359479602326,41.9360145735965,168.5260350136541,153.02016068127477,-6.47544875391759e-05,0.0923051163554191,0,0,0
14137,492975.3676343971,2010-11-07 07:20:35,2161.106800336609,7,43,-1.099929690361023,3.581087827682495,42.20359479602326,41.9451844404585,168.5260350136541,153.05301339155682,-9.713172767078504e-05,0.0923051163554191,0,0,0
14138,493005.3830251352,2010-11-07 07:21:05,2191.1221910746444,7,43,-1.099929690361023,3.578335762023926,42.20359479602326,41.95435497251828,168.5260350136541,153.08584205894425,-6.47544875391759e-05,0.0923051163554191,0,0,0
14139,493035.39846994815,2010-11-07 07:21:35,2221.137635917733,7,43,-1.0997490882873535,3.5757455825805664,42.20359479602326,41.96352536844998,168.5260350136541,153.11864421389365,-6.47544875391759e-05,0.0923051163554191,0,0,0
14140,493065.413785654,2010-11-07 07:22:05,2251.1529515934003,7,43,-1.099929690361023,3.572669744491577,42.20359479602326,41.97269510963669,168.5260350136541,153.1514177814748,-6.47544875391759e-05,0.0923051163554191,0,0,0
14141,493095.429153194,2010-11-07 07:22:35,2281.168319158592,7,43,-1.099929690361023,3.569755792617798,42.20359479602326,41.98186489525271,168.5260350136541,153.1841646831704,-6.47544875391759e-05,0.0923051163554191,0,0,0
14142,493125.4446023178,2010-11-07 07:23:05,2311.183768372592,7,43,-1.099929690361023,3.5666799545288086,42.20359479602326,41.9910346206012,168.5260350136541,153.2168840339639,-9.713172767078504e-05,0.0923051163554191,0,0,0
14143,493155.4599283643,2010-11-07 07:23:35,2341.1990943038586,7,43,-1.0997490882873535,3.5634422302246094,42.20359479602326,42.00020433899702,168.5260350136541,153.2495753924191,-9.713172767078504e-05,0.0923051163554191,0,0,0
14144,493185.4752679547,2010-11-07 07:24:05,2371.2144338942207,7,43,-1.099929690361023,3.56069016456604,42.20359479602326,42.00937400989845,168.5260350136541,153.2822391835775,-6.47544875391759e-05,0.0923051163554191,0,0,0
14145,493215.4906372191,2010-11-07 07:24:35,2401.2298031837163,7,43,-1.0997490882873535,3.557452440261841,42.20359479602326,42.01854370086135,168.5260350136541,153.3148745577999,-9.713172767078504e-05,0.0923051163554191,0,0,0
14146,493245.50601776165,2010-11-07 07:25:05,2431.2451837062517,7,43,-1.0997490882873535,3.5542147159576416,42.20359479602326,42.02771340832865,168.5260350136541,153.34748041568895,-6.47544875391759e-05,0.0923051163554191,0,0,0
14147,493275.52149844926,2010-11-07 07:25:35,2461.2606643888016,7,43,-1.099929690361023,3.5508151054382324,42.20359479602326,42.036883168760816,168.5260350136541,153.3800562319328,-9.713172767078504e-05,0.0923051163554191,0,0,0
14148,493305.53674890206,2010-11-07 07:26:05,2491.2759148416626,7,43,-1.0997490882873535,3.5474154949188232,42.20359479602326,42.04605295124786,168.5260350136541,153.41260100128275,-9.713172767078504e-05,0.0923051163554191,0,0,0
14149,493335.5521246628,2010-11-07 07:26:35,2521.291290607324,7,43,-1.099929690361023,3.543692111968994,42.20359479602326,42.05522276164152,168.5260350136541,153.44511404070693,-0.0001295089750783,0.0923051163554191,0,0,0
14150,493365.56752582185,2010-11-07 07:27:05,2551.3066917613583,7,43,-1.099568486213684,3.540292501449585,42.20359479602326,42.06439248084813,168.5260350136541,153.4775938335087,-9.713172767078504e-05,0.0923051163554191,0,0,0
14151,493395.5828791114,2010-11-07 07:27:35,2581.322045050915,7,43,-1.0997490882873535,3.536569118499756,42.20359479602326,42.073562284097065,168.5260350136541,153.51003984983748,-6.47544875391759e-05,0.0923051163554191,0,0,0
14152,493425.59824081697,2010-11-07 07:28:05,2611.337406781543,7,43,-1.0997490882873535,3.532360076904297,42.20359479602326,42.08273211586975,168.5260350136541,153.54245017907132,-9.713172767078504e-05,0.0923051163554191,0,0,0
14153,493455.613612728,2010-11-07 07:28:35,2641.3527786925824,7,43,-1.0997490882873535,3.528312921524048,42.20359479602326,42.09190191800752,168.5260350136541,153.57482306195956,-6.47544875391759e-05,0.0923051163554191,0,0,0
14154,493485.6289826892,2010-11-07 07:29:05,2671.368148633705,7,43,-1.0997490882873535,3.523941993713379,42.20359479602326,42.10107168026046,168.5260350136541,153.60715664480915,-9.713172767078504e-05,0.0923051163554191,0,0,0
14155,493515.64437782817,2010-11-07 07:29:35,2701.3835437677126,7,43,-1.0997490882873535,3.5194091796875,42.20359479602326,42.110241470295904,168.5260350136541,153.63944978917593,-0.0001295089750783,0.0923051163554191,0,0,0
14156,493545.6598797839,2010-11-07 07:30:05,2731.399045728376,7,43,-1.0997490882873535,3.514876365661621,42.20359479602326,42.11941124629854,168.5260350136541,153.6717006551892,-0.0001295089750783,0.0923051163554191,0,0,0
14157,493575.6751144523,2010-11-07 07:30:35,2761.4142803918244,7,43,-1.099929690361023,3.509696245193481,42.20359479602326,42.12858104081882,168.5260350136541,153.7039068309244,-0.0001295089750783,0.0923051163554191,0,0,0
14158,493605.69047144114,2010-11-07 07:31:05,2791.429637385628,7,43,-1.099929690361023,3.5041921138763428,42.20359479602326,42.13775082605898,168.5260350136541,153.73606513381168,-0.0001942634553415,0.0923051163554191,0,0,0
14159,493635.7058481141,2010-11-07 07:31:35,2821.445014078604,7,43,-1.0997490882873535,3.498202323913574,42.20359479602326,42.1469206290863,168.5260350136541,153.76817117109923,-0.0001618862152099,0.0923051163554191,0,0,0
14160,493665.7213422201,2010-11-07 07:32:05,2851.4605081595982,7,43,-1.099929690361023,3.491403102874756,42.20359479602326,42.15609045161376,168.5260350136541,153.8002191876911,-0.0002266406954731,0.0923051163554191,0,0,0
14161,493695.73658352514,2010-11-07 07:32:35,2881.4757494947003,7,43,-1.1001102924346924,3.483794450759888,42.20359479602326,42.165260173226265,168.5260350136541,153.83220134108515,-0.0002266406954731,0.0923051163554191,0,0,0
14162,493725.75208900456,2010-11-07 07:33:05,2911.491254944072,7,43,-1.099929690361023,3.47489070892334,42.20359479602326,42.17442989836006,168.5260350136541,153.86410751691452,-0.0002590179501567,0.0923051163554191,0,0,0
14163,493755.7673487156,2010-11-07 07:33:35,2941.506514655043,7,43,-1.099929690361023,3.4643681049346924,42.20359479602326,42.18359955209086,168.5260350136541,153.8959241498297,-0.0002913951757363,0.0923051163554191,0,0,0
14164,493785.782851423,2010-11-07 07:34:05,2971.522017357558,7,43,-1.099929690361023,3.451255321502685,42.20359479602326,42.19276937951685,168.5260350136541,153.92763388136797,-0.0003885269106831,0.0923051163554191,0,0,0
14165,493815.7980741367,2010-11-07 07:34:35,3001.5372400761903,7,43,-1.0997490882873535,3.435066699981689,42.20359479602326,42.20193907430544,168.5260350136541,153.95921071964344,-0.0004856586456298,0.0923051163554191,0,0,0
14166,493845.81344397255,2010-11-07 07:35:05,3031.5526099120493,7,43,-1.099929690361023,3.4143455028533936,42.20359479602326,42.21110884954156,168.5260350136541,153.99061973288806,-0.0006151676061563,0.0923051163554191,0,0,0
14167,493875.8288322895,2010-11-07 07:35:35,3061.567998254104,7,43,-1.099929690361023,3.3866629600524902,42.20359479602326,42.22027869747584,168.5260350136541,154.02180863008576,-0.0008418083307333,0.0923051163554191,0,0,0
14168,493905.8442184311,2010-11-07 07:36:05,3091.583385207692,7,43,-1.099568486213684,3.3487818241119385,42.20359479602326,42.22944847858522,168.5260350136541,154.05269919905555,-0.0011655330890789,0.0923051163554191,0,0,0
14169,493935.85953894886,2010-11-07 07:36:35,3121.5987049134183,7,43,-1.0997490882873535,3.2955212593078613,42.20359479602326,42.238618250160094,168.5260350136541,154.08317564097555,-0.0015864849556237,0.0923051163554191,0,0,0
14170,493965.8754812637,2010-11-07 07:37:05,3151.614647208224,7,43,-1.099929690361023,3.220082521438598,42.20359479602326,42.24778815357877,168.5260350136541,154.11306989225403,-0.0023311614058911,0.0923051163554191,0,0,0
14171,493995.87731675577,2010-11-07 07:37:35,3181.6164826952663,7,43,-1.0997490882873535,3.107248306274414,42.20359479602326,42.25695371710523,168.5260350136541,154.1421046151736,-0.0036262036301195,0.0923051163554191,0,0,0
14172,494024.4682152971,2010-11-07 07:38:04,3210.207381236625,7,43,-1.0997490882873535,2.9068336486816406,42.20359479602326,42.265688317700096,168.5260350136541,154.1684963276793,-0.0081266881898045,0.0923051163554191,0,0,0
14173,494039.2494988499,2010-11-07 07:38:18,3224.9886647994417,7,43,-1.099929690361023,2.7064192295074463,42.20359479602326,42.27020403277847,168.5260350136541,154.1811943053821,-0.0118824001401662,0.0923051163554191,0,0,0
14174,494039.70246731886,2010-11-07 07:38:19,3225.441633263415,7,43,-1.0997490882873535,2.699781894683838,42.20359479602326,42.27034241412072,168.5260350136541,154.1815683633223,-0.0119147775694727,0.0923051163554191,0,0,0
14175,494099.7235747172,2010-11-07 07:39:19,60.01509248894356,8,43,0.0,3.283703565597534,42.20359479602326,42.27034241412072,168.5260350136541,154.1815683633223,0.0011979580158367,0.0923051163554191,0,0,0
14176,494099.9019260509,2010-11-07 07:39:19,0.187434550474068,9,43,-1.9243103452026844e-05,3.284027338027954,42.20359479602326,42.27034241512261,168.5260350136541,154.18156836661257,0.0,0.0931989923119545,0,0,0
14177,494104.7301408327,2010-11-07 07:39:24,5.01564933237196,9,43,0.0003419754502829,3.2914741039276123,42.20359555775829,42.270342415373975,168.52603751862122,154.18156836743836,0.0010360718006268,0.0931989923119545,0,0,0
