Data_Point,Test_Time(s),Date_Time,Step_Time(s),Step_Index,Cycle_Index,Current(A),Voltage(V),Charge_Capacity(Ah),Discharge_Capacity(Ah),Charge_Energy(Wh),Discharge_Energy(Wh),dV/dt(V/s),Internal_Resistance(Ohm),Is_FC_Data,AC_Impedance(Ohm),ACI_Phase_Angle(Deg)
10528,367940.0850375885,2010-11-05 20:36:27,30.015290958970663,1,33,0.0,3.3450584411621094,31.37734768430121,31.438102749029643,125.34734888579436,114.58537370085826,0.0007122993702068,0.0940094217658042,0,0,0
10529,367970.1003726074,2010-11-05 20:36:57,60.0306259729093,1,33,0.0,3.3683698177337646,31.37734768430121,31.438102749029643,125.34734888579436,114.58537370085826,0.0005180359003134,0.0940094217658042,0,0,0
10530,368000.1156710452,2010-11-05 20:37:27,90.04592441054787,1,33,0.0,3.3858535289764404,31.37734768430121,31.438102749029643,125.34734888579436,114.58537370085826,0.0004209041653666,0.0940094217658042,0,0,0
10531,368030.0841140092,2010-11-05 20:37:57,120.01436737471612,1,33,0.0,3.399613857269287,31.37734768430121,31.438102749029643,125.34734888579436,114.58537370085826,0.0003885269106831,0.0940094217658042,0,0,0
10532,368060.1120246706,2010-11-05 20:38:27,30.0154506074779,2,33,0.5501165986061096,3.56230902671814,31.38193442158044,31.438102749029643,125.36351135247676,114.58537370085826,0.0017483711708337,0.0940094217658042,0,0,0
10533,368090.1272106626,2010-11-05 20:38:57,60.03063660945977,2,33,0.5501165986061096,3.614921808242798,31.38652112849855,31.438102749029643,125.37997834058488,114.58537370085826,0.0011979580158367,0.0940094217658042,0,0,0
10534,368120.1426479318,2010-11-05 20:39:27,90.04607389368076,2,33,0.550297200679779,3.6539363861083984,31.39110791705909,31.438102749029643,125.39665261297466,114.58537370085826,0.0009389400365762,0.0940094217658042,0,0,0
10535,368150.1604792068,2010-11-05 20:39:57,120.06390513859596,2,33,0.5501165986061096,3.684532642364502,31.39569500691305,31.438102749029643,125.4134862041752,114.58537370085826,0.0007446765666827,0.0940094217658042,0,0,0
10536,368180.173483949,2010-11-05 20:40:27,150.07690998106813,2,33,0.5501165986061096,3.709625005722046,31.400281323844258,31.438102749029643,125.43044439038444,114.58537370085826,0.0006151676061563,0.0940094217658042,0,0,0
10537,368210.1885182824,2010-11-05 20:40:57,180.09194424428668,2,33,0.5501165986061096,3.730832099914551,31.40486802812136,31.438102749029643,125.44750996351712,114.58537370085826,0.0005180359003134,0.0940094217658042,0,0,0
10538,368240.2039019478,2010-11-05 20:41:27,210.1073278996418,2,33,0.5501165986061096,3.7483158111572266,31.4094547291796,31.438102749029643,125.46466401723248,114.58537370085826,0.0004209041653666,0.0940094217658042,0,0,0
10539,368270.2190673032,2010-11-05 20:41:57,240.12249327012427,2,33,0.5501165986061096,3.761590242385864,31.414041359002223,31.438102749029643,125.4818886089639,114.58537370085826,0.0002913951757363,0.0940094217658042,0,0,0
10540,368300.23441948,2010-11-05 20:42:27,270.1378454318665,2,33,0.550297200679779,3.769522666931152,31.418628057213837,31.438102749029643,125.49916156154008,114.58537370085826,0.0001942634553415,0.0940094217658042,0,0,0
10541,368330.2498577618,2010-11-05 20:42:57,300.1532838138276,2,33,0.550297200679779,3.774703025817871,31.423214837587143,31.438102749029643,125.51646380633152,114.58537370085826,0.0001618862152099,0.0940094217658042,0,0,0
10542,368360.2651247308,2010-11-05 20:43:27,330.16855070271566,2,33,0.5501165986061096,3.7784264087677,31.42780152878553,31.438102749029643,125.53378590948672,114.58537370085826,6.47544875391759e-05,0.0940094217658042,0,0,0
10543,368390.2804664615,2010-11-05 20:43:57,360.1838924033453,2,33,0.5501165986061096,3.7823116779327393,31.43238823479928,31.438102749029643,125.55112564471636,114.58537370085826,0.0001295089750783,0.0940094217658042,0,0,0
10544,368420.2957404532,2010-11-05 20:44:27,390.1991664200253,2,33,0.5501165986061096,3.7858731746673584,31.43697499455447,31.438102749029643,125.56848228680252,114.58537370085826,6.47544875391759e-05,0.0940094217658042,0,0,0
10545,368450.3110730511,2010-11-05 20:44:57,420.21449899287074,2,33,0.5501165986061096,3.789272785186768,31.4415624198128,31.438102749029643,125.58585764061422,114.58537370085826,6.47544875391759e-05,0.0940094217658042,0,0,0
10546,368480.3263776892,2010-11-05 20:45:27,450.2298036560491,2,33,0.5499359965324402,3.792510509490967,31.446149838333337,31.438102749029643,125.60324867099337,114.58537370085826,3.237724376958795e-05,0.0940094217658042,0,0,0
10547,368510.3418624419,2010-11-05 20:45:57,480.2452883836962,2,33,0.5499359965324402,3.796072006225586,31.450736616203976,31.438102749029643,125.62065249224018,114.58537370085826,9.713172767078504e-05,0.0940094217658042,0,0,0
10548,368540.3570658924,2010-11-05 20:46:27,510.2604918342324,2,33,0.5501165986061096,3.799147844314575,31.45532330932817,31.438102749029643,125.63807085604016,114.58537370085826,6.47544875391759e-05,0.0940094217658042,0,0,0
10549,368570.3723772122,2010-11-05 20:46:57,540.2758031540268,2,33,0.5501165986061096,3.8023855686187744,31.45991003731276,31.438102749029643,125.65550396700272,114.58537370085826,6.47544875391759e-05,0.0940094217658042,0,0,0
10550,368600.3876936649,2010-11-05 20:47:27,570.2911196066334,2,33,0.5499359965324402,3.805461406707764,31.46449665187888,31.438102749029643,125.67295090536048,114.58537370085826,9.713172767078504e-05,0.0940094217658042,0,0,0
10551,368630.40302928525,2010-11-05 20:47:57,600.3064552270861,2,33,0.5501165986061096,3.808375358581543,31.46908338668555,31.438102749029643,125.69041243942785,114.58537370085826,6.47544875391759e-05,0.0940094217658042,0,0,0
10552,368660.4185409701,2010-11-05 20:48:27,630.3219669420978,2,33,0.5501165986061096,3.811451196670532,31.47367012218259,31.438102749029643,125.70788795028145,114.58537370085826,9.713172767078504e-05,0.0940094217658042,0,0,0
10553,368690.4337836135,2010-11-05 20:48:57,660.3372095604027,2,33,0.5501165986061096,3.814688920974731,31.478256837257483,31.438102749029643,125.72537744799806,114.58537370085826,9.713172767078504e-05,0.0940094217658042,0,0,0
10554,368720.4489757359,2010-11-05 20:49:27,690.3524016776493,2,33,0.5499359965324402,3.817602872848511,31.482843563255173,31.438102749029643,125.74288116492824,114.58537370085826,3.237724376958795e-05,0.0940094217658042,0,0,0
10555,368750.4642953113,2010-11-05 20:49:57,720.3677212530508,2,33,0.5501165986061096,3.82084059715271,31.487430220968164,31.438102749029643,125.76039886140931,114.58537370085826,6.47544875391759e-05,0.0940094217658042,0,0,0
10556,368780.4796476334,2010-11-05 20:50:27,750.3830736052685,2,33,0.5501165986061096,3.823916435241699,31.49201691847221,31.438102749029643,125.7779312255414,114.58537370085826,6.47544875391759e-05,0.0940094217658042,0,0,0
10557,368810.494934442,2010-11-05 20:50:57,780.3983603838042,2,33,0.550297200679779,3.8274779319763184,31.4966036416844,31.438102749029643,125.7954786682221,114.58537370085826,6.47544875391759e-05,0.0940094217658042,0,0,0
10558,368840.5102885787,2010-11-05 20:51:27,810.4137145204761,2,33,0.550297200679779,3.8307156562805176,31.501190350455385,31.438102749029643,125.81304134788498,114.58537370085826,9.713172767078504e-05,0.0940094217658042,0,0,0
10559,368870.5256030563,2010-11-05 20:51:57,840.4290289981532,2,33,0.5499359965324402,3.834115028381348,31.505777039164748,31.438102749029643,125.83061956805513,114.58537370085826,6.47544875391759e-05,0.0940094217658042,0,0,0
10560,368900.54091264174,2010-11-05 20:52:27,870.4443385836184,2,33,0.5501165986061096,3.837676525115967,31.510363698553224,31.438102749029643,125.84821352380796,114.58537370085826,6.47544875391759e-05,0.0940094217658042,0,0,0
10561,368930.55634532456,2010-11-05 20:52:57,900.4597712663533,2,33,0.550297200679779,3.841076135635376,31.51495043833384,31.438102749029643,125.86582365014335,114.58537370085826,9.713172767078504e-05,0.0940094217658042,0,0,0
10562,368960.57166304527,2010-11-05 20:53:27,930.4750889971506,2,33,0.550297200679779,3.844637632369995,31.5195371297939,31.438102749029643,125.88344937939137,114.58537370085826,9.713172767078504e-05,0.0940094217658042,0,0,0
10563,368990.5868507115,2010-11-05 20:53:57,960.4902766532614,2,33,0.5499359965324402,3.8478753566741934,31.52412380123721,31.438102749029643,125.90109067311228,114.58537370085826,9.713172767078504e-05,0.0940094217658042,0,0,0
10564,369020.6023183765,2010-11-05 20:54:28,990.5057443183176,2,33,0.5501165986061096,3.851274967193604,31.52871055398699,31.438102749029643,125.91874762469662,114.58537370085826,6.47544875391759e-05,0.0940094217658042,0,0,0
10565,369050.6175131404,2010-11-05 20:54:58,1020.520939087183,2,33,0.5499359965324402,3.8543508052825928,31.53329729740802,31.438102749029643,125.9364195539047,114.58537370085826,6.47544875391759e-05,0.0940094217658042,0,0,0
10566,369080.6329488858,2010-11-05 20:55:28,1050.5363748275502,2,33,0.5501165986061096,3.857588529586792,31.537883995776397,31.438102749029643,125.95410612434652,114.58537370085826,6.47544875391759e-05,0.0940094217658042,0,0,0
10567,369110.6481334792,2010-11-05 20:55:58,1080.5515594260287,2,33,0.550297200679779,3.860826253890991,31.542470743043943,31.438102749029643,125.97180738004715,114.58537370085826,9.713172767078504e-05,0.0940094217658042,0,0,0
10568,369140.66359499394,2010-11-05 20:56:28,1110.5670209357204,2,33,0.5501165986061096,3.8637402057647705,31.54705750435684,31.438102749029643,125.98952268752096,114.58537370085826,6.47544875391759e-05,0.0940094217658042,0,0,0
10569,369170.6787810309,2010-11-05 20:56:58,1140.5822069727897,2,33,0.5501165986061096,3.86665415763855,31.551644201837025,31.438102749029643,126.00725125434288,114.58537370085826,9.713172767078504e-05,0.0940094217658042,0,0,0
10570,369200.6941028419,2010-11-05 20:57:28,1170.5975287837718,2,33,0.5499359965324402,3.869406223297119,31.556230274947342,31.438102749029643,126.02499042157903,114.58537370085826,6.47544875391759e-05,0.0940094217658042,0,0,0
10571,369230.7094183371,2010-11-05 20:57:58,1200.6128442840013,2,33,0.5501165986061096,3.872158288955689,31.560816057458563,31.438102749029643,126.04274097358578,114.58537370085826,6.47544875391759e-05,0.0940094217658042,0,0,0
10572,369260.72476582223,2010-11-05 20:58:28,1230.6281917640572,2,33,0.5499359965324402,3.874586582183838,31.56540181588389,31.438102749029643,126.06050340732553,114.58537370085826,3.237724376958795e-05,0.0940094217658042,0,0,0
10573,369290.7400669566,2010-11-05 20:58:58,1260.6434928984272,2,33,0.5501165986061096,3.8770148754119873,31.56998755653549,31.438102749029643,126.0782771997979,114.58537370085826,6.47544875391759e-05,0.0940094217658042,0,0,0
10574,369320.755450241,2010-11-05 20:59:28,1290.6588762981442,2,33,0.550297200679779,3.879281282424927,31.574573980712724,31.438102749029643,126.09606462906576,114.58537370085826,3.237724376958795e-05,0.0940094217658042,0,0,0
10575,369350.7708440317,2010-11-05 20:59:58,1320.6742699785232,2,33,0.550297200679779,3.881547689437866,31.579160779161946,31.438102749029643,126.11386365457084,114.58537370085826,6.47544875391759e-05,0.0940094217658042,0,0,0
10576,369380.7860403044,2010-11-05 21:00:28,1350.6894662461298,2,33,0.5501165986061096,3.883652210235596,31.583747491358157,31.438102749029643,126.13167184943444,114.58537370085826,9.713172767078504e-05,0.0940094217658042,0,0,0
10577,369410.8013505414,2010-11-05 21:00:58,1380.7047764932468,2,33,0.5501165986061096,3.885432958602905,31.58833427844392,31.438102749029643,126.14948917944844,114.58537370085826,6.47544875391759e-05,0.0940094217658042,0,0,0
10578,369440.8166811994,2010-11-05 21:01:28,1410.7201071412874,2,33,0.5499359965324402,3.887051820755005,31.59292101103245,31.438102749029643,126.16731458609836,114.58537370085826,3.237724376958795e-05,0.0940094217658042,0,0,0
10579,369470.8320595616,2010-11-05 21:01:58,1440.7354855034298,2,33,0.550297200679779,3.8888325691223145,31.597507697068387,31.438102749029643,126.18514757457716,114.58537370085826,3.237724376958795e-05,0.0940094217658042,0,0,0
10580,369500.8473291472,2010-11-05 21:02:28,1470.7507551141118,2,33,0.550297200679779,3.890451431274414,31.602094436201547,31.438102749029643,126.20298810919178,114.58537370085826,6.47544875391759e-05,0.0940094217658042,0,0,0
10581,369530.8626496399,2010-11-05 21:02:58,1500.7660755817406,2,33,0.5501165986061096,3.891908407211304,31.606681194932865,31.438102749029643,126.22083567403864,114.58537370085826,3.237724376958795e-05,0.0940094217658042,0,0,0
10582,369560.87796833314,2010-11-05 21:03:28,1530.7813942749403,2,33,0.5501165986061096,3.893365383148194,31.61126797530295,31.438102749029643,126.23869001641968,114.58537370085826,9.713172767078504e-05,0.0940094217658042,0,0,0
10583,369590.8933218332,2010-11-05 21:03:58,1560.7967477750233,2,33,0.5501165986061096,3.894660472869873,31.615854771692177,31.438102749029643,126.2565509158984,114.58537370085826,3.237724376958795e-05,0.0940094217658042,0,0,0
10584,369620.908841899,2010-11-05 21:04:28,1590.8122678609298,2,33,0.550297200679779,3.8959555625915527,31.620441558724373,31.438102749029643,126.27441757842293,114.58537370085826,3.237724376958795e-05,0.0940094217658042,0,0,0
10585,369650.9240143272,2010-11-05 21:04:58,1620.827440384267,2,33,0.550297200679779,3.8974125385284415,31.625028266275876,31.438102749029643,126.29229027398004,114.58537370085826,6.47544875391759e-05,0.0940094217658042,0,0,0
10586,369680.9392864491,2010-11-05 21:05:28,1650.8427124009547,2,33,0.5499359965324402,3.898545742034912,31.62961491495596,31.438102749029643,126.31016881932092,114.58537370085826,-3.237724376958795e-05,0.0940094217658042,0,0,0
10587,369710.9545841901,2010-11-05 21:05:58,1680.858010131829,2,33,0.5501165986061096,3.9000027179718018,31.63420159150914,31.438102749029643,126.32805365235704,114.58537370085826,3.237724376958795e-05,0.0940094217658042,0,0,0
10588,369740.9699238255,2010-11-05 21:06:28,1710.8733497673038,2,33,0.5501165986061096,3.9014596939086914,31.63878834635602,31.438102749029643,126.3459447637536,114.58537370085826,6.47544875391759e-05,0.0940094217658042,0,0,0
10589,369770.9852266942,2010-11-05 21:06:58,1740.8886526360027,2,33,0.5501165986061096,3.902592897415161,31.643375037303784,31.438102749029643,126.36384175974376,114.58537370085826,6.47544875391759e-05,0.0940094217658042,0,0,0
10590,369801.00054678594,2010-11-05 21:07:28,1770.9039727276934,2,33,0.5501165986061096,3.903887987136841,31.647961751666475,31.438102749029643,126.38174488949208,114.58537370085826,3.237724376958795e-05,0.0940094217658042,0,0,0
10591,369831.01601376414,2010-11-05 21:07:58,1800.9194397060355,2,33,0.550297200679779,3.9053449630737305,31.65254850525626,31.438102749029643,126.39965427421431,114.58537370085826,6.47544875391759e-05,0.0940094217658042,0,0,0
10592,369861.03122655314,2010-11-05 21:08:28,1830.9346524948817,2,33,0.5501165986061096,3.9064781665802,31.65713519859648,31.438102749029643,126.41756935882826,114.58537370085826,3.237724376958795e-05,0.0940094217658042,0,0,0
10593,369891.04668640863,2010-11-05 21:08:58,1860.9501123554564,2,33,0.5504778623580933,3.9080970287323,31.66172187890384,31.438102749029643,126.43549060879194,114.58537370085826,6.47544875391759e-05,0.0940094217658042,0,0,0
10594,369921.0618889419,2010-11-05 21:09:28,1890.9653149087528,2,33,0.550297200679779,3.90939211845398,31.666308562093008,31.438102749029643,126.45341805250708,114.58537370085826,9.713172767078504e-05,0.0940094217658042,0,0,0
10595,369951.0771677204,2010-11-05 21:09:58,1920.9805936672697,2,33,0.5501165986061096,3.910525321960449,31.67089531594088,31.438102749029643,126.4713519877758,114.58537370085826,3.237724376958795e-05,0.0940094217658042,0,0,0
10596,369981.0925076768,2010-11-05 21:10:28,1950.9959336486072,2,33,0.5501165986061096,3.911982297897339,31.675482108916377,31.438102749029643,126.48929228984277,114.58537370085826,3.237724376958795e-05,0.0940094217658042,0,0,0
10597,370011.1078149062,2010-11-05 21:10:58,1981.011240848117,2,33,0.5501165986061096,3.9132773876190186,31.680068815872826,31.438102749029643,126.50723855572993,114.58537370085826,0.0,0.0940094217658042,0,0,0
10598,370041.1232668922,2010-11-05 21:11:28,2011.0266928390483,2,33,0.5499359965324402,3.914572238922119,31.684655619631343,31.438102749029643,126.52519157055453,114.58537370085826,-3.237724376958795e-05,0.0940094217658042,0,0,0
10599,370071.13962138095,2010-11-05 21:11:58,2041.04304732274,2,33,0.5501165986061096,3.916029214859009,31.68924253160479,31.438102749029643,126.54315127482413,114.58537370085826,3.237724376958795e-05,0.0940094217658042,0,0,0
10600,370101.1415102011,2010-11-05 21:12:28,2071.044936228124,2,33,0.550297200679779,3.917648077011109,31.693827203847,31.438102749029643,126.56110858291711,114.58537370085826,3.237724376958795e-05,0.0940094217658042,0,0,0
10601,370131.15395278006,2010-11-05 21:12:58,2101.057378812112,2,33,0.5501165986061096,3.918943166732788,31.698413460190963,31.438102749029643,126.5790785020164,114.58537370085826,3.237724376958795e-05,0.0940094217658042,0,0,0
10602,370161.16880545,2010-11-05 21:13:28,2131.07223139182,2,33,0.5501165986061096,3.920238256454468,31.703000047015685,31.438102749029643,126.59705622041442,114.58537370085826,0.0,0.0940094217658042,0,0,0
10603,370191.1841343888,2010-11-05 21:13:58,2161.0875603305944,2,33,0.5501165986061096,3.921857118606568,31.70758676226956,31.438102749029643,126.61504085216424,114.58537370085826,3.237724376958795e-05,0.0940094217658042,0,0,0
10604,370221.19944993913,2010-11-05 21:14:28,2191.1028758809493,2,33,0.5501165986061096,3.923152208328247,31.71217342335814,31.438102749029643,126.63303183730766,114.58537370085826,3.237724376958795e-05,0.0940094217658042,0,0,0
10605,370251.2148103815,2010-11-05 21:14:58,2221.1182363283738,2,33,0.5501165986061096,3.9246091842651367,31.716760148487097,31.438102749029643,126.65102966799844,114.58537370085826,3.237724376958795e-05,0.0940094217658042,0,0,0
10606,370281.2300966087,2010-11-05 21:15:28,2251.1335225505204,2,33,0.5499359965324402,3.925904273986816,31.721346908657512,31.438102749029643,126.66903430232092,114.58537370085826,3.237724376958795e-05,0.0940094217658042,0,0,0
10607,370311.2454296076,2010-11-05 21:15:58,2281.1488555494293,2,33,0.5501165986061096,3.927523136138916,31.725933642022127,31.438102749029643,126.68704543487333,114.58537370085826,3.237724376958795e-05,0.0940094217658042,0,0,0
10608,370341.2607773032,2010-11-05 21:16:28,2311.164203245023,2,33,0.5501165986061096,3.9289801120758057,31.73052040781221,31.438102749029643,126.70506349046602,114.58537370085826,6.47544875391759e-05,0.0940094217658042,0,0,0
10609,370371.2760991744,2010-11-05 21:16:58,2341.1795251412177,2,33,0.5501165986061096,3.9304370880126953,31.73510710576836,31.438102749029643,126.72308810316532,114.58537370085826,3.237724376958795e-05,0.0940094217658042,0,0,0
10610,370401.2914042185,2010-11-05 21:17:28,2371.1948301602847,2,33,0.5501165986061096,3.931894063949585,31.739693889175,31.438102749029643,126.74111988240674,114.58537370085826,3.237724376958795e-05,0.0940094217658042,0,0,0
10611,370431.3067469116,2010-11-05 21:17:58,2401.2101728584043,2,33,0.5501165986061096,3.933512926101685,31.74428065364362,31.438102749029643,126.7591584440503,114.58537370085826,3.237724376958795e-05,0.0940094217658042,0,0,0
10612,370461.32205878274,2010-11-05 21:18:28,2431.225484729575,2,33,0.5499359965324402,3.934969902038574,31.74886736888217,31.438102749029643,126.77720371114304,114.58537370085826,0.0,0.0940094217658042,0,0,0
10613,370491.33737779176,2010-11-05 21:18:58,2461.2408037335504,2,33,0.5501165986061096,3.936426877975464,31.75345405827085,31.438102749029643,126.7952558311128,114.58537370085826,3.237724376958795e-05,0.0940094217658042,0,0,0
10614,370521.35269516165,2010-11-05 21:19:28,2491.2561211034463,2,33,0.5501165986061096,3.938207626342773,31.758040773923035,31.438102749029643,126.81331508511477,114.58537370085826,6.47544875391759e-05,0.0940094217658042,0,0,0
10615,370551.36802366935,2010-11-05 21:19:58,2521.271449611145,2,33,0.5501165986061096,3.939664602279663,31.762627473097805,31.438102749029643,126.83138140704908,114.58537370085826,3.237724376958795e-05,0.0940094217658042,0,0,0
10616,370581.383338147,2010-11-05 21:20:28,2551.2867640888217,2,33,0.5501165986061096,3.9412834644317623,31.76721410886508,31.438102749029643,126.8494546160086,114.58537370085826,6.47544875391759e-05,0.0940094217658042,0,0,0
10617,370611.3990035506,2010-11-05 21:20:58,2581.302429497476,2,33,0.5499359965324402,3.942740440368652,31.771800803758232,31.438102749029643,126.86753518128975,114.58537370085826,3.237724376958795e-05,0.0940094217658042,0,0,0
10618,370641.4141164852,2010-11-05 21:21:28,2611.3175424270585,2,33,0.5499359965324402,3.944197416305542,31.776387448831592,31.438102749029643,126.8856228108654,114.58537370085826,3.237724376958795e-05,0.0940094217658042,0,0,0
10619,370671.4293370686,2010-11-05 21:21:58,2641.3327630103604,2,33,0.5504778623580933,3.946301937103272,31.780974123278405,31.438102749029643,126.90371787487292,114.58537370085826,9.713172767078504e-05,0.0940094217658042,0,0,0
10620,370701.44464292965,2010-11-05 21:22:28,2671.3480688665168,2,33,0.5499359965324402,3.947597026824951,31.785560801074627,31.438102749029643,126.92182025826422,114.58537370085826,3.237724376958795e-05,0.0940094217658042,0,0,0
10621,370731.45996137726,2010-11-05 21:22:58,2701.363387314103,2,33,0.5499359965324402,3.949054002761841,31.79014750611317,31.438102749029643,126.93993021840468,114.58537370085826,3.237724376958795e-05,0.0940094217658042,0,0,0
10622,370761.4752677748,2010-11-05 21:23:28,2731.378693711611,2,33,0.5501165986061096,3.95099663734436,31.794734143507515,31.438102749029643,126.95804738980524,114.58537370085826,6.47544875391759e-05,0.0940094217658042,0,0,0
10623,370791.4905742425,2010-11-05 21:23:58,2761.394000179293,2,33,0.5501165986061096,3.95245361328125,31.79932089673497,31.438102749029643,126.97617264258,114.58537370085826,0.0,0.0940094217658042,0,0,0
10624,370821.5059686146,2010-11-05 21:24:28,2791.4093945514,2,33,0.5501165986061096,3.9540724754333496,31.80390762079905,31.438102749029643,126.99430547475404,114.58537370085826,3.237724376958795e-05,0.0940094217658042,0,0,0
10625,370851.52131588914,2010-11-05 21:24:58,2821.424741830954,2,33,0.5499359965324402,3.955853223800659,31.8084942432157,31.438102749029643,127.0124455669975,114.58537370085826,3.237724376958795e-05,0.0940094217658042,0,0,0
10626,370881.53676820087,2010-11-05 21:25:28,2851.4401941476995,2,33,0.550297200679779,3.9576339721679688,31.813080977482176,31.438102749029643,127.03059385867924,114.58537370085826,6.47544875391759e-05,0.0940094217658042,0,0,0
10627,370911.551940669,2010-11-05 21:25:58,2881.4553666309366,2,33,0.550297200679779,3.959252834320069,31.81766761018737,31.438102749029643,127.04874960534482,114.58537370085826,3.237724376958795e-05,0.0940094217658042,0,0,0
10628,370941.5672658083,2010-11-05 21:26:28,2911.470691750176,2,33,0.5499359965324402,3.960871696472168,31.82225435288484,31.438102749029643,127.06691365441226,114.58537370085826,3.237724376958795e-05,0.0940094217658042,0,0,0
10629,370971.5826010228,2010-11-05 21:26:59,2941.486026959604,2,33,0.550297200679779,3.962814331054688,31.826841061028595,31.438102749029643,127.08508547917408,114.58537370085826,6.47544875391759e-05,0.0940094217658042,0,0,0
10630,371001.5979171095,2010-11-05 21:27:29,2971.501343041284,2,33,0.5499359965324402,3.964433193206787,31.83142774094066,31.438102749029643,127.10326520100524,114.58537370085826,6.47544875391759e-05,0.0940094217658042,0,0,0
10631,371031.6133205092,2010-11-05 21:27:59,3001.516746440924,2,33,0.550297200679779,3.9662139415740967,31.836014458664224,31.438102749029643,127.1214531036388,114.58537370085826,6.47544875391759e-05,0.0940094217658042,0,0,0
10632,371061.6285648017,2010-11-05 21:28:29,3031.5319907334074,2,33,0.5501165986061096,3.9679946899414062,31.84060113001088,31.438102749029643,127.13964888037265,114.58537370085826,6.47544875391759e-05,0.0940094217658042,0,0,0
10633,371091.643922813,2010-11-05 21:28:59,3061.547348729714,2,33,0.5501165986061096,3.969775438308716,31.845187853856658,31.438102749029643,127.15785311737584,114.58537370085826,6.47544875391759e-05,0.0940094217658042,0,0,0
10634,371121.6592399624,2010-11-05 21:29:29,3091.5626658991096,2,33,0.5499359965324402,3.9715561866760254,31.84977456028125,31.438102749029643,127.17606556069336,114.58537370085826,0.0,0.0940094217658042,0,0,0
10635,371151.6746815122,2010-11-05 21:29:59,3121.578107453991,2,33,0.5499359965324402,3.973336935043335,31.854361331447265,31.438102749029643,127.19428665951854,114.58537370085826,0.0,0.0940094217658042,0,0,0
10636,371181.6898740204,2010-11-05 21:30:29,3151.593299982263,2,33,0.5501165986061096,3.9752795696258554,31.858947917747795,31.438102749029643,127.21251536394912,114.58537370085826,6.47544875391759e-05,0.0940094217658042,0,0,0
10637,371211.70521237765,2010-11-05 21:30:59,3181.608638334535,2,33,0.5501165986061096,3.977222204208374,31.86353462346445,31.438102749029643,127.23075302149128,114.58537370085826,9.713172767078504e-05,0.0940094217658042,0,0,0
10638,371241.72052531154,2010-11-05 21:31:29,3211.623951243296,2,33,0.5501165986061096,3.979002952575684,31.86812130435125,31.438102749029643,127.24899866658744,114.58537370085826,3.237724376958795e-05,0.0940094217658042,0,0,0
10639,371271.73584844574,2010-11-05 21:31:59,3241.639274377581,2,33,0.5499359965324402,3.980783700942993,31.87270782404344,31.438102749029643,127.26725273327496,114.58537370085826,0.0,0.0940094217658042,0,0,0
10640,371301.7511985323,2010-11-05 21:32:29,3271.6546244741685,2,33,0.5499359965324402,3.982888221740722,31.87729439466777,31.438102749029643,127.2855158546717,114.58537370085826,3.237724376958795e-05,0.0940094217658042,0,0,0
10641,371331.7666479218,2010-11-05 21:32:59,3301.670073853581,2,33,0.5499359965324402,3.984668970108032,31.881880988485644,31.438102749029643,127.3037878509694,114.58537370085826,6.47544875391759e-05,0.0940094217658042,0,0,0
10642,371361.7818255329,2010-11-05 21:33:29,3331.6852514946927,2,33,0.5501165986061096,3.9867734909057617,31.886467573521475,31.438102749029643,127.32206878989538,114.58537370085826,6.47544875391759e-05,0.0940094217658042,0,0,0
10643,371391.7971701808,2010-11-05 21:33:59,3361.7005961426794,2,33,0.5501165986061096,3.988716125488281,31.89105423768257,31.438102749029643,127.34035913566171,114.58537370085826,6.47544875391759e-05,0.0940094217658042,0,0,0
10644,371421.81247834273,2010-11-05 21:34:29,3391.715904284541,2,33,0.5499359965324402,3.990658760070801,31.89564077756407,31.438102749029643,127.35865815699496,114.58537370085826,3.237724376958795e-05,0.0940094217658042,0,0,0
10645,371451.82791886,2010-11-05 21:34:59,3421.7313448018326,2,33,0.5501165986061096,3.9927632808685294,31.90022739246749,31.438102749029643,127.37696679552658,114.58537370085826,3.237724376958795e-05,0.0940094217658042,0,0,0
10646,371481.8431077291,2010-11-05 21:35:29,3451.746533670971,2,33,0.5499359965324402,3.9948675632476807,31.9048139472934,31.438102749029643,127.3952845647734,114.58537370085826,6.47544875391759e-05,0.0940094217658042,0,0,0
10647,371511.8584509286,2010-11-05 21:35:59,3481.761876880367,2,33,0.5499359965324402,3.9968101978302,31.90940047789452,31.438102749029643,127.41361180089667,114.58537370085826,0.0,0.0940094217658042,0,0,0
10648,371541.8739224282,2010-11-05 21:36:29,3511.7773483749825,2,33,0.5501165986061096,3.9989147186279297,31.91398710876085,31.438102749029643,127.43194900635925,114.58537370085826,6.47544875391759e-05,0.0940094217658042,0,0,0
10649,371571.8893001587,2010-11-05 21:36:59,3541.792726100536,2,33,0.5501165986061096,4.001181125640869,31.918573752645752,31.438102749029643,127.45029597525588,114.58537370085826,3.23295607813634e-05,0.0940094217658042,0,0,0
10650,371601.904460231,2010-11-05 21:37:29,3571.807886258005,2,33,0.5499359965324402,4.003123760223389,31.92316042884553,31.438102749029643,127.4686529385399,114.58537370085826,3.23295607813634e-05,0.0940094217658042,0,0,0
10651,371631.91975318,2010-11-05 21:37:59,3601.823179121731,2,33,0.5499359965324402,4.005390167236328,31.92774689084587,31.438102749029643,127.48701887253898,114.58537370085826,3.23295607813634e-05,0.0940094217658042,0,0,0
10652,371661.9350904345,2010-11-05 21:38:29,3631.8385163913,2,33,0.5501165986061096,4.007656574249268,31.93233268855819,31.438102749029643,127.50539205756075,114.58537370085826,3.23295607813634e-05,0.0940094217658042,0,0,0
10653,371691.9504591174,2010-11-05 21:38:59,3661.853885059244,2,33,0.5501165986061096,4.009761333465576,31.936918720369693,31.438102749029643,127.52377624100708,114.58537370085826,6.47544875391759e-05,0.0940094217658042,0,0,0
10654,371721.96591935895,2010-11-05 21:39:29,3691.86934530077,2,33,0.5501165986061096,4.012027740478516,31.941505387301056,31.438102749029643,127.54217335076063,114.58537370085826,3.24249267578125e-05,0.0940094217658042,0,0,0
10655,371751.981077732,2010-11-05 21:39:59,3721.8845036787984,2,33,0.550297200679779,4.014294147491455,31.946092060469912,31.438102749029643,127.5605808796666,114.58537370085826,3.24249267578125e-05,0.0940094217658042,0,0,0
10656,371781.99657101097,2010-11-05 21:40:29,3751.8999969527786,2,33,0.5501165986061096,4.0165605545043945,31.95067871270873,31.438102749029643,127.5789987252532,114.58537370085826,3.24249267578125e-05,0.0940094217658042,0,0,0
10657,371812.0117464416,2010-11-05 21:40:59,3781.9151723883847,2,33,0.5501165986061096,4.018826961517334,31.955265406332668,31.438102749029643,127.59742731264846,114.58537370085826,3.24249267578125e-05,0.0940094217658042,0,0,0
10658,371842.0271887032,2010-11-05 21:41:29,3811.9306146500303,2,33,0.5501165986061096,4.021255016326904,31.95985212218529,31.438102749029643,127.61586643803751,114.58537370085826,3.23295607813634e-05,0.0940094217658042,0,0,0
10659,371872.04238412366,2010-11-05 21:41:59,3841.9458100705215,2,33,0.5499359965324402,4.023683547973633,31.964438758146365,31.438102749029643,127.63431599261745,114.58537370085826,3.24249267578125e-05,0.0940094217658042,0,0,0
10660,371902.05770807504,2010-11-05 21:42:29,3871.961134021847,2,33,0.5501165986061096,4.025949954986572,31.96902537634237,31.438102749029643,127.65277621037777,114.58537370085826,3.24249267578125e-05,0.0940094217658042,0,0,0
10661,371932.0730684272,2010-11-05 21:42:59,3901.976494374034,2,33,0.5501165986061096,4.028378009796143,31.97361202404598,31.438102749029643,127.67124739975247,114.58537370085826,6.47544875391759e-05,0.0940094217658042,0,0,0
10662,371962.0883662683,2010-11-05 21:43:29,3931.9917922101713,2,33,0.5499359965324402,4.030644416809082,31.978198652433612,31.438102749029643,127.68972947312392,114.58537370085826,9.70840483205393e-05,0.0940094217658042,0,0,0
10663,371992.10369140765,2010-11-05 21:43:59,3962.0071173494607,2,33,0.550297200679779,4.033396720886231,31.982785240962507,31.438102749029643,127.7082224156761,114.58537370085826,9.71794142969884e-05,0.0940094217658042,0,0,0
10664,372022.1216619804,2010-11-05 21:44:29,3992.02508792216,2,33,0.550297200679779,4.035662651062012,31.987372331368736,31.438102749029643,127.72672864147252,114.58537370085826,9.70840483205393e-05,0.0940094217658042,0,0,0
10665,372052.1345913294,2010-11-05 21:44:59,4022.0380172762007,2,33,0.5501165986061096,4.03809118270874,31.991958672369027,31.438102749029643,127.7452432236532,114.58537370085826,6.47544875391759e-05,0.0940094217658042,0,0,0
10666,372082.1496886901,2010-11-05 21:45:29,4052.053114631908,2,33,0.550297200679779,4.0406813621521,31.996545334387804,31.438102749029643,127.76377052191256,114.58537370085826,6.47544875391759e-05,0.0940094217658042,0,0,0
10667,372112.1650278144,2010-11-05 21:45:59,4082.0684537561065,2,33,0.5499359965324402,4.04310941696167,32.00113192796762,31.438102749029643,127.78230901987676,114.58537370085826,6.47544875391759e-05,0.0940094217658042,0,0,0
10668,372142.1803540714,2010-11-05 21:46:29,4112.083780013187,2,33,0.5501165986061096,4.045699596405029,32.00571855794036,31.438102749029643,127.8008592296422,114.58537370085826,9.70840483205393e-05,0.0940094217658042,0,0,0
10669,372172.1957949045,2010-11-05 21:46:59,4142.099220851279,2,33,0.550297200679779,4.048128128051758,32.010305269748805,31.438102749029643,127.81942137393756,114.58537370085826,6.47544875391759e-05,0.0940094217658042,0,0,0
10670,372202.2109896433,2010-11-05 21:47:29,4172.114415590069,2,33,0.5501165986061096,4.050718307495117,32.01489190467345,31.438102749029643,127.83799491916632,114.58537370085826,3.24249267578125e-05,0.0940094217658042,0,0,0
10671,372232.226326592,2010-11-05 21:47:59,4202.129752533825,2,33,0.5501165986061096,4.053470134735107,32.01947852893076,31.438102749029643,127.85658020468108,114.58537370085826,9.70840483205393e-05,0.0940094217658042,0,0,0
10672,372262.24180466303,2010-11-05 21:48:29,4232.145230609869,2,33,0.5499359965324402,4.056060314178467,32.024065227415406,31.438102749029643,127.87517780264965,114.58537370085826,6.47544875391759e-05,0.0940094217658042,0,0,0
10673,372292.25697633927,2010-11-05 21:48:59,4262.160402281079,2,33,0.5501165986061096,4.058812618255615,32.02865194713792,31.438102749029643,127.8937876071234,114.58537370085826,0.0001295089750783,0.0940094217658042,0,0,0
10674,372322.2722907768,2010-11-05 21:49:29,4292.175716718655,2,33,0.5499359965324402,4.0612406730651855,32.03323867640843,31.438102749029643,127.91240951029492,114.58537370085826,9.70840483205393e-05,0.0940094217658042,0,0,0
10675,372352.2876397355,2010-11-05 21:49:59,4322.191065682415,2,33,0.550297200679779,4.063830852508545,32.037825311841395,31.438102749029643,127.9310431464924,114.58537370085826,3.23295607813634e-05,0.0940094217658042,0,0,0
10676,372382.3029595966,2010-11-05 21:50:29,4352.20638554353,2,33,0.550297200679779,4.066744804382324,32.04241195867207,31.438102749029643,127.94968919784654,114.58537370085826,9.70840483205393e-05,0.0940094217658042,0,0,0
10677,372412.3183123449,2010-11-05 21:50:59,4382.221738286723,2,33,0.5501165986061096,4.069497108459473,32.04699858120148,31.438102749029643,127.96834769651176,114.58537370085826,9.71794142969884e-05,0.0940094217658042,0,0,0
10678,372442.3336087976,2010-11-05 21:51:29,4412.23703474442,2,33,0.5501165986061096,4.072087287902832,32.05158523846854,31.438102749029643,127.98701895781304,114.58537370085826,0.0,0.0940094217658042,0,0,0
10679,372472.34893456846,2010-11-05 21:51:59,4442.252360510274,2,33,0.550297200679779,4.075001239776611,32.05617187498044,31.438102749029643,128.00570279039115,114.58537370085826,9.71794142969884e-05,0.0940094217658042,0,0,0
10680,372502.3642680336,2010-11-05 21:52:29,4472.267693975346,2,33,0.5501165986061096,4.077753067016602,32.060758573254695,31.438102749029643,128.0243997362324,114.58537370085826,6.47544875391759e-05,0.0940094217658042,0,0,0
10681,372532.3797330671,2010-11-05 21:52:59,4502.2831590088335,2,33,0.5501165986061096,4.080667018890381,32.065345276437554,31.438102749029643,128.04310965669282,114.58537370085826,0.0001295089750783,0.0940094217658042,0,0,0
10682,372562.39506331406,2010-11-05 21:53:29,4532.298489285949,2,33,0.5501165986061096,4.083419322967529,32.06993199076511,31.438102749029643,128.06183258520534,114.58537370085826,6.47544875391759e-05,0.0940094217658042,0,0,0
10683,372592.41025504033,2010-11-05 21:53:59,4562.313680987156,2,33,0.5501165986061096,4.08617115020752,32.07451865205311,31.438102749029643,128.08056853511326,114.58537370085826,3.23295607813634e-05,0.0940094217658042,0,0,0
10684,372622.4255867912,2010-11-05 21:54:29,4592.329012732937,2,33,0.5501165986061096,4.089408874511719,32.07910534164243,31.438102749029643,128.0993179187763,114.58537370085826,9.70840483205393e-05,0.0940094217658042,0,0,0
10685,372652.4409235444,2010-11-05 21:54:59,4622.344349486218,2,33,0.5499359965324402,4.091999053955078,32.08369207616029,31.438102749029643,128.11808091449998,114.58537370085826,6.47544875391759e-05,0.0940094217658042,0,0,0
10686,372682.456376613,2010-11-05 21:55:29,4652.359802564864,2,33,0.5499359965324402,4.095075130462647,32.08827875832951,31.438102749029643,128.13685723268827,114.58537370085826,9.71794142969884e-05,0.0940094217658042,0,0,0
10687,372712.47156698594,2010-11-05 21:55:59,4682.374992932743,2,33,0.5501165986061096,4.098150730133057,32.092865352676284,31.438102749029643,128.15564695525393,114.58537370085826,6.47544875391759e-05,0.0940094217658042,0,0,0
10688,372742.4870499642,2010-11-05 21:56:29,4712.390475906012,2,33,0.5499359965324402,4.101064682006836,32.09745206614504,31.438102749029643,128.17445097241497,114.58537370085826,3.23295607813634e-05,0.0940094217658042,0,0,0
10689,372772.5022478007,2010-11-05 21:56:59,4742.405673747547,2,33,0.5501165986061096,4.104302406311035,32.10203873158706,31.438102749029643,128.19326856368488,114.58537370085826,0.0001295089750783,0.0940094217658042,0,0,0
10690,372802.51777638285,2010-11-05 21:57:29,4772.42120236475,2,33,0.5501165986061096,4.107216358184815,32.106625333617515,31.438102749029643,128.21210003010845,114.58537370085826,6.47544875391759e-05,0.0940094217658042,0,0,0
10691,372832.532879929,2010-11-05 21:57:59,4802.436305870809,2,33,0.5499359965324402,4.110454082489014,32.111211927864524,31.438102749029643,128.23094558607588,114.58537370085826,9.70840483205393e-05,0.0940094217658042,0,0,0
10692,372862.5482171735,2010-11-05 21:58:29,4832.451643120327,2,33,0.550297200679779,4.113691806793213,32.115798537670095,31.438102749029643,128.24980551945055,114.58537370085826,0.0001295089750783,0.0940094217658042,0,0,0
10693,372892.5635459268,2010-11-05 21:59:00,4862.4669718686255,2,33,0.5501165986061096,4.116605758666992,32.12038516219568,31.438102749029643,128.2686798484528,114.58537370085826,9.71794142969884e-05,0.0940094217658042,0,0,0
10694,372922.5788623293,2010-11-05 21:59:30,4892.482288271108,2,33,0.5501165986061096,4.119843482971191,32.12497185988182,31.438102749029643,128.28756897100803,114.58537370085826,6.47544875391759e-05,0.0940094217658042,0,0,0
10695,372952.5941937342,2010-11-05 22:00:00,4922.4976197011,2,33,0.550297200679779,4.122919082641602,32.12955856174115,31.438102749029643,128.30647263778482,114.58537370085826,6.47544875391759e-05,0.0940094217658042,0,0,0
10696,372982.609539871,2010-11-05 22:00:30,4952.512965817753,2,33,0.5501165986061096,4.126156806945801,32.13414526422908,31.438102749029643,128.32539091345305,114.58537370085826,6.47544875391759e-05,0.0940094217658042,0,0,0
10697,373012.6248708648,2010-11-05 22:01:00,4982.528296811657,2,33,0.5501165986061096,4.12939453125,32.13873189695635,31.438102749029643,128.3443237522779,114.58537370085826,6.47544875391759e-05,0.0940094217658042,0,0,0
10698,373042.6401741145,2010-11-05 22:01:30,5012.543600061306,2,33,0.550297200679779,4.132956027984619,32.14331859162216,31.438102749029643,128.36327182304692,114.58537370085826,0.0001295089750783,0.0940094217658042,0,0,0
10699,373072.655569454,2010-11-05 22:02:00,5042.558995395815,2,33,0.5501165986061096,4.136032104492188,32.14790521308271,31.438102749029643,128.3822344664585,114.58537370085826,6.47544875391759e-05,0.0940094217658042,0,0,0
10700,373102.6708570797,2010-11-05 22:02:30,5072.574283016453,2,33,0.550297200679779,4.139431476593018,32.15249188391243,31.438102749029643,128.40121261525846,114.58537370085826,0.0001295089750783,0.0940094217658042,0,0,0
10701,373132.6861790811,2010-11-05 22:03:00,5102.589605022922,2,33,0.5501165986061096,4.142669200897217,32.15707855617912,31.438102749029643,128.4202061306474,114.58537370085826,9.70840483205393e-05,0.0940094217658042,0,0,0
10702,373162.7014963408,2010-11-05 22:03:30,5132.604922287556,2,33,0.5501165986061096,4.146069049835205,32.16166524238032,31.438102749029643,128.4392153223547,114.58537370085826,6.47544875391759e-05,0.0940094217658042,0,0,0
10703,373192.71684628696,2010-11-05 22:04:00,5162.620272228756,2,33,0.5497553944587708,4.149468421936035,32.16625188292003,31.438102749029643,128.45824001544935,114.58537370085826,9.70840483205393e-05,0.0940094217658042,0,0,0
10704,373222.7321646644,2010-11-05 22:04:30,5192.635590606167,2,33,0.5501165986061096,4.153029918670654,32.170838506275594,31.438102749029643,128.47728033502915,114.58537370085826,9.70840483205393e-05,0.0940094217658042,0,0,0
10705,373252.74750522216,2010-11-05 22:05:00,5222.650931163945,2,33,0.550297200679779,4.156429767608643,32.175425113184374,31.438102749029643,128.49633623150947,114.58537370085826,6.47544875391759e-05,0.0940094217658042,0,0,0
10706,373282.7628131635,2010-11-05 22:05:30,5252.666239130367,2,33,0.550297200679779,4.159991264343262,32.18001178085909,31.438102749029643,128.51540813975157,114.58537370085826,0.0001295089750783,0.0940094217658042,0,0,0
10707,373312.7781430296,2010-11-05 22:06:00,5282.681568996456,2,33,0.5501165986061096,4.163390636444092,32.18459838468048,31.438102749029643,128.5344957064215,114.58537370085826,9.70840483205393e-05,0.0940094217658042,0,0,0
10708,373342.7934690862,2010-11-05 22:06:30,5312.696895027973,2,33,0.5501165986061096,4.16679048538208,32.1891850393219,31.438102749029643,128.5535994671386,114.58537370085826,9.71794142969884e-05,0.0940094217658042,0,0,0
10709,373372.8088244861,2010-11-05 22:07:00,5342.712250452862,2,33,0.5501165986061096,4.17018985748291,32.19377162322745,31.438102749029643,128.5727190877758,114.58537370085826,6.47544875391759e-05,0.0940094217658042,0,0,0
10710,373402.8242979104,2010-11-05 22:07:30,5372.727723852231,2,33,0.5501165986061096,4.173913478851318,32.19835826687772,31.438102749029643,128.5918552241338,114.58537370085826,6.47544875391759e-05,0.0940094217658042,0,0,0
10711,373432.8394541832,2010-11-05 22:08:00,5402.742880125004,2,33,0.550297200679779,4.177636623382568,32.20294487015488,31.438102749029643,128.61100749861993,114.58537370085826,9.70840483205393e-05,0.0940094217658042,0,0,0
10712,373462.8550904692,2010-11-05 22:08:30,5432.758516415977,2,33,0.5501165986061096,4.181036472320557,32.207531616925586,31.438102749029643,128.63017683448916,114.58537370085826,6.47544875391759e-05,0.0940094217658042,0,0,0
10713,373492.870371353,2010-11-05 22:09:00,5462.773797294786,2,33,0.5501165986061096,4.184597969055176,32.21211831987491,31.438102749029643,128.6493625455602,114.58537370085826,9.71794142969884e-05,0.0940094217658042,0,0,0
10714,373522.88545206207,2010-11-05 22:09:30,5492.788878029003,2,33,0.5501165986061096,4.188321113586426,32.21670497478994,31.438102749029643,128.66856465293765,114.58537370085826,6.47544875391759e-05,0.0940094217658042,0,0,0
10715,373552.9007872165,2010-11-05 22:10:00,5522.80421317828,2,33,0.5501165986061096,4.192206382751465,32.22129164891321,31.438102749029643,128.68778374352993,114.58537370085826,0.0001618385285837,0.0940094217658042,0,0,0
10716,373582.91613460623,2010-11-05 22:10:30,5552.819560553073,2,33,0.5501165986061096,4.195767879486084,32.22587834030397,31.438102749029643,128.7070197465441,114.58537370085826,9.71794142969884e-05,0.0940094217658042,0,0,0
10717,373612.93147958507,2010-11-05 22:11:00,5582.834905612086,2,33,0.5501165986061096,4.199329376220703,32.23046501297328,31.438102749029643,128.7262725960957,114.58537370085826,9.71794142969884e-05,0.0940094217658042,0,0,0
10718,373616.83764935576,2010-11-05 22:11:04,5586.741075302582,2,33,0.550297200679779,4.200138568878174,32.23106193022443,31.438102749029643,128.72877944792128,114.58537370085826,0.0001618385285837,0.0940094217658042,0,0,0
10719,373646.8432380825,2010-11-05 22:11:34,30.015449675150663,3,33,0.0,4.116119861602783,32.23106193022443,31.438102749029643,128.72877944792128,114.58537370085826,-0.0003885269106831,0.0940094217658042,0,0,0
10720,373676.8585295678,2010-11-05 22:12:04,60.03074124564779,3,33,0.0,4.105921268463135,32.23106193022443,31.438102749029643,128.72877944792128,114.58537370085826,-0.0002266883820993,0.0940094217658042,0,0,0
10721,373706.8738976944,2010-11-05 22:12:34,90.04610929204053,3,33,0.0,4.099931716918945,32.23106193022443,31.438102749029643,128.72877944792128,114.58537370085826,-0.0001295089750783,0.0940094217658042,0,0,0
10722,373736.8422605436,2010-11-05 22:13:04,120.01447214122946,3,33,0.0,4.096046447753906,32.23106193022443,31.438102749029643,128.72877944792128,114.58537370085826,-0.0001295089750783,0.0940094217658042,0,0,0
10723,373736.8491709609,2010-11-05 22:13:04,2.691718945e-06,4,33,0.9799667000770568,4.199814796447754,32.231061930957146,31.438102749029643,128.7287794509986,114.58537370085826,0.0,0.0940094217658042,0,0,0
10724,373737.8022846192,2010-11-05 22:13:05,0.953116365080528,4,33,0.9295766949653624,4.199491024017334,32.231313150939506,31.438102749029643,128.72983448587,114.58537370085826,-6.47544875391759e-05,0.0940094217658042,0,0,0
10725,373740.0210222447,2010-11-05 22:13:07,3.17185399053792,4,33,0.8790060877799988,4.199653148651123,32.231869300431555,31.438102749029643,128.73217012994698,114.58537370085826,-3.23295607813634e-05,0.0940094217658042,0,0,0
10726,373743.3803754521,2010-11-05 22:13:11,6.531207197967234,4,33,0.8286161422729492,4.199653148651123,32.232664751988,31.438102749029643,128.73551076959987,114.58537370085826,0.0,0.0940094217658042,0,0,0
10727,373747.9896816846,2010-11-05 22:13:15,11.14051343044754,4,33,0.7785873413085938,4.199814796447754,32.233692266491204,31.438102749029643,128.73982599545988,114.58537370085826,3.23295607813634e-05,0.0940094217658042,0,0,0
10728,373754.06775727135,2010-11-05 22:13:21,17.218589017200628,4,33,0.7283779978752136,4.199653148651123,32.23496267320755,31.438102749029643,128.74516130785173,114.58537370085826,0.0,0.0940094217658042,0,0,0
10729,373762.09904252994,2010-11-05 22:13:29,25.249874280800924,4,33,0.6781685948371887,4.199653148651123,32.236528993740734,31.438102749029643,128.75173935750107,114.58537370085826,-3.23295607813634e-05,0.0940094217658042,0,0,0
10730,373772.8488120735,2010-11-05 22:13:40,35.99964381937991,4,33,0.6279591917991638,4.199491024017334,32.23847545351967,31.438102749029643,128.75991390262794,114.58537370085826,-6.47544875391759e-05,0.0940094217658042,0,0,0
10731,373788.2081788259,2010-11-05 22:13:55,51.3590105767859,4,33,0.5777498483657837,4.199653148651123,32.241041521098865,31.438102749029643,128.77069058546095,114.58537370085826,0.0,0.0940094217658042,0,0,0
10732,373812.395318237,2010-11-05 22:14:20,75.54614998785429,4,33,0.5273598432540894,4.199653148651123,32.24474267403454,31.438102749029643,128.78623434315733,114.58537370085826,0.0,0.0940094217658042,0,0,0
10733,373855.1294118691,2010-11-05 22:15:02,118.28024362504868,4,33,0.4773310720920563,4.199814796447754,32.25067994833574,31.438102749029643,128.8111690992292,114.58537370085826,6.47544875391759e-05,0.0940094217658042,0,0,0
10734,373929.7847412267,2010-11-05 22:16:17,192.93557296251024,4,33,0.4273023009300232,4.199653148651123,32.26002359400482,31.438102749029643,128.8504096579473,114.58537370085826,0.0,0.0940094217658042,0,0,0
10735,374034.4556132916,2010-11-05 22:18:02,297.6064450374203,4,33,0.3772735297679901,4.199491024017334,32.27169675809316,31.438102749029643,128.89943343124617,114.58537370085826,-3.24249267578125e-05,0.0940094217658042,0,0,0
10736,374160.9543868066,2010-11-05 22:20:08,424.1052185624888,4,33,0.327244758605957,4.199653148651123,32.28406102902218,31.438102749029643,128.95135966349883,114.58537370085826,-3.23295607813634e-05,0.0940094217658042,0,0,0
10737,374311.17177633627,2010-11-05 22:22:38,574.3226080670596,4,33,0.2772159874439239,4.199491024017334,32.2966590834205,31.438102749029643,129.0042676311254,114.58537370085826,-6.47544875391759e-05,0.0940094217658042,0,0,0
10738,374491.51364084,2010-11-05 22:25:39,754.6644725908131,4,33,0.226826012134552,4.199653148651123,32.30926931657978,31.438102749029643,129.05722673733212,114.58537370085826,3.24249267578125e-05,0.0940094217658042,0,0,0
10739,374721.433277761,2010-11-05 22:29:29,984.584109541895,4,33,0.1766166239976883,4.199491024017334,32.32211449827681,31.438102749029643,129.11117256308313,114.58537370085826,-3.24249267578125e-05,0.0940094217658042,0,0,0
10740,375037.44591165247,2010-11-05 22:34:45,1300.596743408354,4,33,0.1265878528356552,4.199653148651123,32.335315274128334,31.438102749029643,129.166611771826,114.58537370085826,0.0,0.0940094217658042,0,0,0
10741,375555.69067164336,2010-11-05 22:43:23,1818.8415033942413,4,33,0.0765590891242027,4.199814796447754,32.3496295402818,31.438102749029643,129.22672742275887,114.58537370085826,3.23295607813634e-05,0.0940094217658042,0,0,0
10742,376040.592159813,2010-11-05 22:51:28,2303.7429915639423,4,33,0.0498289167881011,4.199491024017334,32.35804992650456,31.438102749029643,129.26209046613968,114.58537370085826,-6.47544875391759e-05,0.0940094217658042,0,0,0
10743,376070.62156289787,2010-11-05 22:51:58,30.01545004106404,5,33,0.0,4.192044734954834,32.35804992650456,31.438102749029643,129.26209046613968,114.58537370085826,0.0,0.0940094217658042,0,0,0
10744,376100.6211379274,2010-11-05 22:52:28,60.015025080682165,5,33,0.0,4.190749645233154,32.35804992650456,31.438102749029643,129.26209046613968,114.58537370085826,-3.23295607813634e-05,0.0940094217658042,0,0,0
10745,376100.80768209946,2010-11-05 22:52:28,0.187623051000382,6,33,-1.9243103452026844e-05,4.190749645233154,32.35804992650456,31.438102750032545,129.26209046613968,114.58537370506116,0.0,0.0948198437690734,0,0,0
10746,376105.6356373236,2010-11-05 22:52:33,5.015578275001832,6,33,0.0007031940040178,4.190749645233154,32.35805077973611,31.43810275011571,129.26209404192022,114.58537370540972,-3.23295607813634e-05,0.0948198437690734,0,0,0
10747,376135.66556814814,2010-11-05 22:53:03,30.01534612166523,7,33,-1.0997490882873535,4.017531871795654,32.35805077973611,31.44727195064952,129.26209404192022,114.62240119714144,-0.0008418083307333,0.0948198437690734,0,0,0
10748,376165.680923172,2010-11-05 22:53:33,60.030701170614336,7,33,-1.0997490882873535,3.991630077362061,32.35805077973611,31.45644110312476,129.26209404192022,114.659110382791,-0.0005503654247149,0.0948198437690734,0,0,0
10749,376195.6962367925,2010-11-05 22:54:03,90.04601477611423,7,33,-1.099568486213684,3.973822593688965,32.35805077973611,31.465610150524487,129.26209404192022,114.69562397070928,-0.0004209041653666,0.0948198437690734,0,0,0
10750,376225.7115527589,2010-11-05 22:54:33,120.06133074250724,7,33,-1.099568486213684,3.960062265396118,32.35805077973611,31.474779144833903,129.26209404192022,114.73199402804462,-0.0003237724304199,0.0948198437690734,0,0,0
10751,376255.72709034354,2010-11-05 22:55:03,150.07686831706835,7,33,-1.0997490882873535,3.947920799255371,32.35805077973611,31.483948256000907,129.26209404192022,114.7682471894979,-0.0002913951757363,0.0948198437690734,0,0,0
10752,376285.7423541247,2010-11-05 22:55:33,180.09213209819896,7,33,-1.0997490882873535,3.937398195266724,32.35805077973611,31.49311726008614,129.26209404192022,114.80439673443858,-0.0002266406954731,0.0948198437690734,0,0,0
10753,376315.7575432043,2010-11-05 22:56:03,210.1073211778632,7,33,-1.0997490882873535,3.927361249923706,32.35805077973611,31.502286214636204,129.26209404192022,114.840451713331,-0.0002266406954731,0.0948198437690734,0,0,0
10754,376345.7728835816,2010-11-05 22:56:33,240.1226615551897,7,33,-1.0997490882873535,3.917971849441528,32.35805077973611,31.511455325269846,129.26209404192022,114.87641882021448,-0.0002266406954731,0.0948198437690734,0,0,0
10755,376375.78824050527,2010-11-05 22:57:03,270.1380184788183,7,33,-1.0997490882873535,3.9089064598083496,32.35805077973611,31.5206243853305,129.26209404192022,114.912301064367,-0.0002266406954731,0.0948198437690734,0,0,0
10756,376405.80353688274,2010-11-05 22:57:33,300.1533148563144,7,33,-1.0997490882873535,3.900164604187012,32.35805077973611,31.529793476650926,129.26209404192022,114.9481021007418,-0.0002590179501567,0.0948198437690734,0,0,0
10757,376435.8188724932,2010-11-05 22:58:03,330.168650466742,7,33,-1.0997490882873535,3.8917465209960938,32.35805077973611,31.53896259022722,129.26209404192022,114.98382418548292,-0.0002590179501567,0.0948198437690734,0,0,0
10758,376465.8342118129,2010-11-05 22:58:33,360.183989791441,7,33,-1.0997490882873535,3.883166551589966,32.35805077973611,31.548131686626256,129.26209404192022,115.01946870840231,-0.0002590179501567,0.0948198437690734,0,0,0
10759,376495.8495556538,2010-11-05 22:59:03,390.1993336274006,7,33,-1.0997490882873535,3.8752341270446777,32.35805077973611,31.55730078696057,129.26209404192022,115.0550382298742,-0.0002266406954731,0.0948198437690734,0,0,0
10760,376525.865109078,2010-11-05 22:59:33,420.2148870615498,7,33,-1.099929690361023,3.8669779300689697,32.35805077973611,31.56646995474344,129.26209404192022,115.09053350570444,-0.0002266406954731,0.0948198437690734,0,0,0
10761,376555.8801967295,2010-11-05 23:00:03,450.22997470802113,7,33,-1.0997490882873535,3.859207391738892,32.35805077973611,31.57563900788703,129.26209404192022,115.12595484813149,-0.0002266406954731,0.0948198437690734,0,0,0
10762,376585.8956616075,2010-11-05 23:00:33,480.2454395811082,7,33,-1.099568486213684,3.851274967193604,32.35805077973611,31.58480817833227,129.26209404192022,115.1613038905171,-0.0002266406954731,0.0948198437690734,0,0,0
10763,376615.910997624,2010-11-05 23:01:04,510.26077560256175,7,33,-1.0997490882873535,3.843666315078736,32.35805077973611,31.593977331769068,129.26209404192022,115.19658135271696,-0.0001942634553415,0.0948198437690734,0,0,0
10764,376645.9262740166,2010-11-05 23:01:34,540.2760521054479,7,33,-1.0997490882873535,3.836057662963867,32.35805077973611,31.603146441493045,129.26209404192022,115.23178931219267,-0.0001942634553415,0.0948198437690734,0,0,0
10765,376675.9415214519,2010-11-05 23:02:04,570.2912994555642,7,33,-1.099929690361023,3.828287363052368,32.35805077973611,31.612315509908843,129.26209404192022,115.26692729178964,-0.0002266406954731,0.0948198437690734,0,0,0
10766,376705.9568712929,2010-11-05 23:02:34,600.3066492915007,7,33,-1.0997490882873535,3.82100248336792,32.35805077973611,31.621484719905467,129.26209404192022,115.30199715190736,-0.0001942634553415,0.0948198437690734,0,0,0
10767,376735.97219859256,2010-11-05 23:03:04,630.3219765961958,7,33,-1.0997490882873535,3.8138794898986816,32.35805077973611,31.6306538820304,129.26209404192022,115.3370004124495,-0.0001942634553415,0.0948198437690734,0,0,0
10768,376765.9875326541,2010-11-05 23:03:34,660.3373106276821,7,33,-1.099929690361023,3.8067564964294434,32.35805077973611,31.639822986439462,129.26209404192022,115.37193776788322,-0.0001942634553415,0.0948198437690734,0,0,0
10769,376796.0029290413,2010-11-05 23:04:04,690.3527071301056,7,33,-1.099568486213684,3.799957275390625,32.35805077973611,31.64899214462137,129.26209404192022,115.40681094302798,-0.0001942634553415,0.0948198437690734,0,0,0
10770,376826.0181961357,2010-11-05 23:04:34,720.3679741342814,7,33,-1.099568486213684,3.7933199405670166,32.35805077973611,31.65816120121559,129.26209404192022,115.44162173068234,-0.0001295089750783,0.0948198437690734,0,0,0
10771,376856.0336665376,2010-11-05 23:05:04,750.3834445111065,7,33,-1.099568486213684,3.786682605743408,32.35805077973611,31.667330321014436,129.26209404192022,115.47637201738948,-0.0001618862152099,0.0948198437690734,0,0,0
10772,376886.04885857966,2010-11-05 23:05:34,780.3986365531655,7,33,-1.0997490882873535,3.7802071571350098,32.35805077973611,31.67649936821141,129.26209404192022,115.51106188595368,-0.0001295089750783,0.0948198437690734,0,0,0
10773,376916.0643478436,2010-11-05 23:06:04,810.4141258221484,7,33,-1.099568486213684,3.7737317085266113,32.35805077973611,31.68566855690616,129.26209404192022,115.54569300973696,-0.0001618862152099,0.0948198437690734,0,0,0
10774,376946.0796038854,2010-11-05 23:06:34,840.4293819742356,7,33,-1.0997490882873535,3.767418146133423,32.35805077973611,31.694837617863595,129.26209404192022,115.58026502997902,-0.0001942634553415,0.0948198437690734,0,0,0
10775,376976.09528508346,2010-11-05 23:07:04,870.4450630770652,7,33,-1.0997490882873535,3.761266469955444,32.35805077973611,31.70400686245048,129.26209404192022,115.61478079838146,-0.0001618862152099,0.0948198437690734,0,0,0
10776,377006.11019334215,2010-11-05 23:07:34,900.4599713157073,7,33,-1.099568486213684,3.7554385662078857,32.35805077973611,31.713175841369186,129.26209404192022,115.64924027881334,-0.0001295089750783,0.0948198437690734,0,0,0
10777,377036.1255245716,2010-11-05 23:08:04,930.4753025451994,7,33,-1.099568486213684,3.749610900878906,32.35805077973611,31.72234495847523,129.26209404192022,115.68364601039998,-6.47544875391759e-05,0.0948198437690734,0,0,0
10778,377066.14085011696,2010-11-05 23:08:34,960.4906280905028,7,33,-1.0997490882873535,3.7436211109161377,32.35805077973611,31.731514058424715,129.26209404192022,115.7179980473349,-0.0001618862152099,0.0948198437690734,0,0,0
10779,377096.1561978627,2010-11-05 23:09:04,990.505975836222,7,33,-1.099929690361023,3.737955093383789,32.35805077973611,31.740683139351283,129.26209404192022,115.75229795110172,-0.0001618862152099,0.0948198437690734,0,0,0
10780,377126.1715292175,2010-11-05 23:09:34,1020.5213071910268,7,33,-1.0997490882873535,3.73228907585144,32.35805077973611,31.749852277220366,129.26209404192022,115.7865464184886,-0.0001942634553415,0.0948198437690734,0,0,0
10781,377156.1869709328,2010-11-05 23:10:04,1050.5367489063085,7,33,-1.099568486213684,3.726946830749512,32.35805077973611,31.759021435374702,129.26209404192022,115.8207440618936,-0.0001295089750783,0.0948198437690734,0,0,0
10782,377186.2023432699,2010-11-05 23:10:34,1080.5521212434114,7,33,-1.099568486213684,3.721442699432373,32.35805077973611,31.7681905410757,129.26209404192022,115.85489206109104,-0.0001295089750783,0.0948198437690734,0,0,0
10783,377216.2177429753,2010-11-05 23:11:04,1110.56752094883,7,33,-1.0997490882873535,3.716100454330444,32.35805077973611,31.777359704658576,129.26209404192022,115.88899061764788,-0.0001618862152099,0.0948198437690734,0,0,0
10784,377246.232817865,2010-11-05 23:11:34,1140.5825958384582,7,33,-1.099568486213684,3.7109200954437256,32.35805077973611,31.78652872453346,129.26209404192022,115.92304008162222,-0.0001295089750783,0.0948198437690734,0,0,0
10785,377276.2481568588,2010-11-05 23:12:04,1170.5979348323317,7,33,-1.099568486213684,3.705739736557007,32.35805077973611,31.79569777484405,129.26209404192022,115.95704161408374,-0.0001295089750783,0.0948198437690734,0,0,0
10786,377306.263483958,2010-11-05 23:12:34,1200.6132619315138,7,33,-1.0997490882873535,3.700559377670288,32.35805077973611,31.804866826708466,129.26209404192022,115.99099574985613,-0.0001295089750783,0.0948198437690734,0,0,0
10787,377336.2788541497,2010-11-05 23:13:04,1230.6286321232617,7,33,-1.099568486213684,3.6955409049987793,32.35805077973611,31.81403586839381,129.26209404192022,116.02490312424642,-0.0001295089750783,0.0948198437690734,0,0,0
10788,377366.2941565623,2010-11-05 23:13:34,1260.6439345408346,7,33,-1.0997490882873535,3.6905224323272714,32.35805077973611,31.823204922103265,129.26209404192022,116.058764852795,-0.0001618862152099,0.0948198437690734,0,0,0
10789,377396.3095021326,2010-11-05 23:14:04,1290.6592801061113,7,33,-1.0997490882873535,3.685665845870972,32.35805077973611,31.83237393071888,129.26209404192022,116.09258097842032,-0.0001295089750783,0.0948198437690734,0,0,0
10790,377426.32482826937,2010-11-05 23:14:34,1320.6746062428908,7,33,-1.0997490882873535,3.680809259414673,32.35805077973611,31.84154297165774,129.26209404192022,116.12635290439378,-0.0001295089750783,0.0948198437690734,0,0,0
10791,377456.3401907318,2010-11-05 23:15:04,1350.689968705345,7,33,-1.099568486213684,3.676114559173584,32.35805077973611,31.85071198363802,129.26209404192022,116.1600803548294,-9.713172767078504e-05,0.0948198437690734,0,0,0
10792,377486.3556271839,2010-11-05 23:15:34,1380.7054051524767,7,33,-1.0997490882873535,3.671258211135864,32.35805077973611,31.85988102199031,129.26209404192022,116.1937643656062,-0.0001618862152099,0.0948198437690734,0,0,0
10793,377516.37085711554,2010-11-05 23:16:04,1410.7206350891263,7,33,-1.0997490882873535,3.666725397109986,32.35805077973611,31.86905005853045,129.26209404192022,116.2274056487842,-0.0001295089750783,0.0948198437690734,0,0,0
10794,377546.3861779191,2010-11-05 23:16:34,1440.7359558925934,7,33,-1.0997490882873535,3.662030696868897,32.35805077973611,31.878219129564684,129.26209404192022,116.26100500076537,-0.0001295089750783,0.0948198437690734,0,0,0
10795,377576.4015055095,2010-11-05 23:17:04,1470.7512834830018,7,33,-1.0997490882873535,3.6574978828430176,32.35805077973611,31.8873882312372,129.26209404192022,116.2945627895116,-0.0001295089750783,0.0948198437690734,0,0,0
10796,377606.416819105,2010-11-05 23:17:34,1500.7665970784765,7,33,-1.0997490882873535,3.6531269550323486,32.35805077973611,31.89655730780613,129.26209404192022,116.32807947252468,-0.0001295089750783,0.0948198437690734,0,0,0
10797,377636.432159392,2010-11-05 23:18:04,1530.781937365578,7,33,-1.099568486213684,3.6490797996521,32.35805077973611,31.905726412456104,129.26209404192022,116.36155611782762,-6.47544875391759e-05,0.0948198437690734,0,0,0
10798,377666.4502219543,2010-11-05 23:18:34,1560.8000000231348,7,33,-1.099568486213684,3.6445469856262207,32.35805077973611,31.914896255873632,129.26209404192022,116.3949956914801,-0.0001295089750783,0.0948198437690734,0,0,0
10799,377696.4630698099,2010-11-05 23:19:04,1590.8128477885182,7,33,-1.0997490882873535,3.6403379440307617,32.35805077973611,31.924064510613427,129.26209404192022,116.42839041024988,-0.0001295089750783,0.0948198437690734,0,0,0
10800,377726.4781879826,2010-11-05 23:19:34,1620.8279659561751,7,33,-1.0997490882873535,3.6359670162200928,32.35805077973611,31.93323347933832,129.26209404192022,116.46174912109524,-0.0001295089750783,0.0948198437690734,0,0,0
10801,377756.4935138789,2010-11-05 23:20:04,1650.8432918523545,7,33,-1.0997490882873535,3.6320817470550537,32.35805077973611,31.94240247659665,129.26209404192022,116.49507021979848,-0.0001295089750783,0.0948198437690734,0,0,0
10802,377786.5088195896,2010-11-05 23:20:34,1680.858597563148,7,33,-1.0997490882873535,3.6280345916748047,32.35805077973611,31.951571550766783,129.26209404192022,116.52835467549646,-0.0001295089750783,0.0948198437690734,0,0,0
10803,377816.5243023022,2010-11-05 23:21:04,1710.8740802857903,7,33,-1.099568486213684,3.624311208724976,32.35805077973611,31.960740653177503,129.26209404192022,116.5616034056832,-9.713172767078504e-05,0.0948198437690734,0,0,0
10804,377846.5395093968,2010-11-05 23:21:34,1740.8892873703976,7,33,-1.099568486213684,3.620425939559937,32.35805077973611,31.96990965543014,129.26209404192022,116.59481690134432,-9.713172767078504e-05,0.0948198437690734,0,0,0
10805,377876.5549579341,2010-11-05 23:22:04,1770.9047359127208,7,33,-1.0997490882873535,3.616864442825317,32.35805077973611,31.97907875535999,129.26209404192022,116.62799675100612,-9.713172767078504e-05,0.0948198437690734,0,0,0
10806,377906.5701616855,2010-11-05 23:22:34,1800.9199396640074,7,33,-1.099568486213684,3.613302946090698,32.35805077973611,31.98824779763451,129.26209404192022,116.66114303802212,-6.47544875391759e-05,0.0948198437690734,0,0,0
10807,377936.585502128,2010-11-05 23:23:04,1830.935280101484,7,33,-1.0997490882873535,3.609741449356079,32.35805077973611,31.99741687993071,129.26209404192022,116.69425684193376,-6.47544875391759e-05,0.0948198437690734,0,0,0
10808,377966.6008477834,2010-11-05 23:23:34,1860.950625761998,7,33,-1.099568486213684,3.60650372505188,32.35805077973611,32.00658591292565,129.26209404192022,116.72733901207398,-6.47544875391759e-05,0.0948198437690734,0,0,0
10809,377996.6161557348,2010-11-05 23:24:04,1890.9659337133849,7,33,-1.0997490882873535,3.603104114532471,32.35805077973611,32.01575480307086,129.26209404192022,116.76038997283304,-6.47544875391759e-05,0.0948198437690734,0,0,0
10810,378026.6314871247,2010-11-05 23:24:34,1920.9812650982644,7,33,-1.0997490882873535,3.599704504013061,32.35805077973611,32.02492381045643,129.26209404192022,116.79341122635408,-9.713172767078504e-05,0.0948198437690734,0,0,0
10811,378056.6469645342,2010-11-05 23:25:04,1950.9967425176687,7,33,-1.0997490882873535,3.5964667797088623,32.35805077973611,32.03409289867456,129.26209404192022,116.82640343635032,-9.713172767078504e-05,0.0948198437690734,0,0,0
10812,378086.662154902,2010-11-05 23:25:34,1981.011932875524,7,33,-1.0997490882873535,3.593552827835083,32.35805077973611,32.043261858807085,129.26209404192022,116.8593666071424,-6.47544875391759e-05,0.0948198437690734,0,0,0
10813,378116.6776366873,2010-11-05 23:26:04,2011.0274146658387,7,33,-1.0997490882873535,3.590477228164673,32.35805077973611,32.05243096132518,129.26209404192022,116.89230213663411,-9.713172767078504e-05,0.0948198437690734,0,0,0
10814,378146.6928266892,2010-11-05 23:26:34,2041.042604672818,7,33,-1.0997490882873535,3.587401390075684,32.35805077973611,32.0615999933813,129.26209404192022,116.92520989409552,-9.713172767078504e-05,0.0948198437690734,0,0,0
10815,378176.70838298055,2010-11-05 23:27:04,2071.0581609540736,7,33,-1.0997490882873535,3.5844874382019043,32.35805077973611,32.07076918186389,129.26209404192022,116.95809064585076,-9.713172767078504e-05,0.0948198437690734,0,0,0
10816,378206.7236156991,2010-11-05 23:27:34,2101.0733936726674,7,33,-1.0997490882873535,3.581573486328125,32.35805077973611,32.07993818918647,129.26209404192022,116.9909438130687,-9.713172767078504e-05,0.0948198437690734,0,0,0
10817,378236.738952698,2010-11-05 23:28:04,2131.088730671561,7,33,-1.0997490882873535,3.578821420669556,32.35805077973611,32.08910720214771,129.26209404192022,117.02377025327311,-6.47544875391759e-05,0.0948198437690734,0,0,0
10818,378266.7541550157,2010-11-05 23:28:34,2161.1039329892697,7,33,-1.099568486213684,3.5757455825805664,32.35805077973611,32.09827620874214,129.26209404192022,117.0565699649246,-9.713172767078504e-05,0.0948198437690734,0,0,0
10819,378296.76951488166,2010-11-05 23:29:04,2191.1192928552427,7,33,-1.0997490882873535,3.572831630706787,32.35805077973611,32.10744519821024,129.26209404192022,117.08934289765992,-9.713172767078504e-05,0.0948198437690734,0,0,0
10820,378326.7848364821,2010-11-05 23:29:34,2221.134614455699,7,33,-1.0997490882873535,3.5700795650482178,32.35805077973611,32.11661424340946,129.26209404192022,117.12208958529746,-6.47544875391759e-05,0.0948198437690734,0,0,0
10821,378356.8001926088,2010-11-05 23:30:04,2251.149970582338,7,33,-1.0997490882873535,3.5670037269592285,32.35805077973611,32.125783318180744,129.26209404192022,117.15480974965746,-9.713172767078504e-05,0.0948198437690734,0,0,0
10822,378386.81563632906,2010-11-05 23:30:34,2281.165414307637,7,33,-1.0997490882873535,3.564089775085449,32.35805077973611,32.13495282989856,129.26209404192022,117.18750423193698,-9.713172767078504e-05,0.0948198437690734,0,0,0
10823,378416.8308010229,2010-11-05 23:31:04,2311.1805790064427,7,33,-1.099929690361023,3.56101393699646,32.35805077973611,32.14412254545492,129.26209404192022,117.22017225349678,-0.0001295089750783,0.0948198437690734,0,0,0
10824,378446.8462685375,2010-11-05 23:31:34,2341.196046521124,7,33,-1.0997490882873535,3.5580999851226807,32.35805077973611,32.153292239672886,129.26209404192022,117.25281289132182,-6.47544875391759e-05,0.0948198437690734,0,0,0
10825,378476.8614726747,2010-11-05 23:32:04,2371.2112506533613,7,33,-1.099929690361023,3.5550241470336914,32.35805077973611,32.16246204963351,129.26209404192022,117.28542584127462,-9.713172767078504e-05,0.0948198437690734,0,0,0
10826,378506.8768064356,2010-11-05 23:32:34,2401.2265844191847,7,33,-1.0997490882873535,3.551948308944702,32.35805077973611,32.17163184617736,129.26209404192022,117.31801012234826,-3.237724376958795e-05,0.0948198437690734,0,0,0
10827,378536.8921539608,2010-11-05 23:33:05,2431.2419319343285,7,33,-1.0997490882873535,3.548548698425293,32.35805077973611,32.18080168598919,129.26209404192022,117.35056518805828,-0.0001295089750783,0.0948198437690734,0,0,0
10828,378566.9074782279,2010-11-05 23:33:35,2461.2572562014416,7,33,-1.099568486213684,3.545149087905884,32.35805077973611,32.18997120991617,129.26209404192022,117.38308880500848,-9.713172767078504e-05,0.0948198437690734,0,0,0
10829,378596.92282652,2010-11-05 23:34:05,2491.2726044935243,7,33,-1.0997490882873535,3.541911363601685,32.35805077973611,32.19914025907021,129.26209404192022,117.41557980559188,-9.713172767078504e-05,0.0948198437690734,0,0,0
10830,378626.9381616993,2010-11-05 23:34:35,2521.287939672876,7,33,-1.099568486213684,3.5385117530822754,32.35805077973611,32.20830927780459,129.26209404192022,117.44803895617164,-3.237724376958795e-05,0.0948198437690734,0,0,0
10831,378656.95349180105,2010-11-05 23:35:05,2551.303269779565,7,33,-1.0997490882873535,3.5347883701324463,32.35805077973611,32.217478338260584,129.26209404192022,117.48046512303716,-9.713172767078504e-05,0.0948198437690734,0,0,0
10832,378686.96881358686,2010-11-05 23:35:35,2581.318591560472,7,33,-1.0997490882873535,3.5309031009674072,32.35805077973611,32.22664741692125,129.26209404192022,117.51285698423632,-9.713172767078504e-05,0.0948198437690734,0,0,0
10833,378716.98414788407,2010-11-05 23:36:05,2611.3339258576216,7,33,-1.0993878841400146,3.527017831802368,32.35805077973611,32.23581646955891,129.26209404192022,117.54521304911052,-6.47544875391759e-05,0.0948198437690734,0,0,0
10834,378746.99947725394,2010-11-05 23:36:35,2641.3492552274715,7,33,-1.0997490882873535,3.522646903991699,32.35805077973611,32.24498549275384,129.26209404192022,117.5775319639776,-9.713172767078504e-05,0.0948198437690734,0,0,0
10835,378777.0148642527,2010-11-05 23:37:05,2671.364642226172,7,33,-1.099929690361023,3.5181140899658203,32.35805077973611,32.254154525005426,129.26209404192022,117.6098121855604,-0.0001618862152099,0.0948198437690734,0,0,0
10836,378807.0301662191,2010-11-05 23:37:35,2701.379944192619,7,33,-1.0997490882873535,3.513743162155152,32.35805077973611,32.26332349654693,129.26209404192022,117.64205169335266,-0.0001295089750783,0.0948198437690734,0,0,0
10837,378837.0454883809,2010-11-05 23:38:05,2731.39526637954,7,33,-1.0997490882873535,3.5090487003326416,32.35805077973611,32.272492464992595,129.26209404192022,117.67424831663104,-0.0001295089750783,0.0948198437690734,0,0,0
10838,378867.0608201467,2010-11-05 23:38:35,2761.410598120308,7,33,-1.0997490882873535,3.503868341445923,32.35805077973611,32.281661526656194,129.26209404192022,117.70639977107224,-0.0001295089750783,0.0948198437690734,0,0,0
10839,378897.0761693812,2010-11-05 23:39:05,2791.4259473747934,7,33,-1.0993878841400146,3.498526096343994,32.35805077973611,32.290830550028495,129.26209404192022,117.73850166401708,-0.0001295089750783,0.0948198437690734,0,0,0
10840,378927.0916078985,2010-11-05 23:39:35,2821.4413858770545,7,33,-1.0997490882873535,3.492050647735596,32.35805077973611,32.29999963545001,129.26209404192022,117.77054949496888,-0.0002266406954731,0.0948198437690734,0,0,0
10841,378957.10689952417,2010-11-05 23:40:05,2851.456677537777,7,33,-1.0997490882873535,3.4849276542663574,32.35805077973611,32.30916864533008,129.26209404192022,117.80253660997586,-0.0001942634553415,0.0948198437690734,0,0,0
10842,378987.12215144566,2010-11-05 23:40:35,2881.471929419204,7,33,-1.0997490882873535,3.47683334350586,32.35805077973611,32.31833758047454,129.26209404192022,117.83445427607226,-0.0002266406954731,0.0948198437690734,0,0,0
10843,379017.1375280634,2010-11-05 23:41:05,2911.4873060369923,7,33,-1.0997490882873535,3.467605829238892,32.35805077973611,32.32750663881528,129.26209404192022,117.86629216717344,-0.0002266406954731,0.0948198437690734,0,0,0
10844,379047.1528198344,2010-11-05 23:41:35,2941.50259780799,7,33,-1.099929690361023,3.4561119079589844,32.35805077973611,32.336675682461994,129.26209404192022,117.89803573989718,-0.0003561496851034,0.0948198437690734,0,0,0
10845,379077.168282878,2010-11-05 23:42:05,2971.5180608565224,7,33,-1.099568486213684,3.4426753520965576,32.35805077973611,32.34584467392858,129.26209404192022,117.92966537394804,-0.0003561496851034,0.0948198437690734,0,0,0
10846,379107.1834981279,2010-11-05 23:42:35,3001.5332761014997,7,33,-1.0993878841400146,3.425353765487671,32.35805077973611,32.355013335687374,129.26209404192022,117.96115287492674,-0.0004856586456298,0.0948198437690734,0,0,0
10847,379137.1990681936,2010-11-05 23:43:05,3031.548846167163,7,33,-1.0997490882873535,3.4028515815734863,32.35805077973611,32.36418216135993,129.26209404192022,117.99246141958024,-0.0007122993702068,0.0948198437690734,0,0,0
10848,379167.2141620807,2010-11-05 23:43:35,3061.5639400542123,7,33,-1.0997490882873535,3.373064517974853,32.35805077973611,32.37335071019172,129.26209404192022,118.02353269549504,-0.0009389400365762,0.0948198437690734,0,0,0
10849,379197.229492047,2010-11-05 23:44:05,3091.579270020552,7,33,-1.0997490882873535,3.3322694301605225,32.35805077973611,32.38251949892486,129.26209404192022,118.05428359926118,-0.0012627125252038,0.0948198437690734,0,0,0
10850,379227.24484521634,2010-11-05 23:44:35,3121.5946231797834,7,33,-1.099929690361023,3.2747998237609863,32.35805077973611,32.391688479173546,129.26209404192022,118.08458919150274,-0.0017807483673095,0.0948198437690734,0,0,0
10851,379257.2603025205,2010-11-05 23:45:05,3151.610080483977,7,33,-1.099568486213684,3.1927237510681152,32.35805077973611,32.4008575137598,129.26209404192022,118.11426351123316,-0.0025901794433593,0.0948198437690734,0,0,0
10852,379287.2754903018,2010-11-05 23:45:35,3181.625268270413,7,33,-1.0997490882873535,3.066129207611084,32.35805077973611,32.41002645573468,129.26209404192022,118.14300353194577,-0.0041119097732007,0.0948198437690734,0,0,0
10853,379311.88465025614,2010-11-05 23:46:00,3206.234428224684,7,33,-1.0997490882873535,2.8658766746521,32.35805077973611,32.41754402428922,129.26209404192022,118.1654053364824,-0.0090655805543065,0.0948198437690734,0,0,0
10854,379323.853274674,2010-11-05 23:46:11,3218.203052642558,7,33,-1.0997490882873535,2.699943780899048,32.35805077973611,32.42120020736272,129.26209404192022,118.17559093058723,-0.0117528913542628,0.0948198437690734,0,0,0
10855,379383.8829927459,2010-11-05 23:47:12,60.01505081491878,8,33,0.0,3.292931079864502,32.35805077973611,32.42120020736272,129.26209404192022,118.17559093058723,0.0012627125252038,0.0948198437690734,0,0,0
10856,379384.08567335375,2010-11-05 23:47:12,0.187441908841686,9,33,-0.0001998523803194,3.293740510940552,32.35805077973611,32.42120021776847,129.26209404192022,118.17559096486109,0.0,0.0939245000481605,0,0,0
10857,379388.91385069216,2010-11-05 23:47:17,5.015619242262416,9,33,0.0003419754502829,3.30037784576416,32.35805164178964,32.42120021776847,129.2620968844682,118.17559096486109,0.0010684489971026,0.0939245000481605,0,0,0
