Data_Point,Test_Time(s),Date_Time,Step_Time(s),Step_Index,Cycle_Index,Current(A),Voltage(V),Charge_Capacity(Ah),Discharge_Capacity(Ah),Charge_Energy(Wh),Discharge_Energy(Wh),dV/dt(V/s),Internal_Resistance(Ohm),Is_FC_Data,AC_Impedance(Ohm),ACI_Phase_Angle(Deg)
16176,562864.0523256279,2010-11-08 02:45:30,30.01538555008463,1,50,0.0,3.3244988918304443,48.11432655989236,48.18206034077038,192.0875967132707,175.80711470911217,0.0006799221155233,0.0931148082017898,0,0,0
16177,562894.0676432335,2010-11-08 02:46:00,60.03070318564417,1,50,0.0,3.347486734390259,48.11432655989236,48.18206034077038,192.0875967132707,175.80711470911217,0.0005504131549969,0.0931148082017898,0,0,0
16178,562924.0834147569,2010-11-08 02:46:30,90.04647467910284,1,50,0.0,3.3649702072143555,48.11432655989236,48.18206034077038,192.0875967132707,175.80711470911217,0.0003885269106831,0.0931148082017898,0,0,0
16179,562954.0515714015,2010-11-08 02:47:00,120.01463131856056,1,50,0.0,3.378892421722412,48.11432655989236,48.18206034077038,192.0875967132707,175.80711470911217,0.0003237724304199,0.0931148082017898,0,0,0
16180,562984.0793979845,2010-11-08 02:47:30,30.015380833310843,2,50,0.550297200679779,3.5422351360321045,48.11891340625617,48.18206034077038,192.10366162592305,175.80711470911217,0.0018131255637854,0.0931148082017898,0,0,0
16181,563014.0948478552,2010-11-08 02:48:00,60.03083070896199,2,50,0.5499359965324402,3.5967905521392822,48.1235002954197,48.18206034077038,192.12004181527945,175.80711470911217,0.0012950419913977,0.0931148082017898,0,0,0
16182,563044.1101623629,2010-11-08 02:48:30,90.04614521671401,2,50,0.5501165986061096,3.637262105941773,48.12808719392194,48.18206034077038,192.136636979586,175.80711470911217,0.0009389400365762,0.0931148082017898,0,0,0
16183,563074.1255399782,2010-11-08 02:49:00,120.06152283199216,2,50,0.5501165986061096,3.6694774627685542,48.13267401895868,48.18206034077038,192.1533972450709,175.80711470911217,0.0007446765666827,0.0931148082017898,0,0,0
16184,563104.141073648,2010-11-08 02:49:31,150.07705650180642,2,50,0.550297200679779,3.696026563644409,48.13726089578528,48.18206034077038,192.17029152216577,175.80711470911217,0.0006475448608398,0.0931148082017898,0,0,0
16185,563134.156315735,2010-11-08 02:50:01,180.09229858878507,2,50,0.550297200679779,3.7185287475585938,48.1418477690094,48.18206034077038,192.18729727818643,175.80711470911217,0.0005827903514727,0.0931148082017898,0,0,0
16186,563164.1718146481,2010-11-08 02:50:31,210.10779750184116,2,50,0.5501165986061096,3.736983776092529,48.14643466642645,48.18206034077038,192.204397172414,175.80711470911217,0.0004532813909463,0.0931148082017898,0,0,0
16187,563194.1871921079,2010-11-08 02:51:01,240.1231749717564,2,50,0.5499359965324402,3.7522010803222656,48.15102153393443,48.18206034077038,192.2215747587433,175.80711470911217,0.0003561496851034,0.0931148082017898,0,0,0
16188,563224.2024559241,2010-11-08 02:51:31,270.1384387779496,2,50,0.5501165986061096,3.762075901031494,48.155608374999176,48.18206034077038,192.23881020488105,175.80711470911217,0.0001942634553415,0.0931148082017898,0,0,0
16189,563254.217954326,2010-11-08 02:52:01,300.153937204792,2,50,0.5499359965324402,3.768065690994263,48.16019528283012,48.18206034077038,192.25608177626205,175.80711470911217,0.0001295089750783,0.0931148082017898,0,0,0
16190,563284.2332157461,2010-11-08 02:52:31,330.1691985999668,2,50,0.5501165986061096,3.772436618804932,48.1647821275412,48.18206034077038,192.2733758012959,175.80711470911217,9.713172767078504e-05,0.0931148082017898,0,0,0
16191,563314.2486259879,2010-11-08 02:53:01,360.1846088416856,2,50,0.5499359965324402,3.775998115539551,48.1693690169283,48.18206034077038,192.29068801674572,175.80711470911217,6.47544875391759e-05,0.0931148082017898,0,0,0
16192,563344.2640166356,2010-11-08 02:53:31,390.199999489495,2,50,0.5501165986061096,3.77972149848938,48.173955854341386,48.18206034077038,192.30801668585912,175.80711470911217,0.0001295089750783,0.0931148082017898,0,0,0
16193,563374.279364221,2010-11-08 02:54:01,420.2153470748137,2,50,0.5501165986061096,3.783121109008789,48.17854274789342,48.18206034077038,192.3253615865034,175.80711470911217,9.713172767078504e-05,0.0931148082017898,0,0,0
16194,563404.2947145131,2010-11-08 02:54:31,450.2306973668889,2,50,0.5501165986061096,3.786358833312988,48.18312956756035,48.18206034077038,192.3427214628984,175.80711470911217,6.47544875391759e-05,0.0931148082017898,0,0,0
16195,563434.3101053464,2010-11-08 02:55:01,480.2460882001612,2,50,0.5501165986061096,3.789596557617188,48.187716422486254,48.18206034077038,192.3600963253872,175.80711470911217,9.713172767078504e-05,0.0931148082017898,0,0,0
16196,563464.3254961194,2010-11-08 02:55:31,510.2614789732834,2,50,0.550297200679779,3.7926723957061768,48.1923031559536,48.18206034077038,192.37748514273915,175.80711470911217,9.713172767078504e-05,0.0931148082017898,0,0,0
16197,563494.3410054536,2010-11-08 02:56:01,540.2769883123643,2,50,0.5501165986061096,3.795748233795166,48.19688996248084,48.18206034077038,192.39488839262123,175.80711470911217,9.713172767078504e-05,0.0931148082017898,0,0,0
16198,563524.3562487385,2010-11-08 02:56:31,570.2922315923208,2,50,0.5501165986061096,3.7988240718841553,48.20147680824754,48.18206034077038,192.41230570801537,175.80711470911217,9.713172767078504e-05,0.0931148082017898,0,0,0
16199,563554.3717783582,2010-11-08 02:57:01,600.3077612170379,2,50,0.5499359965324402,3.8015761375427246,48.20606365981596,48.18206034077038,192.42973667098732,175.80711470911217,6.47544875391759e-05,0.0931148082017898,0,0,0
16200,563584.3871459485,2010-11-08 02:57:31,630.3231288022796,2,50,0.5501165986061096,3.804651975631714,48.210650578976825,48.18206034077038,192.44718129560596,175.80711470911217,9.713172767078504e-05,0.0931148082017898,0,0,0
16201,563614.4023909878,2010-11-08 02:58:01,660.3383738717029,2,50,0.550297200679779,3.807404041290283,48.21523746883175,48.18206034077038,192.46463925555656,175.80711470911217,6.47544875391759e-05,0.0931148082017898,0,0,0
16202,563644.4177770643,2010-11-08 02:58:31,690.3537599180262,2,50,0.5499359965324402,3.810479879379273,48.21982431080932,48.18206034077038,192.48211055771847,175.80711470911217,6.47544875391759e-05,0.0931148082017898,0,0,0
16203,563674.4331563135,2010-11-08 02:59:01,720.3691391723956,2,50,0.5501165986061096,3.8135557174682617,48.22441117862263,48.18206034077038,192.49959579350875,175.80711470911217,3.237724376958795e-05,0.0931148082017898,0,0,0
16204,563704.4487619732,2010-11-08 02:59:31,750.3847448268948,2,50,0.550297200679779,3.816793441772461,48.228998074468414,48.18206034077038,192.517095483386,175.80711470911217,9.713172767078504e-05,0.0931148082017898,0,0,0
16205,563734.4640731275,2010-11-08 03:00:01,780.4000559812763,2,50,0.5501165986061096,3.81986927986145,48.23358496252103,48.18206034077038,192.53460959827163,175.80711470911217,6.47544875391759e-05,0.0931148082017898,0,0,0
16206,563764.4793303371,2010-11-08 03:00:31,810.4153131910036,2,50,0.550297200679779,3.8232688903808594,48.23817180846261,48.18206034077038,192.55213843471373,175.80711470911217,9.713172767078504e-05,0.0931148082017898,0,0,0
16207,563794.4946887245,2010-11-08 03:01:01,840.4306715832984,2,50,0.550297200679779,3.826668500900269,48.242758625327546,48.18206034077038,192.56968244453145,175.80711470911217,0.0001295089750783,0.0931148082017898,0,0,0
16208,563824.510088841,2010-11-08 03:01:31,870.4460716947304,2,50,0.550297200679779,3.8300681114196777,48.24734553400256,48.18206034077038,192.5872424282916,175.80711470911217,9.713172767078504e-05,0.0931148082017898,0,0,0
16209,563854.525452722,2010-11-08 03:02:01,900.4614355757255,2,50,0.5501165986061096,3.833305597305298,48.25193239846125,48.18206034077038,192.60481790644053,175.80711470911217,3.23295607813634e-05,0.0931148082017898,0,0,0
16210,563884.5409659707,2010-11-08 03:02:31,930.476948824566,2,50,0.5501165986061096,3.836867094039917,48.25651929731919,48.18206034077038,192.62240926438875,175.80711470911217,9.713172767078504e-05,0.0931148082017898,0,0,0
16211,563914.5562187494,2010-11-08 03:03:01,960.4922016082452,2,50,0.5501165986061096,3.840104818344116,48.26110618350391,48.18206034077038,192.6400161753366,175.80711470911217,6.47544875391759e-05,0.0931148082017898,0,0,0
16212,563944.571604069,2010-11-08 03:03:31,990.5075869277542,2,50,0.550297200679779,3.843666315078736,48.26569312725487,48.18206034077038,192.6576387095433,175.80711470911217,0.0001295089750783,0.0931148082017898,0,0,0
16213,563974.5872384202,2010-11-08 03:04:01,1020.5232212788844,2,50,0.5501165986061096,3.8467421531677246,48.270279979574,48.18206034077038,192.67527602387312,175.80711470911217,6.47544875391759e-05,0.0931148082017898,0,0,0
16214,564004.6023616453,2010-11-08 03:04:31,1050.5383444991537,2,50,0.5499359965324402,3.849979877471924,48.2748668523568,48.18206034077038,192.69292835564104,175.80711470911217,6.47544875391759e-05,0.0931148082017898,0,0,0
16215,564034.6177395313,2010-11-08 03:05:01,1080.5537223851074,2,50,0.550297200679779,3.853217601776123,48.27945375439056,48.18206034077038,192.7105954125048,175.80711470911217,6.47544875391759e-05,0.0931148082017898,0,0,0
16216,564064.6331368306,2010-11-08 03:05:31,1110.5691196945452,2,50,0.550297200679779,3.856455326080322,48.2840406791294,48.18206034077038,192.72827670511776,175.80711470911217,0.0001295089750783,0.0931148082017898,0,0,0
16217,564094.648511629,2010-11-08 03:06:01,1140.5844944827666,2,50,0.5501165986061096,3.859207391738892,48.28862760804944,48.18206034077038,192.745971898864,175.80711470911217,6.47544875391759e-05,0.0931148082017898,0,0,0
16218,564124.6640084268,2010-11-08 03:06:31,1170.5999912805428,2,50,0.5499359965324402,3.862121343612671,48.293214482121314,48.18206034077038,192.76368018080467,175.80711470911217,6.47544875391759e-05,0.0931148082017898,0,0,0
16219,564154.682054533,2010-11-08 03:07:01,1200.6180374719972,2,50,0.5499359965324402,3.8647115230560303,48.297801773801886,48.18206034077038,192.7814028494446,175.80711470911217,3.237724376958795e-05,0.0931148082017898,0,0,0
16220,564184.6949196066,2010-11-08 03:07:31,1230.630902465385,2,50,0.5501165986061096,3.8673017024993896,48.30238829502752,48.18206034077038,192.79913480470069,175.80711470911217,6.47544875391759e-05,0.0931148082017898,0,0,0
16221,564214.7100441101,2010-11-08 03:08:01,1260.6460269638444,2,50,0.5501165986061096,3.869891881942749,48.306975167986494,48.18206034077038,192.8168797562764,175.80711470911217,6.47544875391759e-05,0.0931148082017898,0,0,0
16222,564244.7254203218,2010-11-08 03:08:31,1290.6614031756192,2,50,0.5499359965324402,3.872158288955689,48.31156207297166,48.18206034077038,192.83463593190805,175.80711470911217,0.0,0.0931148082017898,0,0,0
16223,564274.7408134358,2010-11-08 03:09:01,1320.676796294597,2,50,0.5501165986061096,3.874262809753418,48.31614895584081,48.18206034077038,192.85240243872448,175.80711470911217,3.237724376958795e-05,0.0931148082017898,0,0,0
16224,564304.7562046049,2010-11-08 03:09:31,1350.692187458695,2,50,0.550297200679779,3.876529216766357,48.32073583079068,48.18206034077038,192.87017866119345,175.80711470911217,0.0001295089750783,0.0931148082017898,0,0,0
16225,564334.7715594784,2010-11-08 03:10:01,1380.7075423322062,2,50,0.5499359965324402,3.878471851348877,48.32532267481631,48.18206034077038,192.88796400127927,175.80711470911217,3.237724376958795e-05,0.0931148082017898,0,0,0
16226,564364.7869499207,2010-11-08 03:10:31,1410.7229327945524,2,50,0.5501165986061096,3.8802525997161865,48.32990956069417,48.18206034077038,192.90575814569945,175.80711470911217,3.237724376958795e-05,0.0931148082017898,0,0,0
16227,564394.8025304825,2010-11-08 03:11:01,1440.7385133363664,2,50,0.5501165986061096,3.882033348083496,48.334496429730414,48.18206034077038,192.923560316236,175.80711470911217,3.237724376958795e-05,0.0931148082017898,0,0,0
16228,564424.8177414619,2010-11-08 03:11:31,1470.7537243357456,2,50,0.550297200679779,3.883652210235596,48.33908333296645,48.18206034077038,192.94137021452636,175.80711470911217,3.237724376958795e-05,0.0931148082017898,0,0,0
16229,564454.8331397338,2010-11-08 03:12:01,1500.7691226125985,2,50,0.5501165986061096,3.885109186172485,48.34367022978429,48.18206034077038,192.95918729012888,175.80711470911217,3.237724376958795e-05,0.0931148082017898,0,0,0
16230,564484.8485058753,2010-11-08 03:12:31,1530.784488729174,2,50,0.550297200679779,3.886728048324585,48.34825709158828,48.18206034077038,192.9770111486202,175.80711470911217,9.713172767078504e-05,0.0931148082017898,0,0,0
16231,564514.8639655054,2010-11-08 03:13:01,1560.7999484744612,2,50,0.550297200679779,3.8881850242614746,48.35284404643851,48.18206034077038,192.9948419680624,175.80711470911217,9.713172767078504e-05,0.0931148082017898,0,0,0
16232,564544.8792539281,2010-11-08 03:13:31,1590.8152367818127,2,50,0.5501165986061096,3.8894801139831534,48.35743094912137,48.18206034077038,193.0126790632502,175.80711470911217,9.713172767078504e-05,0.0931148082017898,0,0,0
16233,564574.8946101048,2010-11-08 03:14:01,1620.8305929585774,2,50,0.5499359965324402,3.890613317489624,48.36201783432901,48.18206034077038,193.03052232124568,175.80711470911217,0.0,0.0931148082017898,0,0,0
16234,564604.910018141,2010-11-08 03:14:31,1650.8460009998034,2,50,0.5501165986061096,3.892232179641724,48.36660471086924,48.18206034077038,193.04837176403663,175.80711470911217,9.713172767078504e-05,0.0931148082017898,0,0,0
16235,564634.9253714455,2010-11-08 03:15:01,1680.8613542993858,2,50,0.550297200679779,3.893365383148194,48.37119164915342,48.18206034077038,193.0662275098241,175.80711470911217,0.0,0.0931148082017898,0,0,0
16236,564664.9409878519,2010-11-08 03:15:31,1710.8769707107356,2,50,0.5501165986061096,3.894660472869873,48.37577868080333,48.18206034077038,193.0840897626132,175.80711470911217,6.47544875391759e-05,0.0931148082017898,0,0,0
16237,564694.9564042641,2010-11-08 03:16:01,1740.8923871228567,2,50,0.550297200679779,3.8959555625915527,48.38036565278798,48.18206034077038,193.10195728431017,175.80711470911217,3.237724376958795e-05,0.0931148082017898,0,0,0
16238,564724.9715205019,2010-11-08 03:16:31,1770.907503355684,2,50,0.5499359965324402,3.897250652313232,48.38495255375943,48.18206034077038,193.11983074907909,175.80711470911217,3.237724376958795e-05,0.0931148082017898,0,0,0
16239,564754.9868995908,2010-11-08 03:17:01,1800.922882444641,2,50,0.550297200679779,3.898707628250122,48.38953946887893,48.18206034077038,193.13771027544675,175.80711470911217,3.237724376958795e-05,0.0931148082017898,0,0,0
16240,564785.0024247444,2010-11-08 03:17:31,1830.938407608222,2,50,0.5504778623580933,3.9000027179718018,48.39412635609642,48.18206034077038,193.15559577213443,175.80711470911217,3.237724376958795e-05,0.0931148082017898,0,0,0
16241,564815.0177033476,2010-11-08 03:18:01,1860.9536862013256,2,50,0.5501165986061096,3.9012978076934814,48.39871321857121,48.18206034077038,193.1734871822646,175.80711470911217,3.237724376958795e-05,0.0931148082017898,0,0,0
16242,564845.0330536547,2010-11-08 03:18:31,1890.9690365084384,2,50,0.5499359965324402,3.902592897415161,48.40330013452661,48.18206034077038,193.1913850046954,175.80711470911217,3.237724376958795e-05,0.0931148082017898,0,0,0
16243,564875.0484371396,2010-11-08 03:19:01,1920.9844200184305,2,50,0.550297200679779,3.903887987136841,48.40788706810428,48.18206034077038,193.2092890226399,175.80711470911217,3.237724376958795e-05,0.0931148082017898,0,0,0
16244,564905.0638213112,2010-11-08 03:19:31,1950.999804165012,2,50,0.5501165986061096,3.9053449630737305,48.41247397154526,48.18206034077038,193.2271991512951,175.80711470911217,6.47544875391759e-05,0.0931148082017898,0,0,0
16245,564935.0793252719,2010-11-08 03:20:01,1981.0153081557428,2,50,0.550297200679779,3.90664005279541,48.41706084845206,48.18206034077038,193.24511527391493,175.80711470911217,3.237724376958795e-05,0.0931148082017898,0,0,0
16246,564965.0945780857,2010-11-08 03:20:31,2011.030560939421,2,50,0.5501165986061096,3.9080970287323,48.42164768980936,48.18206034077038,193.2630375337819,175.80711470911217,6.47544875391759e-05,0.0931148082017898,0,0,0
16247,564995.1099579516,2010-11-08 03:21:01,2041.0459408053173,2,50,0.5501165986061096,3.90939211845398,48.42623446627147,48.18206034077038,193.2809658553987,175.80711470911217,6.47544875391759e-05,0.0931148082017898,0,0,0
16248,565025.1253630805,2010-11-08 03:21:32,2071.0613459342744,2,50,0.5501165986061096,3.910849094390869,48.4308213904229,48.18206034077038,193.2989011573286,175.80711470911217,3.237724376958795e-05,0.0931148082017898,0,0,0
16249,565055.1407256883,2010-11-08 03:22:02,2101.076708542092,2,50,0.550297200679779,3.912306070327759,48.43540826259861,48.18206034077038,193.31684261224936,175.80711470911217,6.47544875391759e-05,0.0931148082017898,0,0,0
16250,565085.1561091532,2010-11-08 03:22:32,2131.092092006971,2,50,0.550297200679779,3.913762807846069,48.43999508450641,48.18206034077038,193.3347903107081,175.80711470911217,6.470680091297254e-05,0.0931148082017898,0,0,0
16251,565115.1714863825,2010-11-08 03:23:02,2161.107469236286,2,50,0.5501165986061096,3.914896011352539,48.44458201165259,48.18206034077038,193.3527449482294,175.80711470911217,3.237724376958795e-05,0.0931148082017898,0,0,0
16252,565145.1868784138,2010-11-08 03:23:32,2191.1228612675486,2,50,0.5501165986061096,3.9163529872894287,48.44916898498182,48.18206034077038,193.37070617165236,175.80711470911217,3.237724376958795e-05,0.0931148082017898,0,0,0
16253,565175.2022494426,2010-11-08 03:24:02,2221.1382323214484,2,50,0.5501165986061096,3.9178099632263184,48.453755840698776,48.18206034077038,193.3886735477752,175.80711470911217,3.237724376958795e-05,0.0931148082017898,0,0,0
16254,565205.217635519,2010-11-08 03:24:32,2251.1536183727844,2,50,0.5501165986061096,3.919266939163208,48.45834268883357,48.18206034077038,193.4066474511721,175.80711470911217,6.47544875391759e-05,0.0931148082017898,0,0,0
16255,565235.2330481717,2010-11-08 03:25:02,2281.169031035546,2,50,0.5501165986061096,3.9207239151000977,48.46292957465773,48.18206034077038,193.4246281725395,175.80711470911217,0.0,0.0931148082017898,0,0,0
16256,565265.2484167796,2010-11-08 03:25:32,2311.184399638328,2,50,0.5499359965324402,3.9221808910369873,48.46751642907491,48.18206034077038,193.44261533412725,175.80711470911217,3.237724376958795e-05,0.0931148082017898,0,0,0
16257,565295.2637400341,2010-11-08 03:26:02,2341.1997228879013,2,50,0.550297200679779,3.923799753189087,48.47210369603126,48.18206034077038,193.46061090778323,175.80711470911217,6.47544875391759e-05,0.0931148082017898,0,0,0
16258,565325.2791205867,2010-11-08 03:26:32,2371.215103440511,2,50,0.550297200679779,3.925256729125977,48.47669129215065,48.18206034077038,193.47861454180543,175.80711470911217,3.237724376958795e-05,0.0931148082017898,0,0,0
16259,565355.294521069,2010-11-08 03:27:02,2401.230503922869,2,50,0.550297200679779,3.926713705062866,48.481278792344455,48.18206034077038,193.49662453966644,175.80711470911217,3.237724376958795e-05,0.0931148082017898,0,0,0
16260,565385.3099231204,2010-11-08 03:27:32,2431.245905974143,2,50,0.5501165986061096,3.928008794784546,48.48586642684398,48.18206034077038,193.5146419235915,175.80711470911217,0.0,0.0931148082017898,0,0,0
16261,565415.3252804249,2010-11-08 03:28:02,2461.2612632787227,2,50,0.550297200679779,3.9296276569366455,48.490454074333805,48.18206034077038,193.5326662941628,175.80711470911217,3.237724376958795e-05,0.0931148082017898,0,0,0
16262,565445.340693624,2010-11-08 03:28:32,2491.2766764778235,2,50,0.550297200679779,3.931246519088745,48.49504170037518,48.18206034077038,193.55069762949728,175.80711470911217,6.47544875391759e-05,0.0931148082017898,0,0,0
16263,565475.356074277,2010-11-08 03:29:02,2521.292057130684,2,50,0.5501165986061096,3.9327034950256343,48.49962910028818,48.18206034077038,193.5687350590364,175.80711470911217,3.237724376958795e-05,0.0931148082017898,0,0,0
16264,565505.3714445188,2010-11-08 03:29:32,2551.307427372557,2,50,0.5501165986061096,3.9343223571777344,48.50421609190899,48.18206034077038,193.58677802096736,175.80711470911217,3.237724376958795e-05,0.0931148082017898,0,0,0
16265,565535.3868181541,2010-11-08 03:30:02,2581.3228010079006,2,50,0.5501165986061096,3.935779333114624,48.50880307296321,48.18206034077038,193.60482812115256,175.80711470911217,3.237724376958795e-05,0.0931148082017898,0,0,0
16266,565565.4023252527,2010-11-08 03:30:32,2611.3383081063885,2,50,0.5501165986061096,3.937398195266724,48.51339014411395,48.18206034077038,193.6228857156453,175.80711470911217,3.237724376958795e-05,0.0931148082017898,0,0,0
16267,565595.417581976,2010-11-08 03:31:02,2641.353564829902,2,50,0.5501165986061096,3.938855171203613,48.51797709375705,48.18206034077038,193.64095016597068,175.80711470911217,0.0,0.0931148082017898,0,0,0
16268,565625.4331635855,2010-11-08 03:31:32,2671.3691464694566,2,50,0.5501165986061096,3.940635919570923,48.52256404817219,48.18206034077038,193.65902196208853,175.80711470911217,3.237724376958795e-05,0.0931148082017898,0,0,0
16269,565655.4483831463,2010-11-08 03:32:02,2701.384366000131,2,50,0.5501165986061096,3.942092895507813,48.52715104805868,48.18206034077038,193.67710130721537,175.80711470911217,3.237724376958795e-05,0.0931148082017898,0,0,0
16270,565685.4637351427,2010-11-08 03:32:32,2731.3997179964604,2,50,0.5501165986061096,3.943873643875122,48.53173801321291,48.18206034077038,193.69518801949607,175.80711470911217,6.47544875391759e-05,0.0931148082017898,0,0,0
16271,565715.4791438606,2010-11-08 03:33:02,2761.4151267444504,2,50,0.5499359965324402,3.9454925060272217,48.53632491478221,48.18206034077038,193.71328194956075,175.80711470911217,3.237724376958795e-05,0.0931148082017898,0,0,0
16272,565745.4945066337,2010-11-08 03:33:32,2791.430489492618,2,50,0.5501165986061096,3.947111368179321,48.54091187216735,48.18206034077038,193.73138365181973,175.80711470911217,3.237724376958795e-05,0.0931148082017898,0,0,0
16273,565775.5098959433,2010-11-08 03:34:02,2821.4458787970743,2,50,0.5499359965324402,3.948730230331421,48.54549885360696,48.18206034077038,193.74949312546872,175.80711470911217,0.0,0.0931148082017898,0,0,0
16274,565805.5252654634,2010-11-08 03:34:32,2851.4612483121327,2,50,0.5501165986061096,3.9505109786987305,48.550085748191705,48.18206034077038,193.76760993104364,175.80711470911217,3.237724376958795e-05,0.0931148082017898,0,0,0
16275,565835.5406416951,2010-11-08 03:35:02,2881.4766245439578,2,50,0.550297200679779,3.95229172706604,48.55467283895113,48.18206034077038,193.7857353305502,175.80711470911217,3.237724376958795e-05,0.0931148082017898,0,0,0
16276,565865.556046764,2010-11-08 03:35:32,2911.492029617777,2,50,0.5499359965324402,3.95391058921814,48.55925984919541,48.18206034077038,193.803868249636,175.80711470911217,3.237724376958795e-05,0.0931148082017898,0,0,0
16277,565895.5715333914,2010-11-08 03:36:02,2941.507516245166,2,50,0.550297200679779,3.955853223800659,48.56384693183897,48.18206034077038,193.8220093796681,175.80711470911217,6.47544875391759e-05,0.0931148082017898,0,0,0
16278,565925.586783323,2010-11-08 03:36:32,2971.5227661717136,2,50,0.550297200679779,3.957310199737549,48.56843394496027,48.18206034077038,193.8401581668462,175.80711470911217,3.237724376958795e-05,0.0931148082017898,0,0,0
16279,565955.6021658806,2010-11-08 03:37:02,3001.538148734341,2,50,0.5501165986061096,3.9590909481048575,48.5730209278586,48.18206034077038,193.85831487524217,175.80711470911217,0.0,0.0931148082017898,0,0,0
16280,565985.6175582727,2010-11-08 03:37:32,3031.553541121492,2,50,0.5501165986061096,3.960871696472168,48.57760795856117,48.18206034077038,193.87647990373503,175.80711470911217,3.237724376958795e-05,0.0931148082017898,0,0,0
16281,566015.6329250208,2010-11-08 03:38:02,3061.568907869644,2,50,0.5501165986061096,3.962814331054688,48.58219499790446,48.18206034077038,193.89465320559952,175.80711470911217,6.47544875391759e-05,0.0931148082017898,0,0,0
16282,566045.6483611873,2010-11-08 03:38:32,3091.5843440661497,2,50,0.550297200679779,3.964595079421997,48.5867820471751,48.18206034077038,193.91283479502889,175.80711470911217,6.47544875391759e-05,0.0931148082017898,0,0,0
16283,566075.6665194235,2010-11-08 03:39:02,3121.602502362436,2,50,0.5499359965324402,3.9662139415740967,48.591369514408726,48.18206034077038,193.9310264428784,175.80711470911217,0.0,0.0931148082017898,0,0,0
16284,566105.6792568383,2010-11-08 03:39:32,3151.615239692155,2,50,0.5501165986061096,3.968156576156616,48.595956168237166,48.18206034077038,193.9492233319107,175.80711470911217,0.0,0.0931148082017898,0,0,0
16285,566135.6944848753,2010-11-08 03:40:02,3181.6304677290623,2,50,0.550297200679779,3.9702610969543457,48.60054321276425,48.18206034077038,193.96743031542903,175.80711470911217,6.47544875391759e-05,0.0931148082017898,0,0,0
16286,566165.7098636936,2010-11-08 03:40:32,3211.645846547344,2,50,0.5504778623580933,3.972203731536865,48.60513024921615,48.18206034077038,193.9856459336998,175.80711470911217,6.47544875391759e-05,0.0931148082017898,0,0,0
16287,566195.725255364,2010-11-08 03:41:02,3241.661238217705,2,50,0.5501165986061096,3.973984479904175,48.60971728166027,48.18206034077038,194.0038702682579,175.80711470911217,6.47544875391759e-05,0.0931148082017898,0,0,0
16288,566225.7406346885,2010-11-08 03:41:32,3271.676617542249,2,50,0.5501165986061096,3.975765228271485,48.61430437739522,48.18206034077038,194.02210368692565,175.80711470911217,3.237724376958795e-05,0.0931148082017898,0,0,0
16289,566255.7561265639,2010-11-08 03:42:02,3301.6921094227514,2,50,0.5501165986061096,3.977707862854004,48.61889147737804,48.18206034077038,194.04034600112584,175.80711470911217,0.0,0.0931148082017898,0,0,0
16290,566285.7714109065,2010-11-08 03:42:32,3331.7073937601936,2,50,0.5501165986061096,3.979974269866944,48.62347845163033,48.18206034077038,194.05859647689348,175.80711470911217,9.713172767078504e-05,0.0931148082017898,0,0,0
16291,566315.7867858551,2010-11-08 03:43:02,3361.7227687088152,2,50,0.5501165986061096,3.981755018234253,48.628065424075466,48.18206034077038,194.07685638504768,175.80711470911217,6.47544875391759e-05,0.0931148082017898,0,0,0
16292,566345.8021628388,2010-11-08 03:43:32,3391.7381456925173,2,50,0.5501165986061096,3.983697652816773,48.63265188214046,48.18206034077038,194.0951232874089,175.80711470911217,6.47544875391759e-05,0.0931148082017898,0,0,0
16293,566375.8177270949,2010-11-08 03:44:02,3421.7537099787546,2,50,0.5499359965324402,3.985640287399292,48.63723793981294,48.18206034077038,194.11339773302296,175.80711470911217,6.47544875391759e-05,0.0931148082017898,0,0,0
16294,566405.83291636,2010-11-08 03:44:32,3451.768899213807,2,50,0.5499359965324402,3.987906694412232,48.64182399059792,48.18206034077038,194.1316815767303,175.80711470911217,3.237724376958795e-05,0.0931148082017898,0,0,0
16295,566435.8483041407,2010-11-08 03:45:02,3481.784287019522,2,50,0.5501165986061096,3.990011215209961,48.646410162667685,48.18206034077038,194.14997533616705,175.80711470911217,9.713172767078504e-05,0.0931148082017898,0,0,0
16296,566465.863717876,2010-11-08 03:45:32,3511.799700729898,2,50,0.5501165986061096,3.991953849792481,48.65099684495457,48.18206034077038,194.16828089599247,175.80711470911217,3.237724376958795e-05,0.0931148082017898,0,0,0
16297,566495.8790836168,2010-11-08 03:46:02,3541.815066470536,2,50,0.5501165986061096,3.994220018386841,48.65558384761961,48.18206034077038,194.1865974999128,175.80711470911217,3.237724376958795e-05,0.0931148082017898,0,0,0
16298,566525.8945625951,2010-11-08 03:46:32,3571.830545448832,2,50,0.550297200679779,3.99648642539978,48.66017085616095,48.18206034077038,194.2049239360745,175.80711470911217,9.713172767078504e-05,0.0931148082017898,0,0,0
16299,566555.9098201406,2010-11-08 03:47:02,3601.8458029943977,2,50,0.5501165986061096,3.9984290599823,48.66475784187029,48.18206034077038,194.2232601991562,175.80711470911217,0.0,0.0931148082017898,0,0,0
16300,566585.9253390185,2010-11-08 03:47:32,3631.861321872289,2,50,0.5501165986061096,4.000695705413818,48.66934482626494,48.18206034077038,194.24160635042816,175.80711470911217,3.24249267578125e-05,0.0931148082017898,0,0,0
16301,566615.9407036614,2010-11-08 03:48:02,3661.8766865151865,2,50,0.550297200679779,4.002962112426758,48.673931738099725,48.18206034077038,194.25996239633136,175.80711470911217,3.24249267578125e-05,0.0931148082017898,0,0,0
16302,566645.9559630115,2010-11-08 03:48:32,3691.891945865256,2,50,0.550297200679779,4.005228519439697,48.678518692680754,48.18206034077038,194.2783288778247,175.80711470911217,6.47544875391759e-05,0.0931148082017898,0,0,0
16303,566675.9713465215,2010-11-08 03:49:02,3721.907329375249,2,50,0.5501165986061096,4.007494926452637,48.68310558467721,48.18206034077038,194.2967054813374,175.80711470911217,6.47544875391759e-05,0.0931148082017898,0,0,0
16304,566705.9868797251,2010-11-08 03:49:32,3751.922862578898,2,50,0.5501165986061096,4.009599208831787,48.687692555693125,48.18206034077038,194.3150927898734,175.80711470911217,3.23295607813634e-05,0.0931148082017898,0,0,0
16305,566736.0021084036,2010-11-08 03:50:02,3781.938091257408,2,50,0.5504778623580933,4.0121893882751465,48.69227949333391,48.18206034077038,194.3334904601716,175.80711470911217,0.0001295089750783,0.0931148082017898,0,0,0
16306,566766.0175516126,2010-11-08 03:50:32,3811.953534476443,2,50,0.5501165986061096,4.014294147491455,48.69686647818267,48.18206034077038,194.3518989151333,175.80711470911217,6.47544875391759e-05,0.0931148082017898,0,0,0
16307,566796.0329040651,2010-11-08 03:51:02,3841.9688869188863,2,50,0.550297200679779,4.0165605545043945,48.701453353723565,48.18206034077038,194.37031755236185,175.80711470911217,3.24249267578125e-05,0.0931148082017898,0,0,0
16308,566826.0482620313,2010-11-08 03:51:32,3871.9842448851177,2,50,0.5501165986061096,4.018826961517334,48.7060402460996,48.18206034077038,194.3887469798284,175.80711470911217,0.0,0.0931148082017898,0,0,0
16309,566856.0637675108,2010-11-08 03:52:02,3901.999750369576,2,50,0.5501165986061096,4.021255016326904,48.71062713797521,48.18206034077038,194.4071871145705,175.80711470911217,6.47544875391759e-05,0.0931148082017898,0,0,0
16310,566886.0790138383,2010-11-08 03:52:32,3932.014996692128,2,50,0.5501165986061096,4.023683547973633,48.7152140173023,48.18206034077038,194.4256382385892,175.80711470911217,6.47544875391759e-05,0.0931148082017898,0,0,0
16311,566916.0944182205,2010-11-08 03:53:02,3962.03040107422,2,50,0.5499359965324402,4.026111602783203,48.71980098337664,48.18206034077038,194.444100673524,175.80711470911217,3.23295607813634e-05,0.0931148082017898,0,0,0
16312,566946.109797525,2010-11-08 03:53:33,3992.0457803787153,2,50,0.5499359965324402,4.028540134429932,48.72438781932472,48.18206034077038,194.4625736210686,175.80711470911217,6.47544875391759e-05,0.0931148082017898,0,0,0
16313,566976.125157817,2010-11-08 03:54:03,4022.0611406707512,2,50,0.5501165986061096,4.031130313873291,48.72897478649776,48.18206034077038,194.48105826891603,175.80711470911217,6.47544875391759e-05,0.0931148082017898,0,0,0
16314,567006.1405508458,2010-11-08 03:54:33,4052.076533699504,2,50,0.5501165986061096,4.033396720886231,48.73356164667292,48.18206034077038,194.4995537131905,175.80711470911217,6.47544875391759e-05,0.0931148082017898,0,0,0
16315,567036.1561581042,2010-11-08 03:55:03,4082.0921409580064,2,50,0.550297200679779,4.035986423492432,48.73814866899064,48.18206034077038,194.51806118075268,175.80711470911217,6.47544875391759e-05,0.0931148082017898,0,0,0
16316,567066.1713226978,2010-11-08 03:55:33,4112.10730555155,2,50,0.5501165986061096,4.03841495513916,48.742735512339145,48.18206034077038,194.53657945662653,175.80711470911217,6.47544875391759e-05,0.0931148082017898,0,0,0
16317,567096.1868109042,2010-11-08 03:56:03,4142.12279375788,2,50,0.5501165986061096,4.04100513458252,48.74732251721007,48.18206034077038,194.555109972372,175.80711470911217,3.24249267578125e-05,0.0931148082017898,0,0,0
16318,567126.2020847704,2010-11-08 03:56:33,4172.138067624185,2,50,0.5501165986061096,4.043595314025879,48.75190944866981,48.18206034077038,194.57365191653489,175.80711470911217,6.47544875391759e-05,0.0931148082017898,0,0,0
16319,567156.2174650424,2010-11-08 03:57:03,4202.153447896094,2,50,0.5501165986061096,4.046347141265869,48.756496405344805,48.18206034077038,194.59220579047872,175.80711470911217,6.47544875391759e-05,0.0931148082017898,0,0,0
16320,567186.2328478856,2010-11-08 03:57:33,4232.168830744435,2,50,0.5501165986061096,4.0489373207092285,48.7610833648624,48.18206034077038,194.6107716200308,175.80711470911217,6.47544875391759e-05,0.0931148082017898,0,0,0
16321,567216.2482177165,2010-11-08 03:58:03,4262.184200570269,2,50,0.5499359965324402,4.051203727722168,48.76567032045583,48.18206034077038,194.62934944813088,175.80711470911217,0.0,0.0931148082017898,0,0,0
16322,567246.2635966901,2010-11-08 03:58:33,4292.199579543939,2,50,0.5501165986061096,4.054117679595947,48.77025725172093,48.18206034077038,194.64793928146483,175.80711470911217,6.47544875391759e-05,0.0931148082017898,0,0,0
16323,567276.2789923605,2010-11-08 03:59:03,4322.214975214285,2,50,0.550297200679779,4.056707859039307,48.77484423841994,48.18206034077038,194.66654164638743,175.80711470911217,6.47544875391759e-05,0.0931148082017898,0,0,0
16324,567306.2943814945,2010-11-08 03:59:33,4352.23036435834,2,50,0.550297200679779,4.059621810913086,48.779431175175525,48.18206034077038,194.6851562055101,175.80711470911217,9.70840483205393e-05,0.0931148082017898,0,0,0
16325,567336.30988938,2010-11-08 04:00:03,4382.245872233768,2,50,0.550297200679779,4.062374114990234,48.78401825302145,48.18206034077038,194.7037834922948,175.80711470911217,0.0001295089750783,0.0931148082017898,0,0,0
16326,567366.325124259,2010-11-08 04:00:33,4412.261107112754,2,50,0.5501165986061096,4.064964294433594,48.78860520354554,48.18206034077038,194.7224228529685,175.80711470911217,9.71794142969884e-05,0.0931148082017898,0,0,0
16327,567396.3405064356,2010-11-08 04:01:03,4442.276489289418,2,50,0.550297200679779,4.067716121673584,48.79319213514021,48.18206034077038,194.7410748683798,175.80711470911217,9.70840483205393e-05,0.0931148082017898,0,0,0
16328,567426.3560394237,2010-11-08 04:01:33,4472.292022277531,2,50,0.550297200679779,4.070630073547363,48.797779097346925,48.18206034077038,194.75973983410125,175.80711470911217,0.0001295089750783,0.0931148082017898,0,0,0
16329,567456.3712911699,2010-11-08 04:02:03,4502.30727402362,2,50,0.550297200679779,4.073544025421143,48.80236591004376,48.18206034077038,194.7784170231012,175.80711470911217,9.70840483205393e-05,0.0931148082017898,0,0,0
16330,567486.3866493766,2010-11-08 04:02:33,4532.322632230453,2,50,0.550297200679779,4.076296329498291,48.80695278832423,48.18206034077038,194.7971076942013,175.80711470911217,6.47544875391759e-05,0.0931148082017898,0,0,0
16331,567516.40202826,2010-11-08 04:03:03,4562.338011113896,2,50,0.550297200679779,4.07921028137207,48.81153968312001,48.18206034077038,194.81581174843427,175.80711470911217,9.71794142969884e-05,0.0931148082017898,0,0,0
16332,567546.4176328119,2010-11-08 04:03:33,4592.353615665643,2,50,0.5501165986061096,4.08212423324585,48.816126583935926,48.18206034077038,194.8345293329526,175.80711470911217,9.71794142969884e-05,0.0931148082017898,0,0,0
16333,567576.432824147,2010-11-08 04:04:03,4622.368807000937,2,50,0.550297200679779,4.08519983291626,48.820713377015366,48.18206034077038,194.8532601491949,175.80711470911217,9.70840483205393e-05,0.0931148082017898,0,0,0
16334,567606.4481571461,2010-11-08 04:04:33,4652.384139999846,2,50,0.5501165986061096,4.088113784790039,48.82530017330841,48.18206034077038,194.87200479281992,175.80711470911217,6.47544875391759e-05,0.0931148082017898,0,0,0
16335,567636.4635424406,2010-11-08 04:05:03,4682.399525294292,2,50,0.5499359965324402,4.091027736663818,48.829886997738456,48.18206034077038,194.8907636772116,175.80711470911217,3.23295607813634e-05,0.0931148082017898,0,0,0
16336,567666.4790326317,2010-11-08 04:05:33,4712.4150156008645,2,50,0.5501165986061096,4.094427585601807,48.83447384171716,48.18206034077038,194.9095367341651,175.80711470911217,9.71794142969884e-05,0.0931148082017898,0,0,0
16337,567696.4942589644,2010-11-08 04:06:03,4742.430241818231,2,50,0.550297200679779,4.097503185272217,48.83906058173632,48.18206034077038,194.9283235545373,175.80711470911217,6.47544875391759e-05,0.0931148082017898,0,0,0
16338,567726.5097546594,2010-11-08 04:06:33,4772.445737513254,2,50,0.5499359965324402,4.100417137145996,48.84364736879209,48.18206034077038,194.94712494252343,175.80711470911217,3.23295607813634e-05,0.0931148082017898,0,0,0
16339,567756.5250226912,2010-11-08 04:07:03,4802.461005544995,2,50,0.5499359965324402,4.103816986083984,48.8482341437596,48.18206034077038,194.965940707552,175.80711470911217,9.71794142969884e-05,0.0931148082017898,0,0,0
16340,567786.540347199,2010-11-08 04:07:33,4832.476330052708,2,50,0.5501165986061096,4.107054710388184,48.85282086088177,48.18206034077038,194.9847709748689,175.80711470911217,6.47544875391759e-05,0.0931148082017898,0,0,0
16341,567816.555816884,2010-11-08 04:08:03,4862.491799747832,2,50,0.5501165986061096,4.110130310058594,48.857407567683154,48.18206034077038,195.00361596523217,175.80711470911217,6.47544875391759e-05,0.0931148082017898,0,0,0
16342,567846.5710407054,2010-11-08 04:08:33,4892.507023559192,2,50,0.5501165986061096,4.113530158996582,48.8619942964597,48.18206034077038,195.02247602400985,175.80711470911217,9.71794142969884e-05,0.0931148082017898,0,0,0
16343,567876.5863864461,2010-11-08 04:09:03,4922.522369299906,2,50,0.5501165986061096,4.116767406463623,48.86658099089888,48.18206034077038,195.041350986153,175.80711470911217,6.47544875391759e-05,0.0931148082017898,0,0,0
16344,567906.6018700409,2010-11-08 04:09:33,4952.537852894725,2,50,0.5501165986061096,4.120005130767822,48.871167695944976,48.18206034077038,195.0602410364808,175.80711470911217,6.47544875391759e-05,0.0931148082017898,0,0,0
16345,567936.6170794063,2010-11-08 04:10:03,4982.553062260026,2,50,0.5499359965324402,4.1232428550720215,48.87575441398892,48.18206034077038,195.07914632081165,175.80711470911217,6.47544875391759e-05,0.0931148082017898,0,0,0
16346,567966.632573006,2010-11-08 04:10:33,5012.568555859819,2,50,0.550297200679779,4.126804351806641,48.88034115636983,48.18206034077038,195.0980670888875,175.80711470911217,9.70840483205393e-05,0.0931148082017898,0,0,0
16347,567996.6504041156,2010-11-08 04:11:03,5042.586387054609,2,50,0.5501165986061096,4.130204200744629,48.884928232029246,48.18206034077038,195.11700472934,175.80711470911217,9.71794142969884e-05,0.0931148082017898,0,0,0
16348,568026.6633615097,2010-11-08 04:11:33,5072.599344373455,2,50,0.5501165986061096,4.133603572845459,48.8895145894273,48.18206034077038,195.13595497612496,175.80711470911217,9.70840483205393e-05,0.0931148082017898,0,0,0
16349,568056.678593757,2010-11-08 04:12:03,5102.614576610848,2,50,0.5501165986061096,4.137003421783447,48.89410130764725,48.18206034077038,195.15492237458776,175.80711470911217,9.71794142969884e-05,0.0931148082017898,0,0,0
16350,568086.6937915585,2010-11-08 04:12:33,5132.629774412283,2,50,0.5501165986061096,4.140402793884277,48.89868796999201,48.18206034077038,195.1739053816248,175.80711470911217,6.47544875391759e-05,0.0931148082017898,0,0,0
16351,568116.7091288832,2010-11-08 04:13:03,5162.64511173699,2,50,0.5501165986061096,4.1439642906188965,48.90327468495794,48.18206034077038,195.19290446140784,175.80711470911217,9.70840483205393e-05,0.0931148082017898,0,0,0
16352,568146.7244703582,2010-11-08 04:13:33,5192.660453212056,2,50,0.5501165986061096,4.147525787353516,48.90786136185638,48.18206034077038,195.21191972812125,175.80711470911217,9.70840483205393e-05,0.0931148082017898,0,0,0
16353,568176.7399382439,2010-11-08 04:14:03,5222.675921107688,2,50,0.5499359965324402,4.150925636291504,48.91244801633832,48.18206034077038,195.23095096265092,175.80711470911217,6.47544875391759e-05,0.0931148082017898,0,0,0
16354,568206.7551351731,2010-11-08 04:14:33,5252.691118026921,2,50,0.5501165986061096,4.154648780822754,48.91703465252474,48.18206034077038,195.24999821165576,175.80711470911217,0.0001295089750783,0.0931148082017898,0,0,0
16355,568236.7704959664,2010-11-08 04:15:03,5282.7064788151965,2,50,0.5501165986061096,4.158210277557373,48.92162133094154,48.18206034077038,195.26906189537257,175.80711470911217,0.0001295089750783,0.0931148082017898,0,0,0
16356,568266.7858371056,2010-11-08 04:15:33,5312.721819959437,2,50,0.5501165986061096,4.161610126495361,48.92620803361229,48.18206034077038,195.28814202989537,175.80711470911217,6.47544875391759e-05,0.0931148082017898,0,0,0
16357,568296.8012864499,2010-11-08 04:16:03,5342.73726929875,2,50,0.550297200679779,4.165333271026611,48.93079476282545,48.18206034077038,195.3072386419499,175.80711470911217,9.70840483205393e-05,0.0931148082017898,0,0,0
16358,568326.8164690183,2010-11-08 04:16:33,5372.752451892223,2,50,0.5501165986061096,4.168894767761231,48.935381414254685,48.18206034077038,195.32635156695625,175.80711470911217,0.0001295089750783,0.0931148082017898,0,0,0
16359,568356.8317777868,2010-11-08 04:17:03,5402.767760630574,2,50,0.5501165986061096,4.17245626449585,48.93996810724597,48.18206034077038,195.3454812856747,175.80711470911217,9.70840483205393e-05,0.0931148082017898,0,0,0
16360,568386.8471511514,2010-11-08 04:17:33,5432.783134000255,2,50,0.5501165986061096,4.176341533660889,48.94455481348757,48.18206034077038,195.36462784235627,175.80711470911217,0.0001295089750783,0.0931148082017898,0,0,0
16361,568416.8624390778,2010-11-08 04:18:03,5462.798421926656,2,50,0.5501165986061096,4.179903030395508,48.94914153857898,48.18206034077038,195.38379139751612,175.80711470911217,9.70840483205393e-05,0.0931148082017898,0,0,0
16362,568446.8777937208,2010-11-08 04:18:33,5492.813776569591,2,50,0.5499359965324402,4.183464527130127,48.95372825836105,48.18206034077038,195.40297182155825,175.80711470911217,6.47544875391759e-05,0.0931148082017898,0,0,0
16363,568476.8930842537,2010-11-08 04:19:03,5522.829067102499,2,50,0.5501165986061096,4.187349796295166,48.95831501153647,48.18206034077038,195.42216948150173,175.80711470911217,9.70840483205393e-05,0.0931148082017898,0,0,0
16364,568506.908663758,2010-11-08 04:19:33,5552.844646636797,2,50,0.5501165986061096,4.191073417663574,48.96290178953337,48.18206034077038,195.44138451272156,175.80711470911217,9.71794142969884e-05,0.0931148082017898,0,0,0
16365,568536.9238637097,2010-11-08 04:20:03,5582.859846553512,2,50,0.550297200679779,4.195120334625244,48.96748845766419,48.18206034077038,195.46061636253825,175.80711470911217,0.0001618385285837,0.0931148082017898,0,0,0
16366,568566.939055812,2010-11-08 04:20:33,5612.875038660734,2,50,0.5499359965324402,4.198681831359863,48.972075111342846,48.18206034077038,195.4798654308884,175.80711470911217,9.71794142969884e-05,0.0931148082017898,0,0,0
16367,568576.9545751942,2010-11-08 04:20:43,5622.890558042961,2,50,0.5501165986061096,4.200138568878174,48.97360559708992,48.18206034077038,195.48629239006763,175.80711470911217,0.0001618385285837,0.0931148082017898,0,0,0
16368,568606.9511292597,2010-11-08 04:21:13,30.01528942514199,3,50,0.0,4.116929531097412,48.97360559708992,48.18206034077038,195.48629239006763,175.80711470911217,-0.0003885269106831,0.0931148082017898,0,0,0
16369,568636.9663227753,2010-11-08 04:21:43,60.030482930854326,3,50,0.0,4.1068925857543945,48.97360559708992,48.18206034077038,195.48629239006763,175.80711470911217,-0.0001942634553415,0.0931148082017898,0,0,0
16370,568666.9816843908,2010-11-08 04:22:14,90.04584454118164,3,50,0.0,4.101064682006836,48.97360559708992,48.18206034077038,195.48629239006763,175.80711470911217,-0.0001295089750783,0.0931148082017898,0,0,0
16371,568696.9501262922,2010-11-08 04:22:43,120.01428644770986,3,50,0.0,4.097341537475586,48.97360559708992,48.18206034077038,195.48629239006763,175.80711470911217,-9.70840483205393e-05,0.0931148082017898,0,0,0
16372,568696.9638354355,2010-11-08 04:22:44,0.015639122656169,4,50,0.9745483994483948,4.199814796447754,48.97360985622779,48.18206034077038,195.4863102769673,175.80711470911217,6.47544875391759e-05,0.0931148082017898,0,0,0
16373,568697.9794388278,2010-11-08 04:22:45,1.03124251497006,4,50,0.9241584539413452,4.199653148651123,48.973876092270935,48.18206034077038,195.4874283762473,175.80711470911217,3.24249267578125e-05,0.0931148082017898,0,0,0
16374,568700.2294103077,2010-11-08 04:22:47,3.281213989920995,4,50,0.8737684488296509,4.199814796447754,48.97443666323352,48.18206034077038,195.4897825871012,175.80711470911217,6.47544875391759e-05,0.0931148082017898,0,0,0
16375,568703.6512545225,2010-11-08 04:22:50,6.703058199505689,4,50,0.8231978416442871,4.199814796447754,48.97524173137611,48.18206034077038,195.4931636328448,175.80711470911217,3.23295607813634e-05,0.0931148082017898,0,0,0
16376,568708.2918262082,2010-11-08 04:22:55,11.343629890380218,4,50,0.7731691002845764,4.199814796447754,48.97626912135231,48.18206034077038,195.497478370849,175.80711470911217,3.23295607813634e-05,0.0931148082017898,0,0,0
16377,568714.4324038347,2010-11-08 04:23:01,17.484207511827602,4,50,0.7227790951728821,4.199653148651123,48.97754321580442,48.18206034077038,195.50282919471377,175.80711470911217,0.0,0.0931148082017898,0,0,0
16378,568722.4635628682,2010-11-08 04:23:09,25.51536655035068,4,50,0.6727502942085266,4.199491024017334,48.97909770040673,48.18206034077038,195.50935759381125,175.80711470911217,-3.24249267578125e-05,0.0931148082017898,0,0,0
16379,568733.3385064956,2010-11-08 04:23:20,36.39031019776287,4,50,0.6227215528488159,4.199653148651123,48.9810508560384,48.18206034077038,195.51756030889183,175.80711470911217,-3.23295607813634e-05,0.0931148082017898,0,0,0
16380,568748.9007937388,2010-11-08 04:23:36,51.952597425882296,4,50,0.5726927518844604,4.199491024017334,48.98362801045546,48.18206034077038,195.52838364506604,175.80711470911217,-6.47544875391759e-05,0.0931148082017898,0,0,0
16381,568773.4630410919,2010-11-08 04:24:00,76.51484477407067,4,50,0.5224834084510803,4.199814796447754,48.987350692232646,48.18206034077038,195.5440178901735,175.80711470911217,3.23295607813634e-05,0.0931148082017898,0,0,0
16382,568816.3844918815,2010-11-08 04:24:43,119.43629556855382,4,50,0.4724546372890472,4.199653148651123,48.99325470431616,48.18206034077038,195.5688131211548,175.80711470911217,-3.23295607813634e-05,0.0931148082017898,0,0,0
16383,568890.4618460239,2010-11-08 04:25:57,193.5136497410845,4,50,0.4224258661270141,4.199491024017334,49.00242851072649,48.18206034077038,195.60734059568395,175.80711470911217,-3.24249267578125e-05,0.0931148082017898,0,0,0
16384,568993.4453135575,2010-11-08 04:27:40,296.4971172546086,4,50,0.3723970949649811,4.199491024017334,49.01377338106617,48.18206034077038,195.65498597284017,175.80711470911217,-3.24249267578125e-05,0.0931148082017898,0,0,0
16385,569118.9438970793,2010-11-08 04:29:46,421.9957007665288,4,50,0.322368323802948,4.199814796447754,49.02586493783067,48.18206034077038,195.70576722209643,175.80711470911217,0.0,0.0931148082017898,0,0,0
16386,569267.630088092,2010-11-08 04:32:14,570.6818917941323,4,50,0.2721589505672455,4.199653148651123,49.03812510660996,48.18206034077038,195.75725658589823,175.80711470911217,-3.23295607813634e-05,0.0931148082017898,0,0,0
16387,569447.721743806,2010-11-08 04:35:14,750.7735474931656,4,50,0.2221301645040512,4.199814796447754,49.05046128821258,48.18206034077038,195.80906526902336,175.80711470911217,0.0,0.0931148082017898,0,0,0
16388,569676.8443450534,2010-11-08 04:39:04,979.89614874051,4,50,0.1719207912683487,4.199653148651123,49.06294828233034,48.18206034077038,195.86150740616665,175.80711470911217,0.0,0.0931148082017898,0,0,0
16389,569999.2940888966,2010-11-08 04:44:26,1302.3458925837956,4,50,0.1218920201063156,4.199653148651123,49.07599234660938,48.18206034077038,195.9162890600242,175.80711470911217,-6.47544875391759e-05,0.0931148082017898,0,0,0
16390,570538.0227699109,2010-11-08 04:53:25,1841.0745736079675,4,50,0.0718632489442825,4.199653148651123,49.090151463753145,48.18206034077038,195.97575370121092,175.80711470911217,0.0,0.0931148082017898,0,0,0
16391,570953.7373515927,2010-11-08 05:00:20,2256.7891552899355,4,50,0.0498289167881011,4.199814796447754,49.09713373977732,48.18206034077038,196.0050774752737,175.80711470911217,0.0,0.0931148082017898,0,0,0
16392,570983.7273294247,2010-11-08 05:00:51,30.015430256679178,5,50,0.0,4.192044734954834,49.09713373977732,48.18206034077038,196.0050774752737,175.80711470911217,-3.23295607813634e-05,0.0931148082017898,0,0,0
16393,571013.7268892063,2010-11-08 05:01:21,60.01499002818574,5,50,0.0,4.190749645233154,49.09713373977732,48.18206034077038,196.0050774752737,175.80711470911217,-3.23295607813634e-05,0.0931148082017898,0,0,0
16394,571013.8898332203,2010-11-08 05:01:21,0.187532630296394,6,50,-1.9243103452026844e-05,4.190749645233154,49.09713373977732,48.1820603417728,196.0050774752737,175.80711471331307,0.0,0.0940944999456405,0,0,0
16395,571018.7180133356,2010-11-08 05:01:26,5.015711898546757,6,50,0.0008838032954372,4.190749645233154,49.09713482715552,48.182060341939625,196.00508203236947,175.8071147140122,-3.23295607813634e-05,0.0940944999456405,0,0,0
16396,571048.7558549352,2010-11-08 05:01:56,30.015630651896466,7,50,-1.099568486213684,4.016722202301025,49.09713482715552,48.1912286438328,196.00508203236947,175.8441344097337,-0.0009065627818927,0.0940944999456405,0,0,0
16397,571078.7708069079,2010-11-08 05:02:26,60.03058262470552,7,50,-1.099568486213684,3.990658760070801,49.09713482715552,48.20039668477188,196.00508203236947,175.88083112988485,-0.0005504131549969,0.0940944999456405,0,0,0
16398,571108.7859309753,2010-11-08 05:02:56,90.04570667203906,7,50,-1.099568486213684,3.972527503967285,49.09713482715552,48.20956469316409,196.00508203236947,175.91732941914697,-0.0004209041653666,0.0940944999456405,0,0,0
16399,571138.8015534518,2010-11-08 05:03:26,120.06132915855346,7,50,-1.099929690361023,3.9582815170288086,49.09713482715552,48.21873344965985,196.00508203236947,175.9536847933655,-0.0003561496851034,0.0940944999456405,0,0,0
16400,571168.8166969527,2010-11-08 05:03:56,150.07647264942105,7,50,-1.099568486213684,3.946301937103272,49.09713482715552,48.22790212383271,196.00508203236947,175.98992109019085,-0.0002913951757363,0.0940944999456405,0,0,0
16401,571198.8319886535,2010-11-08 05:04:26,180.09176436528102,7,50,-1.099568486213684,3.935617446899414,49.09713482715552,48.23707082286125,196.00508203236947,176.02605366876978,-0.0002590179501567,0.0940944999456405,0,0,0
16402,571228.8473278028,2010-11-08 05:04:56,210.10710349950452,7,50,-1.0997490882873535,3.9257423877716064,49.09713482715552,48.24623954014727,196.00508203236947,176.06209131608,-0.0002590179501567,0.0940944999456405,0,0,0
16403,571258.862602401,2010-11-08 05:05:26,240.12237812269856,7,50,-1.099568486213684,3.915867328643799,49.09713482715552,48.255408236445405,196.00508203236947,176.09803885174813,-0.0002913951757363,0.0940944999456405,0,0,0
16404,571288.877955089,2010-11-08 05:05:56,270.13773081075453,7,50,-1.099568486213684,3.90696382522583,49.09713482715552,48.26457699916844,196.00508203236947,176.1339011464772,-0.0002266406954731,0.0940944999456405,0,0,0
16405,571318.8934280673,2010-11-08 05:06:26,300.1532038792987,7,50,-1.0997490882873535,3.897898197174072,49.09713482715552,48.27374582148284,196.00508203236947,176.16968116871408,-0.0002266406954731,0.0940944999456405,0,0,0
16406,571348.908509809,2010-11-08 05:06:56,330.1682855057432,7,50,-1.0997490882873535,3.889318227767944,49.09713482715552,48.2829144983406,196.00508203236947,176.20538114680113,-0.0002266406954731,0.0940944999456405,0,0,0
16407,571378.9238116451,2010-11-08 05:07:26,360.18358737193995,7,50,-1.0997490882873535,3.881062030792236,49.09713482715552,48.29208321962173,196.00508203236947,176.2410030595224,-0.0001618862152099,0.0940944999456405,0,0,0
16408,571408.9391287144,2010-11-08 05:07:56,390.1989044360731,7,50,-1.0997490882873535,3.872482061386109,49.09713482715552,48.301251968218125,196.00508203236947,176.27654807854054,-0.0002590179501567,0.0940944999456405,0,0,0
16409,571438.9544427709,2010-11-08 05:08:26,420.2142184926991,7,50,-1.0997490882873535,3.8643877506256095,49.09713482715552,48.31042069735262,196.00508203236947,176.31201726617417,-0.0001942634553415,0.0940944999456405,0,0,0
16410,571468.9697268376,2010-11-08 05:08:56,450.22950255946574,7,50,-1.0997490882873535,3.8561315536499023,49.09713482715552,48.3195894322922,196.00508203236947,176.3474114398483,-0.0002266406954731,0.0940944999456405,0,0,0
16411,571498.9855717192,2010-11-08 05:09:26,480.2453474160501,7,50,-1.0997490882873535,3.848361015319824,49.09713482715552,48.32875834494626,196.00508203236947,176.38273294550297,-0.0001942634553415,0.0940944999456405,0,0,0
16412,571528.987330936,2010-11-08 05:09:56,510.2471066577728,7,50,-1.0997490882873535,3.840428590774536,49.09713482715552,48.337922931589176,196.00508203236947,176.41796556843323,-0.0002266406954731,0.0940944999456405,0,0,0
16413,571559.0002786007,2010-11-08 05:10:26,540.2600544127456,7,50,-1.0997490882873535,3.832820177078247,49.09713482715552,48.34709104698338,196.00508203236947,176.45314038258496,-0.0001942157687153,0.0940944999456405,0,0,0
16414,571589.0153241771,2010-11-08 05:10:56,570.275099873916,7,50,-1.0997490882873535,3.825211524963379,49.09713482715552,48.35625961815182,196.00508203236947,176.4882467187494,-0.0001942634553415,0.0940944999456405,0,0,0
16415,571619.0306242339,2010-11-08 05:11:26,600.290399930596,7,50,-1.099568486213684,3.81792664527893,49.09713482715552,48.36542816775996,196.00508203236947,176.52328430420397,-0.0001618862152099,0.0940944999456405,0,0,0
16416,571649.045948516,2010-11-08 05:11:56,630.3057242378089,7,50,-1.099568486213684,3.8103179931640634,49.09713482715552,48.37459691917274,196.00508203236947,176.558254634503,-0.0001942634553415,0.0940944999456405,0,0,0
16417,571679.0612665125,2010-11-08 05:12:26,660.3210422342694,7,50,-1.0997490882873535,3.803194999694824,49.09713482715552,48.38376564082168,196.00508203236947,176.5931575816114,-0.0001942634553415,0.0940944999456405,0,0,0
16418,571709.0765517822,2010-11-08 05:12:56,690.3363274739638,7,50,-1.099568486213684,3.796072006225586,49.09713482715552,48.39293441352034,196.00508203236947,176.62799547476365,-0.0002266406954731,0.0940944999456405,0,0,0
16419,571739.0918624655,2010-11-08 05:13:26,720.3516381872442,7,50,-1.099568486213684,3.7894346714019775,49.09713482715552,48.40210313929589,196.00508203236947,176.66277012487592,-0.0001295089750783,0.0940944999456405,0,0,0
16420,571769.107170121,2010-11-08 05:13:56,750.3669458178299,7,50,-1.099568486213684,3.782635450363159,49.09713482715552,48.41127190062251,196.00508203236947,176.6974826927151,-0.0001618862152099,0.0940944999456405,0,0,0
16421,571799.1226157261,2010-11-08 05:14:26,780.3823914278332,7,50,-1.099568486213684,3.775998115539551,49.09713482715552,48.42044065414932,196.00508203236947,176.73213409764062,-0.0001618862152099,0.0940944999456405,0,0,0
16422,571829.1379310158,2010-11-08 05:14:56,810.3977067225497,7,50,-1.0997490882873535,3.769522666931152,49.09713482715552,48.42960942379708,196.00508203236947,176.76672542325767,-0.0001942634553415,0.0940944999456405,0,0,0
16423,571859.1530805568,2010-11-08 05:15:26,840.4128562534943,7,50,-1.099568486213684,3.763209104537964,49.09713482715552,48.43877820600457,196.00508203236947,176.8012582199797,-0.0001618862152099,0.0940944999456405,0,0,0
16424,571889.1683919017,2010-11-08 05:15:56,870.4281675983513,7,50,-1.099568486213684,3.757057428359986,49.09713482715552,48.44794701586808,196.00508203236947,176.8357337256649,-0.0001618862152099,0.0940944999456405,0,0,0
16425,571919.1836923994,2010-11-08 05:16:26,900.4434680961323,7,50,-1.099568486213684,3.750905990600586,49.09713482715552,48.45711580545603,196.00508203236947,176.87015272832184,-0.0001295089750783,0.0940944999456405,0,0,0
16426,571949.1989821955,2010-11-08 05:16:56,930.4587579172628,7,50,-1.099568486213684,3.7449162006378174,49.09713482715552,48.466284587624365,196.00508203236947,176.9045159901444,-0.0001295089750783,0.0940944999456405,0,0,0
16427,571979.2144139509,2010-11-08 05:17:26,960.474189672683,7,50,-1.099568486213684,3.739088296890259,49.09713482715552,48.47545341974584,196.00508203236947,176.93882514802164,-0.0001295089750783,0.0940944999456405,0,0,0
16428,572009.2296076671,2010-11-08 05:17:56,990.4893833939332,7,50,-1.099929690361023,3.73293662071228,49.09713482715552,48.48462215367379,196.00508203236947,176.97308010350014,-0.0001942634553415,0.0940944999456405,0,0,0
16429,572039.2451061141,2010-11-08 05:18:26,1020.5048818107508,7,50,-1.0997490882873535,3.7277562618255615,49.09713482715552,48.49379098381579,196.00508203236947,177.0072830340222,-0.0001295089750783,0.0940944999456405,0,0,0
16430,572069.2602289132,2010-11-08 05:18:56,1050.5200046099687,7,50,-1.0997490882873535,3.721928358078003,49.09713482715552,48.5029596445218,196.00508203236947,177.04143431035592,-0.0001618862152099,0.0940944999456405,0,0,0
16431,572099.2754903535,2010-11-08 05:19:26,1080.5352660803312,7,50,-1.0997490882873535,3.716424226760864,49.09713482715552,48.51212841762644,196.00508203236947,177.07553512869782,-0.0001618862152099,0.0940944999456405,0,0,0
16432,572129.290904926,2010-11-08 05:19:56,1110.550680627798,7,50,-1.0997490882873535,3.711081981658936,49.09713482715552,48.52129721996896,196.00508203236947,177.10958596969752,-0.0001295089750783,0.0940944999456405,0,0,0
16433,572159.3061013691,2010-11-08 05:20:26,1140.5658770959046,7,50,-1.0997490882873535,3.705739736557007,49.09713482715552,48.53046594021271,196.00508203236947,177.14358753746447,-0.0001618862152099,0.0940944999456405,0,0,0
16434,572189.3213156717,2010-11-08 05:20:56,1170.5810913985297,7,50,-1.0997490882873535,3.700397491455078,49.09713482715552,48.53963471647281,196.00508203236947,177.17754050790467,-0.0001618862152099,0.0940944999456405,0,0,0
16435,572219.3367402392,2010-11-08 05:21:26,1200.5965159359323,7,50,-1.099929690361023,3.69521713256836,49.09713482715552,48.54880344711228,196.00508203236947,177.21144552755385,-0.0001295089750783,0.0940944999456405,0,0,0
16436,572249.3520526015,2010-11-08 05:21:56,1230.611828323392,7,50,-1.0997490882873535,3.6900367736816406,49.09713482715552,48.55797228431271,196.00508203236947,177.24530400893383,-0.0001618862152099,0.0940944999456405,0,0,0
16437,572279.3673321521,2010-11-08 05:22:26,1260.6271078488226,7,50,-1.099568486213684,3.685180187225342,49.09713482715552,48.56714107537828,196.00508203236947,177.27911552169724,-0.0001295089750783,0.0940944999456405,0,0,0
16438,572309.3827270154,2010-11-08 05:22:56,1290.6425027171672,7,50,-1.099568486213684,3.680161714553833,49.09713482715552,48.576309835827935,196.00508203236947,177.31288090497716,-0.0001295089750783,0.0940944999456405,0,0,0
16439,572339.3978998746,2010-11-08 05:23:26,1320.6576755963924,7,50,-1.0997490882873535,3.675305128097534,49.09713482715552,48.58547855229069,196.00508203236947,177.34660109024784,-9.713172767078504e-05,0.0940944999456405,0,0,0
16440,572369.4132005828,2010-11-08 05:23:56,1350.6729762796365,7,50,-1.0997490882873535,3.670286893844605,49.09713482715552,48.59464730939462,196.00508203236947,177.3802766892279,-0.0001618862152099,0.0940944999456405,0,0,0
16441,572399.4285089654,2010-11-08 05:24:27,1380.6882846871615,7,50,-1.099568486213684,3.6657540798187256,49.09713482715552,48.60381610737486,196.00508203236947,177.41390852658932,-0.0001295089750783,0.0940944999456405,0,0,0
16442,572429.4437981399,2010-11-08 05:24:57,1410.7035738366153,7,50,-1.0997490882873535,3.6610593795776367,49.09713482715552,48.61298492878203,196.00508203236947,177.4474973112868,-0.0001295089750783,0.0940944999456405,0,0,0
16443,572459.4590889184,2010-11-08 05:25:27,1440.718864640198,7,50,-1.0997490882873535,3.656364679336548,49.09713482715552,48.62215377731332,196.00508203236947,177.48104334098156,-0.0001295089750783,0.0940944999456405,0,0,0
16444,572489.4744110152,2010-11-08 05:25:57,1470.7341867368932,7,50,-1.099568486213684,3.651993751525879,49.09713482715552,48.63132253594852,196.00508203236947,177.51454691162783,-0.0001295089750783,0.0940944999456405,0,0,0
16445,572519.4897585553,2010-11-08 05:26:27,1500.7495342720867,7,50,-1.0993878841400146,3.64729905128479,49.09713482715552,48.64049138518285,196.00508203236947,177.54800952038215,-0.0001295089750783,0.0940944999456405,0,0,0
16446,572549.5050340807,2010-11-08 05:26:57,1530.764809807558,7,50,-1.0997490882873535,3.642928123474121,49.09713482715552,48.64966007783702,196.00508203236947,177.5814303780413,-9.713172767078504e-05,0.0940944999456405,0,0,0
16447,572579.5203382476,2010-11-08 05:27:27,1560.7801139594603,7,50,-1.1001102924346924,3.638395309448242,49.09713482715552,48.65882885239981,196.00508203236947,177.6148114134595,-0.0001295089750783,0.0940944999456405,0,0,0
16448,572609.5356360286,2010-11-08 05:27:57,1590.7954117354473,7,50,-1.0997490882873535,3.634348154067993,49.09713482715552,48.66799759150182,196.00508203236947,177.6481527756226,-9.713172767078504e-05,0.0940944999456405,0,0,0
16449,572639.5509654738,2010-11-08 05:28:27,1620.8107411654476,7,50,-1.0997490882873535,3.630139112472534,49.09713482715552,48.677166384428325,196.00508203236947,177.68145563259324,-9.713172767078504e-05,0.0940944999456405,0,0,0
16450,572669.5662420719,2010-11-08 05:28:57,1650.826017788634,7,50,-1.099568486213684,3.626091957092285,49.09713482715552,48.68633515172658,196.00508203236947,177.71472049643603,-6.47544875391759e-05,0.0940944999456405,0,0,0
16451,572699.5815443741,2010-11-08 05:29:27,1680.8413200909192,7,50,-1.0997490882873535,3.622044801712036,49.09713482715552,48.69550385941023,196.00508203236947,177.74794757037708,-9.713172767078504e-05,0.0940944999456405,0,0,0
16452,572729.5968535536,2010-11-08 05:29:57,1710.856629250321,7,50,-1.0997490882873535,3.617835760116577,49.09713482715552,48.70467262625784,196.00508203236947,177.78113838710962,-0.0001295089750783,0.0940944999456405,0,0,0
16453,572759.6121577106,2010-11-08 05:30:27,1740.8719334222733,7,50,-1.099929690361023,3.614112377166748,49.09713482715552,48.71384140562237,196.00508203236947,177.8142933739694,-9.713172767078504e-05,0.0940944999456405,0,0,0
16454,572789.6274512359,2010-11-08 05:30:57,1770.8872269376252,7,50,-1.0997490882873535,3.610388994216919,49.09713482715552,48.72301020925875,196.00508203236947,177.84741371754976,-9.713172767078504e-05,0.0940944999456405,0,0,0
16455,572819.6427712875,2010-11-08 05:31:27,1800.9025469942278,7,50,-1.0997490882873535,3.6068274974823,49.09713482715552,48.73217897101448,196.00508203236947,177.88050000167226,-6.47544875391759e-05,0.0940944999456405,0,0,0
16456,572849.6580819205,2010-11-08 05:31:57,1830.9178576222955,7,50,-1.099568486213684,3.6032660007476807,49.09713482715552,48.741347685345936,196.00508203236947,177.9135533135499,-0.0001295089750783,0.0940944999456405,0,0,0
16457,572879.6733735963,2010-11-08 05:32:27,1860.933149303068,7,50,-1.099568486213684,3.5998663902282715,49.09713482715552,48.75051644841476,196.00508203236947,177.9465747825936,-9.713172767078504e-05,0.0940944999456405,0,0,0
16458,572909.6886548159,2010-11-08 05:32:57,1890.9484305127028,7,50,-1.0997490882873535,3.5964667797088623,49.09713482715552,48.75968520294967,196.00508203236947,177.97956514210605,-6.47544875391759e-05,0.0940944999456405,0,0,0
16459,572939.7039598852,2010-11-08 05:33:27,1920.963735581895,7,50,-1.099568486213684,3.593390941619873,49.09713482715552,48.76885394262212,196.00508203236947,178.01252502565947,-6.47544875391759e-05,0.0940944999456405,0,0,0
16460,572969.7192581324,2010-11-08 05:33:57,1950.979033829058,7,50,-1.099568486213684,3.589829683303833,49.09713482715552,48.778022769188816,196.00508203236947,178.04545530642406,-9.713172767078504e-05,0.0940944999456405,0,0,0
16461,572999.7347768849,2010-11-08 05:34:27,1980.994552586649,7,50,-1.0997490882873535,3.586753845214844,49.09713482715552,48.78719162422489,196.00508203236947,178.0783564104874,-0.0001295089750783,0.0940944999456405,0,0,0
16462,573029.7500397589,2010-11-08 05:34:57,2011.00981549059,7,50,-1.099568486213684,3.5836780071258545,49.09713482715552,48.79636033129374,196.00508203236947,178.1112283364414,-6.47544875391759e-05,0.0940944999456405,0,0,0
16463,573059.765263079,2010-11-08 05:35:27,2041.0250389209991,7,50,-1.0997490882873535,3.580764055252075,49.09713482715552,48.80552907617405,196.00508203236947,178.1440723027231,-3.237724376958795e-05,0.0940944999456405,0,0,0
16464,573089.7808341471,2010-11-08 05:35:57,2071.0406099841525,7,50,-1.099568486213684,3.577526330947876,49.09713482715552,48.81469796058008,196.00508203236947,178.17688866782615,-9.713172767078504e-05,0.0940944999456405,0,0,0
16465,573119.7957950172,2010-11-08 05:36:27,2101.055570698783,7,50,-1.099929690361023,3.5744504928588867,49.09713482715552,48.823866686884486,196.00508203236947,178.2096765221532,-9.713172767078504e-05,0.0940944999456405,0,0,0
16466,573149.8110776001,2010-11-08 05:36:57,2131.0708533219454,7,50,-1.099568486213684,3.5716984272003174,49.09713482715552,48.83303540520058,196.00508203236947,178.2424368222003,-6.47544875391759e-05,0.0940944999456405,0,0,0
16467,573179.8265029696,2010-11-08 05:37:27,2161.086278666364,7,50,-1.0997490882873535,3.568622589111328,49.09713482715552,48.84220421546673,196.00508203236947,178.27517023357876,-3.237724376958795e-05,0.0940944999456405,0,0,0
16468,573209.841748816,2010-11-08 05:37:57,2191.1015246230013,7,50,-1.099568486213684,3.565708637237549,49.09713482715552,48.85137298155867,196.00508203236947,178.30787638270587,-6.47544875391759e-05,0.0940944999456405,0,0,0
16469,573239.8570191936,2010-11-08 05:38:27,2221.116794890322,7,50,-1.099568486213684,3.562794685363769,49.09713482715552,48.86054169732593,196.00508203236947,178.34055513650955,-6.47544875391759e-05,0.0940944999456405,0,0,0
16470,573269.8724495055,2010-11-08 05:38:57,2251.132225212164,7,50,-1.0997490882873535,3.5595569610595703,49.09713482715552,48.86971041763493,196.00508203236947,178.37320683034997,-9.713172767078504e-05,0.0940944999456405,0,0,0
16471,573299.887578059,2010-11-08 05:39:27,2281.147353785796,7,50,-1.0997490882873535,3.556643009185791,49.09713482715552,48.87887911183223,196.00508203236947,178.40583083210944,-9.713172767078504e-05,0.0940944999456405,0,0,0
16472,573329.9028768726,2010-11-08 05:39:57,2311.162652569298,7,50,-1.0997490882873535,3.5535671710968018,49.09713482715552,48.88804788376174,196.00508203236947,178.43842711762682,-0.0001295089750783,0.0940944999456405,0,0,0
16473,573359.9181921923,2010-11-08 05:40:27,2341.1779679041147,7,50,-1.0997490882873535,3.5503294467926025,49.09713482715552,48.89721662209539,196.00508203236947,178.47099463783104,-9.713172767078504e-05,0.0940944999456405,0,0,0
16474,573389.9334773769,2010-11-08 05:40:57,2371.193253073633,7,50,-1.099568486213684,3.5474154949188232,49.09713482715552,48.90638539385407,196.00508203236947,178.50353323186712,0.0,0.0940944999456405,0,0,0
16475,573419.948782436,2010-11-08 05:41:27,2401.208558147838,7,50,-1.0997490882873535,3.543853998184204,49.09713482715552,48.915554272832445,196.00508203236947,178.53604269725696,-0.0001295089750783,0.0940944999456405,0,0,0
16476,573449.9646293828,2010-11-08 05:41:57,2431.2244050896275,7,50,-1.0997490882873535,3.540940046310425,49.09713482715552,48.92472321022655,196.00508203236947,178.5685223564068,-3.237724376958795e-05,0.0940944999456405,0,0,0
16477,573479.9663778929,2010-11-08 05:42:27,2461.226153699812,7,50,-1.0997490882873535,3.537216663360596,49.09713482715552,48.93388793336969,196.00508203236947,178.60095637826694,-0.0001295089750783,0.0940944999456405,0,0,0
16478,573509.9794113067,2010-11-08 05:42:57,2491.2391871286404,7,50,-1.0997490882873535,3.5338170528411865,49.09713482715552,48.94305606212493,196.00508203236947,178.6333705630908,-0.0001295089750783,0.0940944999456405,0,0,0
16479,573539.9943902969,2010-11-08 05:43:27,2521.2541660036013,7,50,-1.0997490882873535,3.5300936698913574,49.09713482715552,48.952224791344086,196.00508203236947,178.66575405250495,-9.713172767078504e-05,0.0940944999456405,0,0,0
16480,573570.0096912306,2010-11-08 05:43:57,2551.2694669374705,7,50,-1.0997490882873535,3.5263702869415283,49.09713482715552,48.96139357878705,196.00508203236947,178.69810365450408,-9.713172767078504e-05,0.0940944999456405,0,0,0
16481,573600.024981077,2010-11-08 05:44:27,2581.2847567936888,7,50,-1.0997490882873535,3.5224850177764893,49.09713482715552,48.97056237369911,196.00508203236947,178.73041803235282,-9.713172767078504e-05,0.0940944999456405,0,0,0
16482,573630.0403013941,2010-11-08 05:44:57,2611.3000770908925,7,50,-1.099929690361023,3.5181140899658203,49.09713482715552,48.97973112906538,196.00508203236947,178.76269531440192,-0.0001618862152099,0.0940944999456405,0,0,0
16483,573660.0555711201,2010-11-08 05:45:27,2641.315346836912,7,50,-1.099568486213684,3.5139050483703613,49.09713482715552,48.98889993989868,196.00508203236947,178.79493459995496,-0.0001618862152099,0.0940944999456405,0,0,0
16484,573690.0708613474,2010-11-08 05:45:57,2671.3306370690684,7,50,-1.099568486213684,3.5095343589782715,49.09713482715552,48.99806868061259,196.00508203236947,178.82713354526078,-0.0001295089750783,0.0940944999456405,0,0,0
16485,573720.0861728375,2010-11-08 05:46:27,2701.345948549263,7,50,-1.1001102924346924,3.5046777725219727,49.09713482715552,49.0072374728586,196.00508203236947,178.85928990718207,-0.0001295089750783,0.0940944999456405,0,0,0
16486,573750.1014713903,2010-11-08 05:46:57,2731.361247087152,7,50,-1.099568486213684,3.499821186065674,49.09713482715552,49.01640623846945,196.00508203236947,178.89140090640078,-9.713172767078504e-05,0.0940944999456405,0,0,0
16487,573780.116919632,2010-11-08 05:47:27,2761.3766953387494,7,50,-1.0997490882873535,3.494155168533325,49.09713482715552,49.02557503838244,196.00508203236947,178.92346340855732,-0.0001618862152099,0.0940944999456405,0,0,0
16488,573810.1320891478,2010-11-08 05:47:57,2791.3918648746294,7,50,-1.0997490882873535,3.4878416061401367,49.09713482715552,49.03474381311133,196.00508203236947,178.95547176271552,-0.0001942634553415,0.0940944999456405,0,0,0
16489,573840.1475291539,2010-11-08 05:48:27,2821.407304860594,7,50,-1.0997490882873535,3.4807186126708984,49.09713482715552,49.04391265932268,196.00508203236947,178.98741993948337,-0.0001942634553415,0.0940944999456405,0,0,0
16490,573870.1626708101,2010-11-08 05:48:57,2851.4224465319203,7,50,-1.099568486213684,3.4727861881256104,49.09713482715552,49.05308136506448,196.00508203236947,179.0192988238313,-0.0002266406954731,0.0940944999456405,0,0,0
16491,573900.1780822648,2010-11-08 05:49:27,2881.4378579616045,7,50,-1.0993878841400146,3.4637205600738525,49.09713482715552,49.06225012495139,196.00508203236947,179.05109924498058,-0.0002266406954731,0.0940944999456405,0,0,0
16492,573930.1933874744,2010-11-08 05:49:57,2911.453163176159,7,50,-1.0997490882873535,3.452550411224365,49.09713482715552,49.0714188774376,196.00508203236947,179.0828069007776,-0.0003237724304199,0.0940944999456405,0,0,0
16493,573960.2085527396,2010-11-08 05:50:27,2941.4683284363664,7,50,-1.0997490882873535,3.4389519691467285,49.09713482715552,49.08058759985388,196.00508203236947,179.1144025867371,-0.0004209041653666,0.0940944999456405,0,0,0
16494,573990.2240653469,2010-11-08 05:50:57,2971.48384107368,7,50,-1.0993878841400146,3.422439813613892,49.09713482715552,49.089756402633526,196.00508203236947,179.14586111938857,-0.0004856586456298,0.0940944999456405,0,0,0
16495,574020.2392810931,2010-11-08 05:51:27,3001.4990568148955,7,50,-1.099568486213684,3.4010708332061768,49.09713482715552,49.098925184717885,196.00508203236947,179.1771466136219,-0.0006151676061563,0.0940944999456405,0,0,0
16496,574050.2544836113,2010-11-08 05:51:57,3031.5142593130545,7,50,-1.099568486213684,3.373388290405273,49.09713482715552,49.10809388065584,196.00508203236947,179.2082098760417,-0.0008418083307333,0.0940944999456405,0,0,0
16497,574080.269752851,2010-11-08 05:52:27,3061.529528567848,7,50,-1.0997490882873535,3.3363165855407715,49.09713482715552,49.11726261650976,196.00508203236947,179.23897886531554,-0.0011332035064697,0.0940944999456405,0,0,0
16498,574110.2850729728,2010-11-08 05:52:57,3091.544848694626,7,50,-1.099568486213684,3.2856462001800537,49.09713482715552,49.12643136437784,196.00508203236947,179.2693484423452,-0.0015217304462566,0.0940944999456405,0,0,0
16499,574140.3003584282,2010-11-08 05:53:27,3121.560134149858,7,50,-1.0997490882873535,3.21393084526062,49.09713482715552,49.13560010965856,196.00508203236947,179.2991635072184,-0.0022016526199877,0.0940944999456405,0,0,0
16500,574170.3156520937,2010-11-08 05:53:57,3151.575427790523,7,50,-1.0997490882873535,3.107572078704834,49.09713482715552,49.14476886454267,196.00508203236947,179.32817938030306,-0.0035614490043371,0.0940944999456405,0,0,0
16501,574200.3309759949,2010-11-08 05:54:27,3181.590751711773,7,50,-1.099568486213684,2.917032480239868,49.09713482715552,49.15393762579957,196.00508203236947,179.3559156547748,-0.0071877003647387,0.0940944999456405,0,0,0
16502,574217.1276511452,2010-11-08 05:54:44,3198.3874268670647,7,50,-1.099568486213684,2.7166178226470947,49.09713482715552,49.15906855408704,196.00508203236947,179.37040083764046,-0.0107816215604543,0.0940944999456405,0,0,0
16503,574218.3463961553,2010-11-08 05:54:45,3199.6061718771084,7,50,-1.099929690361023,2.699781894683838,49.09713482715552,49.159440840645374,196.00508203236947,179.37140908594614,-0.0109110828489065,0.0940944999456405,0,0,0
16504,574278.3870065493,2010-11-08 05:55:46,60.01511605276247,8,50,0.0,3.3147857189178467,49.09713482715552,49.159440840645374,196.00508203236947,179.37140908594614,0.0011655807029455,0.0940944999456405,0,0,0
16505,574278.6005283905,2010-11-08 05:55:46,0.187503713114659,9,50,-1.9243103452026844e-05,3.315271377563477,49.09713482715552,49.15944084164764,196.00508203236947,179.37140908926892,0.0,0.0947341993451118,0,0,0
16506,574283.4286117093,2010-11-08 05:55:51,5.015587026847785,9,50,0.0003419754502829,3.3228800296783447,49.09713563298288,49.15944084173144,196.0050847075661,179.37140908954677,0.0010360718006268,0.0947341993451118,0,0,0
