Data_Point,Test_Time(s),Date_Time,Step_Time(s),Step_Index,Cycle_Index,Current(A),Voltage(V),Charge_Capacity(Ah),Discharge_Capacity(Ah),Charge_Energy(Wh),Discharge_Energy(Wh),dV/dt(V/s),Internal_Resistance(Ohm),Is_FC_Data,AC_Impedance(Ohm),ACI_Phase_Angle(Deg)
1640,57276.82685062657,2010-11-02 06:18:11,30.015278648241186,1,6,0.0,3.399128198623657,4.867980193604926,4.923497055730781,19.461514545965738,17.952765588449424,0.0007122993702068,0.0940094217658042,0,0,0
1641,57306.84190414284,2010-11-02 06:18:41,60.03033214948082,1,6,0.0,3.421792268753052,4.867980193604926,4.923497055730781,19.461514545965738,17.952765588449424,0.0005180359003134,0.0940094217658042,0,0,0
1642,57336.85715403932,2010-11-02 06:19:11,90.04558205597819,1,6,0.0,3.4389519691467285,4.867980193604926,4.923497055730781,19.461514545965738,17.952765588449424,0.0003885269106831,0.0940094217658042,0,0,0
1643,57366.82578660175,2010-11-02 06:19:41,120.01421461841288,1,6,0.0,3.452712297439575,4.867980193604926,4.923497055730781,19.461514545965738,17.952765588449424,0.0003561496851034,0.0940094217658042,0,0,0
1644,57396.84158946925,2010-11-02 06:20:11,30.01526099417392,2,6,0.550297200679779,3.610874652862549,4.872566675469295,4.923497055730781,19.47791656598957,17.952765588449424,0.0015217304462566,0.0940094217658042,0,0,0
1645,57426.85683832814,2010-11-02 06:20:41,60.03050985305628,2,6,0.550297200679779,3.657983541488648,4.877153184412652,4.923497055730781,19.49459272005762,17.952765588449424,0.0010684489971026,0.0940094217658042,0,0,0
1646,57456.872107512754,2010-11-02 06:21:11,90.04577902263728,2,6,0.5501165986061096,3.69181752204895,4.881739623784368,4.923497055730781,19.511450519773422,17.952765588449424,0.0008094310760498,0.0940094217658042,0,0,0
1647,57486.887382897854,2010-11-02 06:21:41,120.06105440272064,2,6,0.5501165986061096,3.718043088912964,4.886326040684717,4.923497055730781,19.52844479418719,17.952765588449424,0.0006151676061563,0.0940094217658042,0,0,0
1648,57516.90263451862,2010-11-02 06:22:11,150.07630602850963,2,6,0.550297200679779,3.7395739555358887,4.890912526632297,4.923497055730781,19.54554836382339,17.952765588449424,0.0005504131549969,0.0940094217658042,0,0,0
1649,57546.91793606403,2010-11-02 06:22:41,180.09160763405578,2,6,0.550297200679779,3.757057428359986,4.895498964529952,4.923497055730781,19.5627407677415,17.952765588449424,0.0004532813909463,0.0940094217658042,0,0,0
1650,57576.9331708177,2010-11-02 06:23:11,210.1068423175542,2,6,0.550297200679779,3.769846439361572,4.900085437833988,4.923497055730781,19.580003602016397,17.952765588449424,0.0002590179501567,0.0940094217658042,0,0,0
1651,57606.948589325046,2010-11-02 06:23:41,240.12226083493027,2,6,0.5499359965324402,3.7779407501220703,4.904671967175397,4.923497055730781,19.597314495925044,17.952765588449424,0.0001618862152099,0.0940094217658042,0,0,0
1652,57636.96369215942,2010-11-02 06:24:11,270.13736368936304,2,6,0.5499359965324402,3.782797336578369,4.909258358141541,4.923497055730781,19.61465381577198,17.952765588449424,0.0001295089750783,0.0940094217658042,0,0,0
1653,57666.97895554958,2010-11-02 06:24:41,300.15262705445514,2,6,0.5499359965324402,3.786844491958618,4.913844775812692,4.923497055730781,19.63201325376296,17.952765588449424,9.713172767078504e-05,0.0940094217658042,0,0,0
1654,57696.99422034826,2010-11-02 06:25:11,330.1678918481132,2,6,0.5501165986061096,3.790729761123657,4.918431176838928,4.923497055730781,19.64938994415991,17.952765588449424,0.0001295089750783,0.0940094217658042,0,0,0
1655,57727.00950025464,2010-11-02 06:25:41,360.1831717544949,2,6,0.5501165986061096,3.7941293716430655,4.923017686643817,4.923497055730781,19.66678347192127,17.952765588449424,6.47544875391759e-05,0.0940094217658042,0,0,0
1656,57757.02476583526,2010-11-02 06:26:11,390.1984373451422,2,6,0.5499359965324402,3.797528982162476,4.927604098078869,4.923497055730781,19.68419279833238,17.952765588449424,6.47544875391759e-05,0.0940094217658042,0,0,0
1657,57787.04004698976,2010-11-02 06:26:41,420.2137185196895,2,6,0.5499359965324402,3.8009285926818848,4.932190569333974,4.923497055730781,19.701618265277645,17.952765588449424,9.713172767078504e-05,0.0940094217658042,0,0,0
1658,57817.05528425972,2010-11-02 06:27:11,450.22895576959405,2,6,0.5499359965324402,3.804328203201294,4.936776991592618,4.923497055730781,19.719059001224764,17.952765588449424,6.47544875391759e-05,0.0940094217658042,0,0,0
1659,57847.07068449645,2010-11-02 06:27:41,480.2443560063389,2,6,0.5499359965324402,3.807565927505493,4.941363464900638,4.923497055730781,19.73651513883055,17.952765588449424,6.47544875391759e-05,0.0940094217658042,0,0,0
1660,57877.085812052544,2010-11-02 06:28:11,510.25948355240587,2,6,0.550297200679779,3.810803651809693,4.945949856583142,4.923497055730781,19.75398586290475,17.952765588449424,6.47544875391759e-05,0.0940094217658042,0,0,0
1661,57907.10107588381,2010-11-02 06:28:41,540.2747473986991,2,6,0.5501165986061096,3.814041376113892,4.95053632743697,4.923497055730781,19.771471662252257,17.952765588449424,6.47544875391759e-05,0.0940094217658042,0,0,0
1662,57937.116338577216,2010-11-02 06:29:12,570.2900100820896,2,6,0.5501165986061096,3.817117214202881,4.955122663087868,4.923497055730781,19.78897160709318,17.952765588449424,3.237724376958795e-05,0.0940094217658042,0,0,0
1663,57967.13163738578,2010-11-02 06:29:42,600.3053088956665,2,6,0.5501165986061096,3.82019305229187,4.959709044590665,4.923497055730781,19.80648597251393,17.952765588449424,9.713172767078504e-05,0.0940094217658042,0,0,0
1664,57997.14689585867,2010-11-02 06:30:12,630.3205673585219,2,6,0.5499359965324402,3.823430776596069,4.964295418882759,4.923497055730781,19.82401442284827,17.952765588449424,6.47544875391759e-05,0.0940094217658042,0,0,0
1665,58027.164762747554,2010-11-02 06:30:42,660.33843424741,2,6,0.5501165986061096,3.8263447284698486,4.968882219858553,4.923497055730781,19.841558581278925,17.952765588449424,6.47544875391759e-05,0.0940094217658042,0,0,0
1666,58057.17740672425,2010-11-02 06:31:12,690.351078229118,2,6,0.5501165986061096,3.829582452774048,4.973468269959913,4.923497055730781,19.85911408552759,17.952765588449424,9.713172767078504e-05,0.0940094217658042,0,0,0
1667,58087.19268522713,2010-11-02 06:31:42,720.3663567269839,2,6,0.5501165986061096,3.832658290863037,4.978054703958302,4.923497055730781,19.87668540074137,17.952765588449424,6.47544875391759e-05,0.0940094217658042,0,0,0
1668,58117.20793095319,2010-11-02 06:32:12,750.3816024630712,2,6,0.5499359965324402,3.835895776748657,4.982641107959603,4.923497055730781,19.894271018427155,17.952765588449424,9.713172767078504e-05,0.0940094217658042,0,0,0
1669,58147.22319356139,2010-11-02 06:32:42,780.3968650712741,2,6,0.5501165986061096,3.8392953872680655,4.9872274744011,4.923497055730781,19.911871452980687,17.952765588449424,9.713172767078504e-05,0.0940094217658042,0,0,0
1670,58177.23862961253,2010-11-02 06:33:12,810.4123011224171,2,6,0.5501165986061096,3.8425331115722656,4.9918138933273,4.923497055730781,19.92948720367981,17.952765588449424,9.713172767078504e-05,0.0940094217658042,0,0,0
1671,58207.25379202062,2010-11-02 06:33:42,840.427463530505,2,6,0.5499359965324402,3.845770835876465,4.996400261530266,4.923497055730781,19.947118025442418,17.952765588449424,9.713172767078504e-05,0.0940094217658042,0,0,0
1672,58237.269115330346,2010-11-02 06:34:12,870.4427868402281,2,6,0.5501165986061096,3.849008560180664,5.000986655845592,4.923497055730781,19.964764321978528,17.952765588449424,6.47544875391759e-05,0.0940094217658042,0,0,0
1673,58267.28426425478,2010-11-02 06:34:42,900.4579357596463,2,6,0.5501165986061096,3.852570056915283,5.005573031017073,4.923497055730781,19.982425821973244,17.952765588449424,9.713172767078504e-05,0.0940094217658042,0,0,0
1674,58297.29965321838,2010-11-02 06:35:12,930.4733247332764,2,6,0.5499359965324402,3.8558077812194815,5.010159437670379,4.923497055730781,20.000102499985893,17.952765588449424,9.713172767078504e-05,0.0940094217658042,0,0,0
1675,58327.31479628319,2010-11-02 06:35:42,960.4884677880556,2,6,0.5501165986061096,3.8590455055236816,5.014745814206479,4.923497055730781,20.01779399110323,17.952765588449424,9.713172767078504e-05,0.0940094217658042,0,0,0
1676,58357.33009837997,2010-11-02 06:36:12,990.5037699499906,2,6,0.5501165986061096,3.862121343612671,5.019332186662122,4.923497055730781,20.035500083252245,17.952765588449424,6.47544875391759e-05,0.0940094217658042,0,0,0
1677,58387.34539351436,2010-11-02 06:36:42,1020.5190650342588,2,6,0.5501165986061096,3.86535906791687,5.023918625251579,4.923497055730781,20.053220783800157,17.952765588449424,0.0001295089750783,0.0940094217658042,0,0,0
1678,58417.36060960645,2010-11-02 06:37:12,1050.534281116325,2,6,0.5501165986061096,3.8684349060058594,5.028505025643327,4.923497055730781,20.070955397341084,17.952765588449424,0.0001295089750783,0.0940094217658042,0,0,0
1679,58447.37587829984,2010-11-02 06:37:42,1080.5495498097173,2,6,0.5501165986061096,3.8711869716644287,5.033091305608883,4.923497055730781,20.088703202191283,17.952765588449424,6.47544875391759e-05,0.0940094217658042,0,0,0
1680,58477.39125865696,2010-11-02 06:38:12,1110.564930171852,2,6,0.5499359965324402,3.873939037322998,5.037677681833989,4.923497055730781,20.106464770231707,17.952765588449424,6.47544875391759e-05,0.0940094217658042,0,0,0
1681,58507.40653120498,2010-11-02 06:38:42,1140.5802027148536,2,6,0.5501165986061096,3.876691102981568,5.042264034798576,4.923497055730781,20.124238997970984,17.952765588449424,6.47544875391759e-05,0.0940094217658042,0,0,0
1682,58537.42170956788,2010-11-02 06:39:12,1170.5953811078425,2,6,0.5501165986061096,3.8794431686401367,5.046850351801174,4.923497055730781,20.14202553151672,17.952765588449424,6.47544875391759e-05,0.0940094217658042,0,0,0
1683,58567.43694703834,2010-11-02 06:39:42,1200.6106185432095,2,6,0.5497553944587708,3.882033348083496,5.051436748255571,4.923497055730781,20.159824174915716,17.952765588449424,6.47544875391759e-05,0.0940094217658042,0,0,0
1684,58597.452245876986,2010-11-02 06:40:12,1230.6259173868618,2,6,0.5499359965324402,3.884299755096436,5.056023181760557,4.923497055730781,20.17763420243225,17.952765588449424,3.237724376958795e-05,0.0940094217658042,0,0,0
1685,58627.46745431998,2010-11-02 06:40:42,1260.6411258348726,2,6,0.550297200679779,3.886728048324585,5.06060962964628,4.923497055730781,20.195454810369785,17.952765588449424,9.713172767078504e-05,0.0940094217658042,0,0,0
1686,58657.482719394335,2010-11-02 06:41:12,1290.656390929281,2,6,0.5501165986061096,3.8888325691223145,5.065196011550949,4.923497055730781,20.213285133171603,17.952765588449424,9.713172767078504e-05,0.0940094217658042,0,0,0
1687,58687.497998829545,2010-11-02 06:41:42,1320.671670339424,2,6,0.5501165986061096,3.890613317489624,5.069782494465634,4.923497055730781,20.231125222050235,17.952765588449424,6.47544875391759e-05,0.0940094217658042,0,0,0
1688,58717.5134140537,2010-11-02 06:42:12,1350.68708560368,2,6,0.5501165986061096,3.892555952072144,5.074368872496477,4.923497055730781,20.24897362615484,17.952765588449424,6.47544875391759e-05,0.0940094217658042,0,0,0
1689,58747.52851733419,2010-11-02 06:42:42,1380.7021888490888,2,6,0.5501165986061096,3.894174814224243,5.078955266801998,4.923497055730781,20.26683020814253,17.952765588449424,0.0,0.0940094217658042,0,0,0
1690,58777.54390269882,2010-11-02 06:43:12,1410.7175742086977,2,6,0.5499359965324402,3.895631790161133,5.083541702808803,4.923497055730781,20.2846940813776,17.952765588449424,3.237724376958795e-05,0.0940094217658042,0,0,0
1691,58807.55920220413,2010-11-02 06:43:42,1440.732873719014,2,6,0.550297200679779,3.897250652313232,5.088128187989362,4.923497055730781,20.30256532619709,17.952765588449424,0.0,0.0940094217658042,0,0,0
1692,58837.57430421144,2010-11-02 06:44:12,1470.7479757213196,2,6,0.5501165986061096,3.898707628250122,5.092714568390625,4.923497055730781,20.320442755111557,17.952765588449424,3.237724376958795e-05,0.0940094217658042,0,0,0
1693,58867.58956205274,2010-11-02 06:44:42,1500.7632335626236,2,6,0.5501165986061096,3.9000027179718018,5.097300980080584,4.923497055730781,20.33832672048429,17.952765588449424,6.47544875391759e-05,0.0940094217658042,0,0,0
1694,58897.60482745291,2010-11-02 06:45:12,1530.7784989627955,2,6,0.5501165986061096,3.9012978076934814,5.101887408617423,4.923497055730781,20.35621675624123,17.952765588449424,6.47544875391759e-05,0.0940094217658042,0,0,0
1695,58927.62010320894,2010-11-02 06:45:42,1560.7937747188173,2,6,0.5499359965324402,3.902431011199951,5.106473805305718,4.923497055730781,20.37411269648173,17.952765588449424,3.237724376958795e-05,0.0940094217658042,0,0,0
1696,58957.63553240798,2010-11-02 06:46:12,1590.8092039178566,2,6,0.5501165986061096,3.903887987136841,5.111060288456896,4.923497055730781,20.392014770492647,17.952765588449424,3.237724376958795e-05,0.0940094217658042,0,0,0
1697,58987.65086797329,2010-11-02 06:46:42,1620.8245394831715,2,6,0.550297200679779,3.905183076858521,5.115646777413911,4.923497055730781,20.40992263400189,17.952765588449424,3.237724376958795e-05,0.0940094217658042,0,0,0
1698,59017.66631325747,2010-11-02 06:47:12,1650.8399847723742,2,6,0.5501165986061096,3.90615439414978,5.120233231835781,4.923497055730781,20.427835885622137,17.952765588449424,0.0,0.0940094217658042,0,0,0
1699,59047.6811773008,2010-11-02 06:47:42,1680.854848810685,2,6,0.5499359965324402,3.90744948387146,5.124819568928904,4.923497055730781,20.4457544311394,17.952765588449424,0.0,0.0940094217658042,0,0,0
1700,59077.696427688505,2010-11-02 06:48:12,1710.8700991983835,2,6,0.5499359965324402,3.90874457359314,5.129405981965782,4.923497055730781,20.4636789691859,17.952765588449424,0.0,0.0940094217658042,0,0,0
1701,59107.71168153985,2010-11-02 06:48:42,1740.885353049728,2,6,0.5501165986061096,3.9100396633148193,5.133992383229253,4.923497055730781,20.48160927575471,17.952765588449424,3.237724376958795e-05,0.0940094217658042,0,0,0
1702,59137.72694910042,2010-11-02 06:49:12,1770.9006206102924,2,6,0.5499359965324402,3.911334753036499,5.138578789916057,4.923497055730781,20.49954524046648,17.952765588449424,3.237724376958795e-05,0.0940094217658042,0,0,0
1703,59167.74222245544,2010-11-02 06:49:42,1800.9158939653212,2,6,0.5499359965324402,3.9124679565429688,5.143165194909209,4.923497055730781,20.517487028064355,17.952765588449424,0.0,0.0940094217658042,0,0,0
1704,59197.7574815198,2010-11-02 06:50:12,1830.931153029678,2,6,0.5499359965324402,3.913762807846069,5.14775163100452,4.923497055730781,20.535434753940805,17.952765588449424,3.23295607813634e-05,0.0940094217658042,0,0,0
1705,59227.772778278246,2010-11-02 06:50:42,1860.9464497881247,2,6,0.5501165986061096,3.915057897567749,5.152338087295432,4.923497055730781,20.55338848012148,17.952765588449424,3.237724376958795e-05,0.0940094217658042,0,0,0
1706,59257.78802503187,2010-11-02 06:51:12,1890.961696541752,2,6,0.5501165986061096,3.9163529872894287,5.156924498020119,4.923497055730781,20.571347726324145,17.952765588449424,0.0,0.0940094217658042,0,0,0
1707,59287.80330244704,2010-11-02 06:51:42,1920.976973956916,2,6,0.5501165986061096,3.9178099632263184,5.161510909072593,4.923497055730781,20.589313004909133,17.952765588449424,3.237724376958795e-05,0.0940094217658042,0,0,0
1708,59317.81854262424,2010-11-02 06:52:12,1950.9922141341272,2,6,0.5501165986061096,3.919105052947998,5.166097301661198,4.923497055730781,20.607284184397606,17.952765588449424,3.237724376958795e-05,0.0940094217658042,0,0,0
1709,59347.83380869108,2010-11-02 06:52:42,1981.0074802260256,2,6,0.5497553944587708,3.920238256454468,5.170683676525669,4.923497055730781,20.62526141647047,17.952765588449424,3.237724376958795e-05,0.0940094217658042,0,0,0
1710,59377.84907096344,2010-11-02 06:53:12,2011.0227424733275,2,6,0.550297200679779,3.921857118606568,5.175270084025088,4.923497055730781,20.643244792800395,17.952765588449424,3.237724376958795e-05,0.0940094217658042,0,0,0
1711,59407.864349210686,2010-11-02 06:53:42,2041.038020720568,2,6,0.5499359965324402,3.922990322113037,5.17985648672479,4.923497055730781,20.661234398024483,17.952765588449424,0.0,0.0940094217658042,0,0,0
1712,59437.87961698177,2010-11-02 06:54:12,2071.053288491658,2,6,0.5499359965324402,3.924447298049927,5.184442936547298,4.923497055730781,20.67923039159258,17.952765588449424,6.47544875391759e-05,0.0940094217658042,0,0,0
1713,59467.894860181535,2010-11-02 06:54:42,2101.068531691414,2,6,0.5501165986061096,3.925904273986816,5.18902935995354,4.923497055730781,20.697232584474644,17.952765588449424,3.237724376958795e-05,0.0940094217658042,0,0,0
1714,59497.91012808796,2010-11-02 06:55:12,2131.0837995978422,2,6,0.5499359965324402,3.927199363708496,5.193615742254605,4.923497055730781,20.71524080730675,17.952765588449424,9.713172767078504e-05,0.0940094217658042,0,0,0
1715,59527.92554297628,2010-11-02 06:55:42,2161.099214491172,2,6,0.5501165986061096,3.9286563396453857,5.198202179031315,4.923497055730781,20.733255746632423,17.952765588449424,6.47544875391759e-05,0.0940094217658042,0,0,0
1716,59557.94065711889,2010-11-02 06:56:12,2191.1143286287697,2,6,0.5501165986061096,3.9301133155822754,5.202788508330652,4.923497055730781,20.751276685581,17.952765588449424,3.237724376958795e-05,0.0940094217658042,0,0,0
1717,59587.95594533601,2010-11-02 06:56:42,2221.129616855921,2,6,0.5499359965324402,3.931408405303955,5.207374932130774,4.923497055730781,20.769304527665177,17.952765588449424,6.47544875391759e-05,0.0940094217658042,0,0,0
1718,59617.97118827011,2010-11-02 06:57:12,2251.1448597850017,2,6,0.550297200679779,3.933027267456055,5.211961390916836,4.923497055730781,20.78733905833916,17.952765588449424,9.713172767078504e-05,0.0940094217658042,0,0,0
1719,59647.986478933344,2010-11-02 06:57:42,2281.1601504482346,2,6,0.550297200679779,3.934484243392944,5.216547866438168,4.923497055730781,20.805380288684287,17.952765588449424,6.47544875391759e-05,0.0940094217658042,0,0,0
1720,59678.00184207249,2010-11-02 06:58:12,2311.175513582365,2,6,0.5501165986061096,3.935779333114624,5.221134327796537,4.923497055730781,20.82342815561798,17.952765588449424,3.237724376958795e-05,0.0940094217658042,0,0,0
1721,59708.01700262594,2010-11-02 06:58:42,2341.1906741458483,2,6,0.550297200679779,3.9372363090515137,5.225720809337934,4.923497055730781,20.84148272988512,17.952765588449424,0.0,0.0940094217658042,0,0,0
1722,59738.03239081261,2010-11-02 06:59:12,2371.2060623224893,2,6,0.5499359965324402,3.938531398773194,5.230307271550431,4.923497055730781,20.859544104506764,17.952765588449424,0.0,0.0940094217658042,0,0,0
1723,59768.0477681121,2010-11-02 06:59:42,2401.2214396320046,2,6,0.5501165986061096,3.940312147140503,5.234893723877144,4.923497055730781,20.87761228945349,17.952765588449424,6.47544875391759e-05,0.0940094217658042,0,0,0
1724,59798.06277679647,2010-11-02 07:00:12,2431.2364483063493,2,6,0.550297200679779,3.9417691230773926,5.23948014620105,4.923497055730781,20.89568726875038,17.952765588449424,6.47544875391759e-05,0.0940094217658042,0,0,0
1725,59828.07817477257,2010-11-02 07:00:42,2461.2518462924763,2,6,0.5501165986061096,3.943226099014282,5.24406664813755,4.923497055730781,20.91376951792671,17.952765588449424,3.237724376958795e-05,0.0940094217658042,0,0,0
1726,59858.0933182083,2010-11-02 07:01:13,2491.266989723193,2,6,0.5501165986061096,3.944844961166382,5.248653063713234,4.923497055730781,20.931858446391683,17.952765588449424,6.47544875391759e-05,0.0940094217658042,0,0,0
1727,59888.10870897641,2010-11-02 07:01:43,2521.2823804963155,2,6,0.5501165986061096,3.9464638233184814,5.253239564319524,4.923497055730781,20.94995486090133,17.952765588449424,3.237724376958795e-05,0.0940094217658042,0,0,0
1728,59918.12382978566,2010-11-02 07:02:13,2551.297501295541,2,6,0.5501165986061096,3.947920799255371,5.25782605263323,4.923497055730781,20.968058288405956,17.952765588449424,3.237724376958795e-05,0.0940094217658042,0,0,0
1729,59948.14188434801,2010-11-02 07:02:43,2581.315555943104,2,6,0.5501165986061096,3.949539661407471,5.262412960850425,4.923497055730781,20.986170631243738,17.952765588449424,6.47544875391759e-05,0.0940094217658042,0,0,0
1730,59978.1543952776,2010-11-02 07:03:13,2611.328066787481,2,6,0.550297200679779,3.95132040977478,5.266999022279562,4.923497055730781,21.004286958137783,17.952765588449424,6.47544875391759e-05,0.0940094217658042,0,0,0
1731,60008.16977251193,2010-11-02 07:03:43,2641.3434440218084,2,6,0.5501165986061096,3.95261549949646,5.271585525792043,4.923497055730781,21.02241239075256,17.952765588449424,3.237724376958795e-05,0.0940094217658042,0,0,0
1732,60038.18489599786,2010-11-02 07:04:13,2671.358567512753,2,6,0.5499359965324402,3.95423436164856,5.276171924454638,4.923497055730781,21.0405448178509,17.952765588449424,3.237724376958795e-05,0.0940094217658042,0,0,0
1733,60068.20017490675,2010-11-02 07:04:43,2701.3738464266576,2,6,0.5501165986061096,3.955853223800659,5.280758397107159,4.923497055730781,21.058685028282856,17.952765588449424,0.0,0.0940094217658042,0,0,0
1734,60098.21542458268,2010-11-02 07:05:13,2731.3890960925546,2,6,0.550297200679779,3.9576339721679688,5.285344930511732,4.923497055730781,21.07683293870357,17.952765588449424,6.47544875391759e-05,0.0940094217658042,0,0,0
1735,60128.230712002805,2010-11-02 07:05:43,2761.4043835126918,2,6,0.5501165986061096,3.9594147205352783,5.28993141983061,4.923497055730781,21.09498829765914,17.952765588449424,3.237724376958795e-05,0.0940094217658042,0,0,0
1736,60158.24594913743,2010-11-02 07:06:13,2791.419620647308,2,6,0.5501165986061096,3.961033582687378,5.2945178465925,4.923497055730781,21.113151008970945,17.952765588449424,6.47544875391759e-05,0.0940094217658042,0,0,0
1737,60188.26122370047,2010-11-02 07:06:43,2821.434895210352,2,6,0.5501165986061096,3.962814331054688,5.299104380966106,4.923497055730781,21.13132182324273,17.952765588449424,9.713172767078504e-05,0.0940094217658042,0,0,0
1738,60218.27651940629,2010-11-02 07:07:13,2851.4501909512587,2,6,0.5499359965324402,3.964271306991577,5.303690902596296,4.923497055730781,21.149500309061395,17.952765588449424,0.0,0.0940094217658042,0,0,0
1739,60248.29175763363,2010-11-02 07:07:43,2881.465429143516,2,6,0.5501165986061096,3.966052055358887,5.308277415268683,4.923497055730781,21.16768653637662,17.952765588449424,6.47544875391759e-05,0.0940094217658042,0,0,0
1740,60278.30702027692,2010-11-02 07:08:13,2911.480691786806,2,6,0.5501165986061096,3.967509031295776,5.312863934057295,4.923497055730781,21.1858805563073,17.952765588449424,-3.237724376958795e-05,0.0940094217658042,0,0,0
1741,60308.32227397288,2010-11-02 07:08:43,2941.495945482762,2,6,0.5501165986061096,3.969451665878296,5.317450391348142,4.923497055730781,21.20408217944994,17.952765588449424,6.47544875391759e-05,0.0940094217658042,0,0,0
1742,60338.33752962371,2010-11-02 07:09:13,2971.511201133599,2,6,0.5499359965324402,3.971070528030396,5.322036839368636,4.923497055730781,21.222291660583693,17.952765588449424,3.237724376958795e-05,0.0940094217658042,0,0,0
1743,60368.35281052258,2010-11-02 07:09:43,3001.526482032458,2,6,0.5501165986061096,3.972851276397705,5.326623342310967,4.923497055730781,21.240509361922324,17.952765588449424,6.47544875391759e-05,0.0940094217658042,0,0,0
1744,60398.36805761204,2010-11-02 07:10:13,3031.5417291219237,2,6,0.5499359965324402,3.974632024765015,5.331209857708808,4.923497055730781,21.2587350969068,17.952765588449424,6.47544875391759e-05,0.0940094217658042,0,0,0
1745,60428.38327836577,2010-11-02 07:10:43,3061.556949875651,2,6,0.5501165986061096,3.976412773132324,5.335795740533919,4.923497055730781,21.276966294778745,17.952765588449424,6.47544875391759e-05,0.0940094217658042,0,0,0
1746,60458.39854093888,2010-11-02 07:11:13,3091.5722124487665,2,6,0.5499359965324402,3.977869749069214,5.340381517809393,4.923497055730781,21.29520503016628,17.952765588449424,3.237724376958795e-05,0.0940094217658042,0,0,0
1747,60488.413851211066,2010-11-02 07:11:43,3121.5875227209453,2,6,0.5499359965324402,3.979974269866944,5.344967344986957,4.923497055730781,21.313452176777275,17.952765588449424,3.237724376958795e-05,0.0940094217658042,0,0,0
1748,60518.42910338322,2010-11-02 07:12:13,3151.602774913149,2,6,0.5499359965324402,3.981916904449463,5.349552964937629,4.923497055730781,21.331706989847888,17.952765588449424,6.47544875391759e-05,0.0940094217658042,0,0,0
1749,60548.444257119656,2010-11-02 07:12:43,3181.617928634553,2,6,0.5499359965324402,3.9835357666015625,5.354138632559457,4.923497055730781,21.34997019670356,17.952765588449424,0.0,0.0940094217658042,0,0,0
1750,60578.45960250448,2010-11-02 07:13:13,3211.633274014366,2,6,0.5501165986061096,3.985478401184082,5.358724237189142,4.923497055730781,21.36824164047616,17.952765588449424,6.47544875391759e-05,0.0940094217658042,0,0,0
1751,60608.474842365904,2010-11-02 07:13:43,3241.6485138757894,2,6,0.550297200679779,3.987582921981812,5.36331034359874,4.923497055730781,21.38652383260028,17.952765588449424,9.713172767078504e-05,0.0940094217658042,0,0,0
1752,60638.490174577855,2010-11-02 07:14:13,3271.663846092747,2,6,0.5501165986061096,3.989363670349121,5.367896825146772,4.923497055730781,21.40481622791613,17.952765588449424,6.47544875391759e-05,0.0940094217658042,0,0,0
1753,60668.50556513544,2010-11-02 07:14:43,3301.6792366453187,2,6,0.5501165986061096,3.991144418716431,5.372483330309475,4.923497055730781,21.42311761693374,17.952765588449424,3.237724376958795e-05,0.0940094217658042,0,0,0
1754,60698.52071569896,2010-11-02 07:15:13,3331.694387218866,2,6,0.550297200679779,3.99324893951416,5.377069799508012,4.923497055730781,21.441427885751548,17.952765588449424,3.237724376958795e-05,0.0940094217658042,0,0,0
1755,60728.536113925686,2010-11-02 07:15:43,3361.709785435568,2,6,0.5501165986061096,3.995353221893311,5.381656316897993,4.923497055730781,21.45974737541261,17.952765588449424,9.713172767078504e-05,0.0940094217658042,0,0,0
1756,60758.55123138658,2010-11-02 07:16:13,3391.7249028964607,2,6,0.5501165986061096,3.99713397026062,5.386242786920099,4.923497055730781,21.47807587962743,17.952765588449424,3.237724376958795e-05,0.0940094217658042,0,0,0
1757,60788.566500741625,2010-11-02 07:16:43,3421.7401722515046,2,6,0.5501165986061096,3.9992384910583496,5.390829320594586,4.923497055730781,21.49641390614235,17.952765588449424,3.237724376958795e-05,0.0940094217658042,0,0,0
1758,60818.58176102903,2010-11-02 07:17:13,3451.755432538914,2,6,0.5499359965324402,4.001181125640869,5.395415802784568,4.923497055730781,21.514761162426336,17.952765588449424,3.23295607813634e-05,0.0940094217658042,0,0,0
1759,60848.597035877785,2010-11-02 07:17:43,3481.770707387672,2,6,0.5499359965324402,4.003285884857178,5.400002278244407,4.923497055730781,21.53311792928936,17.952765588449424,0.0,0.0940094217658042,0,0,0
1760,60878.6122895938,2010-11-02 07:18:13,3511.7859611086906,2,6,0.5501165986061096,4.005552291870117,5.404588765501897,4.923497055730781,21.55148425106529,17.952765588449424,9.71794142969884e-05,0.0940094217658042,0,0,0
1761,60908.62780105317,2010-11-02 07:18:43,3541.801472588114,2,6,0.550297200679779,4.007494926452637,5.409175278066756,4.923497055730781,21.56986028609644,17.952765588449424,9.71794142969884e-05,0.0940094217658042,0,0,0
1762,60938.64308728534,2010-11-02 07:19:13,3571.816758800236,2,6,0.5501165986061096,4.009599208831787,5.413761750785023,4.923497055730781,21.588245691458347,17.952765588449424,0.0,0.0940094217658042,0,0,0
1763,60968.65812987935,2010-11-02 07:19:43,3601.831801399262,2,6,0.5501165986061096,4.011865615844727,5.418348253557182,4.923497055730781,21.60664092513717,17.952765588449424,6.47544875391759e-05,0.0940094217658042,0,0,0
1764,60998.67335781601,2010-11-02 07:20:13,3631.8470293309074,2,6,0.5501165986061096,4.013970375061035,5.422934759745452,4.923497055730781,21.62504617663762,17.952765588449424,3.24249267578125e-05,0.0940094217658042,0,0,0
1765,61028.68861219368,2010-11-02 07:20:43,3661.8622837035527,2,6,0.5499359965324402,4.0160746574401855,5.427521249864805,4.923497055730781,21.643461406860716,17.952765588449424,3.23295607813634e-05,0.0940094217658042,0,0,0
1766,61058.703879934685,2010-11-02 07:21:13,3691.877551444568,2,6,0.550297200679779,4.018503189086914,5.432107765698589,4.923497055730781,21.66188698309249,17.952765588449424,6.47544875391759e-05,0.0940094217658042,0,0,0
1767,61088.71915621703,2010-11-02 07:21:43,3721.8928277269033,2,6,0.5499359965324402,4.0206074714660645,5.436694236563514,4.923497055730781,21.680322595548727,17.952765588449424,0.0,0.0940094217658042,0,0,0
1768,61118.73442989285,2010-11-02 07:22:13,3751.9081014077447,2,6,0.5499359965324402,4.022873878479004,5.441280688773333,4.923497055730781,21.69876857448307,17.952765588449424,6.47544875391759e-05,0.0940094217658042,0,0,0
1769,61148.74968930808,2010-11-02 07:22:43,3781.9233608229774,2,6,0.5499359965324402,4.025302410125732,5.445867213260191,4.923497055730781,21.71722533554687,17.952765588449424,6.47544875391759e-05,0.0940094217658042,0,0,0
1770,61178.764945620576,2010-11-02 07:23:13,3811.9386171304527,2,6,0.5501165986061096,4.027730464935303,5.450453689178153,4.923497055730781,21.735692548248547,17.952765588449424,9.70840483205393e-05,0.0940094217658042,0,0,0
1771,61208.78021695055,2010-11-02 07:23:43,3841.953888460426,2,6,0.5504778623580933,4.030158996582031,5.455040143031314,4.923497055730781,21.754170335618813,17.952765588449424,0.0001295089750783,0.0940094217658042,0,0,0
1772,61238.79549001485,2010-11-02 07:24:13,3871.969161534754,2,6,0.5501165986061096,4.032425403594971,5.45962664946718,4.923497055730781,21.772659162890243,17.952765588449424,6.47544875391759e-05,0.0940094217658042,0,0,0
1773,61268.81074101407,2010-11-02 07:24:43,3901.9844125289674,2,6,0.5501165986061096,4.034691333770752,5.464213165323674,4.923497055730781,21.79115898418573,17.952765588449424,3.23295607813634e-05,0.0940094217658042,0,0,0
1774,61298.82604133642,2010-11-02 07:25:13,3931.999712846298,2,6,0.5499359965324402,4.0371198654174805,5.468799696441819,4.923497055730781,21.809669798114232,17.952765588449424,6.47544875391759e-05,0.0940094217658042,0,0,0
1775,61328.84128074671,2010-11-02 07:25:43,3962.0149522565935,2,6,0.5501165986061096,4.039547920227051,5.473386160413255,4.923497055730781,21.82819152931668,17.952765588449424,6.47544875391759e-05,0.0940094217658042,0,0,0
1776,61358.856527846205,2010-11-02 07:26:13,3992.0301993610974,2,6,0.5501165986061096,4.041976451873779,5.477972731634125,4.923497055730781,21.84672480122165,17.952765588449424,6.47544875391759e-05,0.0940094217658042,0,0,0
1777,61388.871796008265,2010-11-02 07:26:43,4022.0454675181513,2,6,0.5499359965324402,4.04440450668335,5.482559287081509,4.923497055730781,21.86526933046615,17.952765588449424,3.23295607813634e-05,0.0940094217658042,0,0,0
1778,61418.8870539398,2010-11-02 07:27:13,4052.06072544968,2,6,0.5501165986061096,4.046994686126709,5.487145785951604,4.923497055730781,21.8838250273373,17.952765588449424,9.70840483205393e-05,0.0940094217658042,0,0,0
1779,61448.90245887327,2010-11-02 07:27:43,4082.0761303831487,2,6,0.5501165986061096,4.049584865570068,5.491732284702415,4.923497055730781,21.902392316275677,17.952765588449424,9.70840483205393e-05,0.0940094217658042,0,0,0
1780,61478.91758278025,2010-11-02 07:28:13,4112.091254290132,2,6,0.5501165986061096,4.052013397216797,5.496318829092447,4.923497055730781,21.920971334738365,17.952765588449424,6.47544875391759e-05,0.0940094217658042,0,0,0
1781,61508.932851062615,2010-11-02 07:28:43,4142.106522582523,2,6,0.5501165986061096,4.054603576660156,5.500905356895589,4.923497055730781,21.93956190559438,17.952765588449424,9.71794142969884e-05,0.0940094217658042,0,0,0
1782,61538.948126969015,2010-11-02 07:29:13,4172.121798483908,2,6,0.550297200679779,4.057193756103516,5.505491927676867,4.923497055730781,21.9581643514164,17.952765588449424,6.47544875391759e-05,0.0940094217658042,0,0,0
1783,61568.96353795759,2010-11-02 07:29:43,4202.137209477503,2,6,0.5501165986061096,4.059783935546875,5.51007852714765,4.923497055730781,21.97677878802264,17.952765588449424,9.71794142969884e-05,0.0940094217658042,0,0,0
1784,61598.97861461162,2010-11-02 07:30:13,4232.152286121511,2,6,0.5501165986061096,4.062374114990234,5.51466517743829,4.923497055730781,21.995405109074053,17.952765588449424,9.71794142969884e-05,0.0940094217658042,0,0,0
1785,61628.99402534958,2010-11-02 07:30:43,4262.167696869494,2,6,0.5501165986061096,4.064964294433594,5.519251677804519,4.923497055730781,22.01404286185593,17.952765588449424,9.71794142969884e-05,0.0940094217658042,0,0,0
1786,61659.00914372276,2010-11-02 07:31:13,4292.182815232638,2,6,0.5501165986061096,4.067554473876953,5.523838741732162,4.923497055730781,22.032695149983383,17.952765588449424,6.47544875391759e-05,0.0940094217658042,0,0,0
1787,61689.02456158349,2010-11-02 07:31:43,4322.198233118438,2,6,0.5501165986061096,4.070468425750732,5.528425996309428,4.923497055730781,22.051360533009756,17.952765588449424,9.71794142969884e-05,0.0940094217658042,0,0,0
1788,61719.039673996784,2010-11-02 07:32:13,4352.213345506669,2,6,0.550297200679779,4.073058605194092,5.53301321441881,4.923497055730781,22.07003809353562,17.952765588449424,6.47544875391759e-05,0.0940094217658042,0,0,0
1789,61749.05495787308,2010-11-02 07:32:43,4382.228629382959,2,6,0.5501165986061096,4.075810432434082,5.537600470862639,4.923497055730781,22.088728257695557,17.952765588449424,9.70840483205393e-05,0.0940094217658042,0,0,0
1790,61779.07021472191,2010-11-02 07:33:14,4412.243886246823,2,6,0.5499359965324402,4.078400611877441,5.542187246590691,4.923497055730781,22.10742903715067,17.952765588449424,3.23295607813634e-05,0.0940094217658042,0,0,0
1791,61809.08560839727,2010-11-02 07:33:44,4442.259279907153,2,6,0.5501165986061096,4.081314563751221,5.546773865639628,4.923497055730781,22.126141905081795,17.952765588449424,0.0001295089750783,0.0940094217658042,0,0,0
1792,61839.10073382806,2010-11-02 07:34:14,4472.274405327914,2,6,0.5501165986061096,4.084066867828369,5.551360444053824,4.923497055730781,22.14486732892732,17.952765588449424,6.47544875391759e-05,0.0940094217658042,0,0,0
1793,61869.11857178974,2010-11-02 07:34:44,4502.2922433848335,2,6,0.550297200679779,4.086980819702148,5.555947348958785,4.923497055730781,22.163607051977632,17.952765588449424,9.71794142969884e-05,0.0940094217658042,0,0,0
1794,61899.13131986628,2010-11-02 07:35:14,4532.304991401228,2,6,0.5501165986061096,4.089732646942139,5.560533513159233,4.923497055730781,22.18235681903815,17.952765588449424,6.47544875391759e-05,0.0940094217658042,0,0,0
1795,61929.146555071085,2010-11-02 07:35:44,4562.320226580965,2,6,0.5497553944587708,4.092646598815918,5.565120068190452,4.923497055730781,22.201121459721225,17.952765588449424,9.70840483205393e-05,0.0940094217658042,0,0,0
1796,61959.16182903263,2010-11-02 07:36:14,4592.3355005475205,2,6,0.5501165986061096,4.095722675323486,5.569706563286839,4.923497055730781,22.219899240479343,17.952765588449424,9.71794142969884e-05,0.0940094217658042,0,0,0
1797,61989.17705624748,2010-11-02 07:36:44,4622.350727767388,2,6,0.5501165986061096,4.098636627197266,5.574293088660816,4.923497055730781,22.238690637046417,17.952765588449424,6.47544875391759e-05,0.0940094217658042,0,0,0
1798,62019.19231895092,2010-11-02 07:37:14,4652.365990465817,2,6,0.550297200679779,4.101550579071045,5.578879682670723,4.923497055730781,22.25749587679099,17.952765588449424,6.47544875391759e-05,0.0940094217658042,0,0,0
1799,62049.20758602527,2010-11-02 07:37:44,4682.381257535155,2,6,0.5499359965324402,4.104464530944824,5.583466254089019,4.923497055730781,22.27631462850105,17.952765588449424,6.47544875391759e-05,0.0940094217658042,0,0,0
1800,62079.22296469318,2010-11-02 07:38:14,4712.396636203061,2,6,0.5501165986061096,4.107540130615234,5.58805282951429,4.923497055730781,22.29514718168428,17.952765588449424,6.47544875391759e-05,0.0940094217658042,0,0,0
1801,62109.2381147755,2010-11-02 07:38:44,4742.411786275357,2,6,0.5501165986061096,4.110616207122803,5.592639365417717,4.923497055730781,22.313993467663543,17.952765588449424,9.71794142969884e-05,0.0940094217658042,0,0,0
1802,62139.253492952186,2010-11-02 07:39:14,4772.42716446206,2,6,0.5501165986061096,4.113691806793213,5.597225910680088,4.923497055730781,22.332853794539997,17.952765588449424,9.70840483205393e-05,0.0940094217658042,0,0,0
1803,62169.26866306951,2010-11-02 07:39:44,4802.442334579392,2,6,0.5501165986061096,4.116767406463623,5.601812439490606,4.923497055730781,22.351728211174503,17.952765588449424,9.70840483205393e-05,0.0940094217658042,0,0,0
1804,62199.284047972986,2010-11-02 07:40:14,4832.457719492888,2,6,0.5501165986061096,4.119843482971191,5.606399025408243,4.923497055730781,22.370617202092102,17.952765588449424,6.47544875391759e-05,0.0940094217658042,0,0,0
1805,62229.29915774468,2010-11-02 07:40:44,4862.472829264588,2,6,0.5501165986061096,4.122919082641602,5.610985660872573,4.923497055730781,22.38952083016822,17.952765588449424,6.47544875391759e-05,0.0940094217658042,0,0,0
1806,62259.31455676339,2010-11-02 07:41:14,4892.488228278279,2,6,0.5499359965324402,4.126156806945801,5.615572259910548,4.923497055730781,22.408438728268173,17.952765588449424,9.70840483205393e-05,0.0940094217658042,0,0,0
1807,62289.32970626927,2010-11-02 07:41:44,4922.503377779149,2,6,0.5499359965324402,4.129232883453369,5.620158744124349,4.923497055730781,22.427370909101693,17.952765588449424,6.47544875391759e-05,0.0940094217658042,0,0,0
1808,62319.34496047149,2010-11-02 07:42:14,4952.518631981369,2,6,0.5499359965324402,4.132632255554199,5.624745342974995,4.923497055730781,22.44631833658675,17.952765588449424,6.47544875391759e-05,0.0940094217658042,0,0,0
1809,62349.36022050326,2010-11-02 07:42:44,4982.533892003115,2,6,0.5499359965324402,4.135869979858398,5.629331895907931,4.923497055730781,22.46528038600796,17.952765588449424,9.70840483205393e-05,0.0940094217658042,0,0,0
1810,62379.37550618906,2010-11-02 07:43:14,5012.549177698948,2,6,0.5501165986061096,4.139107704162598,5.633918468469121,4.923497055730781,22.484257443019853,17.952765588449424,9.70840483205393e-05,0.0940094217658042,0,0,0
1811,62409.39080535352,2010-11-02 07:43:44,5042.564476913527,2,6,0.5501165986061096,4.142507553100586,5.638505093577666,4.923497055730781,22.50324983304202,17.952765588449424,0.0001295089750783,0.0940094217658042,0,0,0
1812,62439.40601542057,2010-11-02 07:44:14,5072.579686920429,2,6,0.550297200679779,4.145906925201416,5.64309166745809,4.923497055730781,22.52225736291065,17.952765588449424,9.70840483205393e-05,0.0940094217658042,0,0,0
1813,62469.42128243978,2010-11-02 07:44:44,5102.594953944654,2,6,0.5501165986061096,4.149306774139404,5.647678200638502,4.923497055730781,22.541280266467083,17.952765588449424,0.0001295089750783,0.0940094217658042,0,0,0
1814,62499.43654462694,2010-11-02 07:45:14,5132.610216131807,2,6,0.5501165986061096,4.152706146240234,5.652264748672935,4.923497055730781,22.560318826185203,17.952765588449424,0.0001295089750783,0.0940094217658042,0,0,0
1815,62529.45182279398,2010-11-02 07:45:44,5162.625494303858,2,6,0.5501165986061096,4.156105995178223,5.656851298215874,4.923497055730781,22.579372926632047,17.952765588449424,0.0001295089750783,0.0940094217658042,0,0,0
1816,62559.46708542724,2010-11-02 07:46:14,5192.640756937124,2,6,0.5501165986061096,4.159343719482422,5.661437797732242,4.923497055730781,22.59844249548491,17.952765588449424,6.47544875391759e-05,0.0940094217658042,0,0,0
1817,62589.48244127819,2010-11-02 07:46:44,5222.656112903364,2,6,0.550297200679779,4.163066864013672,5.666024363515483,4.923497055730781,22.617528251499056,17.952765588449424,0.0001295089750783,0.0940094217658042,0,0,0
1818,62619.49760866371,2010-11-02 07:47:14,5252.6712801786,2,6,0.550297200679779,4.166628360748291,5.670610993229444,4.923497055730781,22.6366302400918,17.952765588449424,0.0001618385285837,0.0940094217658042,0,0,0
1819,62649.513027176064,2010-11-02 07:47:44,5282.686698695976,2,6,0.5501165986061096,4.16986608505249,5.675197485853972,4.923497055730781,22.65574763519401,17.952765588449424,6.47544875391759e-05,0.0940094217658042,0,0,0
1820,62679.528149910126,2010-11-02 07:48:14,5312.701821425019,2,6,0.550297200679779,4.173427581787109,5.67978399253842,4.923497055730781,22.674881268685635,17.952765588449424,6.47544875391759e-05,0.0940094217658042,0,0,0
1821,62709.54339749583,2010-11-02 07:48:44,5342.71706900571,2,6,0.5501165986061096,4.177151203155518,5.684370581009497,4.923497055730781,22.694031516884696,17.952765588449424,0.0001295089750783,0.0940094217658042,0,0,0
1822,62739.55878950704,2010-11-02 07:49:14,5372.732461016924,2,6,0.5499359965324402,4.180712699890137,5.688957189794237,4.923497055730781,22.713198302901464,17.952765588449424,0.0001295089750783,0.0940094217658042,0,0,0
1823,62769.57394740387,2010-11-02 07:49:44,5402.747618913751,2,6,0.5501165986061096,4.184112071990967,5.693543767247868,4.923497055730781,22.73238139899176,17.952765588449424,9.70840483205393e-05,0.0940094217658042,0,0,0
1824,62799.58939137478,2010-11-02 07:50:14,5432.763062924762,2,6,0.5497553944587708,4.187835693359375,5.698130404995082,4.923497055730781,22.751581290972947,17.952765588449424,6.47544875391759e-05,0.0940094217658042,0,0,0
1825,62829.60469675976,2010-11-02 07:50:44,5462.778368269642,2,6,0.5499359965324402,4.191397190093994,5.702716951896827,4.923497055730781,22.77079760669984,17.952765588449424,9.71794142969884e-05,0.0940094217658042,0,0,0
1826,62859.62009332234,2010-11-02 07:51:14,5492.793764842241,2,6,0.5501165986061096,4.195281982421875,5.707303545779292,4.923497055730781,22.790030993220142,17.952765588449424,9.70840483205393e-05,0.0940094217658042,0,0,0
1827,62889.635010082246,2010-11-02 07:51:44,5522.808681592128,2,6,0.5501165986061096,4.199005603790283,5.711889989055344,4.923497055730781,22.809280649500952,17.952765588449424,9.71794142969884e-05,0.0940094217658042,0,0,0
1828,62897.19742006602,2010-11-02 07:51:52,5530.371091575896,2,6,0.5501165986061096,4.200138568878174,5.713045572943836,4.923497055730781,22.814133432785184,17.952765588449424,0.0001618385285837,0.0940094217658042,0,0,0
1829,62927.21344680752,2010-11-02 07:52:22,30.015254898959327,3,6,0.0,4.112882614135742,5.713045572943836,4.923497055730781,22.814133432785184,17.952765588449424,-0.0004208564641885,0.0940094217658042,0,0,0
1830,62957.228701756605,2010-11-02 07:52:52,60.030509822981216,3,6,0.0,4.102035999298096,5.713045572943836,4.923497055730781,22.814133432785184,17.952765588449424,-0.0002590179501567,0.0940094217658042,0,0,0
1831,62987.24401230949,2010-11-02 07:53:22,90.04582037586128,3,6,0.0,4.095722675323486,5.713045572943836,4.923497055730781,22.814133432785184,17.952765588449424,-0.0001295089750783,0.0940094217658042,0,0,0
1832,63017.21237031659,2010-11-02 07:53:52,120.01417839298864,3,6,0.0,4.091675281524658,5.713045572943836,4.923497055730781,22.814133432785184,17.952765588449424,-6.47544875391759e-05,0.0940094217658042,0,0,0
1833,63017.214591059885,2010-11-02 07:53:52,2.611518753e-06,4,6,1.0014592409133911,4.199814796447754,5.713045573670316,4.923497055730781,22.81413343583627,17.952765588449424,0.0,0.0940094217658042,0,0,0
1834,63017.77693538283,2010-11-02 07:53:53,0.56234694950087,4,6,0.9503467679023744,4.199653148651123,5.713196289423917,4.923497055730781,22.81476640155596,17.952765588449424,-3.23295607813634e-05,0.0940094217658042,0,0,0
1835,63019.68321094492,2010-11-02 07:53:54,2.468622511576975,4,6,0.9001373648643494,4.199814796447754,5.713685001139104,4.923497055730781,22.81681884687954,17.952765588449424,0.0,0.0940094217658042,0,0,0
1836,63022.7299902949,2010-11-02 07:53:57,5.515401861569841,4,6,0.8499280214309692,4.199814796447754,5.714424456168453,4.923497055730781,22.819924359577737,17.952765588449424,3.23295607813634e-05,0.0940094217658042,0,0,0
1837,63026.9486934069,2010-11-02 07:54:02,9.734104983593664,4,6,0.7998992204666138,4.199814796447754,5.715389977817606,4.923497055730781,22.823979305683768,17.952765588449424,3.23295607813634e-05,0.0940094217658042,0,0,0
1838,63032.526759503045,2010-11-02 07:54:07,15.31217106970862,4,6,0.7498704791069031,4.199814796447754,5.71658928488814,4.923497055730781,22.829016103505577,17.952765588449424,3.23295607813634e-05,0.0940094217658042,0,0,0
1839,63039.82354312755,2010-11-02 07:54:15,22.608954694217488,4,6,0.6998416781425476,4.199653148651123,5.718056362498392,4.923497055730781,22.83517748470311,17.952765588449424,-6.47544875391759e-05,0.0940094217658042,0,0,0
1840,63049.44841726917,2010-11-02 07:54:24,32.23382886088737,4,6,0.6498129367828369,4.199653148651123,5.719857298367853,4.923497055730781,22.84274098618965,17.952765588449424,0.0,0.0940094217658042,0,0,0
1841,63062.72950897731,2010-11-02 07:54:37,45.514920543973226,4,6,0.5997841358184814,4.199653148651123,5.722157258976292,4.923497055730781,22.8524002692962,17.952765588449424,-6.47544875391759e-05,0.0940094217658042,0,0,0
1842,63082.91680210669,2010-11-02 07:54:58,65.70221367336158,4,6,0.5497553944587708,4.199653148651123,5.725370550446486,4.923497055730781,22.86589532637183,17.952765588449424,-3.23295607813634e-05,0.0940094217658042,0,0,0
1843,63117.447675509145,2010-11-02 07:55:32,100.23308719110396,4,6,0.4997266232967376,4.199814796447754,5.730382116735457,4.923497055730781,22.88694269392367,17.952765588449424,0.0,0.0940094217658042,0,0,0
1844,63180.86871491058,2010-11-02 07:56:36,163.65412647724511,4,6,0.4496978521347046,4.199653148651123,5.738706071395143,4.923497055730781,22.92190131534777,17.952765588449424,-3.23295607813634e-05,0.0940094217658042,0,0,0
1845,63280.88316424295,2010-11-02 07:58:16,263.6685758146296,4,6,0.3996690809726715,4.199653148651123,5.750472261926348,4.923497055730781,22.971316481723377,17.952765588449424,-3.23295607813634e-05,0.0940094217658042,0,0,0
1846,63405.86598139268,2010-11-02 08:00:21,388.6513929593486,4,6,0.3496403098106384,4.199491024017334,5.763458952549193,4.923497055730781,23.025857491056183,17.952765588449424,-3.24249267578125e-05,0.0940094217658042,0,0,0
1847,63556.47368710155,2010-11-02 08:02:51,539.2590986682142,4,6,0.2996115386486053,4.199653148651123,5.777024548913812,4.923497055730781,23.082829799814657,17.952765588449424,-6.47544875391759e-05,0.0940094217658042,0,0,0
1848,63735.28389949595,2010-11-02 08:05:50,718.0693110576015,4,6,0.2495827823877334,4.199491024017334,5.790643547450005,4.923497055730781,23.1400263917372,17.952765588449424,-6.47544875391759e-05,0.0940094217658042,0,0,0
1849,63955.15629034503,2010-11-02 08:09:30,937.9417019367576,4,6,0.1995540112257003,4.199653148651123,5.804327848891544,4.923497055730781,23.19749726050276,17.952765588449424,-6.47544875391759e-05,0.0940094217658042,0,0,0
1850,64244.12157964833,2010-11-02 08:14:19,1226.9069912400569,4,6,0.1495252400636673,4.199653148651123,5.81826333878986,4.923497055730781,23.256023148292417,17.952765588449424,-3.23295607813634e-05,0.0940094217658042,0,0,0
1851,64660.69485654566,2010-11-02 08:21:15,1643.4802681373892,4,6,0.0994964689016342,4.199814796447754,5.832484461996558,4.923497055730781,23.31574862074919,17.952765588449424,0.0,0.0940094217658042,0,0,0
1852,65432.18562749584,2010-11-02 08:34:07,2414.9710390574937,4,6,0.0498289167881011,4.199653148651123,5.847843026952243,4.923497055730781,23.380251066067995,17.952765588449424,0.0,0.0940094217658042,0,0,0
1853,65462.20075711236,2010-11-02 08:34:37,30.015340933715315,5,6,0.0,4.191882610321045,5.847843026952243,4.923497055730781,23.380251066067995,17.952765588449424,-3.24249267578125e-05,0.0940094217658042,0,0,0
1854,65492.20056255711,2010-11-02 08:35:07,60.01514633334747,5,6,0.0,4.190425872802734,5.847843026952243,4.923497055730781,23.380251066067995,17.952765588449424,-6.47544875391759e-05,0.0940094217658042,0,0,0
1855,65492.388284820176,2010-11-02 08:35:07,0.187537938546603,6,6,-1.9243103452026844e-05,4.190425872802734,5.84784303065418,4.923497055730781,23.38025108158099,17.952765588449424,-3.23295607813634e-05,0.0933678373694419,0,0,0
1856,65497.216320996245,2010-11-02 08:35:12,5.015574124641895,6,6,0.0007031940040178,4.190263748168945,5.847843985039806,4.923497055897692,23.38025508098517,17.95276558914885,-6.47544875391759e-05,0.0933678373694419,0,0,0
1857,65527.232280847245,2010-11-02 08:35:42,30.015276868799425,7,6,-1.0997490882873535,4.010246753692627,5.847843985039806,4.932665002662472,23.38025508098517,17.989731811373584,-0.0009713172912597,0.0933678373694419,0,0,0
1858,65557.24766835221,2010-11-02 08:36:12,60.030664358726206,7,6,-1.099568486213684,3.9827263355255127,5.847843985039806,4.941832905082433,23.38025508098517,18.02636193086058,-0.0006151676061563,0.0933678373694419,0,0,0
1859,65587.26280359749,2010-11-02 08:36:42,90.04579960401155,7,6,-1.099568486213684,3.9637856483459473,5.847843985039806,4.951000667598655,23.38025508098517,18.06278281047477,-0.0003885269106831,0.0933678373694419,0,0,0
1860,65617.27808296253,2010-11-02 08:37:12,120.06107896904194,7,6,-1.099568486213684,3.948892116546631,5.847843985039806,4.960168486711734,23.38025508098517,18.09905125458281,-0.0003561496851034,0.0933678373694419,0,0,0
1861,65647.29355870273,2010-11-02 08:37:42,150.07655470925502,7,6,-1.0993878841400146,3.936750650405884,5.847843985039806,4.969336342069746,23.38025508098517,18.135197177753493,-0.0002913951757363,0.0933678373694419,0,0,0
1862,65677.3086149408,2010-11-02 08:38:12,180.09161094732622,7,6,-1.099568486213684,3.925904273986816,5.847843985039806,4.978504124976348,23.38025508098517,18.171237995389163,-0.0002913951757363,0.0933678373694419,0,0,0
1863,65707.32386765431,2010-11-02 08:38:42,210.1068636608303,7,6,-1.099568486213684,3.916029214859009,5.847843985039806,4.987671946237789,23.38025508098517,18.207184134667692,-0.0002590179501567,0.0933678373694419,0,0,0
1864,65737.33914343038,2010-11-02 08:39:12,240.1221394369021,7,6,-1.099568486213684,3.90664005279541,5.847843985039806,4.996839737036072,23.38025508098517,18.243041812323504,-0.0002266406954731,0.0933678373694419,0,0,0
1865,65767.35439976794,2010-11-02 08:39:42,270.13739579951493,7,6,-1.099568486213684,3.8977363109588623,5.847843985039806,5.006007571879841,23.38025508098517,18.278815563615268,-0.0002266406954731,0.0933678373694419,0,0,0
1866,65797.36993067084,2010-11-02 08:40:12,300.1529266923976,7,6,-1.099568486213684,3.8888325691223145,5.847843985039806,5.015175402096982,23.38025508098517,18.31450829005024,-0.0002590179501567,0.0933678373694419,0,0,0
1867,65827.38493020236,2010-11-02 08:40:42,330.16792623394554,7,6,-1.0997490882873535,3.880090713500977,5.847843985039806,5.024343197049983,23.38025508098517,18.35012118980555,-0.0002590179501567,0.0933678373694419,0,0,0
1868,65857.40026086544,2010-11-02 08:41:12,360.1832568719612,7,6,-1.0993878841400146,3.8719964027404794,5.847843985039806,5.033511053511585,23.38025508098517,18.38565602667781,-0.0001942634553415,0.0933678373694419,0,0,0
1869,65887.41547194503,2010-11-02 08:41:43,390.1984679515406,7,6,-1.099568486213684,3.863578319549561,5.847843985039806,5.042678854348397,23.38025508098517,18.421113784334363,-0.0001942634553415,0.0933678373694419,0,0,0
1870,65917.4307585782,2010-11-02 08:42:13,420.213754609776,7,6,-1.099568486213684,3.855322122573853,5.847843985039806,5.05184671321007,23.38025508098517,18.456496356057123,-0.0001942634553415,0.0933678373694419,0,0,0
1871,65947.44599577798,2010-11-02 08:42:43,450.2289917844929,7,6,-1.0997490882873535,3.847389698028565,5.847843985039806,5.061014517965315,23.38025508098517,18.4918042432027,-0.0001942634553415,0.0933678373694419,0,0,0
1872,65977.46384410553,2010-11-02 08:43:13,480.2468402223242,7,6,-1.099568486213684,3.839457273483277,5.847843985039806,5.070183210473342,23.38025508098517,18.527042300823325,-0.0001942634553415,0.0933678373694419,0,0,0
1873,66007.4766059715,2010-11-02 08:43:43,510.25960197300185,7,6,-1.099568486213684,3.831525087356568,5.847843985039806,5.079350334358405,23.38025508098517,18.562202547089893,-0.0002266406954731,0.0933678373694419,0,0,0
1874,66037.49180548721,2010-11-02 08:44:13,540.2748014987411,7,6,-1.0997490882873535,3.823754549026489,5.847843985039806,5.088518170985675,23.38025508098517,18.597294815536348,-0.0002590179501567,0.0933678373694419,0,0,0
1875,66067.50707737858,2010-11-02 08:44:43,570.2900733851036,7,6,-1.099568486213684,3.816631555557251,5.847843985039806,5.097686024342672,23.38025508098517,18.63231774202305,-0.0001618862152099,0.0933678373694419,0,0,0
1876,66097.52231898437,2010-11-02 08:45:13,600.3053149908811,7,6,-1.099568486213684,3.809022903442383,5.847843985039806,5.106853856251601,23.38025508098517,18.66727230685927,-0.0002266406954731,0.0933678373694419,0,0,0
1877,66127.5375837279,2010-11-02 08:45:43,630.320579734414,7,6,-1.099568486213684,3.801738023757935,5.847843985039806,5.116021673164766,23.38025508098517,18.702159997895947,-0.0002266406954731,0.0933678373694419,0,0,0
1878,66157.55285776462,2010-11-02 08:46:13,660.3358537761567,7,6,-1.099568486213684,3.794776916503906,5.847843985039806,5.125189511832197,23.38025508098517,18.7369821190252,-0.0001618862152099,0.0933678373694419,0,0,0
1879,66187.56823456788,2010-11-02 08:46:43,690.3512305743952,7,6,-1.099568486213684,3.787653923034668,5.847843985039806,5.134357329387405,23.38025508098517,18.77173902138192,-0.0001942634553415,0.0933678373694419,0,0,0
1880,66217.58338267026,2010-11-02 08:47:13,720.3663786767739,7,6,-1.099568486213684,3.7808547019958496,5.847843985039806,5.143525210394429,23.38025508098517,18.806432372998536,-0.0001618862152099,0.0933678373694419,0,0,0
1881,66247.59864912808,2010-11-02 08:47:43,750.3816451345859,7,6,-1.0997490882873535,3.774379253387451,5.847843985039806,5.152693035131349,23.38025508098517,18.841064473054704,-0.0001295089750783,0.0933678373694419,0,0,0
1882,66277.6139399918,2010-11-02 08:48:13,780.3969359983187,7,6,-1.099929690361023,3.767580032348633,5.847843985039806,5.161860909618561,23.38025508098517,18.87563587249523,-0.0001942634553415,0.0933678373694419,0,0,0
1883,66307.6292089709,2010-11-02 08:48:43,810.4122049774245,7,6,-1.099568486213684,3.7611045837402335,5.847843985039806,5.171028832416509,23.38025508098517,18.910147969892563,-0.0002266406954731,0.0933678373694419,0,0,0
1884,66337.64456645092,2010-11-02 08:49:13,840.4275624624543,7,6,-1.0997490882873535,3.754952907562256,5.847843985039806,5.180196732832892,23.38025508098517,18.94460206260108,-0.0001942634553415,0.0933678373694419,0,0,0
1885,66367.65982512932,2010-11-02 08:49:43,870.4428211358354,7,6,-1.099568486213684,3.7489633560180655,5.847843985039806,5.189364625085535,23.38025508098517,18.9789996707078,-0.0001618862152099,0.0933678373694419,0,0,0
1886,66397.67498358755,2010-11-02 08:50:13,900.4579795940635,7,6,-1.099568486213684,3.742811679840088,5.847843985039806,5.198532484260735,23.38025508098517,19.013341034906382,-0.0001295089750783,0.0933678373694419,0,0,0
1887,66427.69022648655,2010-11-02 08:50:43,930.4732224980818,7,6,-1.0997490882873535,3.7368218898773193,5.847843985039806,5.207700697495971,23.38025508098517,19.04762768753346,-0.0001295089750783,0.0933678373694419,0,0,0
1888,66457.70549463859,2010-11-02 08:51:13,960.4884906451102,7,6,-1.0997490882873535,3.730832099914551,5.847843985039806,5.216869431469535,23.38025508098517,19.08186142552763,-0.0001295089750783,0.0933678373694419,0,0,0
1889,66487.72077891589,2010-11-02 08:51:43,990.5037749324274,7,6,-1.099929690361023,3.725166082382202,5.847843985039806,5.226038158885557,23.38025508098517,19.11604285394285,-0.0001942634553415,0.0933678373694419,0,0,0
1890,66517.73603373965,2010-11-02 08:52:13,1020.5190297461742,7,6,-1.099568486213684,3.719661951065064,5.847843985039806,5.235206871416704,23.38025508098517,19.150172709245584,-0.0001618862152099,0.0933678373694419,0,0,0
1891,66547.75128764614,2010-11-02 08:52:43,1050.534283652656,7,6,-1.0997490882873535,3.713995933532715,5.847843985039806,5.24437517232182,23.38025508098517,19.18424990940851,-0.0001618862152099,0.0933678373694419,0,0,0
1892,66577.76655603376,2010-11-02 08:53:13,1080.549552040285,7,6,-1.099568486213684,3.708329916000366,5.847843985039806,5.253543117976097,23.38025508098517,19.218275015515268,-0.0001942634553415,0.0933678373694419,0,0,0
1893,66607.78195167905,2010-11-02 08:53:43,1110.564947685569,7,6,-1.0993878841400146,3.7033114433288574,5.847843985039806,5.262711017188662,23.38025508098517,19.25224985934785,-0.0001295089750783,0.0933678373694419,0,0,0
1894,66637.7971185583,2010-11-02 08:54:13,1140.5801145748426,7,6,-1.099568486213684,3.697807312011719,5.847843985039806,5.271878915390139,23.38025508098517,19.286175145282808,-0.0001295089750783,0.0933678373694419,0,0,0
1895,66667.81234748242,2010-11-02 08:54:43,1170.5953434889398,7,6,-1.0997490882873535,3.69246506690979,5.847843985039806,5.281046889325871,23.38025508098517,19.320051847138604,-0.0001295089750783,0.0933678373694419,0,0,0
1896,66697.82766810042,2010-11-02 08:55:13,1200.6106641921567,7,6,-1.0993878841400146,3.6872847080230713,5.847843985039806,5.290214815590721,23.38025508098517,19.353880246967258,-0.0001295089750783,0.0933678373694419,0,0,0
1897,66727.84287910983,2010-11-02 08:55:43,1230.6258751464231,7,6,-1.0993878841400146,3.6822662353515625,5.847843985039806,5.299382681403634,23.38025508098517,19.387661065441986,-6.47544875391759e-05,0.0933678373694419,0,0,0
1898,66757.85828417362,2010-11-02 08:56:13,1260.641280180142,7,6,-1.099568486213684,3.677085876464844,5.847843985039806,5.308550620657016,23.38025508098517,19.42139509097744,-0.0001295089750783,0.0933678373694419,0,0,0
1899,66787.87340906807,2010-11-02 08:56:43,1290.6564050796026,7,6,-1.0993878841400146,3.671905755996704,5.847843985039806,5.317718453287271,23.38025508098517,19.455082189687896,-0.0001294612884521,0.0933678373694419,0,0,0
1900,66817.8886911148,2010-11-02 08:57:13,1320.6716871463768,7,6,-1.0993878841400146,3.6668872833251953,5.847843985039806,5.326886402226002,23.38025508098517,19.4887235182402,-0.0001618862152099,0.0933678373694419,0,0,0
1901,66847.90394624934,2010-11-02 08:57:43,1350.6869422558618,7,6,-1.099568486213684,3.662030696868897,5.847843985039806,5.336054340079069,23.38025508098517,19.52231948756834,-0.0001618862152099,0.0933678373694419,0,0,0
1902,66877.91921476228,2010-11-02 08:58:13,1380.7022107688038,7,6,-1.099568486213684,3.6571741104125977,5.847843985039806,5.345222368690439,23.38025508098517,19.555870910258516,-0.0001295089750783,0.0933678373694419,0,0,0
1903,66907.9344867489,2010-11-02 08:58:43,1410.7174827554163,7,6,-1.099568486213684,3.652479410171509,5.847843985039806,5.354390292214439,23.38025508098517,19.589377961314604,-9.713172767078504e-05,0.0933678373694419,0,0,0
1904,66937.94992491532,2010-11-02 08:59:13,1440.7329209218396,7,6,-1.0993878841400146,3.64794659614563,5.847843985039806,5.363558283648103,23.38025508098517,19.622841903613185,-9.713172767078504e-05,0.0933678373694419,0,0,0
1905,66967.96541521688,2010-11-02 08:59:43,1470.7484112534753,7,6,-1.099568486213684,3.642928123474121,5.847843985039806,5.372726177986538,23.38025508098517,19.656262256716584,-0.0001942634553415,0.0933678373694419,0,0,0
1906,66997.98028397698,2010-11-02 09:00:13,1500.763279978485,7,6,-1.099568486213684,3.638395309448242,5.847843985039806,5.381893929962097,23.38025508098517,19.689639996590763,-0.0001618862152099,0.0933678373694419,0,0,0
1907,67027.99566126644,2010-11-02 09:00:43,1530.7786572679497,7,6,-1.0997490882873535,3.634024381637573,5.847843985039806,5.391061901852229,23.38025508098517,19.72297754492609,-0.0001295089750783,0.0933678373694419,0,0,0
1908,67058.01079407064,2010-11-02 09:01:13,1560.7937900721415,7,6,-1.099568486213684,3.629815340042114,5.847843985039806,5.400229781051056,23.38025508098517,19.756274134440755,-9.713172767078504e-05,0.0933678373694419,0,0,0
1909,67088.02605419263,2010-11-02 09:01:43,1590.809050219201,7,6,-1.0997490882873535,3.625444412231445,5.847843985039806,5.409397653707884,23.38025508098517,19.789530690767585,-9.713172767078504e-05,0.0933678373694419,0,0,0
1910,67118.04134537716,2010-11-02 09:02:13,1620.8243413987225,7,6,-1.099568486213684,3.6212353706359854,5.847843985039806,5.418565580551314,23.38025508098517,19.82274819748145,-6.47544875391759e-05,0.0933678373694419,0,0,0
1911,67148.05659330873,2010-11-02 09:02:43,1650.8395893353024,7,6,-1.099568486213684,3.6170263290405273,5.847843985039806,5.42773356801321,23.38025508098517,19.855927181063304,-9.713172767078504e-05,0.0933678373694419,0,0,0
1912,67178.07186356603,2010-11-02 09:03:13,1680.854859567536,7,6,-1.0997490882873535,3.6126554012298575,5.847843985039806,5.436901613251472,23.38025508098517,19.889068290016915,-0.0001295089750783,0.0933678373694419,0,0,0
1913,67208.0875069447,2010-11-02 09:03:43,1710.8705029712628,7,6,-1.099568486213684,3.6087701320648193,5.847843985039806,5.446069696201289,23.38025508098517,19.92217276812384,-0.0001295089750783,0.0933678373694419,0,0,0
1914,67238.1025453683,2010-11-02 09:04:13,1740.885541369804,7,6,-1.099568486213684,3.60488486289978,5.847843985039806,5.455237631505055,23.38025508098517,19.95524064206793,-0.0001295089750783,0.0933678373694419,0,0,0
1915,67268.11767014244,2010-11-02 09:04:43,1770.900666148964,7,6,-1.099568486213684,3.601323366165161,5.847843985039806,5.464405464494798,23.38025508098517,19.98827332168843,-6.47544875391759e-05,0.0933678373694419,0,0,0
1916,67298.13312744163,2010-11-02 09:05:13,1800.9161235884958,7,6,-1.099568486213684,3.597438097000122,5.847843985039806,5.473573461816959,23.38025508098517,20.02127226272343,-0.0001295089750783,0.0933678373694419,0,0,0
1917,67328.14832583955,2010-11-02 09:05:43,1830.9313218360448,7,6,-1.099568486213684,3.593876600265503,5.847843985039806,5.482741114645303,23.38025508098517,20.05423609919801,-6.47544875391759e-05,0.0933678373694419,0,0,0
1918,67358.16343861877,2010-11-02 09:06:13,1860.9464346202635,7,6,-1.0997490882873535,3.590315341949463,5.847843985039806,5.491908660069828,23.38025508098517,20.087166867041685,-9.713172767078504e-05,0.0933678373694419,0,0,0
1919,67388.17873806892,2010-11-02 09:06:43,1890.9617340704297,7,6,-1.099568486213684,3.586753845214844,5.847843985039806,5.5010766129246,23.38025508098517,20.120067175236503,-0.0001618862152099,0.0933678373694419,0,0,0
1920,67418.19399987513,2010-11-02 09:07:13,1920.9769958766303,7,6,-1.099568486213684,3.5836780071258545,5.847843985039806,5.510244635142709,23.38025508098517,20.15293661652353,-3.237724376958795e-05,0.0933678373694419,0,0,0
1921,67448.20928586168,2010-11-02 09:07:43,1950.9922818581767,7,6,-1.0997490882873535,3.580116510391236,5.847843985039806,5.519412599053643,23.38025508098517,20.18577566147384,-0.0001295089750783,0.0933678373694419,0,0,0
1922,67478.22466752205,2010-11-02 09:08:13,1981.0076635436144,7,6,-1.0993878841400146,3.577202558517456,5.847843985039806,5.528580676388064,23.38025508098517,20.218585383185555,-6.47544875391759e-05,0.0933678373694419,0,0,0
1923,67508.23980327863,2010-11-02 09:08:43,2011.0227992851387,7,6,-1.0997490882873535,3.573802947998047,5.847843985039806,5.537748619965054,23.38025508098517,20.251365576033656,-9.713172767078504e-05,0.0933678373694419,0,0,0
1924,67538.25513247805,2010-11-02 09:09:13,2041.0381284795508,7,6,-1.0997490882873535,3.5707271099090576,5.847843985039806,5.546916694334512,23.38025508098517,20.284117301282148,-9.713172767078504e-05,0.0933678373694419,0,0,0
1925,67568.27043909612,2010-11-02 09:09:43,2071.053435097609,7,6,-1.099568486213684,3.5678131580352783,5.847843985039806,5.556084709818845,23.38025508098517,20.316840196641124,-6.47544875391759e-05,0.0933678373694419,0,0,0
1926,67598.28561657682,2010-11-02 09:10:13,2101.068612603383,7,6,-1.099568486213684,3.564737319946289,5.847843985039806,5.565252715862647,23.38025508098517,20.349534779151444,-6.47544875391759e-05,0.0933678373694419,0,0,0
1927,67628.30101058302,2010-11-02 09:10:43,2131.0840065895254,7,6,-1.099568486213684,3.5616614818573,5.847843985039806,5.574420755204565,23.38025508098517,20.38220169504588,-6.47544875391759e-05,0.0933678373694419,0,0,0
1928,67658.31613433461,2010-11-02 09:11:13,2161.0991303411206,7,6,-1.099568486213684,3.5585856437683105,5.847843985039806,5.583588706781192,23.38025508098517,20.414840661325744,-9.713172767078504e-05,0.0933678373694419,0,0,0
1929,67688.33151922806,2010-11-02 09:11:43,2191.114515229554,7,6,-1.099568486213684,3.5553479194641118,5.847843985039806,5.592756735113753,23.38025508098517,20.44745147460366,-9.713172767078504e-05,0.0933678373694419,0,0,0
1930,67718.34680165573,2010-11-02 09:12:13,2221.129797657229,7,6,-1.099568486213684,3.552433967590332,5.847843985039806,5.601924775294942,23.38025508098517,20.48003402843189,-6.47544875391759e-05,0.0933678373694419,0,0,0
1931,67748.36207310601,2010-11-02 09:12:43,2251.145069112516,7,6,-1.099568486213684,3.5493581295013428,5.847843985039806,5.611092816503321,23.38025508098517,20.512588360196144,-9.713172767078504e-05,0.0933678373694419,0,0,0
1932,67778.37719415083,2010-11-02 09:13:13,2281.1601901824165,7,6,-1.0993878841400146,3.546282291412353,5.847843985039806,5.620260799802677,23.38025508098517,20.54511391308554,-9.713172767078504e-05,0.0933678373694419,0,0,0
1933,67808.39258628736,2010-11-02 09:13:44,2311.17558229388,7,6,-1.099568486213684,3.5428826808929443,5.847843985039806,5.62942890561444,23.38025508098517,20.577610806412853,-6.47544875391759e-05,0.0933678373694419,0,0,0
1934,67838.40777959758,2010-11-02 09:14:14,2341.190775599092,7,6,-1.099568486213684,3.539806842803955,5.847843985039806,5.638596933411701,23.38025508098517,20.610078579369183,-0.0001295089750783,0.0933678373694419,0,0,0
1935,67868.42299578994,2010-11-02 09:14:44,2371.205991791433,7,6,-1.099568486213684,3.536892890930176,5.847843985039806,5.647764944262499,23.38025508098517,20.642517915098225,-3.237724376958795e-05,0.0933678373694419,0,0,0
1936,67898.44066132621,2010-11-02 09:15:14,2401.2236574129265,7,6,-1.0997490882873535,3.5334932804107666,5.847843985039806,5.656933749905012,23.38025508098517,20.67493135815136,-9.713172767078504e-05,0.0933678373694419,0,0,0
1937,67928.45354650999,2010-11-02 09:15:44,2431.2365425115,7,6,-1.099568486213684,3.5302555561065674,5.847843985039806,5.666101033340467,23.38025508098517,20.70730964781648,-6.47544875391759e-05,0.0933678373694419,0,0,0
1938,67958.46882478229,2010-11-02 09:16:14,2461.251820788815,7,6,-1.0993878841400146,3.527017831802368,5.847843985039806,5.67526911180646,23.38025508098517,20.73966033081131,-6.47544875391759e-05,0.0933678373694419,0,0,0
1939,67988.48418302421,2010-11-02 09:16:44,2491.2671790307345,7,6,-1.099568486213684,3.523618221282959,5.847843985039806,5.684437145253998,23.38025508098517,20.771980081390044,-9.713172767078504e-05,0.0933678373694419,0,0,0
1940,68018.49931621939,2010-11-02 09:17:14,2521.2823122208897,7,6,-1.099568486213684,3.52021861076355,5.847843985039806,5.693605154722969,23.38025508098517,20.804267896774533,-6.47544875391759e-05,0.0933678373694419,0,0,0
1941,68048.51470843109,2010-11-02 09:17:44,2551.297704432603,7,6,-1.0993878841400146,3.5164952278137207,5.847843985039806,5.702773254466766,23.38025508098517,20.836523084769457,-6.47544875391759e-05,0.0933678373694419,0,0,0
1942,68078.52991945554,2010-11-02 09:18:14,2581.3129154520325,7,6,-1.0997490882873535,3.5126099586486816,5.847843985039806,5.711941282621872,23.38025508098517,20.86874396730898,-9.713172767078504e-05,0.0933678373694419,0,0,0
1943,68108.5451219938,2010-11-02 09:18:44,2611.328117995304,7,6,-1.0997490882873535,3.5087249279022217,5.847843985039806,5.721109255715529,23.38025508098517,20.900929790742836,-9.713172767078504e-05,0.0933678373694419,0,0,0
1944,68138.56038694285,2010-11-02 09:19:14,2641.343382969412,7,6,-1.0997490882873535,3.5045158863067627,5.847843985039806,5.730277316060812,23.38025508098517,20.93307946728969,-0.0001295089750783,0.0933678373694419,0,0,0
1945,68168.5757142325,2010-11-02 09:19:44,2671.3587102289944,7,6,-1.099568486213684,3.5001449584960938,5.847843985039806,5.739445362937655,23.38025508098517,20.96518997601791,-0.0001295089750783,0.0933678373694419,0,0,0
1946,68198.59097060513,2010-11-02 09:20:14,2701.37396669687,7,6,-1.0997490882873535,3.495450258255005,5.847843985039806,5.748613471438144,23.38025508098517,20.99725855013392,-9.713172767078504e-05,0.0933678373694419,0,0,0
1947,68228.60619869217,2010-11-02 09:20:44,2731.38919469869,7,6,-1.099568486213684,3.490269899368286,5.847843985039806,5.757781544091672,23.38025508098517,21.02928154126058,-0.0001295089750783,0.0933678373694419,0,0,0
1948,68258.62144786684,2010-11-02 09:21:14,2761.4044438883984,7,6,-1.099568486213684,3.4844419956207275,5.847843985039806,5.766949584307788,23.38025508098517,21.061254954208625,-0.0001942634553415,0.0933678373694419,0,0,0
1949,68288.63671654019,2010-11-02 09:21:44,2791.4197125717656,7,6,-1.0997490882873535,3.478128433227539,5.847843985039806,5.776117557281688,23.38025508098517,21.093173717867675,-0.0002590179501567,0.0933678373694419,0,0,0
1950,68318.65199236137,2010-11-02 09:22:14,2821.43498839295,7,6,-1.099568486213684,3.4713292121887207,5.847843985039806,5.785285546418238,23.38025508098517,21.125030995593672,-0.0001618862152099,0.0933678373694419,0,0,0
1951,68348.66724888438,2010-11-02 09:22:44,2851.4502448858884,7,6,-1.0997490882873535,3.4630730152130127,5.847843985039806,5.794453516648744,23.38025508098517,21.15681862114,-0.0002266406954731,0.0933678373694419,0,0,0
1952,68378.6825432268,2010-11-02 09:23:14,2881.4655392283044,7,6,-1.0997490882873535,3.453845500946045,5.847843985039806,5.803621638030922,23.38025508098517,21.18852700238231,-0.0002590179501567,0.0933678373694419,0,0,0
1953,68408.69778784008,2010-11-02 09:23:44,2911.480783836577,7,6,-1.099568486213684,3.4426753520965576,5.847843985039806,5.81278967302534,23.38025508098517,21.220142004652388,-0.0003237724304199,0.0933678373694419,0,0,0
1954,68438.71306701463,2010-11-02 09:24:14,2941.496063041207,7,6,-1.099568486213684,3.42923903465271,5.847843985039806,5.821957737798291,23.38025508098517,21.25164530859828,-0.0003885269106831,0.0933678373694419,0,0,0
1955,68468.72832478076,2010-11-02 09:24:44,2971.511320782261,7,6,-1.099568486213684,3.412888526916504,5.847843985039806,5.831125783119101,23.38025508098517,21.28301330719661,-0.0005180359003134,0.0933678373694419,0,0,0
1956,68498.7435867273,2010-11-02 09:25:14,3001.526582728812,7,6,-1.099568486213684,3.3928146362304688,5.847843985039806,5.840293853600761,23.38025508098517,21.31421417765329,-0.0005827903514727,0.0933678373694419,0,0,0
1957,68528.758850333,2010-11-02 09:25:44,3031.541846359567,7,6,-1.099568486213684,3.366750955581665,5.847843985039806,5.849461915771006,23.38025508098517,21.34520408683031,-0.0007770538213662,0.0933678373694419,0,0,0
1958,68558.77413812406,2010-11-02 09:26:14,3061.55713413058,7,6,-1.0997490882873535,3.3327550888061523,5.847843985039806,5.858629968865253,23.38025508098517,21.375921469829983,-0.0010036944877356,0.0933678373694419,0,0,0
1959,68588.78943501785,2010-11-02 09:26:44,3091.5724310444148,7,6,-1.099568486213684,3.287103176116944,5.847843985039806,5.867797956911692,23.38025508098517,21.40627658409357,-0.0013598442310467,0.0933678373694419,0,0,0
1960,68618.80467743064,2010-11-02 09:27:14,3121.587673437157,7,6,-1.099568486213684,3.223805904388428,5.847843985039806,5.876965931487634,23.38025508098517,21.436138018610578,-0.0019102573860436,0.0933678373694419,0,0,0
1961,68648.81991629457,2010-11-02 09:27:44,3151.602912291065,7,6,-1.099568486213684,3.131531000137329,5.847843985039806,5.886133948044225,23.38025508098517,21.46529962162024,-0.0029139518737792,0.0933678373694419,0,0,0
1962,68678.83533690216,2010-11-02 09:28:14,3181.618332908683,7,6,-1.099568486213684,2.978710889816284,5.847843985039806,5.895302109343228,23.38025508098517,21.49338512229874,-0.0054717538878321,0.0933678373694419,0,0,0
1963,68699.41319716722,2010-11-02 09:28:35,3202.1961931737296,7,6,-1.0997490882873535,2.7786202430725098,5.847843985039806,5.90158757443814,23.38025508098517,21.511534690465083,-0.0094217304140329,0.0933678373694419,0,0,0
1964,68705.63186800132,2010-11-02 09:28:41,3208.414864002838,7,6,-1.099568486213684,2.699943780899048,5.847843985039806,5.903487026725404,23.38025508098517,21.516738926867664,-0.0102959154173731,0.0933678373694419,0,0,0
1965,68765.64672174207,2010-11-02 09:29:41,60.01493987299066,8,6,0.0,3.352181196212769,5.847843985039806,5.903487026725404,23.38025508098517,21.516738926867664,0.001230287598446,0.0933678373694419,0,0,0
1966,68765.83488818092,2010-11-02 09:29:41,0.187447537892663,9,6,-1.9243103452026844e-05,3.3523430824279785,5.847843985039806,5.903487027727369,23.38025508098517,21.51673893022659,0.0,0.0939245000481605,0,0,0
1967,68770.66305975498,2010-11-02 09:29:46,5.015619126974641,9,6,0.0007031940040178,3.3601136207580566,5.847844860686039,5.903487027894818,23.3802580204817,21.51673893078845,0.0011332035064697,0.0939245000481605,0,0,0
