Data_Point,Test_Time(s),Date_Time,Step_Time(s),Step_Index,Cycle_Index,Current(A),Voltage(V),Charge_Capacity(Ah),Discharge_Capacity(Ah),Charge_Energy(Wh),Discharge_Energy(Wh),dV/dt(V/s),Internal_Resistance(Ohm),Is_FC_Data,AC_Impedance(Ohm),ACI_Phase_Angle(Deg)
15843,551415.1969885414,2010-11-07 23:34:40,30.01575724288705,1,49,0.0,3.3240132331848145,47.129376703682695,47.19705879502348,188.161633656906,172.20371133085803,0.0007122993702068,0.0931148082017898,0,0,0
15844,551445.2121214358,2010-11-07 23:35:10,60.03089012727925,1,49,0.0,3.347001075744629,47.129376703682695,47.19705879502348,188.161633656906,172.20371133085803,0.0005180359003134,0.0931148082017898,0,0,0
15845,551475.2273871567,2010-11-07 23:35:40,90.04615584825197,1,49,0.0,3.364322662353516,47.129376703682695,47.19705879502348,188.161633656906,172.20371133085803,0.0003885269106831,0.0931148082017898,0,0,0
15846,551505.1960882201,2010-11-07 23:36:10,120.01485691167568,1,49,0.0,3.3782448768615723,47.129376703682695,47.19705879502348,188.161633656906,172.20371133085803,0.0003237724304199,0.0931148082017898,0,0,0
15847,551535.2247823896,2010-11-07 23:36:40,30.01549254716581,2,49,0.550297200679779,3.5415875911712646,47.13396374714795,47.19705879502348,188.1776963315959,172.20371133085803,0.0017807483673095,0.0931148082017898,0,0,0
15848,551565.2400324715,2010-11-07 23:37:10,60.03074262408859,2,49,0.5501165986061096,3.5963048934936523,47.138550826297326,47.19705879502348,188.19407469529776,172.20371133085803,0.0012626647949218,0.0931148082017898,0,0,0
15849,551595.255420994,2010-11-07 23:37:40,90.04613115661786,2,49,0.5501165986061096,3.636776447296143,47.14313781602323,47.19705879502348,188.21066798175264,172.20371133085803,0.0009713172912597,0.0931148082017898,0,0,0
15850,551625.2708664036,2010-11-07 23:38:11,120.06157656612082,2,49,0.550297200679779,3.6693155765533447,47.14772483507638,47.19705879502348,188.2274269710511,172.20371133085803,0.0008418083307333,0.0931148082017898,0,0,0
15851,551655.2861968561,2010-11-07 23:38:41,150.07690702368603,2,49,0.5501165986061096,3.695702791213989,47.15231180897637,47.19705879502348,188.2443197492088,172.20371133085803,0.0006799221155233,0.0931148082017898,0,0,0
15852,551685.3015547271,2010-11-07 23:39:11,180.09226488465438,2,49,0.5499359965324402,3.718043088912964,47.1568987943437,47.19705879502348,188.26132433653555,172.20371133085803,0.0005504131549969,0.0931148082017898,0,0,0
15853,551715.3169331494,2010-11-07 23:39:41,210.10764330694693,2,49,0.550297200679779,3.7368218898773193,47.16148579489895,47.19705879502348,188.2784231326443,172.20371133085803,0.0004856586456298,0.0931148082017898,0,0,0
15854,551745.3323284939,2010-11-07 23:40:11,240.12303865649253,2,49,0.5501165986061096,3.7518773078918457,47.16607277582149,47.19705879502348,188.29559991773203,172.20371133085803,0.0003885269106831,0.0931148082017898,0,0,0
15855,551775.3478231714,2010-11-07 23:40:41,270.13853333397594,2,49,0.550297200679779,3.762075901031494,47.17065974677452,47.19705879502348,188.31283494110565,172.20371133085803,0.0002590179501567,0.0931148082017898,0,0,0
15856,551805.3630822909,2010-11-07 23:41:11,300.15379244845786,2,49,0.5499359965324402,3.768065690994263,47.17524668623336,47.19705879502348,188.3301060111737,172.20371133085803,0.0001295089750783,0.0931148082017898,0,0,0
15857,551835.3784682469,2010-11-07 23:41:41,330.169178404556,2,49,0.550297200679779,3.7722747325897217,47.17983369957811,47.19705879502348,188.34740006239485,172.20371133085803,9.713172767078504e-05,0.0931148082017898,0,0,0
15858,551865.3940084932,2010-11-07 23:42:11,360.1847186557985,2,49,0.550297200679779,3.775998115539551,47.18442068831623,47.19705879502348,188.36471206116812,172.20371133085803,9.713172767078504e-05,0.0931148082017898,0,0,0
15859,551895.4092228961,2010-11-07 23:42:41,390.19993305366086,2,49,0.550297200679779,3.77955961227417,47.1890076480928,47.19705879502348,188.3820406369479,172.20371133085803,6.47544875391759e-05,0.0931148082017898,0,0,0
15860,551925.4246101152,2010-11-07 23:43:11,420.21532027792455,2,49,0.5501165986061096,3.782797336578369,47.19359465036793,47.19705879502348,188.39938525841563,172.20371133085803,3.237724376958795e-05,0.0931148082017898,0,0,0
15861,551955.4399990338,2010-11-07 23:43:41,450.2307091914048,2,49,0.550297200679779,3.7861969470977774,47.1981816310764,47.19705879502348,188.4167450994775,172.20371133085803,9.713172767078504e-05,0.0931148082017898,0,0,0
15862,551985.4553983331,2010-11-07 23:44:11,480.2461084908098,2,49,0.550297200679779,3.7894346714019775,47.202768609534125,47.19705879502348,188.43411975013672,172.20371133085803,9.713172767078504e-05,0.0931148082017898,0,0,0
15863,552015.4707572167,2010-11-07 23:44:41,510.26146737433055,2,49,0.550297200679779,3.792510509490967,47.20735557194244,47.19705879502348,188.45150872804112,172.20371133085803,9.713172767078504e-05,0.0931148082017898,0,0,0
15864,552045.4861435489,2010-11-07 23:45:11,540.2768537013546,2,49,0.5501165986061096,3.795586347579956,47.21194246391581,47.19705879502348,188.4689115258158,172.20371133085803,9.713172767078504e-05,0.0931148082017898,0,0,0
15865,552075.5015339159,2010-11-07 23:45:41,570.2922440734757,2,49,0.5501165986061096,3.798662185668945,47.21652946948237,47.19705879502348,188.4863286096819,172.20371133085803,9.713172767078504e-05,0.0931148082017898,0,0,0
15866,552105.5169125888,2010-11-07 23:46:11,600.3076227463939,2,49,0.550297200679779,3.801414251327514,47.22111648298471,47.19705879502348,188.5037593347486,172.20371133085803,6.47544875391759e-05,0.0931148082017898,0,0,0
15867,552135.5322779835,2010-11-07 23:46:41,630.3229881461803,2,49,0.5501165986061096,3.804328203201294,47.2257034989389,47.19705879502348,188.5212034509101,172.20371133085803,6.47544875391759e-05,0.0931148082017898,0,0,0
15868,552165.5476702654,2010-11-07 23:47:11,660.3383804230559,2,49,0.5501165986061096,3.807242155075073,47.23029048419119,47.19705879502348,188.5386608915925,172.20371133085803,6.47544875391759e-05,0.0931148082017898,0,0,0
15869,552195.563048001,2010-11-07 23:47:41,690.3537581586344,2,49,0.5501165986061096,3.8103179931640634,47.23487750035381,47.19705879502348,188.5561319969903,172.20371133085803,0.0001295089750783,0.0931148082017898,0,0,0
15870,552225.578638638,2010-11-07 23:48:11,720.3693488307352,2,49,0.5499359965324402,3.813393831253052,47.239464562572216,47.19705879502348,188.573617053936,172.20371133085803,9.713172767078504e-05,0.0931148082017898,0,0,0
15871,552255.5938139283,2010-11-07 23:48:41,750.3845240858914,2,49,0.5501165986061096,3.816469669342041,47.24405148346096,47.19705879502348,188.5911159163287,172.20371133085803,6.47544875391759e-05,0.0931148082017898,0,0,0
15872,552285.6092087416,2010-11-07 23:49:11,780.3999188990982,2,49,0.5499359965324402,3.81970739364624,47.24863847749511,47.19705879502348,188.60862952766013,172.20371133085803,9.713172767078504e-05,0.0931148082017898,0,0,0
15873,552315.6245737654,2010-11-07 23:49:41,810.4152839329712,2,49,0.5501165986061096,3.82294511795044,47.25322550102315,47.19705879502348,188.6261581571879,172.20371133085803,6.47544875391759e-05,0.0931148082017898,0,0,0
15874,552345.6399658868,2010-11-07 23:50:11,840.4306760444339,2,49,0.5499359965324402,3.826182842254639,47.25781239191171,47.19705879502348,188.64370155959733,172.20371133085803,6.47544875391759e-05,0.0931148082017898,0,0,0
15875,552375.6553324296,2010-11-07 23:50:41,870.4460425870731,2,49,0.5501165986061096,3.829906225204468,47.26239932954576,47.19705879502348,188.66126081337836,172.20371133085803,9.713172767078504e-05,0.0931148082017898,0,0,0
15876,552405.6707164608,2010-11-07 23:51:11,900.4614266183668,2,49,0.550297200679779,3.833143949508667,47.266986315155535,47.19705879502348,188.67883596614607,172.20371133085803,6.47544875391759e-05,0.0931148082017898,0,0,0
15877,552435.6861063568,2010-11-07 23:51:41,930.4768165142992,2,49,0.5501165986061096,3.836705207824707,47.2715732452091,47.19705879502348,188.6964266520085,172.20371133085803,9.713172767078504e-05,0.0931148082017898,0,0,0
15878,552465.701482764,2010-11-07 23:52:11,960.492192921562,2,49,0.5501165986061096,3.840104818344116,47.27616018900007,47.19705879502348,188.71403302272083,172.20371133085803,9.713172767078504e-05,0.0931148082017898,0,0,0
15879,552495.7170021982,2010-11-07 23:52:41,990.5077123558424,2,49,0.5504778623580933,3.843504428863525,47.2807471535582,47.19705879502348,188.73165489049225,172.20371133085803,0.0001295089750783,0.0931148082017898,0,0,0
15880,552525.732367152,2010-11-07 23:53:11,1020.5230773095147,2,49,0.550297200679779,3.846580266952514,47.28533407902797,47.19705879502348,188.7492918268221,172.20371133085803,3.237724376958795e-05,0.0931148082017898,0,0,0
15881,552555.7476198504,2010-11-07 23:53:41,1050.5383300079816,2,49,0.550297200679779,3.850141763687134,47.28992102393413,47.19705879502348,188.7669437960997,172.20371133085803,0.0001618862152099,0.0931148082017898,0,0,0
15882,552585.7630523827,2010-11-07 23:54:11,1080.553762540341,2,49,0.5501165986061096,3.852893829345703,47.29450805155394,47.19705879502348,188.78461074743976,172.20371133085803,6.47544875391759e-05,0.0931148082017898,0,0,0
15883,552615.7784084893,2010-11-07 23:54:41,1110.5691186519427,2,49,0.5501165986061096,3.8561315536499023,47.299095003785645,47.19705879502348,188.8022916196622,172.20371133085803,6.47544875391759e-05,0.0931148082017898,0,0,0
15884,552645.7937668015,2010-11-07 23:55:11,1140.5844769590246,2,49,0.5501165986061096,3.8590455055236816,47.30368198056157,47.19705879502348,188.8199864411933,172.20371133085803,6.47544875391759e-05,0.0931148082017898,0,0,0
15885,552675.8117770883,2010-11-07 23:55:41,1170.6024873360811,2,49,0.5501165986061096,3.861959457397461,47.30826930627448,47.19705879502348,188.83769593159732,172.20371133085803,9.713172767078504e-05,0.0931148082017898,0,0,0
15886,552705.8247911187,2010-11-07 23:56:11,1200.6155012913002,2,49,0.5501165986061096,3.86487340927124,47.31285594846321,47.19705879502348,188.85541560963185,172.20371133085803,0.0001295089750783,0.0931148082017898,0,0,0
15887,552735.8400624938,2010-11-07 23:56:41,1230.6307726563616,2,49,0.5501165986061096,3.8673017024993896,47.31744287857276,47.19705879502348,188.87314862392057,172.20371133085803,9.713172767078504e-05,0.0931148082017898,0,0,0
15888,552765.8553028514,2010-11-07 23:57:11,1260.6460130090113,2,49,0.5501165986061096,3.869729995727539,47.322029829965565,47.19705879502348,188.89089339388795,172.20371133085803,9.713172767078504e-05,0.0931148082017898,0,0,0
15889,552795.8706978301,2010-11-07 23:57:41,1290.6614080126933,2,49,0.5501165986061096,3.872158288955689,47.326616758661615,47.19705879502348,188.9086491462517,172.20371133085803,6.47544875391759e-05,0.0931148082017898,0,0,0
15890,552825.8862053746,2010-11-07 23:58:11,1320.6769155322324,2,49,0.5501165986061096,3.874262809753418,47.331203797256016,47.19705879502348,188.92641579949063,172.20371133085803,3.237724376958795e-05,0.0931148082017898,0,0,0
15891,552855.9016052604,2010-11-07 23:58:41,1350.692315418101,2,49,0.5501165986061096,3.876367330551148,47.33579084457551,47.19705879502348,188.94419223095653,172.20371133085803,3.237724376958795e-05,0.0931148082017898,0,0,0
15892,552885.9168199592,2010-11-07 23:59:11,1380.7075301167142,2,49,0.550297200679779,3.878471851348877,47.340377743954726,47.19705879502348,188.9619773087684,172.20371133085803,6.47544875391759e-05,0.0931148082017898,0,0,0
15893,552915.9322316194,2010-11-07 23:59:41,1410.722941776974,2,49,0.5501165986061096,3.8802525997161865,47.3449647736173,47.19705879502348,188.97977148802727,172.20371133085803,6.47544875391759e-05,0.0931148082017898,0,0,0
15894,552945.9475892999,2010-11-08 00:00:11,1440.738299457492,2,49,0.5501165986061096,3.881871461868286,47.34955179019423,47.19705879502348,188.99757373181785,172.20371133085803,6.47544875391759e-05,0.0931148082017898,0,0,0
15895,552975.9629991706,2010-11-08 00:00:41,1470.753709328285,2,49,0.550297200679779,3.8834903240203857,47.3541387843672,47.19705879502348,189.0153834629687,172.20371133085803,3.237724376958795e-05,0.0931148082017898,0,0,0
15896,553005.9783598086,2010-11-08 00:01:11,1500.7690699661848,2,49,0.5501165986061096,3.8849472999572754,47.358725825507335,47.19705879502348,189.03320057053543,172.20371133085803,0.0,0.0931148082017898,0,0,0
15897,553035.9937235393,2010-11-08 00:01:41,1530.7844337018173,2,49,0.550297200679779,3.886566162109375,47.363312839052,47.19705879502348,189.05102446242591,172.20371133085803,6.47544875391759e-05,0.0931148082017898,0,0,0
15898,553066.0091162522,2010-11-08 00:02:11,1560.799826409769,2,49,0.5501165986061096,3.887861251831055,47.36789981463824,47.19705879502348,189.06885483300275,172.20371133085803,6.47544875391759e-05,0.0931148082017898,0,0,0
15899,553096.0244835517,2010-11-08 00:02:41,1590.815193709297,2,49,0.5501165986061096,3.8891563415527344,47.372486798684015,47.19705879502348,189.0866916914568,172.20371133085803,0.0,0.0931148082017898,0,0,0
15900,553126.039884826,2010-11-08 00:03:11,1620.8305949786195,2,49,0.550297200679779,3.890613317489624,47.377073838663776,47.19705879502348,189.10453500461145,172.20371133085803,3.237724376958795e-05,0.0931148082017898,0,0,0
15901,553156.0552491231,2010-11-08 00:03:41,1650.8459592756533,2,49,0.550297200679779,3.8920702934265137,47.38166081754426,47.19705879502348,189.1223842252487,172.20371133085803,6.47544875391759e-05,0.0931148082017898,0,0,0
15902,553186.0708484869,2010-11-08 00:04:11,1680.861558649475,2,49,0.5501165986061096,3.893203496932984,47.386247862400026,47.19705879502348,189.1402397945301,172.20371133085803,3.237724376958795e-05,0.0931148082017898,0,0,0
15903,553216.0861473054,2010-11-08 00:04:41,1710.876857463052,2,49,0.550297200679779,3.894498586654663,47.39083488080677,47.19705879502348,189.1581013329872,172.20371133085803,3.237724376958795e-05,0.0931148082017898,0,0,0
15904,553246.10139246,2010-11-08 00:05:11,1740.8921026126754,2,49,0.5497553944587708,3.895631790161133,47.39542190653062,47.19705879502348,189.17596843481516,172.20371133085803,0.0,0.0931148082017898,0,0,0
15905,553276.1167680053,2010-11-08 00:05:41,1770.9074781627985,2,49,0.550297200679779,3.897250652313232,47.40000888514339,47.19705879502348,189.19384148285585,172.20371133085803,9.713172767078504e-05,0.0931148082017898,0,0,0
15906,553306.1321658259,2010-11-08 00:06:11,1800.9228759835128,2,49,0.5504778623580933,3.898545742034912,47.40459592268752,47.19705879502348,189.21172076324223,172.20371133085803,6.47544875391759e-05,0.0931148082017898,0,0,0
15907,553336.1475562883,2010-11-08 00:06:41,1830.9382664458592,2,49,0.550297200679779,3.899840831756592,47.40918288736738,47.19705879502348,189.2296058000236,172.20371133085803,6.47544875391759e-05,0.0931148082017898,0,0,0
15908,553366.1629140138,2010-11-08 00:07:11,1860.9536241714893,2,49,0.550297200679779,3.901135921478272,47.41376990533993,47.19705879502348,189.2474970249544,172.20371133085803,3.237724376958795e-05,0.0931148082017898,0,0,0
15909,553396.1783186015,2010-11-08 00:07:41,1890.969028759095,2,49,0.5501165986061096,3.902431011199951,47.41835688315246,47.19705879502348,189.26539420352356,172.20371133085803,3.237724376958795e-05,0.0931148082017898,0,0,0
15910,553426.1936963822,2010-11-08 00:08:11,1920.9844065397856,2,49,0.5501165986061096,3.903564214706421,47.42294391058062,47.19705879502348,189.28329763341765,172.20371133085803,0.0,0.0931148082017898,0,0,0
15911,553456.2091869946,2010-11-08 00:08:41,1950.999897152122,2,49,0.5501165986061096,3.905021190643311,47.427530931268016,47.19705879502348,189.30120717694743,172.20371133085803,0.0,0.0931148082017898,0,0,0
15912,553486.2244436329,2010-11-08 00:09:11,1981.015153790423,2,49,0.5501165986061096,3.9063162803649902,47.43211783486374,47.19705879502348,189.3191222578577,172.20371133085803,0.0,0.0931148082017898,0,0,0
15913,553516.2398179098,2010-11-08 00:09:41,2011.030528062356,2,49,0.5501165986061096,3.90777325630188,47.43670454594929,47.19705879502348,189.33704284613208,172.20371133085803,6.47544875391759e-05,0.0931148082017898,0,0,0
15914,553546.2552906675,2010-11-08 00:10:12,2041.046000935412,2,49,0.5499359965324402,3.90906834602356,47.44129069833784,47.19705879502348,189.35496737202,172.20371133085803,6.47544875391759e-05,0.0931148082017898,0,0,0
15915,553576.2706160526,2010-11-08 00:10:42,2071.061326225077,2,49,0.5501165986061096,3.910525321960449,47.44587707028317,47.19705879502348,189.37289919120025,172.20371133085803,3.237724376958795e-05,0.0931148082017898,0,0,0
15916,553606.286138359,2010-11-08 00:11:12,2101.0768485215017,2,49,0.5501165986061096,3.911820411682129,47.4504640820782,47.19705879502348,189.3908399764059,172.20371133085803,0.0,0.0931148082017898,0,0,0
15917,553636.3014931623,2010-11-08 00:11:42,2131.0922033298502,2,49,0.5501165986061096,3.913439273834229,47.45505105793349,47.19705879502348,189.4087870397046,172.20371133085803,6.47544875391759e-05,0.0931148082017898,0,0,0
15918,553666.3167545273,2010-11-08 00:12:12,2161.1074646899374,2,49,0.5501165986061096,3.914734125137329,47.45963803827509,47.19705879502348,189.4267405982321,172.20371133085803,3.237724376958795e-05,0.0931148082017898,0,0,0
15919,553696.3321243532,2010-11-08 00:12:42,2191.1228345157724,2,49,0.5501165986061096,3.916029214859009,47.46422506094597,47.19705879502348,189.4447007012263,172.20371133085803,3.237724376958795e-05,0.0931148082017898,0,0,0
15920,553726.3476358928,2010-11-08 00:13:12,2221.138346055346,2,49,0.550297200679779,3.917648077011109,47.46881207042125,47.19705879502348,189.46266731257276,172.20371133085803,6.47544875391759e-05,0.0931148082017898,0,0,0
15921,553756.3629554381,2010-11-08 00:13:42,2251.153665625736,2,49,0.5501165986061096,3.918943166732788,47.47339905622135,47.19705879502348,189.4806404009007,172.20371133085803,0.0,0.0931148082017898,0,0,0
15922,553786.3782893291,2010-11-08 00:14:12,2281.1689994918083,2,49,0.550297200679779,3.920562028884888,47.477985976642415,47.19705879502348,189.49861989714788,172.20371133085803,6.47544875391759e-05,0.0931148082017898,0,0,0
15923,553816.3936636412,2010-11-08 00:14:42,2311.184373803841,2,49,0.5501165986061096,3.921857118606568,47.48257297209425,47.19705879502348,189.51660629969737,172.20371133085803,3.237724376958795e-05,0.0931148082017898,0,0,0
15924,553846.4090396224,2010-11-08 00:15:12,2341.1997497850407,2,49,0.5501165986061096,3.923475980758667,47.487159861651136,47.19705879502348,189.5345990275314,172.20371133085803,6.47544875391759e-05,0.0931148082017898,0,0,0
15925,553876.4244247666,2010-11-08 00:15:42,2371.215134929112,2,49,0.5501165986061096,3.9247710704803462,47.49174676147821,47.19705879502348,189.55259859170872,172.20371133085803,0.0,0.0931148082017898,0,0,0
15926,553906.4398202865,2010-11-08 00:16:12,2401.230530449083,2,49,0.550297200679779,3.9263899326324463,47.496333671171534,47.19705879502348,189.57060496055115,172.20371133085803,6.47544875391759e-05,0.0931148082017898,0,0,0
15927,553936.4553034052,2010-11-08 00:16:42,2431.246013572726,2,49,0.5501165986061096,3.927846908569336,47.50092057808521,47.19705879502348,189.58861819116493,172.20371133085803,3.237724376958795e-05,0.0931148082017898,0,0,0
15928,553966.4705770408,2010-11-08 00:17:12,2461.2612872034424,2,49,0.5499359965324402,3.9293038845062256,47.50550750929741,47.19705879502348,189.60663846248232,172.20371133085803,0.0,0.0931148082017898,0,0,0
15929,553996.4859360096,2010-11-08 00:17:42,2491.2766461771885,2,49,0.5501165986061096,3.930922746658325,47.51009444459587,47.19705879502348,189.6246657953557,172.20371133085803,3.237724376958795e-05,0.0931148082017898,0,0,0
15930,554026.5015526465,2010-11-08 00:18:12,2521.2922628441765,2,49,0.5501165986061096,3.932379722595215,47.51468148002685,47.19705879502348,189.64270052340467,172.20371133085803,3.237724376958795e-05,0.0931148082017898,0,0,0
15931,554056.5166832001,2010-11-08 00:18:42,2551.307393362663,2,49,0.550297200679779,3.934160470962525,47.51926845023962,47.19705879502348,189.6607421260386,172.20371133085803,9.713172767078504e-05,0.0931148082017898,0,0,0
15932,554086.5320699682,2010-11-08 00:19:12,2581.322780120763,2,49,0.5501165986061096,3.935455560684204,47.52385548556612,47.19705879502348,189.67879118235223,172.20371133085803,3.237724376958795e-05,0.0931148082017898,0,0,0
15933,554116.5474562601,2010-11-08 00:19:42,2611.338166422724,2,49,0.550297200679779,3.9372363090515137,47.52844252131579,47.19705879502348,189.69684736043104,172.20371133085803,9.713172767078504e-05,0.0931148082017898,0,0,0
15934,554146.5630807667,2010-11-08 00:20:12,2641.3537909292813,2,49,0.5499359965324402,3.9386932849884033,47.53302953860222,47.19705879502348,189.71491082642387,172.20371133085803,0.0,0.0931148082017898,0,0,0
15935,554176.5782736959,2010-11-08 00:20:42,2671.368983863567,2,49,0.5501165986061096,3.940474033355713,47.53761639235012,47.19705879502348,189.73298093182407,172.20371133085803,6.47544875391759e-05,0.0931148082017898,0,0,0
15936,554206.59378101,2010-11-08 00:21:12,2701.384491172581,2,49,0.550297200679779,3.942092895507813,47.54220332824176,47.19705879502348,189.7510588100532,172.20371133085803,9.713172767078504e-05,0.0931148082017898,0,0,0
15937,554236.6090132274,2010-11-08 00:21:42,2731.399723389923,2,49,0.550297200679779,3.943549871444702,47.54679021731899,47.19705879502348,189.7691440074109,172.20371133085803,6.47544875391759e-05,0.0931148082017898,0,0,0
15938,554266.6244127824,2010-11-08 00:22:12,2761.4151229449662,2,49,0.5501165986061096,3.9451687335968018,47.55137711574305,47.19705879502348,189.78723677893703,172.20371133085803,0.0,0.0931148082017898,0,0,0
15939,554296.6397786132,2010-11-08 00:22:42,2791.430488775829,2,49,0.5501165986061096,3.946787595748901,47.55596404239862,47.19705879502348,189.80533725234017,172.20371133085803,3.237724376958795e-05,0.0931148082017898,0,0,0
15940,554326.6552831352,2010-11-08 00:23:12,2821.4459932978866,2,49,0.5501165986061096,3.948568344116211,47.56055097211681,47.19705879502348,189.82344539501184,172.20371133085803,3.237724376958795e-05,0.0931148082017898,0,0,0
15941,554356.6706695575,2010-11-08 00:23:42,2851.46137972516,2,49,0.550297200679779,3.9505109786987305,47.56513787429205,47.19705879502348,189.8415611460659,172.20371133085803,9.713172767078504e-05,0.0931148082017898,0,0,0
15942,554386.6863581792,2010-11-08 00:24:12,2881.477068341745,2,49,0.5501165986061096,3.95212984085083,47.56972480515702,47.19705879502348,189.8596848363612,172.20371133085803,9.713172767078504e-05,0.0931148082017898,0,0,0
15943,554416.7014442567,2010-11-08 00:24:42,2911.4921544193007,2,49,0.5501165986061096,3.95358681678772,47.57431176234859,47.19705879502348,189.87781644807896,172.20371133085803,0.0,0.0931148082017898,0,0,0
15944,554446.7166903537,2010-11-08 00:25:12,2941.5074005162887,2,49,0.550297200679779,3.9555294513702393,47.57889868848184,47.19705879502348,189.89595592070123,172.20371133085803,3.237724376958795e-05,0.0931148082017898,0,0,0
15945,554476.7320760491,2010-11-08 00:25:42,2971.522786216749,2,49,0.550297200679779,3.957310199737549,47.58348566405797,47.19705879502348,189.91410362717468,172.20371133085803,6.47544875391759e-05,0.0931148082017898,0,0,0
15946,554506.7474553636,2010-11-08 00:26:12,3001.538165526256,2,49,0.5499359965324402,3.958929061889648,47.58807266666025,47.19705879502348,189.9322594924313,172.20371133085803,0.0,0.0931148082017898,0,0,0
15947,554536.762820994,2010-11-08 00:26:42,3031.5535311566177,2,49,0.5501165986061096,3.960871696472168,47.5926596016324,47.19705879502348,189.95042325403816,172.20371133085803,6.47544875391759e-05,0.0931148082017898,0,0,0
15948,554566.7782647795,2010-11-08 00:27:12,3061.5689749420667,2,49,0.5501165986061096,3.9626524448394775,47.597246580636025,47.19705879502348,189.9685954429082,172.20371133085803,3.237724376958795e-05,0.0931148082017898,0,0,0
15949,554596.7963101037,2010-11-08 00:27:42,3091.58702035157,2,49,0.5501165986061096,3.964433193206787,47.60183395126203,47.19705879502348,189.98677752964264,172.20371133085803,3.237724376958795e-05,0.0931148082017898,0,0,0
15950,554626.8092318036,2010-11-08 00:28:12,3121.599941976317,2,49,0.550297200679779,3.966375827789306,47.60642061372064,47.19705879502348,190.00496519424047,172.20371133085803,6.47544875391759e-05,0.0931148082017898,0,0,0
15951,554656.8243711242,2010-11-08 00:28:42,3151.6150812867504,2,49,0.5501165986061096,3.9679946899414062,47.61100762517094,47.19705879502348,190.02316263810064,172.20371133085803,0.0,0.0931148082017898,0,0,0
15952,554686.8397474011,2010-11-08 00:29:12,3181.630457583738,2,49,0.550297200679779,3.969937324523926,47.615594614437285,47.19705879502348,190.04136847535577,172.20371133085803,3.237724376958795e-05,0.0931148082017898,0,0,0
15953,554716.8551116681,2010-11-08 00:29:42,3211.6458218306466,2,49,0.5501165986061096,3.9717180728912354,47.62018158847359,47.19705879502348,190.05958285031485,172.20371133085803,3.237724376958795e-05,0.0931148082017898,0,0,0
15954,554746.8705942803,2010-11-08 00:30:12,3241.661304528226,2,49,0.5501165986061096,3.973822593688965,47.62476863537754,47.19705879502348,190.07780628634447,172.20371133085803,6.47544875391759e-05,0.0931148082017898,0,0,0
15955,554776.8858930639,2010-11-08 00:30:42,3271.6766032265155,2,49,0.550297200679779,3.975765228271485,47.62935563099134,47.19705879502348,190.09603825671664,172.20371133085803,9.713172767078504e-05,0.0931148082017898,0,0,0
15956,554806.9012921127,2010-11-08 00:31:12,3301.692002275295,2,49,0.5499359965324402,3.977545976638794,47.6339426549548,47.19705879502348,190.11427931800145,172.20371133085803,0.0,0.0931148082017898,0,0,0
15957,554836.9166505401,2010-11-08 00:31:42,3331.7073607026773,2,49,0.5501165986061096,3.979650497436523,47.63852956514072,47.19705879502348,190.13252853272303,172.20371133085803,9.713172767078504e-05,0.0931148082017898,0,0,0
15958,554866.9320309673,2010-11-08 00:32:12,3361.7227411299746,2,49,0.5501165986061096,3.981593132019043,47.64311648277191,47.19705879502348,190.15078731823337,172.20371133085803,6.47544875391759e-05,0.0931148082017898,0,0,0
15959,554896.9474268031,2010-11-08 00:32:42,3391.7381369707464,2,49,0.5501165986061096,3.9835357666015625,47.64770342312982,47.19705879502348,190.16905537895911,172.20371133085803,6.47544875391759e-05,0.0931148082017898,0,0,0
15960,554926.9627848496,2010-11-08 00:33:12,3421.753495012165,2,49,0.5501165986061096,3.985640287399292,47.65229028739798,47.19705879502348,190.1873324054579,172.20371133085803,3.237724376958795e-05,0.0931148082017898,0,0,0
15961,554956.9781606904,2010-11-08 00:33:42,3451.768870853014,2,49,0.5501165986061096,3.9877448081970215,47.656877203884605,47.19705879502348,190.20561904665504,172.20371133085803,3.237724376958795e-05,0.0931148082017898,0,0,0
15962,554986.9936685659,2010-11-08 00:34:12,3481.7843787284414,2,49,0.5501165986061096,3.989849328994751,47.661464167166415,47.19705879502348,190.22391522690083,172.20371133085803,9.713172767078504e-05,0.0931148082017898,0,0,0
15963,555017.008944753,2010-11-08 00:34:42,3511.799654920552,2,49,0.5501165986061096,3.9917919635772714,47.66605105491802,47.19705879502348,190.24222071605945,172.20371133085803,6.47544875391759e-05,0.0931148082017898,0,0,0
15964,555047.0243080975,2010-11-08 00:35:12,3541.8150182652084,2,49,0.550297200679779,3.993896484375,47.67063806528691,47.19705879502348,190.26053641536004,172.20371133085803,3.237724376958795e-05,0.0931148082017898,0,0,0
15965,555077.0396791815,2010-11-08 00:35:42,3571.8303893441707,2,49,0.550297200679779,3.99616265296936,47.67522500540724,47.19705879502348,190.27886158901885,172.20371133085803,6.47544875391759e-05,0.0931148082017898,0,0,0
15966,555107.0552746857,2010-11-08 00:36:12,3601.845984848333,2,49,0.5501165986061096,3.99826717376709,47.67981196551392,47.19705879502348,190.29719679635627,172.20371133085803,6.47544875391759e-05,0.0931148082017898,0,0,0
15967,555137.0705714591,2010-11-08 00:36:42,3631.861281626831,2,49,0.5499359965324402,4.000533580780029,47.68439888588733,47.19705879502348,190.31554175391264,172.20371133085803,6.47544875391759e-05,0.0931148082017898,0,0,0
15968,555167.0858256764,2010-11-08 00:37:12,3661.876535839075,2,49,0.5501165986061096,4.002799987792969,47.68898579439057,47.19705879502348,190.33389684248476,172.20371133085803,9.70840483205393e-05,0.0931148082017898,0,0,0
15969,555197.1013362437,2010-11-08 00:37:42,3691.8920464062217,2,49,0.5499359965324402,4.004904747009277,47.693572656825296,47.19705879502348,190.35226196084344,172.20371133085803,6.47544875391759e-05,0.0931148082017898,0,0,0
15970,555227.1166060448,2010-11-08 00:38:12,3721.907316212392,2,49,0.550297200679779,4.007332801818848,47.69815954458922,47.19705879502348,190.3706374975684,172.20371133085803,9.70840483205393e-05,0.0931148082017898,0,0,0
15971,555257.1320871182,2010-11-08 00:38:42,3751.922797280905,2,49,0.550297200679779,4.009599208831787,47.70274693007661,47.19705879502348,190.3890253876676,172.20371133085803,6.47544875391759e-05,0.0931148082017898,0,0,0
15972,555287.1473433306,2010-11-08 00:39:12,3781.9380534931424,2,49,0.550297200679779,4.011865615844727,47.70733449673923,47.19705879502348,190.40742443419808,172.20371133085803,9.70840483205393e-05,0.0931148082017898,0,0,0
15973,555317.1628896168,2010-11-08 00:39:42,3811.9535997794496,2,49,0.550297200679779,4.014132022857666,47.71192208096118,47.19705879502348,190.4258341270626,172.20371133085803,3.23295607813634e-05,0.0931148082017898,0,0,0
15974,555347.1781219896,2010-11-08 00:40:12,3841.96883215218,2,49,0.5501165986061096,4.0163984298706055,47.71650965370158,47.19705879502348,190.44425437548216,172.20371133085803,6.47544875391759e-05,0.0931148082017898,0,0,0
15975,555377.1936232585,2010-11-08 00:40:42,3871.984333421117,2,49,0.550297200679779,4.018826961517334,47.7210968355236,47.19705879502348,190.4626837851696,172.20371133085803,6.47544875391759e-05,0.0931148082017898,0,0,0
15976,555407.209008999,2010-11-08 00:41:12,3901.9997191616767,2,49,0.5499359965324402,4.021093368530273,47.725683677811965,47.19705879502348,190.481122560156,172.20371133085803,3.24249267578125e-05,0.0931148082017898,0,0,0
15977,555437.2242796473,2010-11-08 00:41:42,3932.014989809949,2,49,0.5504778623580933,4.023683547973633,47.73027051063771,47.19705879502348,190.4995723442049,172.20371133085803,6.47544875391759e-05,0.0931148082017898,0,0,0
15978,555467.2397726658,2010-11-08 00:42:13,3962.030482838315,2,49,0.5501165986061096,4.025949954986572,47.734857350771286,47.19705879502348,190.51803307894485,172.20371133085803,6.47544875391759e-05,0.0931148082017898,0,0,0
15979,555497.2550155497,2010-11-08 00:42:43,3992.045725717271,2,49,0.5501165986061096,4.028378009796143,47.73944413111485,47.19705879502348,190.5365045603897,172.20371133085803,6.47544875391759e-05,0.0931148082017898,0,0,0
15980,555527.2704045784,2010-11-08 00:43:13,4022.0611147410254,2,49,0.5501165986061096,4.030644416809082,47.74403105586376,47.19705879502348,190.55498769613123,172.20371133085803,3.23295607813634e-05,0.0931148082017898,0,0,0
15981,555557.2857929555,2010-11-08 00:43:43,4052.076503118168,2,49,0.5501165986061096,4.033234596252441,47.74861786063163,47.19705879502348,190.5734815915179,172.20371133085803,6.47544875391759e-05,0.0931148082017898,0,0,0
15982,555587.3011931722,2010-11-08 00:44:13,4082.091903324837,2,49,0.5501165986061096,4.035824775695801,47.753204700070285,47.19705879502348,190.591987083446,172.20371133085803,9.71794142969884e-05,0.0931148082017898,0,0,0
15983,555617.3165610733,2010-11-08 00:44:43,4112.107271235893,2,49,0.5499359965324402,4.038252830505371,47.757791483434886,47.19705879502348,190.61050386286823,172.20371133085803,6.47544875391759e-05,0.0931148082017898,0,0,0
15984,555647.3319505682,2010-11-08 00:45:13,4142.1226607308245,2,49,0.550297200679779,4.0408430099487305,47.76237832118032,47.19705879502348,190.6290324616297,172.20371133085803,6.47544875391759e-05,0.0931148082017898,0,0,0
15985,555677.3473079982,2010-11-08 00:45:43,4172.1380181607165,2,49,0.5499359965324402,4.043271541595459,47.76696509003003,47.19705879502348,190.64757253305532,172.20371133085803,6.47544875391759e-05,0.0931148082017898,0,0,0
15986,555707.3627051271,2010-11-08 00:46:13,4202.153415289704,2,49,0.5501165986061096,4.045861721038818,47.771551857213744,47.19705879502348,190.6661244988823,172.20371133085803,3.24249267578125e-05,0.0931148082017898,0,0,0
15987,555737.3780791434,2010-11-08 00:46:43,4232.168789305998,2,49,0.550297200679779,4.048451900482178,47.77613865888313,47.19705879502348,190.68468857316807,172.20371133085803,3.24249267578125e-05,0.0931148082017898,0,0,0
15988,555767.3934570795,2010-11-08 00:47:13,4262.184167242077,2,49,0.5501165986061096,4.051042079925537,47.7807255462277,47.19705879502348,190.7032649928752,172.20371133085803,0.0,0.0931148082017898,0,0,0
15989,555797.40887682,2010-11-08 00:47:43,4292.199587007569,2,49,0.5501165986061096,4.053956031799316,47.78531234871304,47.19705879502348,190.72185320079228,172.20371133085803,9.71794142969884e-05,0.0931148082017898,0,0,0
15990,555827.4242477184,2010-11-08 00:48:13,4322.214957881019,2,49,0.5501165986061096,4.056707859039307,47.78989920602911,47.19705879502348,190.740453838998,172.20371133085803,9.70840483205393e-05,0.0931148082017898,0,0,0
15991,555857.4396251382,2010-11-08 00:48:43,4352.230335300809,2,49,0.5501165986061096,4.059136390686035,47.79448609088355,47.19705879502348,190.75906692599287,172.20371133085803,3.24249267578125e-05,0.0931148082017898,0,0,0
15992,555887.4549822974,2010-11-08 00:49:13,4382.245692460026,2,49,0.5501165986061096,4.061888217926025,47.79907295183515,47.19705879502348,190.77769221886504,172.20371133085803,9.70840483205393e-05,0.0931148082017898,0,0,0
15993,555917.4703663588,2010-11-08 00:49:43,4412.261076546457,2,49,0.550297200679779,4.064802169799805,47.80365974341714,47.19705879502348,190.7963298027508,172.20371133085803,9.70840483205393e-05,0.0931148082017898,0,0,0
15994,555947.4857569415,2010-11-08 00:50:13,4442.27646710404,2,49,0.5501165986061096,4.067554473876953,47.80824653243065,47.19705879502348,190.81498017362864,172.20371133085803,9.71794142969884e-05,0.0931148082017898,0,0,0
15995,555977.5011293036,2010-11-08 00:50:43,4472.291839466206,2,49,0.5501165986061096,4.070306301116943,47.81283337500353,47.19705879502348,190.83364364064383,172.20371133085803,3.23295607813634e-05,0.0931148082017898,0,0,0
15996,556007.5165068638,2010-11-08 00:51:13,4502.307217026347,2,49,0.5501165986061096,4.073058605194092,47.81742013778619,47.19705879502348,190.8523196075322,172.20371133085803,6.47544875391759e-05,0.0931148082017898,0,0,0
15997,556037.5318897571,2010-11-08 00:51:43,4532.322599914787,2,49,0.5499359965324402,4.075810432434082,47.82200689054236,47.19705879502348,190.87100844694396,172.20371133085803,3.23295607813634e-05,0.0931148082017898,0,0,0
15998,556067.547294856,2010-11-08 00:52:13,4562.3380050186815,2,49,0.5501165986061096,4.078724384307861,47.82659363917339,47.19705879502348,190.8897104574124,172.20371133085803,3.23295607813634e-05,0.0931148082017898,0,0,0
15999,556097.5626616944,2010-11-08 00:52:43,4592.353371882121,2,49,0.5501165986061096,4.08180046081543,47.83118045828783,47.19705879502348,190.90842608370173,172.20371133085803,9.71794142969884e-05,0.0931148082017898,0,0,0
16000,556127.5780405629,2010-11-08 00:53:13,4622.368750725464,2,49,0.550297200679779,4.08487606048584,47.83576719285723,47.19705879502348,190.927154683811,172.20371133085803,0.0001295089750783,0.0931148082017898,0,0,0
16001,556157.5934290903,2010-11-08 00:53:43,4652.384139252981,2,49,0.5501165986061096,4.087790012359619,47.8403540184742,47.19705879502348,190.94589709194904,172.20371133085803,0.0001295089750783,0.0931148082017898,0,0,0
16002,556187.6088114977,2010-11-08 00:54:13,4682.399521660221,2,49,0.550297200679779,4.090542316436768,47.84494084632371,47.19705879502348,190.96465308214104,172.20371133085803,3.24249267578125e-05,0.0931148082017898,0,0,0
16003,556217.6241828873,2010-11-08 00:54:43,4712.414893049959,2,49,0.5501165986061096,4.093456268310547,47.849527672598775,47.19705879502348,190.98342271123212,172.20371133085803,9.71794142969884e-05,0.0931148082017898,0,0,0
16004,556247.6395667833,2010-11-08 00:55:13,4742.430276945916,2,49,0.550297200679779,4.096531867980957,47.85411441794326,47.19705879502348,191.0022057489793,172.20371133085803,6.47544875391759e-05,0.0931148082017898,0,0,0
16005,556277.6549671504,2010-11-08 00:55:43,4772.445677312985,2,49,0.5501165986061096,4.099607944488525,47.85870125749808,47.19705879502348,191.02100299887272,172.20371133085803,9.71794142969884e-05,0.0931148082017898,0,0,0
16006,556307.6703299386,2010-11-08 00:56:13,4802.461040106265,2,49,0.5501165986061096,4.102683544158936,47.86328808388125,47.19705879502348,191.03981416654196,172.20371133085803,9.70840483205393e-05,0.0931148082017898,0,0,0
16007,556337.6858311124,2010-11-08 00:56:43,4832.476541279964,2,49,0.5501165986061096,4.105759620666504,47.86787486628934,47.19705879502348,191.0586392696705,172.20371133085803,6.47544875391759e-05,0.0931148082017898,0,0,0
16008,556367.7012156198,2010-11-08 00:57:13,4862.491925787446,2,49,0.5501165986061096,4.108835220336914,47.8724616343441,47.19705879502348,191.077478501269,172.20371133085803,9.70840483205393e-05,0.0931148082017898,0,0,0
16009,556397.7164669749,2010-11-08 00:57:43,4892.507177137547,2,49,0.550297200679779,4.112072944641113,47.87704841282615,47.19705879502348,191.0963321436787,172.20371133085803,0.0001295089750783,0.0931148082017898,0,0,0
16010,556427.7318597732,2010-11-08 00:58:13,4922.522569935724,2,49,0.5501165986061096,4.115148544311523,47.88163523255486,47.19705879502348,191.11520044336,172.20371133085803,6.47544875391759e-05,0.0931148082017898,0,0,0
16011,556457.7472622204,2010-11-08 00:58:43,4952.537972388,2,49,0.5497553944587708,4.118224620819092,47.88622206617848,47.19705879502348,191.13408353691617,172.20371133085803,3.24249267578125e-05,0.0931148082017898,0,0,0
16012,556487.7626349785,2010-11-08 00:59:13,4982.553345151166,2,49,0.5501165986061096,4.121623992919922,47.89080888687104,47.19705879502348,191.1529813201732,172.20371133085803,9.70840483205393e-05,0.0931148082017898,0,0,0
16013,556517.7806152204,2010-11-08 00:59:43,5012.571325488238,2,49,0.5501165986061096,4.12502384185791,47.89539615461164,47.19705879502348,191.1718958187448,172.20371133085803,9.71794142969884e-05,0.0931148082017898,0,0,0
16014,556547.793656178,2010-11-08 01:00:13,5042.584366345609,2,49,0.5501165986061096,4.12809944152832,47.89998256510237,47.19705879502348,191.1908217317454,172.20371133085803,6.47544875391759e-05,0.0931148082017898,0,0,0
16015,556577.8087911225,2010-11-08 01:00:43,5072.599501280119,2,49,0.5499359965324402,4.13133716583252,47.90456934039374,47.19705879502348,191.2097642431511,172.20371133085803,6.47544875391759e-05,0.0931148082017898,0,0,0
16016,556607.8089083505,2010-11-08 01:01:13,5102.5996185432095,2,49,0.5501165986061096,4.134737014770508,47.90915384324688,47.19705879502348,191.2287124773464,172.20371133085803,6.47544875391759e-05,0.0931148082017898,0,0,0
16017,556637.8240982272,2010-11-08 01:01:43,5132.614808399813,2,49,0.5499359965324402,4.138136386871338,47.91374066482576,47.19705879502348,191.24768555069716,172.20371133085803,6.47544875391759e-05,0.0931148082017898,0,0,0
16018,556667.8392716829,2010-11-08 01:02:13,5162.629981835427,2,49,0.550297200679779,4.141536235809326,47.91832751127155,47.19705879502348,191.2666741802656,172.20371133085803,9.71794142969884e-05,0.0931148082017898,0,0,0
16019,556697.8546533182,2010-11-08 01:02:43,5192.64536349079,2,49,0.550297200679779,4.144773960113525,47.92291432040091,47.19705879502348,191.28567821327647,172.20371133085803,6.47544875391759e-05,0.0931148082017898,0,0,0
16020,556727.8700192343,2010-11-08 01:03:13,5222.660729406865,2,49,0.5499359965324402,4.1483354568481445,47.927501114205846,47.19705879502348,191.30469810933505,172.20371133085803,0.0001295089750783,0.0931148082017898,0,0,0
16021,556757.8854481777,2010-11-08 01:03:43,5252.676158320192,2,49,0.5501165986061096,4.151734828948975,47.932087824526135,47.19705879502348,191.3237333339211,172.20371133085803,6.47544875391759e-05,0.0931148082017898,0,0,0
16022,556787.9008358229,2010-11-08 01:04:13,5282.691546005607,2,49,0.5501165986061096,4.155296325683594,47.93667461333113,47.19705879502348,191.34278470161496,172.20371133085803,9.70840483205393e-05,0.0931148082017898,0,0,0
16023,556817.9162156588,2010-11-08 01:04:43,5312.706925841428,2,49,0.5501165986061096,4.158696174621582,47.94126135125291,47.19705879502348,191.3618518566752,172.20371133085803,6.47544875391759e-05,0.0931148082017898,0,0,0
16024,556847.932738999,2010-11-08 01:05:13,5342.723449161561,2,49,0.5499359965324402,4.162419319152832,47.94584825808245,47.19705879502348,191.38093586465217,172.20371133085803,0.0001295089750783,0.0931148082017898,0,0,0
16025,556877.9471088237,2010-11-08 01:05:43,5372.737819006288,2,49,0.5501165986061096,4.165657043457031,47.95043486440706,47.19705879502348,191.40003472626472,172.20371133085803,6.47544875391759e-05,0.0931148082017898,0,0,0
16026,556907.9623507002,2010-11-08 01:06:13,5402.753060882742,2,49,0.5501165986061096,4.16938066482544,47.95502157805028,47.19705879502348,191.4191501857784,172.20371133085803,9.71794142969884e-05,0.0931148082017898,0,0,0
16027,556937.977869974,2010-11-08 01:06:43,5432.768580276922,2,49,0.5501165986061096,4.172942161560059,47.959608342174114,47.19705879502348,191.4382820945058,172.20371133085803,6.47544875391759e-05,0.0931148082017898,0,0,0
16028,556967.9931188178,2010-11-08 01:07:13,5462.7838290004665,2,49,0.5501165986061096,4.176503658294678,47.96419510912298,47.19705879502348,191.45743055426985,172.20371133085803,9.71794142969884e-05,0.0931148082017898,0,0,0
16029,556998.0085382775,2010-11-08 01:07:43,5492.79924845017,2,49,0.550297200679779,4.180226802825928,47.968781912485376,47.19705879502348,191.476595724656,172.20371133085803,0.0001295089750783,0.0931148082017898,0,0,0
16030,557028.0238858328,2010-11-08 01:08:13,5522.814596010426,2,49,0.550297200679779,4.183950424194336,47.97336865661459,47.19705879502348,191.49577738520276,172.20371133085803,0.0001295089750783,0.0931148082017898,0,0,0
16031,557058.0395288005,2010-11-08 01:08:43,5552.830238963026,2,49,0.550297200679779,4.187349796295166,47.97795551134176,47.19705879502348,191.5149763074404,172.20371133085803,9.70840483205393e-05,0.0931148082017898,0,0,0
16032,557088.0547717295,2010-11-08 01:09:13,5582.845481912157,2,49,0.5501165986061096,4.191073417663574,47.98254219160032,47.19705879502348,191.5341913572934,172.20371133085803,6.47544875391759e-05,0.0931148082017898,0,0,0
16033,557118.0701651191,2010-11-08 01:09:43,5612.860875286774,2,49,0.5501165986061096,4.194796562194824,47.98712899225069,47.19705879502348,191.55342390079565,172.20371133085803,6.47544875391759e-05,0.0931148082017898,0,0,0
16034,557148.0854620581,2010-11-08 01:10:13,5642.876172220658,2,49,0.5501165986061096,4.198681831359863,47.99171568933991,47.19705879502348,191.57267296045137,172.20371133085803,0.0001295089750783,0.0931148082017898,0,0,0
16035,557158.8352245591,2010-11-08 01:10:24,5653.625934746733,2,49,0.5501165986061096,4.200138568878174,47.99335838320775,47.19705879502348,191.57957108063383,172.20371133085803,0.0001295089750783,0.0931148082017898,0,0,0
16036,557188.8631368636,2010-11-08 01:10:54,30.015462497156363,3,49,0.0,4.118386268615723,47.99335838320775,47.19705879502348,191.57957108063383,172.20371133085803,-0.0003561973571777,0.0931148082017898,0,0,0
16037,557218.8784491308,2010-11-08 01:11:24,60.03077476431554,3,49,0.0,4.108673572540283,47.99335838320775,47.19705879502348,191.57957108063383,172.20371133085803,-0.0002265930233988,0.0931148082017898,0,0,0
16038,557248.8939506102,2010-11-08 01:11:54,90.04627625380276,3,49,0.0,4.1031694412231445,47.99335838320775,47.19705879502348,191.57957108063383,172.20371133085803,-6.47544875391759e-05,0.0931148082017898,0,0,0
16039,557278.8624300705,2010-11-08 01:12:24,120.01475572910844,3,49,0.0,4.099445819854736,47.99335838320775,47.19705879502348,191.57957108063383,172.20371133085803,-9.71794142969884e-05,0.0931148082017898,0,0,0
16040,557278.8759727476,2010-11-08 01:12:24,0.015855643124569,4,49,0.9747290015220642,4.199653148651123,47.993362676251074,47.19705879502348,191.5795891099268,172.20371133085803,0.0,0.0931148082017898,0,0,0
16041,557279.8133845968,2010-11-08 01:12:25,0.953267497329873,4,49,0.9243390560150146,4.199491024017334,47.993608380910985,47.19705879502348,191.58062097740523,172.20371133085803,-3.24249267578125e-05,0.0931148082017898,0,0,0
16042,557282.0008382878,2010-11-08 01:12:28,3.140721208323855,4,49,0.8743102550506592,4.199653148651123,47.9941536899924,47.19705879502348,191.582911066252,172.20371133085803,0.0,0.0931148082017898,0,0,0
16043,557285.3287896413,2010-11-08 01:12:31,6.468672531819811,4,49,0.8242815136909485,4.199653148651123,47.9949373512308,47.19705879502348,191.5862021440993,172.20371133085803,3.24249267578125e-05,0.0931148082017898,0,0,0
16044,557289.9382704445,2010-11-08 01:12:36,11.078153335055582,4,49,0.7740721106529236,4.199814796447754,47.99595903144816,47.19705879502348,191.5904928416961,172.20371133085803,3.23295607813634e-05,0.0931148082017898,0,0,0
16045,557296.0005793252,2010-11-08 01:12:42,17.140462245759608,4,49,0.7240433692932129,4.199653148651123,47.99721838096706,47.19705879502348,191.59578165812025,172.20371133085803,0.0,0.0931148082017898,0,0,0
16046,557303.9850261728,2010-11-08 01:12:50,25.12490908845541,4,49,0.6740145683288574,4.199653148651123,47.99876594180378,47.19705879502348,191.60228085592595,172.20371133085803,0.0,0.0931148082017898,0,0,0
16047,557314.7349670791,2010-11-08 01:13:00,35.87484996973214,4,49,0.6239858269691467,4.199814796447754,48.00070013334813,47.19705879502348,191.61040380191227,172.20371133085803,3.23295607813634e-05,0.0931148082017898,0,0,0
16048,557330.187818223,2010-11-08 01:13:16,51.32770111354882,4,49,0.5739570260047913,4.199653148651123,48.00326435519165,47.19705879502348,191.6211726501044,172.20371133085803,0.0,0.0931148082017898,0,0,0
16049,557354.250085885,2010-11-08 01:13:40,75.3899688055955,4,49,0.5239282846450806,4.199491024017334,48.0069200811592,47.19705879502348,191.6365254479749,172.20371133085803,-3.24249267578125e-05,0.0931148082017898,0,0,0
16050,557396.3591657066,2010-11-08 01:14:22,117.49904862213756,4,49,0.4738995134830475,4.199491024017334,48.0127301732894,47.19705879502348,191.660925867891,172.20371133085803,-3.24249267578125e-05,0.0931148082017898,0,0,0
16051,557468.655452551,2010-11-08 01:15:34,189.79533546660704,4,49,0.4236901104450226,4.199653148651123,48.0217115230111,47.19705879502348,191.6986445574742,172.20371133085803,-3.23295607813634e-05,0.0931148082017898,0,0,0
16052,557569.5452491598,2010-11-08 01:17:15,290.68513207544987,4,49,0.3736613392829895,4.199653148651123,48.03286722381294,47.19705879502348,191.7454948015384,172.20371133085803,-3.23295607813634e-05,0.0931148082017898,0,0,0
16053,557691.6536407511,2010-11-08 01:19:17,412.7935236667682,4,49,0.3236325681209564,4.199653148651123,48.04467800135075,47.19705879502348,191.79509611972784,172.20371133085803,-3.23295607813634e-05,0.0931148082017898,0,0,0
16054,557835.5587124844,2010-11-08 01:21:41,556.6985954000563,4,49,0.2732425928115845,4.199653148651123,48.05659674085828,47.19705879502348,191.84515095401483,172.20371133085803,0.0,0.0931148082017898,0,0,0
16055,558010.2760712615,2010-11-08 01:24:36,731.4159541771576,4,49,0.2232138216495514,4.199653148651123,48.06861975259542,47.19705879502348,191.89564366287885,172.20371133085803,0.0,0.0931148082017898,0,0,0
16056,558230.9773924333,2010-11-08 01:28:17,952.1172753488516,4,49,0.1731850504875183,4.199491024017334,48.08071860178888,47.19705879502348,191.94645486664416,172.20371133085803,-3.24249267578125e-05,0.0931148082017898,0,0,0
16057,558542.5061051628,2010-11-08 01:33:28,1263.645988053256,4,49,0.1231562867760658,4.199653148651123,48.09342629517849,47.19705879502348,191.9998230513348,172.20371133085803,-3.23295607813634e-05,0.0931148082017898,0,0,0
16058,559060.3925553472,2010-11-08 01:42:06,1781.5324382377553,4,49,0.0731275156140327,4.199653148651123,48.107215609329806,47.19705879502348,192.0577337118934,172.20371133085803,-3.23295607813634e-05,0.0931148082017898,0,0,0
16059,559479.764155966,2010-11-08 01:49:05,2200.9040388566077,4,49,0.0498289167881011,4.199653148651123,48.114325062358176,47.19705879502348,192.0875911189609,172.20371133085803,0.0,0.0931148082017898,0,0,0
16060,559509.8106434268,2010-11-08 01:49:35,30.01533979587509,5,49,0.0,4.192206382751465,48.114325062358176,47.19705879502348,192.0875911189609,172.20371133085803,-3.24249267578125e-05,0.0931148082017898,0,0,0
16061,559539.8103990722,2010-11-08 01:50:05,60.01509544131313,5,49,0.0,4.191235065460205,48.114325062358176,47.19705879502348,192.0875911189609,172.20371133085803,0.0,0.0931148082017898,0,0,0
16062,559540.0296250774,2010-11-08 01:50:06,0.187587131339382,6,49,-1.9243103452026844e-05,4.190911293029785,48.114325062358176,47.19705879602619,192.0875911189609,172.2037113350603,0.0,0.0931148082017898,0,0,0
16063,559544.8578236789,2010-11-08 01:50:11,5.015785858161333,6,49,0.0007031940040178,4.191073417663574,48.1143258040231,47.19705879619237,192.08759422738504,172.20371133575674,-3.23295607813634e-05,0.0931148082017898,0,0,0
16064,559574.889114881,2010-11-08 01:50:41,30.01552866732729,7,49,-1.0997490882873535,4.023359775543213,48.11432580407235,47.20622881692291,192.08759422759144,172.24079015169224,-0.0008741378551349,0.0931148082017898,0,0,0
16065,559604.9044724061,2010-11-08 01:51:11,60.03088620248235,7,49,-1.0997490882873535,3.99875283241272,48.11432580407235,47.21539875676344,192.08759422759144,172.2775626586818,-0.0004856586456298,0.0931148082017898,0,0,0
16066,559634.9197489591,2010-11-08 01:51:41,90.0461627454685,7,49,-1.0997490882873535,3.981593132019043,48.11432580407235,47.224568645219165,192.08759422759144,172.31414883785448,-0.0003885269106831,0.0931148082017898,0,0,0
16067,559664.9352456968,2010-11-08 01:52:11,120.06165948309432,7,49,-1.0997490882873535,3.968156576156616,48.11432580407235,47.2337385296303,192.08759422759144,172.35059668309185,-0.0003561496851034,0.0931148082017898,0,0,0
16068,559694.95061248,2010-11-08 01:52:41,150.0770262913966,7,49,-1.0997490882873535,3.956662654876709,48.11432580407235,47.24290828167682,192.08759422759144,172.3869296614584,-0.0002913951757363,0.0931148082017898,0,0,0
16069,559724.9659394037,2010-11-08 01:53:11,180.09235319509082,7,49,-1.099929690361023,3.945978164672852,48.11432580407235,47.252078144755046,192.08759422759144,172.42316127261634,-0.0002913951757363,0.0931148082017898,0,0,0
16070,559754.9814393795,2010-11-08 01:53:41,210.1078531657869,7,49,-1.0997490882873535,3.936103105545044,48.11432580407235,47.26124795644383,192.08759422759144,172.45929907863896,-0.0002590179501567,0.0931148082017898,0,0,0
16071,559784.9965985445,2010-11-08 01:54:11,240.12301233579203,7,49,-1.099929690361023,3.926713705062866,48.11432580407235,47.27041763879328,192.08759422759144,172.49534822103234,-0.0002913951757363,0.0931148082017898,0,0,0
16072,559815.012070029,2010-11-08 01:54:41,270.1384838253949,7,49,-1.0997490882873535,3.917648077011109,48.11432580407235,47.27958756258251,192.08759422759144,172.53131370888826,-0.0002590179501567,0.0931148082017898,0,0,0
16073,559845.0275554435,2010-11-08 01:55:11,300.1539692297311,7,49,-1.099929690361023,3.90906834602356,48.11432580407235,47.2887574741459,192.08759422759144,172.56719818624288,-0.0001942634553415,0.0931148082017898,0,0,0
16074,559875.0428268787,2010-11-08 01:55:41,330.1692406649676,7,49,-1.099568486213684,3.9006502628326416,48.11432580407235,47.29792736403773,192.08759422759144,172.60300416982855,-0.0001942634553415,0.0931148082017898,0,0,0
16075,559905.058216549,2010-11-08 01:56:11,360.1846303353371,7,49,-1.099929690361023,3.8920702934265137,48.11432580407235,47.30709718765687,192.08759422759144,172.6387326564561,-0.0002590179501567,0.0931148082017898,0,0,0
16076,559935.0735856381,2010-11-08 01:56:41,390.19999943435727,7,49,-1.0997490882873535,3.883975982666016,48.11432580407235,47.31626705337546,192.08759422759144,172.67438558369597,-0.0001942634553415,0.0931148082017898,0,0,0
16077,559965.0889605867,2010-11-08 01:57:11,420.215374372954,7,49,-1.0997490882873535,3.8758816719055176,48.11432580407235,47.32543697437355,192.08759422759144,172.70996332738437,-0.0001942634553415,0.0931148082017898,0,0,0
16078,559995.1043744524,2010-11-08 01:57:41,450.230788248744,7,49,-1.099929690361023,3.86778736114502,48.11432580407235,47.33460689804264,192.08759422759144,172.74546752110106,-0.0002266406954731,0.0931148082017898,0,0,0
16079,560025.1198700772,2010-11-08 01:58:11,480.2462838585545,7,49,-1.0997490882873535,3.859854936599731,48.11432580407235,47.34377688412161,192.08759422759144,172.78089888880388,-0.0001942634553415,0.0931148082017898,0,0,0
16080,560055.1351563996,2010-11-08 01:58:41,510.2615702160393,7,49,-1.0997490882873535,3.8522462844848633,48.11432580407235,47.35294671544366,192.08759422759144,172.81625796758158,-0.0001942634553415,0.0931148082017898,0,0,0
16081,560085.1505623256,2010-11-08 01:59:11,540.2769761720602,7,49,-1.0997490882873535,3.844637632369995,48.11432580407235,47.36211663059526,192.08759422759144,172.85154746213612,-0.0001942634553415,0.0931148082017898,0,0,0
16082,560115.1658992994,2010-11-08 01:59:41,570.292313085741,7,49,-1.0997490882873535,3.837028980255127,48.11432580407235,47.37128661451532,192.08759422759144,172.88676720271036,-0.0001618862152099,0.0931148082017898,0,0,0
16083,560145.181376754,2010-11-08 02:00:11,600.3077905402331,7,49,-1.099929690361023,3.829582452774048,48.11432580407235,47.38045665745868,192.08759422759144,172.9219186554791,-0.0001942634553415,0.0931148082017898,0,0,0
16084,560175.196709848,2010-11-08 02:00:41,630.3231236343797,7,49,-1.099929690361023,3.8221356868743896,48.11432580407235,47.3896266300354,192.08759422759144,172.95700252505733,-0.0002590179501567,0.0931148082017898,0,0,0
16085,560205.2126038774,2010-11-08 02:01:11,660.3390176737317,7,49,-1.0997490882873535,3.815174579620361,48.11432580407235,47.39879672482816,192.08759422759144,172.99202012754992,-0.0001942634553415,0.0931148082017898,0,0,0
16086,560235.2143889585,2010-11-08 02:01:41,690.3408027449286,7,49,-1.099929690361023,3.808213472366333,48.11432580407235,47.40796256697896,192.08759422759144,173.02695637700106,-0.0001618862152099,0.0931148082017898,0,0,0
16087,560265.2274649186,2010-11-08 02:02:11,720.3538788001589,7,49,-1.099929690361023,3.8012523651123047,48.11432580407235,47.4171321260692,192.08759422759144,173.06184299989818,-0.0001942634553415,0.0931148082017898,0,0,0
16088,560295.242497683,2010-11-08 02:02:41,750.3689114794237,7,49,-1.099929690361023,3.7944531440734863,48.11432580407235,47.42630275378777,192.08759422759144,173.0966707504766,-0.0001618862152099,0.0931148082017898,0,0,0
16089,560325.2579039799,2010-11-08 02:03:11,780.384317771283,7,49,-1.099929690361023,3.787815809249878,48.11432580407235,47.43547338965463,192.08759422759144,173.1314370930182,-0.0001942634553415,0.0931148082017898,0,0,0
16090,560355.2732600264,2010-11-08 02:03:41,810.3996738427845,7,49,-1.099929690361023,3.78134036064148,48.11432580407235,47.4446441286843,192.08759422759144,173.16614473069748,-0.0001942634553415,0.0931148082017898,0,0,0
16091,560385.2886504135,2010-11-08 02:04:11,840.4150641948556,7,49,-1.099929690361023,3.775026798248291,48.11432580407235,47.4538148979627,192.08759422759144,173.20079436675584,-0.0001618862152099,0.0931148082017898,0,0,0
16092,560415.3040222093,2010-11-08 02:04:41,870.4304360056448,7,49,-1.099929690361023,3.768875122070313,48.11432580407235,47.462985661724666,192.08759422759144,173.2353864152524,-0.0001618862152099,0.0931148082017898,0,0,0
16093,560445.3194108821,2010-11-08 02:05:11,900.4458246684993,7,49,-1.1001102924346924,3.762723445892334,48.11432580407235,47.472156194387246,192.08759422759144,173.26992109742736,-0.0001618862152099,0.0931148082017898,0,0,0
16094,560475.3348013796,2010-11-08 02:05:41,930.4612151759584,7,49,-1.099568486213684,3.757057428359986,48.11432580407235,47.48132610293968,192.08759422759144,173.30439841062932,-0.0001295089750783,0.0931148082017898,0,0,0
16095,560505.350180233,2010-11-08 02:06:11,960.476594019302,7,49,-1.099568486213684,3.751067876815796,48.11432580407235,47.49049595460667,192.08759422759144,173.33882115813972,-0.0001295089750783,0.0931148082017898,0,0,0
16096,560535.3656717626,2010-11-08 02:06:41,990.4920855589528,7,49,-1.099929690361023,3.7450780868530273,48.11432580407235,47.49966579188998,192.08759422759144,173.37319031334067,-0.0001618862152099,0.0931148082017898,0,0,0
16097,560565.3809437292,2010-11-08 02:07:11,1020.5073575405532,7,49,-1.0997490882873535,3.739412069320679,48.11432580407235,47.508835627867576,192.08759422759144,173.40750639420062,-0.0001618862152099,0.0931148082017898,0,0,0
16098,560595.396327956,2010-11-08 02:07:41,1050.5227417422725,7,49,-1.099929690361023,3.73374605178833,48.11432580407235,47.518005538747325,192.08759422759144,173.4417712975492,-0.0001618862152099,0.0931148082017898,0,0,0
16099,560625.4117319771,2010-11-08 02:08:11,1080.5381457634633,7,49,-1.099929690361023,3.728403806686402,48.11432580407235,47.52717538422053,192.08759422759144,173.4759848484046,-0.0001295089750783,0.0931148082017898,0,0,0
16100,560655.427170329,2010-11-08 02:08:41,1110.5535842005622,7,49,-1.0997490882873535,3.722899675369263,48.11432580407235,47.53634527585498,192.08759422759144,173.51014870245078,-0.0001618862152099,0.0931148082017898,0,0,0
16101,560685.4425088668,2010-11-08 02:09:11,1140.5689226580964,7,49,-1.0997490882873535,3.717719316482544,48.11432580407235,47.54551512991369,192.08759422759144,173.54426298510162,-0.0001295089750783,0.0931148082017898,0,0,0
16102,560715.4578446777,2010-11-08 02:09:41,1170.5842584690247,7,49,-1.0997490882873535,3.712538957595825,48.11432580407235,47.55468494350522,192.08759422759144,173.57832889572154,-9.713172767078504e-05,0.0931148082017898,0,0,0
16103,560745.4734787431,2010-11-08 02:10:11,1200.5998925494794,7,49,-1.099929690361023,3.7070348262786874,48.11432580407235,47.56385490290178,192.08759422759144,173.61234751026902,-0.0001618862152099,0.0931148082017898,0,0,0
16104,560775.4887378726,2010-11-08 02:10:41,1230.6151516689738,7,49,-1.0997490882873535,3.7020163536071777,48.11432580407235,47.573024776495664,192.08759422759144,173.6463185262353,-9.713172767078504e-05,0.0931148082017898,0,0,0
16105,560805.5039912828,2010-11-08 02:11:11,1260.630405069192,7,49,-1.099929690361023,3.696997880935669,48.11432580407235,47.582194626140165,192.08759422759144,173.6802427975128,-0.0001618862152099,0.0931148082017898,0,0,0
16106,560835.5193779758,2010-11-08 02:11:41,1290.6457917621294,7,49,-1.099929690361023,3.69197940826416,48.11432580407235,47.59136450478971,192.08759422759144,173.71412146531114,-0.0001618862152099,0.0931148082017898,0,0,0
16107,560865.5347630947,2010-11-08 02:12:11,1320.661176881138,7,49,-1.0997490882873535,3.687446594238281,48.11432580407235,47.60053443941224,192.08759422759144,173.74795532043368,-9.713172767078504e-05,0.0931148082017898,0,0,0
16108,560895.5501569356,2010-11-08 02:12:41,1350.6765707219174,7,49,-1.099929690361023,3.6822662353515625,48.11432580407235,47.60970434080031,192.08759422759144,173.78174478879257,-0.0001618862152099,0.0931148082017898,0,0,0
16109,560925.5655239493,2010-11-08 02:13:11,1380.6919377357326,7,49,-1.099929690361023,3.677733421325684,48.11432580407235,47.61887425159291,192.08759422759144,173.8154906576659,-0.0001295089750783,0.0931148082017898,0,0,0
16110,560955.580981043,2010-11-08 02:13:41,1410.7073948243888,7,49,-1.0997490882873535,3.6730387210845943,48.11432580407235,47.62804415875005,192.08759422759144,173.8491936556252,-9.713172767078504e-05,0.0931148082017898,0,0,0
16111,560985.596290393,2010-11-08 02:14:11,1440.7227041792785,7,49,-1.0997490882873535,3.668506145477295,48.11432580407235,47.637214065863866,192.08759422759144,173.882854234,-0.0001295089750783,0.0931148082017898,0,0,0
16112,561015.6118021079,2010-11-08 02:14:41,1470.73821589429,7,49,-1.0997490882873535,3.663811445236206,48.11432580407235,47.64638395768508,192.08759422759144,173.9164730090014,-0.0001618862152099,0.0931148082017898,0,0,0
16113,561045.6270437137,2010-11-08 02:15:11,1500.7534575000675,7,49,-1.099929690361023,3.659440517425537,48.11432580407235,47.65555376509258,192.08759422759144,173.95005065580344,-0.0001295089750783,0.0931148082017898,0,0,0
16114,561075.6424223867,2010-11-08 02:15:41,1530.7688361779983,7,49,-1.0997490882873535,3.655393362045288,48.11432580407235,47.6647236231837,192.08759422759144,173.98358784960328,-9.713172767078504e-05,0.0931148082017898,0,0,0
16115,561105.6579524826,2010-11-08 02:16:12,1560.7843662738917,7,49,-1.0997490882873535,3.650860548019409,48.11432580407235,47.67389354961298,192.08759422759144,174.0170854009421,-9.713172767078504e-05,0.0931148082017898,0,0,0
16116,561135.6731886348,2010-11-08 02:16:42,1590.7996024210431,7,49,-1.0997490882873535,3.64616584777832,48.11432580407235,47.68306338216113,192.08759422759144,174.0505431759479,-0.0001942634553415,0.0931148082017898,0,0,0
16117,561165.6885684907,2010-11-08 02:17:12,1620.8149822769144,7,49,-1.099568486213684,3.642442464828491,48.11432580407235,47.69223316698046,192.08759422759144,174.08396200392028,-9.713172767078504e-05,0.0931148082017898,0,0,0
16118,561195.7039646321,2010-11-08 02:17:42,1650.8303784384873,7,49,-1.099929690361023,3.638233423233032,48.11432580407235,47.70140295141532,192.08759422759144,174.11734314370335,-9.713172767078504e-05,0.0931148082017898,0,0,0
16119,561225.7193510644,2010-11-08 02:18:12,1680.8457648757862,7,49,-1.099929690361023,3.634348154067993,48.11432580407235,47.71057276842794,192.08759422759144,174.15068743427025,-0.0001295089750783,0.0931148082017898,0,0,0
16120,561255.7347594314,2010-11-08 02:18:42,1710.861173247838,7,49,-1.099929690361023,3.630300998687744,48.11432580407235,47.71974256909358,192.08759422759144,174.18399515095513,-0.0001295089750783,0.0931148082017898,0,0,0
16121,561285.750121157,2010-11-08 02:19:12,1740.8765349534028,7,49,-1.0997490882873535,3.626577615737915,48.11432580407235,47.7289124947773,192.08759422759144,174.2172677479996,-9.713172767078504e-05,0.0931148082017898,0,0,0
16122,561315.7655124214,2010-11-08 02:19:42,1770.8919262277764,7,49,-1.0997490882873535,3.622854232788086,48.11432580407235,47.73808228702107,192.08759422759144,174.2505055577603,-9.713172767078504e-05,0.0931148082017898,0,0,0
16123,561345.7808759365,2010-11-08 02:20:12,1800.9072897328333,7,49,-1.099568486213684,3.619292736053467,48.11432580407235,47.74725212242737,192.08759422759144,174.283710154612,-9.713172767078504e-05,0.0931148082017898,0,0,0
16124,561375.7963783483,2010-11-08 02:20:42,1830.922792134597,7,49,-1.0997490882873535,3.6155693531036377,48.11432580407235,47.75642201834488,192.08759422759144,174.31688258602426,-0.0001618862152099,0.0931148082017898,0,0,0
16125,561405.8116329415,2010-11-08 02:21:12,1860.9380467328065,7,49,-1.0997490882873535,3.6123316287994394,48.11432580407235,47.76559182629203,192.08759422759144,174.35002314410875,-9.713172767078504e-05,0.0931148082017898,0,0,0
16126,561435.827016702,2010-11-08 02:21:42,1890.953430488412,7,49,-1.0997490882873535,3.6090939044952393,48.11432580407235,47.774761705782566,192.08759422759144,174.3831328610292,-9.713172767078504e-05,0.0931148082017898,0,0,0
16127,561465.8423957861,2010-11-08 02:22:12,1920.968809577368,7,49,-1.099929690361023,3.60585618019104,48.11432580407235,47.7839315736455,192.08759422759144,174.41621191179,-6.47544875391759e-05,0.0931148082017898,0,0,0
16128,561495.8577652209,2010-11-08 02:22:42,1950.9841790072144,7,49,-1.099568486213684,3.602618455886841,48.11432580407235,47.79310142920748,192.08759422759144,174.44926096662235,-9.713172767078504e-05,0.0931148082017898,0,0,0
16129,561525.8733003193,2010-11-08 02:23:12,1980.9997141106069,7,49,-1.099929690361023,3.5993807315826416,48.11432580407235,47.80227127980646,192.08759422759144,174.4822811650021,-9.713172767078504e-05,0.0931148082017898,0,0,0
16130,561555.8885279201,2010-11-08 02:23:42,2011.0149417064133,7,49,-1.0997490882873535,3.5963048934936523,48.11432580407235,47.81144112097665,192.08759422759144,174.51527290043975,-9.713172767078504e-05,0.0931148082017898,0,0,0
16131,561585.903936623,2010-11-08 02:24:12,2041.030350409291,7,49,-1.0997490882873535,3.593390941619873,48.11432580407235,47.82061101118687,192.08759422759144,174.54823712975377,-9.713172767078504e-05,0.0931148082017898,0,0,0
16132,561615.919421516,2010-11-08 02:24:42,2071.0458354176385,7,49,-1.099929690361023,3.590315341949463,48.11432580407235,47.82978094681744,192.08759422759144,174.58117433850987,-6.47544875391759e-05,0.0931148082017898,0,0,0
16133,561645.9347005001,2010-11-08 02:25:12,2101.06111428643,7,49,-1.0997490882873535,3.587401390075684,48.11432580407235,47.838950811789175,192.08759422759144,174.614084351533,-9.713172767078504e-05,0.0931148082017898,0,0,0
16134,561675.9500597044,2010-11-08 02:25:42,2131.0764734957647,7,49,-1.0997490882873535,3.5846493244171143,48.11432580407235,47.84812065303241,192.08759422759144,174.6469675464038,-6.47544875391759e-05,0.0931148082017898,0,0,0
16135,561705.9656683514,2010-11-08 02:26:12,2161.092082137721,7,49,-1.0997490882873535,3.581735372543335,48.11432580407235,47.85729057036991,192.08759422759144,174.67982472732294,-6.47544875391759e-05,0.0931148082017898,0,0,0
16136,561735.9808440576,2010-11-08 02:26:42,2191.107257854028,7,49,-1.0997490882873535,3.578821420669556,48.11432580407235,47.866460285041626,192.08759422759144,174.71265469551923,-6.47544875391759e-05,0.0931148082017898,0,0,0
16137,561765.9962061542,2010-11-08 02:27:12,2221.122619940544,7,49,-1.099929690361023,3.5759074687957764,48.11432580407235,47.8756301576596,192.08759422759144,174.74545878377822,-6.47544875391759e-05,0.0931148082017898,0,0,0
16138,561796.0116575938,2010-11-08 02:27:42,2251.1380714753363,7,49,-1.099929690361023,3.573155403137207,48.11432580407235,47.88480008779598,192.08759422759144,174.77823642548623,-6.47544875391759e-05,0.0931148082017898,0,0,0
16139,561826.0270153043,2010-11-08 02:28:12,2281.153429100717,7,49,-1.099929690361023,3.570241451263428,48.11432580407235,47.89396991197852,192.08759422759144,174.8109869749492,-6.47544875391759e-05,0.0931148082017898,0,0,0
16140,561856.0423561279,2010-11-08 02:28:42,2311.168769924157,7,49,-1.0997490882873535,3.5673274993896484,48.11432580407235,47.90313980025638,192.08759422759144,174.84371061507613,-3.237724376958795e-05,0.0931148082017898,0,0,0
16141,561886.0577339085,2010-11-08 02:29:12,2341.184147704848,7,49,-1.0997490882873535,3.564089775085449,48.11432580407235,47.91230972165493,192.08759422759144,174.87640656644558,-9.713172767078504e-05,0.0931148082017898,0,0,0
16142,561916.073117629,2010-11-08 02:29:42,2371.1995314153405,7,49,-1.099929690361023,3.56085205078125,48.11432580407235,47.921479513408805,192.08759422759144,174.90907421073996,-9.713172767078504e-05,0.0931148082017898,0,0,0
16143,561946.0885232291,2010-11-08 02:30:12,2401.2149370154734,7,49,-1.0997490882873535,3.5577762126922607,48.11432580407235,47.930649357580975,192.08759422759144,174.94171350064073,-9.713172767078504e-05,0.0931148082017898,0,0,0
16144,561976.1040124882,2010-11-08 02:30:42,2431.230426279444,7,49,-1.0997490882873535,3.5547003746032715,48.11432580407235,47.93981924745076,192.08759422759144,174.9743233166227,-6.47544875391759e-05,0.0931148082017898,0,0,0
16145,562006.1192662091,2010-11-08 02:31:12,2461.245680005476,7,49,-1.0997490882873535,3.5511388778686523,48.11432580407235,47.94898913968631,192.08759422759144,175.00690292344234,-9.713172767078504e-05,0.0931148082017898,0,0,0
16146,562036.1346569271,2010-11-08 02:31:42,2491.261070713435,7,49,-1.0997490882873535,3.547739267349243,48.11432580407235,47.95815903227061,192.08759422759144,175.03945147464245,-9.713172767078504e-05,0.0931148082017898,0,0,0
16147,562066.1500386477,2010-11-08 02:32:12,2521.2764524389727,7,49,-1.0997490882873535,3.544339656829834,48.11432580407235,47.96732895435832,192.08759422759144,175.07196814436574,-9.713172767078504e-05,0.0931148082017898,0,0,0
16148,562096.1655364629,2010-11-08 02:32:42,2551.291950259301,7,49,-1.099929690361023,3.540616273880005,48.11432580407235,47.97649887613819,192.08759422759144,175.10445162125134,-9.713172767078504e-05,0.0931148082017898,0,0,0
16149,562126.1807968506,2010-11-08 02:33:12,2581.3072106419486,7,49,-1.0997490882873535,3.536569118499756,48.11432580407235,47.98566876713483,192.08759422759144,175.13690075538463,-9.713172767078504e-05,0.0931148082017898,0,0,0
16150,562156.1988155685,2010-11-08 02:33:42,2611.3252294400254,7,49,-1.0997490882873535,3.532683849334717,48.11432580407235,47.994839482732914,192.08759422759144,175.16931702817624,-0.0001618862152099,0.0931148082017898,0,0,0
16151,562186.2119072226,2010-11-08 02:34:12,2641.338321019005,7,49,-1.0997490882873535,3.5287985801696777,48.11432580407235,48.00400864305751,192.08759422759144,175.20169046396754,-6.47544875391759e-05,0.0931148082017898,0,0,0
16152,562216.2269726336,2010-11-08 02:34:42,2671.3533864299734,7,49,-1.099929690361023,3.524265766143799,48.11432580407235,48.01317850516101,192.08759422759144,175.23402747290942,-0.0001618862152099,0.0931148082017898,0,0,0
16153,562246.2423282891,2010-11-08 02:35:12,2701.368742080424,7,49,-1.0997490882873535,3.51989483833313,48.11432580407235,48.022348417397495,192.08759422759144,175.26632437041266,-9.713172767078504e-05,0.0931148082017898,0,0,0
16154,562276.257707764,2010-11-08 02:35:42,2731.384121550331,7,49,-1.099929690361023,3.514876365661621,48.11432580407235,48.03151830761751,192.08759422759144,175.29857885341113,-0.0001618862152099,0.0931148082017898,0,0,0
16155,562306.2730948029,2010-11-08 02:36:12,2761.399508599157,7,49,-1.0997490882873535,3.5100200176239014,48.11432580407235,48.04068818485072,192.08759422759144,175.33078852109628,-0.0001295089750783,0.0931148082017898,0,0,0
16156,562336.2885897158,2010-11-08 02:36:42,2791.415003507216,7,49,-1.099568486213684,3.5046777725219727,48.11432580407235,48.04985807260369,192.08759422759144,175.36295010154336,-0.0001295089750783,0.0931148082017898,0,0,0
16157,562366.3038695521,2010-11-08 02:37:12,2821.4302833484358,7,49,-1.099929690361023,3.498526096343994,48.11432580407235,48.05902786953661,192.08759422759144,175.39505855185297,-0.0001942634553415,0.0931148082017898,0,0,0
16158,562396.3192386462,2010-11-08 02:37:42,2851.445652432418,7,49,-1.0997490882873535,3.491726875305176,48.11432580407235,48.06819779889989,192.08759422759144,175.42710898247324,-0.0001618862152099,0.0931148082017898,0,0,0
16159,562426.3347719951,2010-11-08 02:38:12,2881.461185781432,7,49,-1.099929690361023,3.484118223190308,48.11432580407235,48.07736776060165,192.08759422759144,175.4590934664358,-0.0002266406954731,0.0931148082017898,0,0,0
16160,562456.3504089727,2010-11-08 02:38:42,2911.476822779168,7,49,-1.099929690361023,3.47505259513855,48.11432580407235,48.08653772864492,192.08759422759144,175.4910012078208,-0.0002266406954731,0.0931148082017898,0,0,0
16161,562486.3653854668,2010-11-08 02:39:12,2941.4917992781984,7,49,-1.0997490882873535,3.4642062187194824,48.11432580407235,48.0957074226331,192.08759422759144,175.52281743278945,-0.0002913951757363,0.0931148082017898,0,0,0
16162,562516.3807589367,2010-11-08 02:39:42,2971.5071727230666,7,49,-1.0997490882873535,3.451255321502685,48.11432580407235,48.10487730707866,192.08759422759144,175.5545255671395,-0.0003237724304199,0.0931148082017898,0,0,0
16163,562546.3961488827,2010-11-08 02:40:12,3001.522562694187,7,49,-1.0997490882873535,3.434742927551269,48.11432580407235,48.114047247124,192.08759422759144,175.5860998455092,-0.0004856586456298,0.0931148082017898,0,0,0
16164,562576.4115557511,2010-11-08 02:40:42,3031.537969542435,7,49,-1.099929690361023,3.413536071777344,48.11432580407235,48.12321712833938,192.08759422759144,175.61750378657223,-0.0006799221155233,0.0931148082017898,0,0,0
16165,562606.4270541678,2010-11-08 02:41:12,3061.55346795424,7,49,-1.0997490882873535,3.3856916427612305,48.11432580407235,48.13238703111491,192.08759422759144,175.6486844503006,-0.0008094310760498,0.0931148082017898,0,0,0
16166,562636.4422544705,2010-11-08 02:41:42,3091.5686682669434,7,49,-1.099929690361023,3.346839189529419,48.11432580407235,48.14155692800472,192.08759422759144,175.67956221164818,-0.0011979102855548,0.0931148082017898,0,0,0
16167,562666.4578904909,2010-11-08 02:42:12,3121.584304277216,7,49,-1.0997490882873535,3.292769193649292,48.11432580407235,48.15072692207957,192.08759422759144,175.71001901424745,-0.0016512393485754,0.0931148082017898,0,0,0
16168,562696.4732065476,2010-11-08 02:42:42,3151.599620353883,7,49,-1.0997490882873535,3.2160353660583496,48.11432580407235,48.1598968376074,192.08759422759144,175.73988240111908,-0.0023635388351976,0.0931148082017898,0,0,0
16169,562726.4884307649,2010-11-08 02:43:12,3181.6148445512067,7,49,-1.0997490882873535,3.1006109714508057,48.11432580407235,48.169066751002745,192.08759422759144,175.76888316547834,-0.0037233352195471,0.0931148082017898,0,0,0
16170,562754.3007100327,2010-11-08 02:43:40,3209.4271238441343,7,49,-1.099929690361023,2.900358200073242,48.11432580407235,48.177563659567525,192.08759422759144,175.79450167682603,-0.0083533283323049,0.0931148082017898,0,0,0
16171,562768.9880874263,2010-11-08 02:43:55,3224.1145012126426,7,49,-1.0997490882873535,2.700267553329468,48.11432580407235,48.182050780336766,192.08759422759144,175.80708889429272,-0.0118500236421823,0.0931148082017898,0,0,0
16172,562769.0193797016,2010-11-08 02:43:55,3224.145793487976,7,49,-1.0997490882873535,2.699620008468628,48.11432580407235,48.18206033968436,192.08759422759144,175.80711470554527,-0.0119147775694727,0.0931148082017898,0,0,0
16173,562829.014140766,2010-11-08 02:44:55,60.01513005270849,8,49,0.0,3.284027338027954,48.11432580407235,48.18206033968436,192.08759422759144,175.80711470554527,0.0011655807029455,0.0931148082017898,0,0,0
16174,562829.1975403639,2010-11-08 02:44:55,0.187607963339258,9,49,-1.9243103452026844e-05,3.284351110458374,48.11432580407235,48.18206034068717,192.08759422759144,175.8071147088389,0.0,0.0931148082017898,0,0,0
16175,562834.0255724748,2010-11-08 02:45:00,5.015640189550069,9,49,0.0007031940040178,3.291959762573242,48.11432655989236,48.18206034077038,192.0875967132707,175.80711470911217,0.0010684489971026,0.0931148082017898,0,0,0
