Data_Point,Test_Time(s),Date_Time,Step_Time(s),Step_Index,Cycle_Index,Current(A),Voltage(V),Charge_Capacity(Ah),Discharge_Capacity(Ah),Charge_Energy(Wh),Discharge_Energy(Wh),dV/dt(V/s),Internal_Resistance(Ohm),Is_FC_Data,AC_Impedance(Ohm),ACI_Phase_Angle(Deg)
7576,264524.89108933805,2010-11-04 15:52:41,30.01527644774842,1,24,0.0,3.3691792488098145,22.571258715465444,22.6283467697808,90.16433604386202,82.49061030110826,0.0006799221155233,0.0955438911914825,0,0,0
7577,264554.90653265733,2010-11-04 15:53:11,60.03071988232164,1,24,0.0,3.392167091369629,22.571258715465444,22.6283467697808,90.16433604386202,82.49061030110826,0.0005827903514727,0.0955438911914825,0,0,0
7578,264584.9216390606,2010-11-04 15:53:41,90.04582617533767,1,24,0.0,3.409165143966675,22.571258715465444,22.6283467697808,90.16433604386202,82.49061030110826,0.0004209041653666,0.0955438911914825,0,0,0
7579,264614.89006003994,2010-11-04 15:54:11,120.01424714460326,1,24,0.0,3.422925472259521,22.571258715465444,22.6283467697808,90.16433604386202,82.49061030110826,0.0003561496851034,0.0955438911914825,0,0,0
7580,264644.91030646063,2010-11-04 15:54:41,30.015294472741573,2,24,0.5499359965324402,3.585458755493164,22.57584533205218,22.6283467697808,90.18061144541524,82.49061030110826,0.0016836166614666,0.0955438911914825,0,0,0
7581,264674.92565232166,2010-11-04 15:55:11,60.030640318718646,2,24,0.5501165986061096,3.635805130004883,22.580431977712315,22.6283467697808,90.19717943397796,82.49061030110826,0.0011008263099938,0.0955438911914825,0,0,0
7582,264704.9409460826,2010-11-04 15:55:41,90.04593407467101,2,24,0.5501165986061096,3.6728768348693848,22.58501855241513,22.6283467697808,90.21394404341248,82.49061030110826,0.0009065151098184,0.0955438911914825,0,0,0
7583,264734.95613323746,2010-11-04 15:56:11,120.06112131975586,2,24,0.5499359965324402,3.701530694961548,22.589605053984148,22.6283467697808,90.23085770596316,82.49061030110826,0.0007122993702068,0.0955438911914825,0,0,0
7584,264764.9715620255,2010-11-04 15:56:41,150.0765500225563,2,24,0.550297200679779,3.725489854812622,22.59419159631807,22.6283467697808,90.24789162210458,82.49061030110826,0.0006151676061563,0.0955438911914825,0,0,0
7585,264794.98669658904,2010-11-04 15:57:11,180.09168458614002,2,24,0.550297200679779,3.745239973068237,22.598778172353068,22.6283467697808,90.26502496551988,82.49061030110826,0.0005504131549969,0.0955438911914825,0,0,0
7586,264825.00199597405,2010-11-04 15:57:41,210.10698397114336,2,24,0.550297200679779,3.7611045837402335,22.603364789349733,22.6283467697808,90.28224033548896,82.49061030110826,0.0003885269106831,0.0955438911914825,0,0,0
7587,264855.017258452,2010-11-04 15:58:11,240.1222464440083,2,24,0.5501165986061096,3.771789073944092,22.60795140010877,22.6283467697808,90.2995170298378,82.49061030110826,0.0002590179501567,0.0955438911914825,0,0,0
7588,264885.03277445765,2010-11-04 15:58:41,270.13776246476783,2,24,0.5499359965324402,3.77810263633728,22.612538001135743,22.6283467697808,90.31683231177712,82.49061030110826,0.0001295089750783,0.0955438911914825,0,0,0
7589,264915.04782907164,2010-11-04 15:59:11,300.1528170637476,2,24,0.5501165986061096,3.782797336578369,22.617124619743883,22.6283467697808,90.33417189855686,82.49061030110826,0.0001618862152099,0.0955438911914825,0,0,0
7590,264945.0631290481,2010-11-04 15:59:41,330.1681170502524,2,24,0.5501165986061096,3.786358833312988,22.62171122653305,22.6283467697808,90.35153020312322,82.49061030110826,6.47544875391759e-05,0.0955438911914825,0,0,0
7591,264975.0784169846,2010-11-04 16:00:11,360.1834049816658,2,24,0.5501165986061096,3.7900822162628174,22.62629784586414,22.6283467697808,90.36890580254835,82.49061030110826,0.0001295089750783,0.0955438911914825,0,0,0
7592,265005.09367829456,2010-11-04 16:00:41,390.1986662866154,2,24,0.5501165986061096,3.793643712997437,22.63088452298991,22.6283467697808,90.38629815121465,82.49061030110826,6.47544875391759e-05,0.0955438911914825,0,0,0
7593,265035.1090063511,2010-11-04 16:01:11,420.2139943482,2,24,0.5501165986061096,3.797205209732056,22.635471225132505,22.6283467697808,90.40370669071852,82.49061030110826,9.713172767078504e-05,0.0955438911914825,0,0,0
7594,265065.1243892145,2010-11-04 16:01:41,450.2293772216032,2,24,0.5501165986061096,3.800766706466675,22.64005712278525,22.6283467697808,90.42112776662124,82.49061030110826,0.0001295089750783,0.0955438911914825,0,0,0
7595,265095.13966326125,2010-11-04 16:02:11,480.2446512683583,2,24,0.5499359965324402,3.803680658340454,22.644642956154797,22.6283467697808,90.43856382618908,82.49061030110826,6.47544875391759e-05,0.0955438911914825,0,0,0
7596,265125.1548225265,2010-11-04 16:02:41,510.2598105336012,2,24,0.5501165986061096,3.8070802688598633,22.649229524657283,22.6283467697808,90.45601781649802,82.49061030110826,9.713172767078504e-05,0.0955438911914825,0,0,0
7597,265155.1701209641,2010-11-04 16:03:11,540.2751089662273,2,24,0.5499359965324402,3.810156106948853,22.65381616862834,22.6283467697808,90.47348680903026,82.49061030110826,6.47544875391759e-05,0.0955438911914825,0,0,0
7598,265185.185520845,2010-11-04 16:03:41,570.2905088470836,2,24,0.550297200679779,3.8135557174682617,22.658402768639505,22.6283467697808,90.49097001916115,82.49061030110826,9.713172767078504e-05,0.0955438911914825,0,0,0
7599,265215.20065279707,2010-11-04 16:04:11,600.3056407991486,2,24,0.5501165986061096,3.816631555557251,22.662989331287985,22.6283467697808,90.50846766243576,82.49061030110826,9.713172767078504e-05,0.0955438911914825,0,0,0
7600,265245.2159537109,2010-11-04 16:04:41,630.3209417129682,2,24,0.5501165986061096,3.8195455074310303,22.66757588464173,22.6283467697808,90.52597925368822,82.49061030110826,3.237724376958795e-05,0.0955438911914825,0,0,0
7601,265275.23121620377,2010-11-04 16:05:11,660.3362042058832,2,24,0.5501165986061096,3.82262134552002,22.6721625054292,22.6283467697808,90.54350504549048,82.49061030110826,6.47544875391759e-05,0.0955438911914825,0,0,0
7602,265305.2466403903,2010-11-04 16:05:41,690.3516283924102,2,24,0.5501165986061096,3.825697183609009,22.67674915650107,22.6283467697808,90.5610448938923,82.49061030110826,9.713172767078504e-05,0.0955438911914825,0,0,0
7603,265335.2617794451,2010-11-04 16:06:11,720.3667674472048,2,24,0.550297200679779,3.828773021697998,22.681335728712885,22.6283467697808,90.57859858540982,82.49061030110826,6.47544875391759e-05,0.0955438911914825,0,0,0
7604,265365.2770684893,2010-11-04 16:06:41,750.3820564913958,2,24,0.5499359965324402,3.832010746002197,22.68592241075905,22.6283467697808,90.59616716010584,82.49061030110826,9.713172767078504e-05,0.0955438911914825,0,0,0
7605,265395.29249596904,2010-11-04 16:07:11,780.3974839711434,2,24,0.5501165986061096,3.8352482318878174,22.69050909777535,22.6283467697808,90.61375047923886,82.49061030110826,9.713172767078504e-05,0.0955438911914825,0,0,0
7606,265425.307648312,2010-11-04 16:07:41,810.4126363141071,2,24,0.5499359965324402,3.8384859561920166,22.69509575393523,22.6283467697808,90.63134880907076,82.49061030110826,9.713172767078504e-05,0.0955438911914825,0,0,0
7607,265455.3229115919,2010-11-04 16:08:11,840.4278995939866,2,24,0.550297200679779,3.841885566711426,22.699682444546365,22.6283467697808,90.6489625959375,82.49061030110826,9.713172767078504e-05,0.0955438911914825,0,0,0
7608,265485.33819760854,2010-11-04 16:08:41,870.4431856106203,2,24,0.5501165986061096,3.845285177230835,22.704269104578383,22.6283467697808,90.66659165308351,82.49061030110826,9.713172767078504e-05,0.0955438911914825,0,0,0
7609,265515.3534879159,2010-11-04 16:09:11,900.458475912952,2,24,0.5499359965324402,3.848361015319824,22.70885580452201,22.6283467697808,90.68423620005292,82.49061030110826,6.47544875391759e-05,0.0955438911914825,0,0,0
7610,265545.36866152694,2010-11-04 16:09:41,930.4736495290166,2,24,0.5501165986061096,3.8519225120544434,22.71344244854508,22.6283467697808,90.70189579335712,82.49061030110826,9.713172767078504e-05,0.0955438911914825,0,0,0
7611,265575.38404116227,2010-11-04 16:10:11,960.4890291643372,2,24,0.5501165986061096,3.8551602363586426,22.71802916165087,22.6283467697808,90.71957070097666,82.49061030110826,9.713172767078504e-05,0.0955438911914825,0,0,0
7612,265605.3992136856,2010-11-04 16:10:41,990.5042016926868,2,24,0.5501165986061096,3.858397960662842,22.722615823579197,22.6283467697808,90.73726026585392,82.49061030110826,9.713172767078504e-05,0.0955438911914825,0,0,0
7613,265635.41476328013,2010-11-04 16:11:11,1020.5197512872516,2,24,0.5501165986061096,3.861473798751831,22.72720251138661,22.6283467697808,90.75496442186795,82.49061030110826,6.47544875391759e-05,0.0955438911914825,0,0,0
7614,265665.4300541389,2010-11-04 16:11:41,1050.5350421409596,2,24,0.5501165986061096,3.86454963684082,22.73178915144061,22.6283467697808,90.77268267289328,82.49061030110826,9.713172767078504e-05,0.0955438911914825,0,0,0
7615,265695.4451872087,2010-11-04 16:12:11,1080.5501752108146,2,24,0.5499359965324402,3.8674635887146,22.73637571948637,22.6283467697808,90.79041452993528,82.49061030110826,6.47544875391759e-05,0.0955438911914825,0,0,0
7616,265725.460600087,2010-11-04 16:12:42,1110.5655880991396,2,24,0.5501165986061096,3.870377540588379,22.740962308914995,22.6283467697808,90.80815993995014,82.49061030110826,6.47544875391759e-05,0.0955438911914825,0,0,0
7617,265755.4757649262,2010-11-04 16:13:12,1140.5807529332835,2,24,0.5501165986061096,3.873129606246948,22.745548874040463,22.6283467697808,90.82591833041324,82.49061030110826,6.47544875391759e-05,0.0955438911914825,0,0,0
7618,265785.4910496295,2010-11-04 16:13:42,1170.5960376316268,2,24,0.5501165986061096,3.875719785690308,22.75013549124941,22.6283467697808,90.84368938073568,82.49061030110826,6.47544875391759e-05,0.0955438911914825,0,0,0
7619,265815.50633395696,2010-11-04 16:14:12,1200.6113219590438,2,24,0.5501165986061096,3.878471851348877,22.75472214367461,22.6283467697808,90.86147253955004,82.49061030110826,9.713172767078504e-05,0.0955438911914825,0,0,0
7620,265845.52161373803,2010-11-04 16:14:42,1230.6266017401128,2,24,0.550297200679779,3.8809001445770255,22.759308772287437,22.6283467697808,90.87926700503697,82.49061030110826,6.47544875391759e-05,0.0955438911914825,0,0,0
7621,265875.53688577475,2010-11-04 16:15:12,1260.6418737768508,2,24,0.5501165986061096,3.883166551589966,22.76389536420643,22.6283467697808,90.89707214896104,82.49061030110826,9.713172767078504e-05,0.0955438911914825,0,0,0
7622,265905.5523961364,2010-11-04 16:15:42,1290.6573841384843,2,24,0.5499359965324402,3.885109186172485,22.768482052198863,22.6283467697808,90.91488773612691,82.49061030110826,3.237724376958795e-05,0.0955438911914825,0,0,0
7623,265935.5674476226,2010-11-04 16:16:12,1320.672435624694,2,24,0.5499359965324402,3.887213706970215,22.773068612096395,22.6283467697808,90.93271227730484,82.49061030110826,3.237724376958795e-05,0.0955438911914825,0,0,0
7624,265965.5827397194,2010-11-04 16:16:42,1350.6877277215049,2,24,0.550297200679779,3.8891563415527344,22.77765528291819,22.6283467697808,90.95054615400304,82.49061030110826,3.237724376958795e-05,0.0955438911914825,0,0,0
7625,265995.5980110394,2010-11-04 16:17:12,1380.7029990414535,2,24,0.5501165986061096,3.890937089920044,22.782241972037763,22.6283467697808,90.96838832806512,82.49061030110826,6.47544875391759e-05,0.0955438911914825,0,0,0
7626,266025.61331390304,2010-11-04 16:17:42,1410.7183019051402,2,24,0.5497553944587708,3.8923940658569336,22.78682864293347,22.6283467697808,90.9862380837076,82.49061030110826,3.237724376958795e-05,0.0955438911914825,0,0,0
7627,266055.6287051524,2010-11-04 16:18:12,1440.733693154451,2,24,0.5499359965324402,3.894012928009033,22.791415304429187,22.6283467697808,91.00409504687696,82.49061030110826,3.237724376958795e-05,0.0955438911914825,0,0,0
7628,266085.6438507184,2010-11-04 16:18:42,1470.7488387204985,2,24,0.550297200679779,3.895308017730713,22.796002012405328,22.6283467697808,91.0219586812334,82.49061030110826,3.237724376958795e-05,0.0955438911914825,0,0,0
7629,266115.6593026091,2010-11-04 16:19:12,1500.7642906212045,2,24,0.550297200679779,3.8967649936676025,22.80058867769745,22.6283467697808,91.039828496691,82.49061030110826,0.0,0.0955438911914825,0,0,0
7630,266145.67444738816,2010-11-04 16:19:42,1530.7794353902627,2,24,0.5501165986061096,3.898060083389282,22.805175227784925,22.6283467697808,91.0577040357737,82.49061030110826,3.237724376958795e-05,0.0955438911914825,0,0,0
7631,266175.6897024425,2010-11-04 16:20:12,1560.7946904446098,2,24,0.5501165986061096,3.899355173110962,22.80976179600551,22.6283467697808,91.0755857015607,82.49061030110826,0.0,0.0955438911914825,0,0,0
7632,266205.70497532137,2010-11-04 16:20:42,1590.8099633234497,2,24,0.5499359965324402,3.9006502628326416,22.814348476815344,22.6283467697808,91.09347369733015,82.49061030110826,3.237724376958795e-05,0.0955438911914825,0,0,0
7633,266235.7202899945,2010-11-04 16:21:12,1620.825277996615,2,24,0.5501165986061096,3.901945352554321,22.818935077858768,22.6283467697808,91.11136723322348,82.49061030110826,6.47544875391759e-05,0.0955438911914825,0,0,0
7634,266265.735556723,2010-11-04 16:21:42,1650.8405447301147,2,24,0.5501165986061096,3.903078556060791,22.82352167275752,22.6283467697808,91.1292665400257,82.49061030110826,6.47544875391759e-05,0.0955438911914825,0,0,0
7635,266295.7508265292,2010-11-04 16:22:12,1680.8558145312722,2,24,0.550297200679779,3.9045355319976807,22.8281083039552,22.6283467697808,91.14717185519456,82.49061030110826,6.47544875391759e-05,0.0955438911914825,0,0,0
7636,266325.76628385845,2010-11-04 16:22:42,1710.8712719457417,2,24,0.5499359965324402,3.905506849288941,22.832694995421875,22.6283467697808,91.16508310356326,82.49061030110826,3.237724376958795e-05,0.0955438911914825,0,0,0
7637,266355.78139648226,2010-11-04 16:23:12,1740.88638448936,2,24,0.5499359965324402,3.90696382522583,22.837281541609126,22.6283467697808,91.18299961497716,82.49061030110826,3.237724376958795e-05,0.0955438911914825,0,0,0
7638,266385.7966898021,2010-11-04 16:23:42,1770.9016778042114,2,24,0.5501165986061096,3.9082589149475098,22.841868103380573,22.6283467697808,91.20092205784826,82.49061030110826,3.237724376958795e-05,0.0955438911914825,0,0,0
7639,266415.8119512023,2010-11-04 16:24:12,1800.916939204399,2,24,0.5501165986061096,3.90939211845398,22.84645469355815,22.6283467697808,91.21885052803512,82.49061030110826,3.237724376958795e-05,0.0955438911914825,0,0,0
7640,266445.8273813738,2010-11-04 16:24:42,1830.9323693808776,2,24,0.5499359965324402,3.910687208175659,22.851041268516173,22.6283467697808,91.23678473039035,82.49061030110826,3.237724376958795e-05,0.0955438911914825,0,0,0
7641,266475.8425172607,2010-11-04 16:25:12,1860.947505262752,2,24,0.5501165986061096,3.912144184112549,22.8556278139042,22.6283467697808,91.2547247845674,82.49061030110826,3.237724376958795e-05,0.0955438911914825,0,0,0
7642,266505.8578090617,2010-11-04 16:25:42,1890.9627970939,2,24,0.550297200679779,3.913439273834229,22.86021439092353,22.6283467697808,91.2726709374012,82.49061030110826,6.47544875391759e-05,0.0955438911914825,0,0,0
7643,266535.8730820809,2010-11-04 16:26:12,1920.9780700830147,2,24,0.550297200679779,3.914734125137329,22.864801016001596,22.6283467697808,91.29062330125494,82.49061030110826,0.0,0.0955438911914825,0,0,0
7644,266565.88836314017,2010-11-04 16:26:42,1950.9933511422744,2,24,0.5501165986061096,3.916029214859009,22.869387673101635,22.6283467697808,91.30858167951132,82.49061030110826,6.47544875391759e-05,0.0955438911914825,0,0,0
7645,266595.9037971111,2010-11-04 16:27:12,1981.00878512325,2,24,0.550297200679779,3.9174861907958975,22.873974279678063,22.6283467697808,91.3265460108722,82.49061030110826,6.47544875391759e-05,0.0955438911914825,0,0,0
7646,266625.9190931127,2010-11-04 16:27:42,2011.024081119795,2,24,0.550297200679779,3.918619394302368,22.878560888645357,22.6283467697808,91.344516554377,82.49061030110826,3.237724376958795e-05,0.0955438911914825,0,0,0
7647,266655.93423156097,2010-11-04 16:28:12,2041.0392195630632,2,24,0.5501165986061096,3.920076370239258,22.883147500339376,22.6283467697808,91.36249341914012,82.49061030110826,3.237724376958795e-05,0.0955438911914825,0,0,0
7648,266685.9496251211,2010-11-04 16:28:42,2071.0546131281544,2,24,0.5501165986061096,3.9213714599609375,22.887734209135736,22.6283467697808,91.38047692956934,82.49061030110826,0.0,0.0955438911914825,0,0,0
7649,266715.9647720906,2010-11-04 16:29:12,2101.069760092693,2,24,0.5501165986061096,3.922828435897827,22.89232078101117,22.6283467697808,91.39846627381904,82.49061030110826,0.0,0.0955438911914825,0,0,0
7650,266745.9802079613,2010-11-04 16:29:42,2131.085195973411,2,24,0.5499359965324402,3.924285411834717,22.896907449242505,22.6283467697808,91.41646242832796,82.49061030110826,6.47544875391759e-05,0.0955438911914825,0,0,0
7651,266775.99536907615,2010-11-04 16:30:12,2161.100357078245,2,24,0.5501165986061096,3.925580501556397,22.90149404023333,22.6283467697808,91.43446479994884,82.49061030110826,0.0,0.0955438911914825,0,0,0
7652,266806.011029748,2010-11-04 16:30:42,2191.116017775139,2,24,0.5501165986061096,3.927037477493286,22.90608076344793,22.6283467697808,91.4524740853553,82.49061030110826,3.237724376958795e-05,0.0955438911914825,0,0,0
7653,266836.02590651804,2010-11-04 16:31:12,2221.130894520168,2,24,0.5501165986061096,3.9286563396453857,22.910667330733624,22.6283467697808,91.47048938239324,82.49061030110826,6.47544875391759e-05,0.0955438911914825,0,0,0
7654,266866.0415526386,2010-11-04 16:31:42,2251.1465406607263,2,24,0.550297200679779,3.9301133155822754,22.91525405438009,22.6283467697808,91.48851185594148,82.49061030110826,3.237724376958795e-05,0.0955438911914825,0,0,0
7655,266896.0564740301,2010-11-04 16:32:12,2281.1614620321498,2,24,0.5501165986061096,3.931408405303955,22.919840627278084,22.6283467697808,91.50654037857156,82.49061030110826,3.237724376958795e-05,0.0955438911914825,0,0,0
7656,266926.0717491044,2010-11-04 16:32:42,2311.1767371064693,2,24,0.550297200679779,3.933027267456055,22.924427297359557,22.6283467697808,91.52457597771344,82.49061030110826,3.237724376958795e-05,0.0955438911914825,0,0,0
7657,266956.08704283024,2010-11-04 16:33:12,2341.192030832347,2,24,0.5499359965324402,3.9343223571777344,22.92901390181467,22.6283467697808,91.54261814762512,82.49061030110826,3.237724376958795e-05,0.0955438911914825,0,0,0
7658,266986.10232781933,2010-11-04 16:33:42,2371.207315821416,2,24,0.5501165986061096,3.935779333114624,22.933600530528715,22.6283467697808,91.56066727898413,82.49061030110826,0.0,0.0955438911914825,0,0,0
7659,267016.11775873764,2010-11-04 16:34:12,2401.222746749772,2,24,0.5499359965324402,3.9372363090515137,22.93818731156821,22.6283467697808,91.57872371105096,82.49061030110826,0.0,0.0955438911914825,0,0,0
7660,267046.1328825444,2010-11-04 16:34:42,2431.23787054648,2,24,0.550297200679779,3.9390170574188232,22.942774000371383,22.6283467697808,91.59678682646832,82.49061030110826,9.713172767078504e-05,0.0955438911914825,0,0,0
7661,267076.14830517204,2010-11-04 16:35:12,2461.253293174116,2,24,0.5499359965324402,3.940474033355713,22.94736065190996,22.6283467697808,91.61485677578467,82.49061030110826,3.237724376958795e-05,0.0955438911914825,0,0,0
7662,267106.16347760515,2010-11-04 16:35:42,2491.26846561224,2,24,0.5501165986061096,3.942092895507813,22.951947285890444,22.6283467697808,91.6329337237257,82.49061030110826,6.47544875391759e-05,0.0955438911914825,0,0,0
7663,267136.17875784734,2010-11-04 16:36:12,2521.2837458544595,2,24,0.5499359965324402,3.943549871444702,22.95653394104079,22.6283467697808,91.65101796046518,82.49061030110826,6.47544875391759e-05,0.0955438911914825,0,0,0
7664,267166.1940080797,2010-11-04 16:36:42,2551.2989961068206,2,24,0.5501165986061096,3.9451687335968018,22.961120638846733,22.6283467697808,91.66910960727724,82.49061030110826,3.237724376958795e-05,0.0955438911914825,0,0,0
7665,267196.20943750424,2010-11-04 16:37:12,2581.3144255113725,2,24,0.5501165986061096,3.946787595748901,22.965707311096036,22.6283467697808,91.68720853054003,82.49061030110826,3.237724376958795e-05,0.0955438911914825,0,0,0
7666,267226.2245930302,2010-11-04 16:37:42,2611.3295810322693,2,24,0.5501165986061096,3.948244571685791,22.970293969548504,22.6283467697808,91.70531470710849,82.49061030110826,3.237724376958795e-05,0.0955438911914825,0,0,0
7667,267256.2399833471,2010-11-04 16:38:12,2641.3449713592777,2,24,0.5501165986061096,3.94986343383789,22.97488061470196,22.6283467697808,91.72342827638649,82.49061030110826,0.0,0.0955438911914825,0,0,0
7668,267286.25528156426,2010-11-04 16:38:42,2671.360269571353,2,24,0.550297200679779,3.95180606842041,22.97946722928843,22.6283467697808,91.74154926317028,82.49061030110826,6.47544875391759e-05,0.0955438911914825,0,0,0
7669,267316.2705426587,2010-11-04 16:39:12,2701.375530660765,2,24,0.5499359965324402,3.95310115814209,22.984053822801705,22.6283467697808,91.75967763971644,82.49061030110826,3.237724376958795e-05,0.0955438911914825,0,0,0
7670,267346.2858652466,2010-11-04 16:39:42,2731.390853258711,2,24,0.5501165986061096,3.95504379272461,22.988640501931226,22.6283467697808,91.77781395508472,82.49061030110826,6.47544875391759e-05,0.0955438911914825,0,0,0
7671,267376.3009962112,2010-11-04 16:40:12,2761.405984213286,2,24,0.5501165986061096,3.956500768661499,22.993227140305496,22.6283467697808,91.79595781756336,82.49061030110826,0.0,0.0955438911914825,0,0,0
7672,267406.3162748895,2010-11-04 16:40:42,2791.4212628916025,2,24,0.5501165986061096,3.9584434032440186,22.99781383453486,22.6283467697808,91.8141095451105,82.49061030110826,9.713172767078504e-05,0.0955438911914825,0,0,0
7673,267436.33155178337,2010-11-04 16:41:12,2821.43653981554,2,24,0.5501165986061096,3.959900379180908,23.00240040020816,22.6283467697808,91.8322686270012,82.49061030110826,3.237724376958795e-05,0.0955438911914825,0,0,0
7674,267466.3468447875,2010-11-04 16:41:42,2851.45183278954,2,24,0.5501165986061096,3.961843013763428,23.006987017729628,22.6283467697808,91.85043581525248,82.49061030110826,6.47544875391759e-05,0.0955438911914825,0,0,0
7675,267496.3621428692,2010-11-04 16:42:12,2881.4671308712905,2,24,0.5501165986061096,3.9634618759155273,23.01157363210556,22.6283467697808,91.86861083592372,82.49061030110826,3.237724376958795e-05,0.0955438911914825,0,0,0
7676,267526.37739835965,2010-11-04 16:42:42,2911.482386361726,2,24,0.5501165986061096,3.965242624282837,23.0161602636064,22.6283467697808,91.88679395242026,82.49061030110826,3.237724376958795e-05,0.0955438911914825,0,0,0
7677,267556.3928086415,2010-11-04 16:43:12,2941.497796648557,2,24,0.5501165986061096,3.967185258865357,23.02074692543077,22.6283467697808,91.90498529884012,82.49061030110826,9.713172767078504e-05,0.0955438911914825,0,0,0
7678,267586.4079980319,2010-11-04 16:43:42,2971.512986033985,2,24,0.5501165986061096,3.968804121017456,23.025333604282064,22.6283467697808,91.92318481001128,82.49061030110826,3.237724376958795e-05,0.0955438911914825,0,0,0
7679,267616.42324308626,2010-11-04 16:44:12,3001.5282310883704,2,24,0.5501165986061096,3.970746755599976,23.02992026554268,22.6283467697808,91.94139242208232,82.49061030110826,0.0001295089750783,0.0955438911914825,0,0,0
7680,267646.43852423574,2010-11-04 16:44:43,3031.543512237856,2,24,0.550297200679779,3.972527503967285,23.034506952214755,22.6283467697808,91.95960846957551,82.49061030110826,3.237724376958795e-05,0.0955438911914825,0,0,0
7681,267676.4538036359,2010-11-04 16:45:13,3061.558791637973,2,24,0.5501165986061096,3.9741463661193848,23.039093623297656,22.6283467697808,91.9778326842668,82.49061030110826,-3.237724376958795e-05,0.0955438911914825,0,0,0
7682,267706.46912585787,2010-11-04 16:45:43,3091.574113859981,2,24,0.5501165986061096,3.976089000701904,23.04368037310094,22.6283467697808,91.99606567862295,82.49061030110826,6.47544875391759e-05,0.0955438911914825,0,0,0
7683,267736.48445344326,2010-11-04 16:46:13,3121.5894415606645,2,24,0.550297200679779,3.977869749069214,23.048267043508048,22.6283467697808,92.01430682638566,82.49061030110826,6.47544875391759e-05,0.0955438911914825,0,0,0
7684,267766.4997832141,2010-11-04 16:46:43,3151.604771216228,2,24,0.5501165986061096,3.979812383651733,23.05285364316393,22.6283467697808,92.03255588711758,82.49061030110826,6.47544875391759e-05,0.0955438911914825,0,0,0
7685,267796.51490845944,2010-11-04 16:47:13,3181.619896486615,2,24,0.5499359965324402,3.981593132019043,23.057440156383887,22.6283467697808,92.05081360996968,82.49061030110826,0.0,0.0955438911914825,0,0,0
7686,267826.5303980342,2010-11-04 16:47:43,3211.635386066373,2,24,0.5499359965324402,3.983373880386353,23.062026747848765,22.6283467697808,92.06908036510568,82.49061030110826,0.0,0.0955438911914825,0,0,0
7687,267856.5454773549,2010-11-04 16:48:13,3241.65046538205,2,24,0.5501165986061096,3.985478401184082,23.066613225124183,22.6283467697808,92.08735547443908,82.49061030110826,3.237724376958795e-05,0.0955438911914825,0,0,0
7688,267886.560748344,2010-11-04 16:48:43,3271.6657363711724,2,24,0.5499359965324402,3.987582921981812,23.07119992799865,22.6283467697808,92.10564041133448,82.49061030110826,9.713172767078504e-05,0.0955438911914825,0,0,0
7689,267916.5760527666,2010-11-04 16:49:13,3301.681040768688,2,24,0.5501165986061096,3.989363670349121,23.0757865230941,22.6283467697808,92.1239337845416,82.49061030110826,3.237724376958795e-05,0.0955438911914825,0,0,0
7690,267946.5914652289,2010-11-04 16:49:43,3331.696453235962,2,24,0.5501165986061096,3.9913063049316406,23.08037306796749,22.6283467697808,92.14223604010486,82.49061030110826,6.47544875391759e-05,0.0955438911914825,0,0,0
7691,267976.60672830325,2010-11-04 16:50:13,3361.711716305316,2,24,0.550297200679779,3.99341082572937,23.08495960274851,22.6283467697808,92.16054741209652,82.49061030110826,3.237724376958795e-05,0.0955438911914825,0,0,0
7692,268006.6218740748,2010-11-04 16:50:43,3391.726862076877,2,24,0.550297200679779,3.9956769943237305,23.089546132942267,22.6283467697808,92.17886802353122,82.49061030110826,9.713172767078504e-05,0.0955438911914825,0,0,0
7693,268036.6373132738,2010-11-04 16:51:13,3421.7423012859026,2,24,0.5501165986061096,3.99745774269104,23.09413264952016,22.6283467697808,92.1971979591072,82.49061030110826,3.237724376958795e-05,0.0955438911914825,0,0,0
7694,268066.6524526544,2010-11-04 16:51:43,3451.7574406614976,2,24,0.5499359965324402,3.9995622634887695,23.0987192566118,22.6283467697808,92.21553770615924,82.49061030110826,6.47544875391759e-05,0.0955438911914825,0,0,0
7695,268096.6677328565,2010-11-04 16:52:13,3481.7727208586048,2,24,0.5499359965324402,4.001667022705078,23.103305814154385,22.6283467697808,92.23388689287552,82.49061030110826,6.47544875391759e-05,0.0955438911914825,0,0,0
7696,268126.68319914315,2010-11-04 16:52:43,3511.788187180308,2,24,0.5499359965324402,4.0037713050842285,23.107892370476897,22.6283467697808,92.25224585762474,82.49061030110826,3.23295607813634e-05,0.0955438911914825,0,0,0
7697,268156.69828652893,2010-11-04 16:53:13,3541.8032745310406,2,24,0.5501165986061096,4.006037712097168,23.11247897285811,22.6283467697808,92.27061478011058,82.49061030110826,6.47544875391759e-05,0.0955438911914825,0,0,0
7698,268186.7137084398,2010-11-04 16:53:43,3571.8186964469,2,24,0.5501165986061096,4.008142471313477,23.117065592976616,22.6283467697808,92.2889937415318,82.49061030110826,6.47544875391759e-05,0.0955438911914825,0,0,0
7699,268216.7289894189,2010-11-04 16:54:13,3601.833977430972,2,24,0.5499359965324402,4.010408878326416,23.12165219417876,22.6283467697808,92.30738261761654,82.49061030110826,3.24249267578125e-05,0.0955438911914825,0,0,0
7700,268246.7441875812,2010-11-04 16:54:43,3631.849175668496,2,24,0.5501165986061096,4.012675285339356,23.126238715770324,22.6283467697808,92.32578134394282,82.49061030110826,9.71794142969884e-05,0.0955438911914825,0,0,0
7701,268276.7594223399,2010-11-04 16:55:13,3661.864410341969,2,24,0.5501165986061096,4.014779567718506,23.130825363721865,22.6283467697808,92.34419086516388,82.49061030110826,6.47544875391759e-05,0.0955438911914825,0,0,0
7702,268306.7748498848,2010-11-04 16:55:43,3691.8798378918914,2,24,0.5501165986061096,4.017208099365234,23.135412054588528,22.6283467697808,92.36261095532012,82.49061030110826,9.71794142969884e-05,0.0955438911914825,0,0,0
7703,268336.7900102127,2010-11-04 16:56:13,3721.894998214774,2,24,0.5501165986061096,4.019312381744385,23.139998667900983,22.6283467697808,92.38104122046563,82.49061030110826,6.47544875391759e-05,0.0955438911914825,0,0,0
7704,268366.805265638,2010-11-04 16:56:43,3751.910253640048,2,24,0.5501165986061096,4.021740913391113,23.14458525464437,22.6283467697808,92.39948185879425,82.49061030110826,3.24249267578125e-05,0.0955438911914825,0,0,0
7705,268396.82067215035,2010-11-04 16:57:13,3781.9256601624825,2,24,0.5501165986061096,4.024007320404053,23.149171897551216,22.6283467697808,92.41793340764468,82.49061030110826,3.24249267578125e-05,0.0955438911914825,0,0,0
7706,268426.8359227586,2010-11-04 16:57:43,3811.940910770731,2,24,0.5501165986061096,4.026435375213623,23.1537585047278,22.6283467697808,92.43639550101844,82.49061030110826,3.23295607813634e-05,0.0955438911914825,0,0,0
7707,268456.8511175676,2010-11-04 16:58:13,3841.956105569672,2,24,0.5501165986061096,4.028863906860352,23.15834511675965,22.6283467697808,92.4548684481177,82.49061030110826,9.71794142969884e-05,0.0955438911914825,0,0,0
7708,268486.86639063695,2010-11-04 16:58:43,3871.971378644,2,24,0.5499359965324402,4.031130313873291,23.16293170043809,22.6283467697808,92.47335210563982,82.49061030110826,6.47544875391759e-05,0.0955438911914825,0,0,0
7709,268516.8818241667,2010-11-04 16:59:13,3901.986812188887,2,24,0.5501165986061096,4.033558368682861,23.1675183316198,22.6283467697808,92.49184692280932,82.49061030110826,6.47544875391759e-05,0.0955438911914825,0,0,0
7710,268546.8971109101,2010-11-04 16:59:43,3932.002098912285,2,24,0.5499359965324402,4.035986423492432,23.17210493675957,22.6283467697808,92.51035270261882,82.49061030110826,6.47544875391759e-05,0.0955438911914825,0,0,0
7711,268576.91224072693,2010-11-04 17:00:13,3962.01722872902,2,24,0.5501165986061096,4.038252830505371,23.176691478171527,22.6283467697808,92.5288694334706,82.49061030110826,6.47544875391759e-05,0.0955438911914825,0,0,0
7712,268606.927521721,2010-11-04 17:00:43,3992.0325097231166,2,24,0.5501165986061096,4.0408430099487305,23.181278089923268,22.6283467697808,92.5473975990675,82.49061030110826,6.47544875391759e-05,0.0955438911914825,0,0,0
7713,268636.94280205347,2010-11-04 17:01:13,4022.047790055562,2,24,0.5501165986061096,4.04343318939209,23.185864657718906,22.6283467697808,92.5659368614162,82.49061030110826,9.70840483205393e-05,0.0955438911914825,0,0,0
7714,268666.95809621044,2010-11-04 17:01:43,4052.063084212515,2,24,0.5501165986061096,4.045861721038818,23.190451249649797,22.6283467697808,92.58448763548576,82.49061030110826,6.47544875391759e-05,0.0955438911914825,0,0,0
7715,268696.9733650542,2010-11-04 17:02:13,4082.0783530562826,2,24,0.5499359965324402,4.048289775848389,23.19503778809488,22.6283467697808,92.60304981135758,82.49061030110826,3.23295607813634e-05,0.0955438911914825,0,0,0
7716,268726.9888523332,2010-11-04 17:02:43,4112.093840345324,2,24,0.5499359965324402,4.050879955291748,23.19962439387954,22.6283467697808,92.62162387700012,82.49061030110826,6.47544875391759e-05,0.0955438911914825,0,0,0
7717,268757.0039193131,2010-11-04 17:03:13,4142.108907340245,2,24,0.550297200679779,4.053470134735107,23.20421103668198,22.6283467697808,92.64020987965408,82.49061030110826,9.70840483205393e-05,0.0955438911914825,0,0,0
7718,268787.0193920658,2010-11-04 17:03:43,4172.124380067939,2,24,0.5501165986061096,4.056060314178467,23.208797746560304,22.6283467697808,92.65880812684888,82.49061030110826,9.70840483205393e-05,0.0955438911914825,0,0,0
7719,268817.0344844291,2010-11-04 17:04:13,4202.139472431184,2,24,0.5501165986061096,4.058812618255615,23.21338440411736,22.6283467697808,92.6774182576397,82.49061030110826,6.47544875391759e-05,0.0955438911914825,0,0,0
7720,268847.0497569269,2010-11-04 17:04:43,4232.154744929074,2,24,0.5501165986061096,4.0612406730651855,23.21797110688997,22.6283467697808,92.69604054356904,82.49061030110826,6.47544875391759e-05,0.0955438911914825,0,0,0
7721,268877.0650324524,2010-11-04 17:05:13,4262.17002045452,2,24,0.5499359965324402,4.064154624938965,23.222557804237248,22.6283467697808,92.7146749354486,82.49061030110826,9.70840483205393e-05,0.0955438911914825,0,0,0
7722,268907.08047389705,2010-11-04 17:05:43,4292.185461899125,2,24,0.5501165986061096,4.066906929016113,23.22714453824551,22.6283467697808,92.73332186477832,82.49061030110826,9.71794142969884e-05,0.0955438911914825,0,0,0
7723,268937.095738019,2010-11-04 17:06:13,4322.200726021107,2,24,0.5501165986061096,4.069658756256104,23.23173125458157,22.6283467697808,92.7519812764432,82.49061030110826,9.70840483205393e-05,0.0955438911914825,0,0,0
7724,268967.1109415848,2010-11-04 17:06:43,4352.2159295869305,2,24,0.5499359965324402,4.072087287902832,23.236317948341927,22.6283467697808,92.77065320404442,82.49061030110826,3.24249267578125e-05,0.0955438911914825,0,0,0
7725,268997.12616285484,2010-11-04 17:07:13,4382.231150856946,2,24,0.550297200679779,4.075001239776611,23.24090466290303,22.6283467697808,92.78933792420251,82.49061030110826,6.47544875391759e-05,0.0955438911914825,0,0,0
7726,269027.14145674114,2010-11-04 17:07:43,4412.246444743225,2,24,0.5501165986061096,4.077915191650391,23.24549138753452,22.6283467697808,92.80803550635572,82.49061030110826,9.71794142969884e-05,0.0955438911914825,0,0,0
7727,269057.15671730926,2010-11-04 17:08:13,4442.261705311335,2,24,0.550297200679779,4.080667018890381,23.25007807530461,22.6283467697808,92.82674590897624,82.49061030110826,9.70840483205393e-05,0.0955438911914825,0,0,0
7728,269087.1720097218,2010-11-04 17:08:43,4472.276997723934,2,24,0.5499359965324402,4.08358097076416,23.254664740624875,22.6283467697808,92.84546921814004,82.49061030110826,6.47544875391759e-05,0.0955438911914825,0,0,0
7729,269117.1873174577,2010-11-04 17:09:13,4502.292305459782,2,24,0.550297200679779,4.08649492263794,23.25925142862842,22.6283467697808,92.86420585479804,82.49061030110826,9.70840483205393e-05,0.0955438911914825,0,0,0
7730,269147.2025826173,2010-11-04 17:09:43,4532.3075706293785,2,24,0.5499359965324402,4.089247226715088,23.26383806004171,22.6283467697808,92.882955480722,82.49061030110826,3.24249267578125e-05,0.0955438911914825,0,0,0
7731,269177.21786215267,2010-11-04 17:10:13,4562.322850154809,2,24,0.5501165986061096,4.092484951019287,23.268424693901952,22.6283467697808,92.90171848738304,82.49061030110826,0.0001619339018361,0.0955438911914825,0,0,0
7732,269207.233119974,2010-11-04 17:10:43,4592.338107976063,2,24,0.550297200679779,4.095075130462647,23.27301141543297,22.6283467697808,92.92049533769838,82.49061030110826,3.24249267578125e-05,0.0955438911914825,0,0,0
7733,269237.2485313385,2010-11-04 17:11:13,4622.353519340585,2,24,0.5499359965324402,4.097989082336426,23.277598130284325,22.6283467697808,92.93928583993517,82.49061030110826,3.24249267578125e-05,0.0955438911914825,0,0,0
7734,269267.2636911,2010-11-04 17:11:43,4652.368679102066,2,24,0.5499359965324402,4.101064682006836,23.282184791844323,22.6283467697808,92.95808993959191,82.49061030110826,3.23295607813634e-05,0.0955438911914825,0,0,0
7735,269297.27897068555,2010-11-04 17:12:13,4682.38395871271,2,24,0.5501165986061096,4.104302406311035,23.28677148877227,22.6283467697808,92.97690798871297,82.49061030110826,6.47544875391759e-05,0.0955438911914825,0,0,0
7736,269327.29424550425,2010-11-04 17:12:43,4712.399233506329,2,24,0.5501165986061096,4.107378482818604,23.2913581708345,22.6283467697808,92.9957399875582,82.49061030110826,0.0001295089750783,0.0955438911914825,0,0,0
7737,269357.309653746,2010-11-04 17:13:13,4742.414641743044,2,24,0.5501165986061096,4.110292434692383,23.295944861081267,22.6283467697808,93.0145859912352,82.49061030110826,6.47544875391759e-05,0.0955438911914825,0,0,0
7738,269387.324836575,2010-11-04 17:13:43,4772.429824577117,2,24,0.5499359965324402,4.113206386566162,23.300531594408525,22.6283467697808,93.03344633201968,82.49061030110826,3.24249267578125e-05,0.0955438911914825,0,0,0
7739,269417.34015270177,2010-11-04 17:14:13,4802.445140819198,2,24,0.5501165986061096,4.116605758666992,23.30511830606915,22.6283467697808,93.05232074294504,82.49061030110826,6.47544875391759e-05,0.0955438911914825,0,0,0
7740,269447.3554969037,2010-11-04 17:14:43,4832.460485021072,2,24,0.5501165986061096,4.119681358337402,23.30970494631201,22.6283467697808,93.07120917934029,82.49061030110826,0.0001295089750783,0.0955438911914825,0,0,0
7741,269477.37077687524,2010-11-04 17:15:13,4862.475764877328,2,24,0.5501165986061096,4.122757434844971,23.31429167793293,22.6283467697808,93.09011260303792,82.49061030110826,6.47544875391759e-05,0.0955438911914825,0,0,0
7742,269507.385938346,2010-11-04 17:15:43,4892.490926348076,2,24,0.550297200679779,4.126156806945801,23.31887872653293,22.6283467697808,93.10903185867436,82.49061030110826,9.70840483205393e-05,0.0955438911914825,0,0,0
7743,269537.4012063125,2010-11-04 17:16:13,4922.506194314655,2,24,0.550297200679779,4.12939453125,23.32346610279164,22.6283467697808,93.12796715347147,82.49061030110826,9.70840483205393e-05,0.0955438911914825,0,0,0
7744,269567.41652636416,2010-11-04 17:16:44,4952.521514391307,2,24,0.5501165986061096,4.132632255554199,23.328053542232595,22.6283467697808,93.1469175732235,82.49061030110826,6.47544875391759e-05,0.0955438911914825,0,0,0
7745,269597.43178306764,2010-11-04 17:17:14,4982.536771069708,2,24,0.550297200679779,4.136032104492188,23.332640974739387,22.6283467697808,93.1658830419636,82.49061030110826,0.0001295089750783,0.0955438911914825,0,0,0
7746,269627.4470684126,2010-11-04 17:17:44,5012.5520564146655,2,24,0.5504778623580933,4.139431476593018,23.33722803362923,22.6283467697808,93.18486225690822,82.49061030110826,0.0001295089750783,0.0955438911914825,0,0,0
7747,269657.4623265095,2010-11-04 17:18:14,5042.567314511607,2,24,0.550297200679779,4.142507553100586,23.34181476851741,22.6283467697808,93.20385539279336,82.49061030110826,9.71794142969884e-05,0.0955438911914825,0,0,0
7748,269687.4778084853,2010-11-04 17:18:44,5072.582796487385,2,24,0.5501165986061096,4.146069049835205,23.34640151723229,22.6283467697808,93.22286405400358,82.49061030110826,0.0001295089750783,0.0955438911914825,0,0,0
7749,269717.49289672327,2010-11-04 17:19:14,5102.597884725334,2,24,0.5501165986061096,4.149468421936035,23.350988186902104,22.6283467697808,93.24188809790078,82.49061030110826,6.47544875391759e-05,0.0955438911914825,0,0,0
7750,269747.5083938819,2010-11-04 17:19:44,5132.613381884011,2,24,0.5501165986061096,4.152706146240234,23.355574798183085,22.6283467697808,93.26092749444597,82.49061030110826,6.47544875391759e-05,0.0955438911914825,0,0,0
7751,269777.52345645084,2010-11-04 17:20:14,5162.628444452885,2,24,0.550297200679779,4.156429767608643,23.360161340887817,22.6283467697808,93.27998237290812,82.49061030110826,0.0001619339018361,0.0955438911914825,0,0,0
7752,269807.5388679206,2010-11-04 17:20:44,5192.643856012894,2,24,0.5501165986061096,4.159667491912842,23.364747955939183,22.6283467697808,93.2990534741846,82.49061030110826,6.47544875391759e-05,0.0955438911914825,0,0,0
7753,269837.5540107347,2010-11-04 17:21:14,5222.658998736847,2,24,0.5499359965324402,4.163066864013672,23.369334542393897,22.6283467697808,93.31814051898655,82.49061030110826,6.47544875391759e-05,0.0955438911914825,0,0,0
7754,269867.5693093328,2010-11-04 17:21:44,5252.674297334886,2,24,0.550297200679779,4.16679048538208,23.373921141273964,22.6283467697808,93.33724363897733,82.49061030110826,0.0001295089750783,0.0955438911914825,0,0,0
7755,269897.5847012789,2010-11-04 17:22:14,5282.689689290961,2,24,0.5501165986061096,4.170351982116699,23.37850777909874,22.6283467697808,93.35636314422948,82.49061030110826,9.71794142969884e-05,0.0955438911914825,0,0,0
7756,269927.5998540829,2010-11-04 17:22:44,5312.704842090064,2,24,0.5501165986061096,4.173913478851318,23.383094421504104,22.6283467697808,93.3754990173504,82.49061030110826,0.0001295089750783,0.0955438911914825,0,0,0
7757,269957.61529034964,2010-11-04 17:23:14,5342.720278361758,2,24,0.5499359965324402,4.1774749755859375,23.38768110164272,22.6283467697808,93.39465138341068,82.49061030110826,9.71794142969884e-05,0.0955438911914825,0,0,0
7758,269987.6304231188,2010-11-04 17:23:44,5372.735411145898,2,24,0.5501165986061096,4.181198120117188,23.39226768580105,22.6283467697808,93.41381989279478,82.49061030110826,0.0001295089750783,0.0955438911914825,0,0,0
7759,270017.64601003146,2010-11-04 17:24:14,5402.750998148841,2,24,0.5501165986061096,4.184759616851807,23.39685439329016,22.6283467697808,93.43300558504434,82.49061030110826,9.70840483205393e-05,0.0955438911914825,0,0,0
7760,270047.6609733927,2010-11-04 17:24:44,5432.76596139479,2,24,0.5501165986061096,4.188483238220215,23.40144101145552,22.6283467697808,93.45220764908048,82.49061030110826,0.0001295089750783,0.0955438911914825,0,0,0
7761,270077.6763930479,2010-11-04 17:25:14,5462.781381070056,2,24,0.550297200679779,4.192044734954834,23.406027655478702,22.6283467697808,93.47142680023758,82.49061030110826,9.71794142969884e-05,0.0955438911914825,0,0,0
7762,270107.6915858368,2010-11-04 17:25:44,5492.796573869004,2,24,0.5501165986061096,4.195767879486084,23.41061430889226,22.6283467697808,93.49066304392952,82.49061030110826,9.71794142969884e-05,0.0955438911914825,0,0,0
7763,270137.7068183499,2010-11-04 17:26:14,5522.811806352009,2,24,0.5499359965324402,4.199491024017334,23.41520091059253,22.6283467697808,93.50991612606528,82.49061030110826,6.47544875391759e-05,0.0955438911914825,0,0,0
7764,270139.28491583903,2010-11-04 17:26:15,5524.389903841126,2,24,0.550297200679779,4.200138568878174,23.415442047385373,22.6283467697808,93.51092881499794,82.49061030110826,0.0001618385285837,0.0955438911914825,0,0,0
7765,270169.29033991985,2010-11-04 17:26:45,30.01536537472383,3,24,0.0,4.113206386566162,23.415442047385373,22.6283467697808,93.51092881499794,82.49061030110826,-0.0003884315374307,0.0955438911914825,0,0,0
7766,270199.30549228785,2010-11-04 17:27:16,60.03051777282525,3,24,0.0,4.102521896362305,23.415442047385373,22.6283467697808,93.51092881499794,82.49061030110826,-0.0002265930233988,0.0955438911914825,0,0,0
7767,270229.3207686554,2010-11-04 17:27:46,90.04579414037347,3,24,0.0,4.096370220184326,23.415442047385373,22.6283467697808,93.51092881499794,82.49061030110826,-0.0001295089750783,0.0955438911914825,0,0,0
7768,270259.2891747075,2010-11-04 17:28:15,120.01420016232828,3,24,0.0,4.092322826385498,23.415442047385373,22.6283467697808,93.51092881499794,82.49061030110826,-6.47544875391759e-05,0.0955438911914825,0,0,0
7769,270259.296247511,2010-11-04 17:28:16,2.696731457e-06,4,24,0.989719569683075,4.199653148651123,23.415442048126764,22.6283467697808,93.51092881811152,82.49061030110826,0.0,0.0955438911914825,0,0,0
7770,270260.0931301978,2010-11-04 17:28:16,0.796885398552541,4,24,0.9396908283233644,4.199653148651123,23.41565383690609,22.6283467697808,93.51181827426632,82.49061030110826,0.0,0.0955438911914825,0,0,0
7771,270262.1712254232,2010-11-04 17:28:19,2.874980623942071,4,24,0.8896620273590088,4.199653148651123,23.416180694926258,22.6283467697808,93.51403095525154,82.49061030110826,0.0,0.0955438911914825,0,0,0
7772,270265.3899231228,2010-11-04 17:28:22,6.093678323584641,4,24,0.8396332859992981,4.199814796447754,23.416952685911266,22.6283467697808,93.5172731443843,82.49061030110826,-3.24249267578125e-05,0.0955438911914825,0,0,0
7773,270269.81175918586,2010-11-04 17:28:26,10.5155143866806,4,24,0.7896045446395874,4.199814796447754,23.417952229448257,22.6283467697808,93.52147100155574,82.49061030110826,3.23295607813634e-05,0.0955438911914825,0,0,0
7774,270275.6398065587,2010-11-04 17:28:32,16.343561769570968,4,24,0.7395757436752319,4.199814796447754,23.41918900902395,22.6283467697808,93.52666519065512,82.49061030110826,0.0,0.0955438911914825,0,0,0
7775,270283.34284038126,2010-11-04 17:28:40,24.04659558706155,4,24,0.6895470023155212,4.199814796447754,23.42071628067702,22.6283467697808,93.5330793957988,82.49061030110826,0.0,0.0955438911914825,0,0,0
7776,270293.561515732,2010-11-04 17:28:50,34.265270937840995,4,24,0.6395182013511658,4.199653148651123,23.422599354878542,22.6283467697808,93.54098789145218,82.49061030110826,-3.23295607813634e-05,0.0955438911914825,0,0,0
7777,270307.99896136747,2010-11-04 17:29:04,48.70271657830508,4,24,0.5894894599914551,4.199653148651123,23.42505833947066,22.6283467697808,93.55131509838968,82.49061030110826,-6.47544875391759e-05,0.0955438911914825,0,0,0
7778,270330.13917348307,2010-11-04 17:29:26,70.84292868390715,4,24,0.5394606590270996,4.199814796447754,23.428519068526956,22.6283467697808,93.56584944285387,82.49061030110826,3.23295607813634e-05,0.0955438911914825,0,0,0
7779,270368.65448126174,2010-11-04 17:30:05,109.3582364625546,4,24,0.4894318878650665,4.199814796447754,23.43399862615833,22.6283467697808,93.58886242198552,82.49061030110826,3.23295607813634e-05,0.0955438911914825,0,0,0
7780,270438.04420083214,2010-11-04 17:31:14,178.74795603294376,4,24,0.439222514629364,4.199653148651123,23.44291359711855,22.6283467697808,93.62630340257412,82.49061030110826,-3.23295607813634e-05,0.0955438911914825,0,0,0
7781,270542.19922647,2010-11-04 17:32:59,282.9029816757984,4,24,0.3891937434673309,4.199653148651123,23.45487818430446,22.6283467697808,93.67655215735331,82.49061030110826,0.0,0.0955438911914825,0,0,0
7782,270670.9947150993,2010-11-04 17:35:07,411.6984703251578,4,24,0.3391649723052978,4.199653148651123,23.46789085401212,22.6283467697808,93.73120266469256,82.49061030110826,0.0,0.0955438911914825,0,0,0
7783,270824.75846593233,2010-11-04 17:37:41,565.4622211281237,4,24,0.2891362011432647,4.199491024017334,23.48128976172689,22.6283467697808,93.78747520842413,82.49061030110826,-6.47544875391759e-05,0.0955438911914825,0,0,0
7784,271007.35012770613,2010-11-04 17:40:44,748.0538829069485,4,24,0.2391074448823928,4.199653148651123,23.49466160096415,22.6283467697808,93.84363402673776,82.49061030110826,-3.23295607813634e-05,0.0955438911914825,0,0,0
7785,271235.44121386315,2010-11-04 17:44:32,976.1449690839828,4,24,0.1890786737203598,4.199653148651123,23.508181165032106,22.6283467697808,93.90041330235503,82.49061030110826,-3.23295607813634e-05,0.0955438911914825,0,0,0
7786,271535.406673915,2010-11-04 17:49:32,1276.1104291658794,4,24,0.1390499025583267,4.199653148651123,23.52176581738908,22.6283467697808,93.9574659687472,82.49061030110826,-3.23295607813634e-05,0.0955438911914825,0,0,0
7787,271998.86985388416,2010-11-04 17:57:15,1739.5736090849853,4,24,0.0890211313962936,4.199814796447754,23.53620403337878,22.6283467697808,94.01810302858388,82.49061030110826,0.0,0.0955438911914825,0,0,0
7788,272663.6435178323,2010-11-04 18:08:20,2404.347273033071,4,24,0.0498289167881011,4.199653148651123,23.548685711461232,22.6283467697808,94.07052334396118,82.49061030110826,-3.23295607813634e-05,0.0955438911914825,0,0,0
7789,272693.6624814692,2010-11-04 18:08:50,30.015417564998785,5,24,0.0,4.191558837890625,23.548685711461232,22.6283467697808,94.07052334396118,82.49061030110826,-6.47544875391759e-05,0.0955438911914825,0,0,0
7790,272723.66199770704,2010-11-04 18:09:20,60.01493380283863,5,24,0.0,4.190425872802734,23.548685711461232,22.6283467697808,94.07052334396118,82.49061030110826,-6.47544875391759e-05,0.0955438911914825,0,0,0
7791,272723.8539755365,2010-11-04 18:09:20,0.187616930723228,6,24,-1.9243103452026844e-05,4.190263748168945,23.548685711461232,22.62834677078367,94.07052334396118,82.49061030531055,0.0,0.0963535830378532,0,0,0
7792,272728.68189330195,2010-11-04 18:09:25,5.015534691209982,6,24,0.0007031940040178,4.190587520599365,23.54868667244112,22.62834677086663,94.07052737100784,82.49061030565818,0.0,0.0963535830378532,0,0,0
7793,272758.7017147249,2010-11-04 18:09:55,30.0153967279864,7,24,-1.0993878841400146,4.010408878326416,23.54868667244112,22.637514931684212,94.07052737100784,82.5275772788929,-0.0009065627818927,0.0963535830378532,0,0,0
7794,272788.71689354395,2010-11-04 18:10:25,60.0305755620761,7,24,-1.099568486213684,3.982888221740722,23.54868667244112,22.64668302919659,94.07052737100784,82.56420985889143,-0.0006475448608398,0.0963535830378532,0,0,0
7795,272818.7321553652,2010-11-04 18:10:55,90.04583735825193,7,24,-1.099568486213684,3.963947534561157,23.54868667244112,22.65585101938096,94.07052737100784,82.60063389199387,-0.0004532813909463,0.0963535830378532,0,0,0
7796,272848.74741963256,2010-11-04 18:11:25,120.06110165567128,7,24,-1.099568486213684,3.949215888977051,23.54868667244112,22.66501904423184,94.07052737100784,82.6369059712155,-0.0003885269106831,0.0963535830378532,0,0,0
7797,272878.7628587764,2010-11-04 18:11:55,150.07654089477197,7,24,-1.099568486213684,3.9369125366210938,23.54868667244112,22.67418712993551,94.07052737100784,82.6730563388358,-0.0003561496851034,0.0963535830378532,0,0,0
7798,272908.7779810844,2010-11-04 18:12:25,180.09166307745102,7,24,-1.099568486213684,3.9260661602020255,23.54868667244112,22.683354847650325,94.07052737100784,82.70909901913883,-0.0002913951757363,0.0963535830378532,0,0,0
7799,272938.7932589607,2010-11-04 18:12:55,210.10694094875285,7,24,-1.099568486213684,3.915867328643799,23.54868667244112,22.69252254327763,94.07052737100784,82.74504562462884,-0.0002913951757363,0.0963535830378532,0,0,0
7800,272968.80854733323,2010-11-04 18:13:26,240.1222293513424,7,24,-1.099568486213684,3.9064781665802,23.54868667244112,22.701690232253167,94.07052737100784,82.780902438478,-0.0002266406954731,0.0963535830378532,0,0,0
7801,272998.823810162,2010-11-04 18:13:56,270.1374921851082,7,24,-1.099568486213684,3.897250652313232,23.54868667244112,22.710857738382465,94.07052737100784,82.81667323309084,-0.0002590179501567,0.0963535830378532,0,0,0
7802,273028.83921801776,2010-11-04 18:14:26,300.1529000107962,7,24,-1.0993878841400146,3.888670682907105,23.54868667244112,22.720024949846607,94.07052737100784,82.85236027039016,-0.0001618862152099,0.0963535830378532,0,0,0
7803,273058.8543767817,2010-11-04 18:14:56,330.1680587647628,7,24,-1.099568486213684,3.8797669410705566,23.54868667244112,22.729192521613182,94.07052737100784,82.88796816818761,-0.0001942634553415,0.0963535830378532,0,0,0
7804,273088.86979845195,2010-11-04 18:15:26,360.1834804450339,7,24,-1.099568486213684,3.8711869716644287,23.54868667244112,22.73836061169388,94.07052737100784,82.92349924857241,-0.0002590179501567,0.0963535830378532,0,0,0
7805,273118.8849349203,2010-11-04 18:15:56,390.1986169334222,7,24,-1.099568486213684,3.8629307746887207,23.54868667244112,22.747528606613542,94.07052737100784,82.95895329031227,-0.0001942634553415,0.0963535830378532,0,0,0
7806,273148.9004536077,2010-11-04 18:16:26,420.2141356308632,7,24,-1.0997490882873535,3.854836463928223,23.54868667244112,22.75669671554692,94.07052737100784,82.99433256653086,-0.0002266406954731,0.0963535830378532,0,0,0
7807,273178.9154938108,2010-11-04 18:16:56,450.2291758038334,7,24,-1.0997490882873535,3.846904039382935,23.54868667244112,22.76586465704109,94.07052737100784,83.02963724399346,-0.0001942634553415,0.0963535830378532,0,0,0
7808,273208.93078779726,2010-11-04 18:17:26,480.2444697853488,7,24,-1.0997490882873535,3.8389716148376474,23.54868667244112,22.775032793213125,94.07052737100784,83.06486976396492,-0.0001942634553415,0.0963535830378532,0,0,0
7809,273238.9460443855,2010-11-04 18:17:56,510.2597263735247,7,24,-1.0997490882873535,3.831201314926148,23.54868667244112,22.784200874596344,94.07052737100784,83.10002964243218,-0.0001942634553415,0.0963535830378532,0,0,0
7810,273268.9613455399,2010-11-04 18:18:26,540.2750275279448,7,24,-1.099568486213684,3.8235926628112793,23.54868667244112,22.793368960024065,94.07052737100784,83.13511854215577,-0.0001618862152099,0.0963535830378532,0,0,0
7811,273298.9765972008,2010-11-04 18:18:56,570.2902792138839,7,24,-1.099568486213684,3.815984010696411,23.54868667244112,22.80253706604184,94.07052737100784,83.17013772227301,-0.0001942634553415,0.0963535830378532,0,0,0
7812,273328.9919961693,2010-11-04 18:19:26,600.3056781674255,7,24,-1.099568486213684,3.808375358581543,23.54868667244112,22.811705220059483,94.07052737100784,83.20508764042778,-0.0001942634553415,0.0963535830378532,0,0,0
7813,273359.0075665759,2010-11-04 18:19:56,630.321248609028,7,24,-1.099568486213684,3.8012523651123047,23.54868667244112,22.82087347702761,94.07052737100784,83.23997058110437,-0.0001618862152099,0.0963535830378532,0,0,0
7814,273389.0224585339,2010-11-04 18:20:26,660.3361405169057,7,24,-1.099568486213684,3.793967485427856,23.54868667244112,22.830041500352955,94.07052737100784,83.27478690607042,-0.0002266406954731,0.0963535830378532,0,0,0
7815,273419.0377232524,2010-11-04 18:20:56,690.3514052604386,7,24,-1.0997490882873535,3.787006378173828,23.54868667244112,22.839209629544136,94.07052737100784,83.30953837539789,-0.0001618862152099,0.0963535830378532,0,0,0
7816,273449.05310937384,2010-11-04 18:21:26,720.366791376937,7,24,-1.0997490882873535,3.7800452709198,23.54868667244112,22.848377797924552,94.07052737100784,83.34422615944942,-0.0001942634553415,0.0963535830378532,0,0,0
7817,273479.06825910526,2010-11-04 18:21:56,750.3819410933446,7,24,-1.0997490882873535,3.773569822311402,23.54868667244112,22.857545945129207,94.07052737100784,83.3788522323145,-0.0001618862152099,0.0963535830378532,0,0,0
7818,273509.0836729861,2010-11-04 18:22:26,780.397354974147,7,24,-1.099568486213684,3.766770601272583,23.54868667244112,22.86671413990681,94.07052737100784,83.41341773938858,-0.0002266406954731,0.0963535830378532,0,0,0
7819,273539.09939054993,2010-11-04 18:22:56,810.4130725430016,7,24,-1.099568486213684,3.7604570388793945,23.54868667244112,22.875882411087552,94.07052737100784,83.44792351312036,-0.0001618862152099,0.0963535830378532,0,0,0
7820,273569.1141446889,2010-11-04 18:23:26,840.4278267671997,7,24,-1.099568486213684,3.753981590270996,23.54868667244112,22.8850503762987,94.07052737100784,83.4823694756411,-0.0001942634553415,0.0963535830378532,0,0,0
7821,273599.129363984,2010-11-04 18:23:56,870.443045972061,7,24,-1.0997490882873535,3.7478301525115967,23.54868667244112,22.894218579440743,94.07052737100784,83.51675843230755,-0.0001618862152099,0.0963535830378532,0,0,0
7822,273629.1447013137,2010-11-04 18:24:26,900.4583833218303,7,24,-1.099568486213684,3.741840362548828,23.54868667244112,22.90338675423278,94.07052737100784,83.55109042871752,-0.0001295089750783,0.0963535830378532,0,0,0
7823,273659.15993514506,2010-11-04 18:24:56,930.4736171381642,7,24,-1.0997490882873535,3.7356886863708496,23.54868667244112,22.912554916537523,94.07052737100784,83.5853666189236,-0.0001618862152099,0.0963535830378532,0,0,0
7824,273689.1753176225,2010-11-04 18:25:26,960.4889996155788,7,24,-1.099568486213684,3.729698896408081,23.54868667244112,22.921723083982872,94.07052737100784,83.61958865164596,-0.0001618862152099,0.0963535830378532,0,0,0
7825,273719.19046431634,2010-11-04 18:25:56,990.5041463044292,7,24,-1.0997490882873535,3.724032878875733,23.54868667244112,22.930891112883664,94.07052737100784,83.65375803493126,-0.0001618862152099,0.0963535830378532,0,0,0
7826,273749.2058836458,2010-11-04 18:26:26,1020.5195656488696,7,24,-1.099929690361023,3.7185287475585938,23.54868667244112,22.94005925653927,94.07052737100784,83.68787592633986,-0.0001618862152099,0.0963535830378532,0,0,0
7827,273779.22111415886,2010-11-04 18:26:56,1050.5347961519333,7,24,-1.0997490882873535,3.713024616241455,23.54868667244112,22.94922746145912,94.07052737100784,83.72194238532,-9.713172767078504e-05,0.0963535830378532,0,0,0
7828,273809.2363293437,2010-11-04 18:27:26,1080.55001139691,7,24,-1.0997490882873535,3.707196712493897,23.54868667244112,22.95839557120773,94.07052737100784,83.75595699044973,-0.0001618862152099,0.0963535830378532,0,0,0
7829,273839.2518853793,2010-11-04 18:27:56,1110.5655673774152,7,24,-1.099568486213684,3.701854467391968,23.54868667244112,22.967563822171552,94.07052737100784,83.78992178819196,-0.0001618862152099,0.0963535830378532,0,0,0
7830,273869.2669107353,2010-11-04 18:28:26,1140.5805927384124,7,24,-1.0997490882873535,3.696512222290039,23.54868667244112,22.976731916097464,94.07052737100784,83.8238359165942,-0.0001295089750783,0.0963535830378532,0,0,0
7831,273899.2822957089,2010-11-04 18:28:56,1170.5959777020332,7,24,-1.0997490882873535,3.6911699771881104,23.54868667244112,22.985900147296647,94.07052737100784,83.85770138216934,-0.0001295089750783,0.0963535830378532,0,0,0
7832,273929.2974545181,2010-11-04 18:29:26,1200.6111365111374,7,24,-1.0993878841400146,3.6861515045166016,23.54868667244112,22.99506829126688,94.07052737100784,83.89151860544902,-9.713172767078504e-05,0.0963535830378532,0,0,0
7833,273959.31274159235,2010-11-04 18:29:56,1230.6264235854112,7,24,-1.099568486213684,3.680809259414673,23.54868667244112,23.00423645741765,94.07052737100784,83.92528868546606,-0.0001295089750783,0.0963535830378532,0,0,0
7834,273989.3282840792,2010-11-04 18:30:26,1260.6419661875218,7,24,-1.0997490882873535,3.675790786743164,23.54868667244112,23.01340472930348,94.07052737100784,83.95901247312105,-0.0001618862152099,0.0963535830378532,0,0,0
7835,274019.3432706634,2010-11-04 18:30:56,1290.6569526865137,7,24,-1.0997490882873535,3.6707725524902335,23.54868667244112,23.02257283835011,94.07052737100784,83.99268971946493,-0.0001618862152099,0.0963535830378532,0,0,0
7836,274049.3587934059,2010-11-04 18:31:26,1320.6724753989763,7,24,-1.099568486213684,3.6657540798187256,23.54868667244112,23.031741066656963,94.07052737100784,84.02632169410073,-0.0001618862152099,0.0963535830378532,0,0,0
7837,274079.3738288621,2010-11-04 18:31:56,1350.6875108802355,7,24,-1.0997490882873535,3.6610593795776367,23.54868667244112,23.040909147669563,94.07052737100784,84.05990834570686,-0.0001295089750783,0.0963535830378532,0,0,0
7838,274109.38949270686,2010-11-04 18:32:26,1380.7031747500491,7,24,-1.099568486213684,3.656202793121338,23.54868667244112,23.050077486387423,94.07052737100784,84.09345208961444,-9.713172767078504e-05,0.0963535830378532,0,0,0
7839,274139.40441795293,2010-11-04 18:32:56,1410.7180999610566,7,24,-1.099568486213684,3.651508092880249,23.54868667244112,23.05924548150269,94.07052737100784,84.12695074053586,-0.0001618862152099,0.0963535830378532,0,0,0
7840,274169.4196711627,2010-11-04 18:33:26,1440.733353155762,7,24,-1.099568486213684,3.64665150642395,23.54868667244112,23.06841365862993,94.07052737100784,84.16040677933204,-0.0001295089750783,0.0963535830378532,0,0,0
7841,274199.4349325278,2010-11-04 18:33:56,1470.7486145208618,7,24,-1.0997490882873535,3.6421186923980713,23.54868667244112,23.077581741594965,94.07052737100784,84.19381953347526,-0.0001295089750783,0.0963535830378532,0,0,0
7842,274229.4502280281,2010-11-04 18:34:26,1500.7639100211682,7,24,-1.099568486213684,3.6377477645874015,23.54868667244112,23.08674987224176,94.07052737100784,84.22719104367278,-0.0001295089750783,0.0963535830378532,0,0,0
7843,274259.4655157841,2010-11-04 18:34:56,1530.7791977771435,7,24,-1.099568486213684,3.6330530643463135,23.54868667244112,23.09591809594152,94.07052737100784,84.26052163127132,-0.0001618862152099,0.0963535830378532,0,0,0
7844,274289.4807700214,2010-11-04 18:35:26,1560.7944520244764,7,24,-1.099929690361023,3.628682136535645,23.54868667244112,23.105086289470567,94.07052737100784,84.29381192790412,-0.0001295089750783,0.0963535830378532,0,0,0
7845,274319.4960364742,2010-11-04 18:35:56,1590.8097184722635,7,24,-1.099568486213684,3.624634981155396,23.54868667244112,23.11425439616433,94.07052737100784,84.3270616265904,-0.0001295089750783,0.0963535830378532,0,0,0
7846,274349.5113355885,2010-11-04 18:36:26,1620.8250175815783,7,24,-1.099568486213684,3.620264053344727,23.54868667244112,23.12342258001818,94.07052737100784,84.36027224086298,-0.0001295089750783,0.0963535830378532,0,0,0
7847,274379.52660205134,2010-11-04 18:36:56,1650.840284044403,7,24,-1.0997490882873535,3.616055011749268,23.54868667244112,23.132590840973464,94.07052737100784,84.39344468572266,-0.0001295089750783,0.0963535830378532,0,0,0
7848,274409.54187239386,2010-11-04 18:37:26,1680.855554386912,7,24,-1.099929690361023,3.6120078563690186,23.54868667244112,23.14175900418502,94.07052737100784,84.42657928816877,-0.0001295089750783,0.0963535830378532,0,0,0
7849,274439.5571449369,2010-11-04 18:37:56,1710.870826934926,7,24,-1.099568486213684,3.60812258720398,23.54868667244112,23.15092721730543,94.07052737100784,84.45967776135397,-0.0001295089750783,0.0963535830378532,0,0,0
7850,274469.57247078785,2010-11-04 18:38:26,1740.8861527809802,7,24,-1.099568486213684,3.6043992042541504,23.54868667244112,23.16009538344384,94.07052737100784,84.49274047013955,-6.47544875391759e-05,0.0963535830378532,0,0,0
7851,274499.5877025642,2010-11-04 18:38:56,1770.9013845572215,7,24,-1.099568486213684,3.6006758213043213,23.54868667244112,23.169263543831462,94.07052737100784,84.52576845750498,-9.713172767078504e-05,0.0963535830378532,0,0,0
7852,274529.60297786404,2010-11-04 18:39:26,1800.91665986713,7,24,-1.0993878841400146,3.596952438354492,23.54868667244112,23.17843173139449,94.07052737100784,84.55876244613958,-6.47544875391759e-05,0.0963535830378532,0,0,0
7853,274559.6183752687,2010-11-04 18:39:56,1830.9320572617803,7,24,-1.0997490882873535,3.593390941619873,23.54868667244112,23.187599946242205,94.07052737100784,84.59172325426343,-9.713172767078504e-05,0.0963535830378532,0,0,0
7854,274589.6335343335,2010-11-04 18:40:26,1860.9472163265227,7,24,-1.099568486213684,3.589829683303833,23.54868667244112,23.1967681168807,94.07052737100784,84.62465127876436,-6.47544875391759e-05,0.0963535830378532,0,0,0
7855,274619.6487977837,2010-11-04 18:40:56,1890.962479776828,7,24,-1.0997490882873535,3.586268186569214,23.54868667244112,23.205936315408792,94.07052737100784,84.65754717056076,-9.713172767078504e-05,0.0963535830378532,0,0,0
7856,274649.6640759107,2010-11-04 18:41:26,1920.9777579037675,7,24,-1.099929690361023,3.5828685760498047,23.54868667244112,23.215104457460235,94.07052737100784,84.69041180002905,-0.0001295089750783,0.0963535830378532,0,0,0
7857,274679.6794242028,2010-11-04 18:41:56,1950.9931061958505,7,24,-1.099568486213684,3.5797927379608154,23.54868667244112,23.224272661456123,94.07052737100784,84.72324649685719,-6.47544875391759e-05,0.0963535830378532,0,0,0
7858,274709.6946413074,2010-11-04 18:42:26,1981.008323300469,7,24,-1.099568486213684,3.576555013656616,23.54868667244112,23.233440825898256,94.07052737100784,84.7560510516511,-6.47544875391759e-05,0.0963535830378532,0,0,0
7859,274739.70992373506,2010-11-04 18:42:56,2011.023605733157,7,24,-1.099568486213684,3.573479175567627,23.54868667244112,23.242609019064183,94.07052737100784,84.78882618539548,-3.237724376958795e-05,0.0963535830378532,0,0,0
7860,274769.7251886992,2010-11-04 18:43:26,2041.0388707172904,7,24,-1.0993878841400146,3.570241451263428,23.54868667244112,23.251777166447923,94.07052737100784,84.82157255362743,-6.47544875391759e-05,0.0963535830378532,0,0,0
7861,274799.74058282067,2010-11-04 18:43:56,2071.0542648237333,7,24,-1.099568486213684,3.5671656131744385,23.54868667244112,23.26094533120807,94.07052737100784,84.85428998431793,-6.47544875391759e-05,0.0963535830378532,0,0,0
7862,274829.7557404267,2010-11-04 18:44:26,2101.069422419809,7,24,-1.0997490882873535,3.5639278888702397,23.54868667244112,23.270113431020885,94.07052737100784,84.88697897663266,-9.713172767078504e-05,0.0963535830378532,0,0,0
7863,274859.77100302995,2010-11-04 18:44:56,2131.084685023,7,24,-1.0997490882873535,3.56085205078125,23.54868667244112,23.279281567117906,94.07052737100784,84.91964044546728,-9.713172767078504e-05,0.0963535830378532,0,0,0
7864,274889.7862930115,2010-11-04 18:45:27,2161.0999750045307,7,24,-1.099568486213684,3.5580999851226807,23.54868667244112,23.2884497416137,94.07052737100784,84.95227430953379,-6.47544875391759e-05,0.0963535830378532,0,0,0
7865,274919.80156529887,2010-11-04 18:45:57,2191.1152472918943,7,24,-1.099568486213684,3.554862260818481,23.54868667244112,23.297617935532745,94.07052737100784,84.9848803232818,-9.713172767078504e-05,0.0963535830378532,0,0,0
7866,274949.8169855806,2010-11-04 18:46:27,2221.130667573674,7,24,-1.099568486213684,3.551948308944702,23.54868667244112,23.30678614422936,94.07052737100784,85.01745840707397,-9.713172767078504e-05,0.0963535830378532,0,0,0
7867,274979.8321014876,2010-11-04 18:46:57,2251.1457834806884,7,24,-1.099568486213684,3.548872470855713,23.54868667244112,23.31595428866673,94.07052737100784,85.0500083383585,-6.47544875391759e-05,0.0963535830378532,0,0,0
7868,275009.8475139148,2010-11-04 18:47:27,2281.161195917887,7,24,-1.0997490882873535,3.5456347465515137,23.54868667244112,23.32512255502981,94.07052737100784,85.0825304796432,-9.713172767078504e-05,0.0963535830378532,0,0,0
7869,275039.86265363626,2010-11-04 18:47:57,2311.176335629321,7,24,-1.0997490882873535,3.5425589084625244,23.54868667244112,23.33429069608783,94.07052737100784,85.11502386516005,-9.713172767078504e-05,0.0963535830378532,0,0,0
7870,275069.8781450857,2010-11-04 18:48:27,2341.1918270787464,7,24,-1.099568486213684,3.539483070373535,23.54868667244112,23.34345890271576,94.07052737100784,85.14748911293316,-6.47544875391759e-05,0.0963535830378532,0,0,0
7871,275099.8933886764,2010-11-04 18:48:57,2371.207070674491,7,24,-1.099568486213684,3.536407232284546,23.54868667244112,23.3526270408312,94.07052737100784,85.17992523307409,-6.47544875391759e-05,0.0963535830378532,0,0,0
7872,275129.9084841223,2010-11-04 18:49:27,2401.2221661003814,7,24,-1.0997490882873535,3.5330076217651367,23.54868667244112,23.36179520499084,94.07052737100784,85.21233176531028,-9.713172767078504e-05,0.0963535830378532,0,0,0
7873,275159.923908765,2010-11-04 18:49:57,2431.237590758085,7,24,-1.0993878841400146,3.5296080112457275,23.54868667244112,23.370963417302622,94.07052737100784,85.24470780382381,-9.713172767078504e-05,0.0963535830378532,0,0,0
7874,275189.9390473136,2010-11-04 18:50:27,2461.2527293066155,7,24,-1.099568486213684,3.5262084007263184,23.54868667244112,23.38013156592421,94.07052737100784,85.27705230497709,-9.713172767078504e-05,0.0963535830378532,0,0,0
7875,275219.9544451794,2010-11-04 18:50:57,2491.2681271824667,7,24,-1.0997490882873535,3.522646903991699,23.54868667244112,23.389299867526503,94.07052737100784,85.30936490595752,-9.713172767078504e-05,0.0963535830378532,0,0,0
7876,275249.96971209336,2010-11-04 18:51:27,2521.283394096418,7,24,-1.099568486213684,3.51908540725708,23.54868667244112,23.39846801432781,94.07052737100784,85.34164383738823,-3.237724376958795e-05,0.0963535830378532,0,0,0
7877,275279.984873925,2010-11-04 18:51:57,2551.298555918041,7,24,-1.1001102924346924,3.515038251876831,23.54868667244112,23.407636242223848,94.07052737100784,85.37388887474447,-0.0001618862152099,0.0963535830378532,0,0,0
7878,275310.0001668138,2010-11-04 18:52:27,2581.31384880683,7,24,-1.099568486213684,3.511315107345581,23.54868667244112,23.416804498003152,94.07052737100784,85.40609937171699,-9.70840483205393e-05,0.0963535830378532,0,0,0
7879,275340.01541776286,2010-11-04 18:52:57,2611.3290997559293,7,24,-1.099568486213684,3.507106065750122,23.54868667244112,23.42597270971809,94.07052737100784,85.43827312906842,-0.0001295089750783,0.0963535830378532,0,0,0
7880,275370.03069775447,2010-11-04 18:53:27,2641.344379747524,7,24,-1.0997490882873535,3.502735137939453,23.54868667244112,23.435140966594844,94.07052737100784,85.47040730698819,-0.0001295089750783,0.0963535830378532,0,0,0
7881,275400.0459670844,2010-11-04 18:53:57,2671.359649082517,7,24,-1.0997490882873535,3.4978785514831543,23.54868667244112,23.44430919663576,94.07052737100784,85.50249979683112,-0.0001618862152099,0.0963535830378532,0,0,0
7882,275430.06126379274,2010-11-04 18:54:27,2701.374945785827,7,24,-1.099568486213684,3.4930219650268555,23.54868667244112,23.453477469637363,94.07052737100784,85.53454807426614,-0.0001295089750783,0.0963535830378532,0,0,0
7883,275460.07921264623,2010-11-04 18:54:57,2731.392894724524,7,24,-1.0997490882873535,3.4876797199249268,23.54868667244112,23.462646466973347,94.07052737100784,85.56655145410106,-0.0001295089750783,0.0963535830378532,0,0,0
7884,275490.09197593573,2010-11-04 18:55:27,2761.4056580090305,7,24,-1.0997490882873535,3.481689929962158,23.54868667244112,23.4718139164793,94.07052737100784,85.59849757109819,-0.0001618862152099,0.0963535830378532,0,0,0
7885,275520.10709785775,2010-11-04 18:55:57,2791.4207798408333,7,24,-1.0997490882873535,3.47521448135376,23.54868667244112,23.480981957208307,94.07052737100784,85.63038866093528,-0.0001618862152099,0.0963535830378532,0,0,0
7886,275550.1226254775,2010-11-04 18:56:27,2821.4363075106708,7,24,-1.0997490882873535,3.4679296016693115,23.54868667244112,23.490150214448946,94.07052737100784,85.66221760302716,-0.0001942634553415,0.0963535830378532,0,0,0
7887,275580.1376334952,2010-11-04 18:56:57,2851.4513154882766,7,24,-1.0997490882873535,3.4595115184783936,23.54868667244112,23.499318288331448,94.07052737100784,85.69397366074742,-0.0001942634553415,0.0963535830378532,0,0,0
7888,275610.15302700014,2010-11-04 18:57:27,2881.4667090032426,7,24,-1.099568486213684,3.449636459350586,23.54868667244112,23.50848652319112,94.07052737100784,85.72564693501748,-0.0002590179501567,0.0963535830378532,0,0,0
7889,275640.16817361885,2010-11-04 18:57:57,2911.481855611893,7,24,-1.0997490882873535,3.437818765640259,23.54868667244112,23.517654671298786,94.07052737100784,85.7572213666108,-0.0003561496851034,0.0963535830378532,0,0,0
7890,275670.1834629889,2010-11-04 18:58:27,2941.497144981897,7,24,-1.099568486213684,3.4235730171203613,23.54868667244112,23.52682290274443,94.07052737100784,85.78867792252116,-0.0004209041653666,0.0963535830378532,0,0,0
7891,275700.19886113034,2010-11-04 18:58:57,2971.512543123412,7,24,-1.099568486213684,3.406089305877685,23.54868667244112,23.53599121472305,94.07052737100784,85.81998975298411,-0.0005180359003134,0.0963535830378532,0,0,0
7892,275730.2141495379,2010-11-04 18:59:27,3001.527831531014,7,24,-1.099568486213684,3.384072780609131,23.54868667244112,23.545159446879097,94.07052737100784,85.85112061019912,-0.0006151676061563,0.0963535830378532,0,0,0
7893,275760.229420101,2010-11-04 18:59:57,3031.543102094073,7,24,-1.099568486213684,3.355095148086548,23.54868667244112,23.554327667507625,94.07052737100784,85.88201958105594,-0.0008418083307333,0.0963535830378532,0,0,0
7894,275790.2445803938,2010-11-04 19:00:27,3061.5582623868813,7,24,-1.0997490882873535,3.3164045810699463,23.54868667244112,23.56349588963364,94.07052737100784,85.91261154755479,-0.0011655807029455,0.0963535830378532,0,0,0
7895,275820.25984062604,2010-11-04 19:00:57,3091.573522624166,7,24,-1.0993878841400146,3.263791799545288,23.54868667244112,23.57266404682541,94.07052737100784,85.94278786814814,-0.0015864372253417,0.0963535830378532,0,0,0
7896,275850.275242156,2010-11-04 19:01:27,3121.5889241591512,7,24,-1.099568486213684,3.189000606536865,23.54868667244112,23.58183225473139,94.07052737100784,85.9723885054385,-0.0022987364791333,0.0963535830378532,0,0,0
7897,275880.29039037874,2010-11-04 19:01:57,3151.604072371805,7,24,-1.099568486213684,3.077461242675781,23.54868667244112,23.591000443507628,94.07052737100784,86.0011518783544,-0.003593873931095,0.0963535830378532,0,0,0
7898,275909.33715490176,2010-11-04 19:02:26,3180.6508368998,7,24,-1.0997490882873535,2.877370357513428,23.54868667244112,23.59987286722938,94.07052737100784,86.0276850366523,-0.0076410295441746,0.0963535830378532,0,0,0
7899,275924.14925781434,2010-11-04 19:02:41,3195.4629398074426,7,24,-1.0997490882873535,2.699943780899048,23.54868667244112,23.60439722764477,94.07052737100784,86.04032156062037,-0.0105225564911961,0.0963535830378532,0,0,0
7900,275984.15879493795,2010-11-04 19:03:41,60.01492662492144,8,24,0.0,3.3355071544647217,23.54868667244112,23.60439722764477,94.07052737100784,86.04032156062037,0.0011979580158367,0.0963535830378532,0,0,0
7901,275984.3418520931,2010-11-04 19:03:41,0.187751160782106,9,24,-1.9243103452026844e-05,3.3358309268951416,23.54868667244112,23.60439722864836,94.07052737100784,86.04032156396816,0.0,0.0961798131465911,0,0,0
7902,275989.1697030769,2010-11-04 19:03:46,5.015602144583981,9,24,0.0001613661734154,3.3432776927948,23.54868753843796,23.60439722873095,94.0705302636094,86.04032156424367,0.0010684489971026,0.0961798131465911,0,0,0
