Data_Point,Test_Time(s),Date_Time,Step_Time(s),Step_Index,Cycle_Index,Current(A),Voltage(V),Charge_Capacity(Ah),Discharge_Capacity(Ah),Charge_Energy(Wh),Discharge_Energy(Wh),dV/dt(V/s),Internal_Resistance(Ohm),Is_FC_Data,AC_Impedance(Ohm),ACI_Phase_Angle(Deg)
3620,126385.96353640972,2010-11-03 01:30:07,30.01532924954984,1,12,0.0,3.338097333908081,10.77086859055342,10.835307209467496,43.04143676987745,39.507442505119,0.0007446765666827,0.0922218039631843,0,0,0
3621,126415.97886652644,2010-11-03 01:30:37,60.030659391326815,1,12,0.0,3.3615705966949463,10.77086859055342,10.835307209467496,43.04143676987745,39.507442505119,0.0005504131549969,0.0922218039631843,0,0,0
3622,126445.99418042768,2010-11-03 01:31:07,90.0459732925649,1,12,0.0,3.379216194152832,10.77086859055342,10.835307209467496,43.04143676987745,39.507442505119,0.0004209041653666,0.0922218039631843,0,0,0
3623,126475.9627610204,2010-11-03 01:31:37,120.01455388527516,1,12,0.0,3.3934621810913086,10.77086859055342,10.835307209467496,43.04143676987745,39.507442505119,0.0003237724304199,0.0922218039631843,0,0,0
3624,126505.97450988668,2010-11-03 01:32:08,30.01227582773924,2,12,0.5501165986061096,3.5551860332489014,10.775455017322448,10.835307209467496,43.05756345365518,39.507442505119,0.0017807483673095,0.0922218039631843,0,0,0
3625,126535.98979373288,2010-11-03 01:32:38,60.02755958874267,2,12,0.5499359965324402,3.6087701320648193,10.780041806514786,10.835307209467496,43.07400013419758,39.507442505119,0.0011979580158367,0.0922218039631843,0,0,0
3626,126566.00512265664,2010-11-03 01:33:08,90.04288848741668,2,12,0.5499359965324402,3.64827036857605,10.78462869542668,10.835307209467496,43.090647544561946,39.507442505119,0.0009713172912597,0.0922218039631843,0,0,0
3627,126596.02040461816,2010-11-03 01:33:38,120.0581704589533,2,12,0.5501165986061096,3.679352283477783,10.789215527318508,10.835307209467496,43.1074555234111,39.507442505119,0.0007446765666827,0.0922218039631843,0,0,0
3628,126626.03598977649,2010-11-03 01:34:08,150.07375563734087,2,12,0.550297200679779,3.705254077911377,10.793802445579466,10.835307209467496,43.12439325287538,39.507442505119,0.0006799221155233,0.0922218039631843,0,0,0
3629,126656.05111954307,2010-11-03 01:34:38,180.0888853889131,2,12,0.5501165986061096,3.726461172103882,10.798389211105253,10.835307209467496,43.141438037887326,39.507442505119,0.0005180359003134,0.0922218039631843,0,0,0
3630,126686.06642920876,2010-11-03 01:35:08,210.10419505959104,2,12,0.5501165986061096,3.744430541992188,10.802975990227072,10.835307209467496,43.15857308733846,39.507442505119,0.0004856586456298,0.0922218039631843,0,0,0
3631,126716.08174816762,2010-11-03 01:35:38,240.11951400341624,2,12,0.5501165986061096,3.758190631866455,10.807562810008314,10.835307209467496,43.17578167440533,39.507442505119,0.0002913951757363,0.0922218039631843,0,0,0
3632,126746.0970610062,2010-11-03 01:36:08,270.13482683698925,2,12,0.550297200679779,3.766932487487793,10.812149550330732,10.835307209467496,43.19304165754354,39.507442505119,0.0001942634553415,0.0922218039631843,0,0,0
3633,126776.1123778097,2010-11-03 01:36:38,300.15014367054687,2,12,0.5501165986061096,3.772112846374512,10.8167362896257,10.835307209467496,43.21033239655415,39.507442505119,0.0001295089750783,0.0922218039631843,0,0,0
3634,126806.12782083324,2010-11-03 01:37:08,330.1655866740441,2,12,0.5501165986061096,3.775836229324341,10.821323108895813,10.835307209467496,43.22764369227532,39.507442505119,3.237724376958795e-05,0.0922218039631843,0,0,0
3635,126836.1430190908,2010-11-03 01:37:38,360.1807849266052,2,12,0.5499359965324402,3.77955961227417,10.825909832478114,10.835307209467496,43.24497152214694,39.507442505119,9.713172767078504e-05,0.0922218039631843,0,0,0
3636,126866.15837487158,2010-11-03 01:38:08,390.19614072241865,2,12,0.5501165986061096,3.782959222793579,10.830496590003882,10.835307209467496,43.26231550799161,39.507442505119,6.47544875391759e-05,0.0922218039631843,0,0,0
3637,126896.17367015636,2010-11-03 01:38:38,420.2114359871371,2,12,0.5499359965324402,3.786358833312988,10.835083402211405,10.835307209467496,43.27967537569644,39.507442505119,6.47544875391759e-05,0.0922218039631843,0,0,0
3638,126926.18899524047,2010-11-03 01:39:08,450.22676109133954,2,12,0.5501165986061096,3.7897584438323975,10.8396702053199,10.835307209467496,43.29705042361599,39.507442505119,9.713172767078504e-05,0.0922218039631843,0,0,0
3639,126956.2043261943,2010-11-03 01:39:38,480.242092050156,2,12,0.5501165986061096,3.7928342819213863,10.84425703138036,10.835307209467496,43.314440349208766,39.507442505119,9.713172767078504e-05,0.0922218039631843,0,0,0
3640,126986.21966531347,2010-11-03 01:40:08,510.25743116934194,2,12,0.550297200679779,3.795910120010376,10.848843777703593,10.835307209467496,43.33184441932492,39.507442505119,9.713172767078504e-05,0.0922218039631843,0,0,0
3641,127016.23497570596,2010-11-03 01:40:38,540.2727415618217,2,12,0.550297200679779,3.799147844314575,10.853430535938127,10.835307209467496,43.34926265489065,39.507442505119,0.0001295089750783,0.0922218039631843,0,0,0
3642,127046.25030778258,2010-11-03 01:41:08,570.2880736334157,2,12,0.5501165986061096,3.8020617961883545,10.858017329549773,10.835307209467496,43.36669493680549,39.507442505119,6.47544875391759e-05,0.0922218039631843,0,0,0
3643,127076.26563791432,2010-11-03 01:41:38,600.3034037701802,2,12,0.550297200679779,3.805137634277344,10.86260409132636,10.835307209467496,43.38414079669916,39.507442505119,6.47544875391759e-05,0.0922218039631843,0,0,0
3644,127106.28098678784,2010-11-03 01:42:08,630.3187526036144,2,12,0.550297200679779,3.808051586151123,10.867190834021692,10.835307209467496,43.40160017229459,39.507442505119,9.713172767078504e-05,0.0922218039631843,0,0,0
3645,127136.29632217273,2010-11-03 01:42:38,660.334088028579,2,12,0.5501165986061096,3.810803651809693,10.871777641991008,10.835307209467496,43.41907339878218,39.507442505119,3.237724376958795e-05,0.0922218039631843,0,0,0
3646,127166.31160048512,2010-11-03 01:43:08,690.3493663359694,2,12,0.5501165986061096,3.814041376113892,10.876364477115551,10.835307209467496,43.43656043913443,39.507442505119,9.713172767078504e-05,0.0922218039631843,0,0,0
3647,127196.32692442142,2010-11-03 01:43:38,720.364690277269,2,12,0.5501165986061096,3.816955327987671,10.88095124541788,10.835307209467496,43.45406117449022,39.507442505119,3.237724376958795e-05,0.0922218039631843,0,0,0
3648,127226.34226136016,2010-11-03 01:44:08,750.3800271909497,2,12,0.5501165986061096,3.82019305229187,10.885538036155916,10.835307209467496,43.47157602535203,39.507442505119,9.713172767078504e-05,0.0922218039631843,0,0,0
3649,127256.35771029849,2010-11-03 01:44:38,780.3954761292612,2,12,0.550297200679779,3.8232688903808594,10.890124898684569,10.835307209467496,43.48910562110574,39.507442505119,6.47544875391759e-05,0.0922218039631843,0,0,0
3650,127286.37291956352,2010-11-03 01:45:08,810.4106854143611,2,12,0.5501165986061096,3.826668500900269,10.894711546483684,10.835307209467496,43.506649167275405,39.507442505119,9.713172767078504e-05,0.0922218039631843,0,0,0
3651,127316.38824852736,2010-11-03 01:45:38,840.4260143681729,2,12,0.5501165986061096,3.829906225204468,10.899298392091632,10.835307209467496,43.52420879654211,39.507442505119,9.713172767078504e-05,0.0922218039631843,0,0,0
3652,127346.40369145066,2010-11-03 01:46:08,870.4414572914699,2,12,0.5501165986061096,3.833305597305298,10.903885208882247,10.835307209467496,43.54178378051235,39.507442505119,9.70840483205393e-05,0.0922218039631843,0,0,0
3653,127376.4188868912,2010-11-03 01:46:38,900.4566527520618,2,12,0.5501165986061096,3.836705207824707,10.90847194473426,10.835307209467496,43.55937410464778,39.507442505119,9.713172767078504e-05,0.0922218039631843,0,0,0
3654,127406.43419323357,2010-11-03 01:47:08,930.4719590693694,2,12,0.5501165986061096,3.840266704559326,10.913058715750571,10.835307209467496,43.57698026412734,39.507442505119,9.713172767078504e-05,0.0922218039631843,0,0,0
3655,127436.44951968112,2010-11-03 01:47:38,960.487285536975,2,12,0.5501165986061096,3.843504428863525,10.917645526748908,10.835307209467496,43.59460204527251,39.507442505119,9.713172767078504e-05,0.0922218039631843,0,0,0
3656,127466.46526511954,2010-11-03 01:48:08,990.5030309553464,2,12,0.5501165986061096,3.846904039382935,10.922232318340658,10.835307209467496,43.61223904884292,39.507442505119,9.713172767078504e-05,0.0922218039631843,0,0,0
3657,127496.48019288192,2010-11-03 01:48:38,1020.51795871271,2,12,0.5501165986061096,3.850141763687134,10.92681902861267,10.835307209467496,43.62989085053066,39.507442505119,9.713172767078504e-05,0.0922218039631843,0,0,0
3658,127526.49551523926,2010-11-03 01:49:08,1050.5332811001306,2,12,0.5501165986061096,3.853379487991333,10.931405798645118,10.835307209467496,43.64755768540618,39.507442505119,6.47544875391759e-05,0.0922218039631843,0,0,0
3659,127556.51086349125,2010-11-03 01:49:38,1080.5486293521135,2,12,0.5501165986061096,3.856455326080322,10.93599251203195,10.835307209467496,43.66523874277899,39.507442505119,9.713172767078504e-05,0.0922218039631843,0,0,0
3660,127586.526485667,2010-11-03 01:50:08,1110.5642514927645,2,12,0.5501165986061096,3.859531164169312,10.940579358763566,10.835307209467496,43.68293452844656,39.507442505119,9.713172767078504e-05,0.0922218039631843,0,0,0
3661,127616.54147869226,2010-11-03 01:50:38,1140.5792445230595,2,12,0.5501165986061096,3.862283229827881,10.945166044445052,10.835307209467496,43.70064344750446,39.507442505119,3.237724376958795e-05,0.0922218039631843,0,0,0
3662,127646.5569302822,2010-11-03 01:51:08,1170.5946961129896,2,12,0.550297200679779,3.86519718170166,10.949752824728284,10.835307209467496,43.71836597109007,39.507442505119,6.47544875391759e-05,0.0922218039631843,0,0,0
3663,127676.57213659992,2010-11-03 01:51:38,1200.6099024306827,2,12,0.5499359965324402,3.8679492473602295,10.954339605506268,10.835307209467496,43.736101286735845,39.507442505119,9.713172767078504e-05,0.0922218039631843,0,0,0
3664,127706.5875032528,2010-11-03 01:52:08,1230.625269073572,2,12,0.5501165986061096,3.870539426803589,10.958926369320157,10.835307209467496,43.75384881699858,39.507442505119,6.47544875391759e-05,0.0922218039631843,0,0,0
3665,127736.60278133964,2010-11-03 01:52:38,1260.6405471954995,2,12,0.5501165986061096,3.873129606246948,10.963513152256178,10.835307209467496,43.771608140550754,39.507442505119,3.237724376958795e-05,0.0922218039631843,0,0,0
3666,127766.61811965684,2010-11-03 01:53:08,1290.655885517696,2,12,0.550297200679779,3.875396013259888,10.968099966808836,10.835307209467496,43.78937859233876,39.507442505119,3.237724376958795e-05,0.0922218039631843,0,0,0
3667,127796.63342706184,2010-11-03 01:53:38,1320.6711929227183,2,12,0.550297200679779,3.877662420272827,10.972686757981904,10.835307209467496,43.80715941295246,39.507442505119,3.237724376958795e-05,0.0922218039631843,0,0,0
3668,127826.64889619056,2010-11-03 01:54:08,1350.686662026366,2,12,0.5501165986061096,3.8794431686401367,10.977273536245171,10.835307209467496,43.824950010350754,39.507442505119,3.237724376958795e-05,0.0922218039631843,0,0,0
3669,127856.66407983164,2010-11-03 01:54:38,1380.7018456875046,2,12,0.550297200679779,3.881547689437866,10.981860305494392,10.835307209467496,43.84274974635692,39.507442505119,3.237724376958795e-05,0.0922218039631843,0,0,0
3670,127886.67953636392,2010-11-03 01:55:08,1410.7173021947092,2,12,0.5501165986061096,3.8834903240203857,10.986447137317011,10.835307209467496,43.860558238499735,39.507442505119,6.47544875391759e-05,0.0922218039631843,0,0,0
3671,127916.694788501,2010-11-03 01:55:38,1440.732554356837,2,12,0.550297200679779,3.8852710723876953,10.991034016478626,10.835307209467496,43.878374911548384,39.507442505119,9.713172767078504e-05,0.0922218039631843,0,0,0
3672,127946.71007461286,2010-11-03 01:56:08,1470.747840473721,2,12,0.5501165986061096,3.886566162109375,10.995620786685638,10.835307209467496,43.89619858889163,39.507442505119,3.237724376958795e-05,0.0922218039631843,0,0,0
3673,127976.72552610254,2010-11-03 01:56:38,1500.763291953376,2,12,0.550297200679779,3.8881850242614746,11.000207611583797,10.835307209467496,43.9140295202056,39.507442505119,3.237724376958795e-05,0.0922218039631843,0,0,0
3674,128006.74083760778,2010-11-03 01:57:08,1530.7786034435958,2,12,0.5501165986061096,3.889642000198364,11.004793770197413,10.835307209467496,43.93186444529327,39.507442505119,3.237724376958795e-05,0.0922218039631843,0,0,0
3675,128036.7560353591,2010-11-03 01:57:38,1560.7938011898932,2,12,0.5501165986061096,3.890937089920044,11.009379676130246,10.835307209467496,43.949704712253805,39.507442505119,3.237724376958795e-05,0.0922218039631843,0,0,0
3676,128066.77136525026,2010-11-03 01:58:08,1590.8091310810446,2,12,0.5499359965324402,3.8923940658569336,11.013965620319055,10.835307209467496,43.96755137613854,39.507442505119,6.47544875391759e-05,0.0922218039631843,0,0,0
3677,128096.78681641413,2010-11-03 01:58:38,1620.824582249924,2,12,0.5499359965324402,3.8935272693634033,11.018551631641127,10.835307209467496,43.98540433765808,39.507442505119,3.237724376958795e-05,0.0922218039631843,0,0,0
3678,128126.8021568516,2010-11-03 01:59:08,1650.8399226874003,2,12,0.5501165986061096,3.894822359085083,11.023138161067989,10.835307209467496,44.00326538733204,39.507442505119,3.237724376958795e-05,0.0922218039631843,0,0,0
3679,128156.81737340485,2010-11-03 01:59:38,1680.8551392356303,2,12,0.550297200679779,3.8962793350219727,11.027724968058571,10.835307209467496,44.02113297764246,39.507442505119,9.713172767078504e-05,0.0922218039631843,0,0,0
3680,128186.8328366288,2010-11-03 02:00:08,1710.870602479651,2,12,0.550297200679779,3.8974125385284415,11.032311698671322,10.835307209467496,44.039006347544685,39.507442505119,3.237724376958795e-05,0.0922218039631843,0,0,0
3681,128216.84812107652,2010-11-03 02:00:38,1740.8858869073183,2,12,0.5501165986061096,3.898545742034912,11.036898419302796,10.835307209467496,44.056885463548,39.507442505119,0.0,0.0922218039631843,0,0,0
3682,128246.86346459168,2010-11-03 02:01:08,1770.9012304274902,2,12,0.5501165986061096,3.9000027179718018,11.041485224793863,10.835307209467496,44.0747708271025,39.507442505119,3.237724376958795e-05,0.0922218039631843,0,0,0
3683,128276.878638709,2010-11-03 02:01:38,1800.9164045347811,2,12,0.5499359965324402,3.901135921478272,11.04607199640036,10.835307209467496,44.09266181983199,39.507442505119,0.0,0.0922218039631843,0,0,0
3684,128306.89399872032,2010-11-03 02:02:09,1830.9317645461167,2,12,0.5501165986061096,3.902431011199951,11.050658758172911,10.835307209467496,44.11055865755377,39.507442505119,3.237724376958795e-05,0.0922218039631843,0,0,0
3685,128336.9093157544,2010-11-03 02:02:39,1860.947081585188,2,12,0.5499359965324402,3.903726100921631,11.05524548889766,10.835307209467496,44.12846126740609,39.507442505119,3.237724376958795e-05,0.0922218039631843,0,0,0
3686,128366.92470681322,2010-11-03 02:03:09,1890.9624726690856,2,12,0.5499359965324402,3.905021190643311,11.059832214302412,10.835307209467496,44.14636983660803,39.507442505119,3.237724376958795e-05,0.0922218039631843,0,0,0
3687,128396.94253718096,2010-11-03 02:03:39,1920.980303122024,2,12,0.5501165986061096,3.9063162803649902,11.064419367885348,10.835307209467496,44.164285942639,39.507442505119,0.0,0.0922218039631843,0,0,0
3688,128426.9552979943,2010-11-03 02:04:09,1950.9930638501487,2,12,0.5501165986061096,3.90761137008667,11.069005703318112,10.835307209467496,44.18220491508109,39.507442505119,3.237724376958795e-05,0.0922218039631843,0,0,0
3689,128456.97060292316,2010-11-03 02:04:39,1981.008368748916,2,12,0.5504778623580933,3.9092302322387695,11.073592424978932,10.835307209467496,44.2001314049032,39.507442505119,9.713172767078504e-05,0.0922218039631843,0,0,0
3690,128486.98592395718,2010-11-03 02:05:09,2011.0236897829584,2,12,0.550297200679779,3.9103634357452393,11.07817920137394,10.835307209467496,44.21806422828049,39.507442505119,3.237724376958795e-05,0.0922218039631843,0,0,0
3691,128517.00125752752,2010-11-03 02:05:39,2041.0390233733435,2,12,0.5501165986061096,3.911820411682129,11.0827660439126,10.835307209467496,44.23600335407501,39.507442505119,6.47544875391759e-05,0.0922218039631843,0,0,0
3692,128547.01687617946,2010-11-03 02:06:09,2071.0546420302985,2,12,0.5501165986061096,3.9131155014038086,11.087352818985474,10.835307209467496,44.25394843954846,39.507442505119,6.47544875391759e-05,0.0922218039631843,0,0,0
3693,128577.03190469832,2010-11-03 02:06:39,2101.069670524116,2,12,0.5499359965324402,3.914410352706909,11.091939553777046,10.835307209467496,44.27189963934519,39.507442505119,3.237724376958795e-05,0.0922218039631843,0,0,0
3694,128607.04722296046,2010-11-03 02:07:09,2131.08498878624,2,12,0.550297200679779,3.915705442428589,11.096526346041887,10.835307209467496,44.289857348833685,39.507442505119,3.237724376958795e-05,0.0922218039631843,0,0,0
3695,128637.06255258597,2010-11-03 02:07:39,2161.100318406715,2,12,0.5501165986061096,3.917000532150269,11.1011131007791,10.835307209467496,44.30782110934294,39.507442505119,0.0,0.0922218039631843,0,0,0
3696,128667.07800802049,2010-11-03 02:08:09,2191.115773841242,2,12,0.5501165986061096,3.918457508087158,11.105699896258322,10.835307209467496,44.32579145347045,39.507442505119,0.0,0.0922218039631843,0,0,0
3697,128697.09319551116,2010-11-03 02:08:39,2221.130961362015,2,12,0.550297200679779,3.920076370239258,11.11028659078326,10.835307209467496,44.34376786404646,39.507442505119,9.713172767078504e-05,0.0922218039631843,0,0,0
3698,128727.10865115625,2010-11-03 02:09:09,2251.1464169820047,2,12,0.5501165986061096,3.9213714599609375,11.114873362271643,10.835307209467496,44.36175096943136,39.507442505119,3.237724376958795e-05,0.0922218039631843,0,0,0
3699,128757.12386533857,2010-11-03 02:09:39,2281.1616311643297,2,12,0.5501165986061096,3.922666549682617,11.119460075065136,10.835307209467496,44.379740394489005,39.507442505119,0.0,0.0922218039631843,0,0,0
3700,128787.13923633732,2010-11-03 02:10:09,2311.177002163092,2,12,0.5501165986061096,3.924285411834717,11.124046808362865,10.835307209467496,44.39773646472338,39.507442505119,6.47544875391759e-05,0.0922218039631843,0,0,0
3701,128817.15449969738,2010-11-03 02:10:39,2341.192265548234,2,12,0.550297200679779,3.9257423877716064,11.128633478885664,10.835307209467496,44.41573892349916,39.507442505119,3.237724376958795e-05,0.0922218039631843,0,0,0
3702,128847.16982579908,2010-11-03 02:11:09,2371.207591649926,2,12,0.5504778623580933,3.927361249923706,11.133220126887345,10.835307209467496,44.43374785212172,39.507442505119,6.47544875391759e-05,0.0922218039631843,0,0,0
3703,128877.18514914389,2010-11-03 02:11:39,2401.2229149947366,2,12,0.5501165986061096,3.9286563396453857,11.137806848520365,10.835307209467496,44.45176389382532,39.507442505119,6.47544875391759e-05,0.0922218039631843,0,0,0
3704,128907.20048620796,2010-11-03 02:12:09,2431.2382520337305,2,12,0.5499359965324402,3.9299514293670654,11.14239346469462,10.835307209467496,44.46978627859252,39.507442505119,3.237724376958795e-05,0.0922218039631843,0,0,0
3705,128937.21580232974,2010-11-03 02:12:39,2461.2535681504987,2,12,0.550297200679779,3.931732177734375,11.146980217004426,10.835307209467496,44.48781609819133,39.507442505119,6.47544875391759e-05,0.0922218039631843,0,0,0
3706,128967.23113967953,2010-11-03 02:13:09,2491.268905530342,2,12,0.5501165986061096,3.933027267456055,11.15156692954989,10.835307209467496,44.50585266455315,39.507442505119,0.0,0.0922218039631843,0,0,0
3707,128997.24645343538,2010-11-03 02:13:39,2521.284219286218,2,12,0.5499359965324402,3.934484243392944,11.156153705346016,10.835307209467496,44.52389649083379,39.507442505119,3.237724376958795e-05,0.0922218039631843,0,0,0
3708,129027.26179022375,2010-11-03 02:14:09,2551.2995560745862,2,12,0.550297200679779,3.936264991760254,11.160740418585812,10.835307209467496,44.54194707946103,39.507442505119,6.47544875391759e-05,0.0922218039631843,0,0,0
3709,129057.2771043706,2010-11-03 02:14:39,2581.314870216425,2,12,0.5499359965324402,3.9375600814819336,11.165327142508318,10.835307209467496,44.5600046207328,39.507442505119,0.0,0.0922218039631843,0,0,0
3710,129087.29255955952,2010-11-03 02:15:09,2611.330325380276,2,12,0.5501165986061096,3.939178943634033,11.169913861840747,10.835307209467496,44.578069371280776,39.507442505119,3.237724376958795e-05,0.0922218039631843,0,0,0
3711,129117.30775555644,2010-11-03 02:15:39,2641.3455213772068,2,12,0.550297200679779,3.940797805786133,11.174500569676733,10.835307209467496,44.59614129574054,39.507442505119,3.237724376958795e-05,0.0922218039631843,0,0,0
3712,129147.3231066856,2010-11-03 02:16:09,2671.360872536447,2,12,0.5501165986061096,3.942416667938232,11.17908734099951,10.835307209467496,44.61422068005936,39.507442505119,3.237724376958795e-05,0.0922218039631843,0,0,0
3713,129177.3385525312,2010-11-03 02:16:39,2701.376318372013,2,12,0.5501165986061096,3.944035530090332,11.183674028396387,10.835307209467496,44.632307022522745,39.507442505119,3.237724376958795e-05,0.0922218039631843,0,0,0
3714,129207.35374097928,2010-11-03 02:17:09,2731.391506800051,2,12,0.5499359965324402,3.9454925060272217,11.18826075373036,10.835307209467496,44.650400846189065,39.507442505119,0.0,0.0922218039631843,0,0,0
3715,129237.3690868854,2010-11-03 02:17:39,2761.4068527162035,2,12,0.550297200679779,3.9472732543945312,11.192847561107916,10.835307209467496,44.66850237715858,39.507442505119,6.47544875391759e-05,0.0922218039631843,0,0,0
3716,129267.38440054604,2010-11-03 02:18:09,2791.422166376841,2,12,0.5501165986061096,3.948892116546631,11.197434427482769,10.835307209467496,44.68661163065307,39.507442505119,3.237724376958795e-05,0.0922218039631843,0,0,0
3717,129297.39971323928,2010-11-03 02:18:39,2821.437479070063,2,12,0.550297200679779,3.950672864913941,11.202021867703223,10.835307209467496,44.70473069441102,39.507442505119,6.47544875391759e-05,0.0922218039631843,0,0,0
3718,129327.4150610752,2010-11-03 02:19:09,2851.452826906008,2,12,0.5501165986061096,3.95212984085083,11.206609195975084,10.835307209467496,44.722856972825696,39.507442505119,6.47544875391759e-05,0.0922218039631843,0,0,0
3719,129357.4303953122,2010-11-03 02:19:39,2881.4681611379942,2,12,0.5499359965324402,3.9537487030029297,11.211195900087205,10.835307209467496,44.7409884168378,39.507442505119,0.0,0.0922218039631843,0,0,0
3720,129387.44596029018,2010-11-03 02:20:09,2911.4837262212213,2,12,0.5501165986061096,3.9555294513702393,11.215782627532516,10.835307209467496,44.759127696125816,39.507442505119,3.237724376958795e-05,0.0922218039631843,0,0,0
3721,129417.46104378128,2010-11-03 02:20:39,2941.498809607058,2,12,0.5501165986061096,3.957148313522339,11.22036940490518,10.835307209467496,44.77727495312875,39.507442505119,3.237724376958795e-05,0.0922218039631843,0,0,0
3722,129447.47649522084,2010-11-03 02:21:09,2971.514261051625,2,12,0.5501165986061096,3.958929061889648,11.22495614168267,10.835307209467496,44.79542985413048,39.507442505119,3.237724376958795e-05,0.0922218039631843,0,0,0
3723,129477.49169654104,2010-11-03 02:21:39,3001.5294623718432,2,12,0.5501165986061096,3.960709810256958,11.229542796575537,10.835307209467496,44.81359241992707,39.507442505119,3.237724376958795e-05,0.0922218039631843,0,0,0
3724,129507.50738761378,2010-11-03 02:22:09,3031.545153439547,2,12,0.5501165986061096,3.962490558624268,11.234129572210746,10.835307209467496,44.831763440921165,39.507442505119,3.237724376958795e-05,0.0922218039631843,0,0,0
3725,129537.52240037332,2010-11-03 02:22:39,3061.560166194077,2,12,0.5501165986061096,3.964271306991577,11.238716192677789,10.835307209467496,44.84994188950782,39.507442505119,6.47544875391759e-05,0.0922218039631843,0,0,0
3726,129567.53780863508,2010-11-03 02:23:09,3091.5755744658786,2,12,0.5501165986061096,3.966052055358887,11.243302920488857,10.835307209467496,44.86812892554742,39.507442505119,3.237724376958795e-05,0.0922218039631843,0,0,0
3727,129597.55303568453,2010-11-03 02:23:39,3121.590801515321,2,12,0.550297200679779,3.967832803726196,11.247889727706864,10.835307209467496,44.88632455453764,39.507442505119,3.237724376958795e-05,0.0922218039631843,0,0,0
3728,129627.5683712749,2010-11-03 02:24:09,3151.606137130761,2,12,0.550297200679779,3.969775438308716,11.25247644318362,10.835307209467496,44.90452810915927,39.507442505119,9.713172767078504e-05,0.0922218039631843,0,0,0
3729,129657.5836585246,2010-11-03 02:24:39,3181.621424350398,2,12,0.5499359965324402,3.971394300460816,11.257063167032184,10.835307209467496,44.92274008904919,39.507442505119,3.237724376958795e-05,0.0922218039631843,0,0,0
3730,129687.59898003486,2010-11-03 02:25:09,3211.636745860629,2,12,0.5501165986061096,3.973336935043335,11.261649955029602,10.835307209467496,44.94096080347282,39.507442505119,3.237724376958795e-05,0.0922218039631843,0,0,0
3731,129717.61425620188,2010-11-03 02:25:39,3241.652022027677,2,12,0.550297200679779,3.975441455841065,11.266236749481694,10.835307209467496,44.95919003059488,39.507442505119,6.47544875391759e-05,0.0922218039631843,0,0,0
3732,129747.62962747134,2010-11-03 02:26:09,3271.667393302127,2,12,0.550297200679779,3.977222204208374,11.270823642514165,10.835307209467496,44.97742831604934,39.507442505119,6.47544875391759e-05,0.0922218039631843,0,0,0
3733,129777.64493229993,2010-11-03 02:26:39,3301.6826981307186,2,12,0.5501165986061096,3.9791648387908936,11.275410385829469,10.835307209467496,44.995674271129886,39.507442505119,6.47544875391759e-05,0.0922218039631843,0,0,0
3734,129807.6602748176,2010-11-03 02:27:09,3331.698040648388,2,12,0.5499359965324402,3.980783700942993,11.279997055972013,10.835307209467496,45.01392919147067,39.507442505119,3.237724376958795e-05,0.0922218039631843,0,0,0
3735,129837.67558231283,2010-11-03 02:27:39,3361.713348143636,2,12,0.5501165986061096,3.982888221740722,11.284583677550192,10.835307209467496,45.03219281699038,39.507442505119,6.47544875391759e-05,0.0922218039631843,0,0,0
3736,129867.69105230871,2010-11-03 02:28:09,3391.728818134497,2,12,0.550297200679779,3.984992742538452,11.289170408521096,10.835307209467496,45.05046584363206,39.507442505119,9.713172767078504e-05,0.0922218039631843,0,0,0
3737,129897.70638245552,2010-11-03 02:28:39,3421.744148291312,2,12,0.5501165986061096,3.986935377120972,11.293757025343004,10.835307209467496,45.06874751883731,39.507442505119,6.47544875391759e-05,0.0922218039631843,0,0,0
3738,129927.72157573566,2010-11-03 02:29:09,3451.759341561436,2,12,0.550297200679779,3.988878011703491,11.298343686324914,10.835307209467496,45.08703851419383,39.507442505119,6.47544875391759e-05,0.0922218039631843,0,0,0
3739,129957.73689474966,2010-11-03 02:29:39,3481.774660570424,2,12,0.5499359965324402,3.9909825325012207,11.302930360770956,10.835307209467496,45.10533881551359,39.507442505119,3.237724376958795e-05,0.0922218039631843,0,0,0
3740,129987.75238157251,2010-11-03 02:30:09,3511.790147418364,2,12,0.5501165986061096,3.99292516708374,11.30751704752294,10.835307209467496,45.12364859154662,39.507442505119,3.237724376958795e-05,0.0922218039631843,0,0,0
3741,130017.76756985018,2010-11-03 02:30:39,3541.805335675976,2,12,0.550297200679779,3.9951913356781006,11.312103658357596,10.835307209467496,45.14196754190806,39.507442505119,6.47544875391759e-05,0.0922218039631843,0,0,0
3742,130047.7828752452,2010-11-03 02:31:09,3571.820641070981,2,12,0.5501165986061096,3.99713397026062,11.31669029422164,10.835307209467496,45.16029623689603,39.507442505119,3.237724376958795e-05,0.0922218039631843,0,0,0
3743,130077.79829979764,2010-11-03 02:31:39,3601.8360656234217,2,12,0.550297200679779,3.9992384910583496,11.321276958838096,10.835307209467496,45.17863467782716,39.507442505119,6.47544875391759e-05,0.0922218039631843,0,0,0
3744,130107.81353445609,2010-11-03 02:32:09,3631.8513002918826,2,12,0.5501165986061096,4.001343250274658,11.325863557847205,10.835307209467496,45.19698267552542,39.507442505119,6.47544875391759e-05,0.0922218039631843,0,0,0
3745,130137.82900257727,2010-11-03 02:32:39,3661.86676841809,2,12,0.5501165986061096,4.003609657287598,11.33045023875839,10.835307209467496,45.21534094772698,39.507442505119,3.24249267578125e-05,0.0922218039631843,0,0,0
3746,130167.84420493006,2010-11-03 02:33:09,3691.8819707809103,2,12,0.5501165986061096,4.005876064300537,11.335036855077322,10.835307209467496,45.23370895363342,39.507442505119,9.71794142969884e-05,0.0922218039631843,0,0,0
3747,130197.85951386893,2010-11-03 02:33:39,3721.897279694699,2,12,0.5501165986061096,4.007980346679688,11.3396235385384,10.835307209467496,45.252087462989714,39.507442505119,6.47544875391759e-05,0.0922218039631843,0,0,0
3748,130227.8748554342,2010-11-03 02:34:10,3751.9126212549786,2,12,0.5501165986061096,4.010246753692627,11.34421016436648,10.835307209467496,45.27047595086874,39.507442505119,6.47544875391759e-05,0.0922218039631843,0,0,0
3749,130257.89032407168,2010-11-03 02:34:40,3781.92808992755,2,12,0.5501165986061096,4.012513160705566,11.348796841524576,10.835307209467496,45.28887498358768,39.507442505119,6.47544875391759e-05,0.0922218039631843,0,0,0
3750,130287.90548105624,2010-11-03 02:35:10,3811.94324689205,2,12,0.5501165986061096,4.014779567718506,11.353383436540502,10.835307209467496,45.30728417046844,39.507442505119,0.0,0.0922218039631843,0,0,0
3751,130317.9235245259,2010-11-03 02:35:40,3841.961290451936,2,12,0.5499359965324402,4.017045974731445,11.357970490646942,10.835307209467496,45.32570577241125,39.507442505119,3.23295607813634e-05,0.0922218039631843,0,0,0
3752,130347.93620101876,2010-11-03 02:36:10,3871.973966934772,2,12,0.5501165986061096,4.019312381744385,11.362556746719752,10.835307209467496,45.34413475341287,39.507442505119,3.23295607813634e-05,0.0922218039631843,0,0,0
3753,130377.95146977733,2010-11-03 02:36:40,3901.989235603101,2,12,0.5501165986061096,4.021740913391113,11.367143376148851,10.835307209467496,45.36257594275994,39.507442505119,3.24249267578125e-05,0.0922218039631843,0,0,0
3754,130407.96679196926,2010-11-03 02:37:10,3932.0045577950345,2,12,0.5501165986061096,4.024331092834473,11.371730027253122,10.835307209467496,45.38102806733295,39.507442505119,9.71794142969884e-05,0.0922218039631843,0,0,0
3755,130437.98225908294,2010-11-03 02:37:40,3962.020024923752,2,12,0.5501165986061096,4.026597499847412,11.376316147980267,10.835307209467496,45.39948882979218,39.507442505119,6.47544875391759e-05,0.0922218039631843,0,0,0
3756,130467.99764397136,2010-11-03 02:38:10,3992.035409797147,2,12,0.5497553944587708,4.028863906860352,11.380901865157714,10.835307209467496,45.4179588427125,39.507442505119,3.24249267578125e-05,0.0922218039631843,0,0,0
3757,130498.01294179748,2010-11-03 02:38:40,4022.05070762326,2,12,0.5501165986061096,4.031454086303711,11.385488124764514,10.835307209467496,45.43644214055299,39.507442505119,9.71794142969884e-05,0.0922218039631843,0,0,0
3758,130528.02816105248,2010-11-03 02:39:10,4052.065926878246,2,12,0.5501165986061096,4.033882141113281,11.390074652909965,10.835307209467496,45.45493775060666,39.507442505119,9.70840483205393e-05,0.0922218039631843,0,0,0
3759,130558.04358241695,2010-11-03 02:39:40,4082.0813482377166,2,12,0.5504778623580933,4.036472320556641,11.394661303796212,10.835307209467496,45.47344506391257,39.507442505119,9.71794142969884e-05,0.0922218039631843,0,0,0
3760,130588.0589187492,2010-11-03 02:40:10,4112.096684569946,2,12,0.5501165986061096,4.038900375366211,11.399247935697725,10.835307209467496,45.49196366969009,39.507442505119,9.70840483205393e-05,0.0922218039631843,0,0,0
3761,130618.07410514214,2010-11-03 02:40:40,4142.111870967916,2,12,0.5499359965324402,4.04116678237915,11.403834627878906,10.835307209467496,45.51049394568,39.507442505119,6.47544875391759e-05,0.0922218039631843,0,0,0
3762,130648.08957760416,2010-11-03 02:41:10,4172.127343434959,2,12,0.550297200679779,4.043919086456299,11.408421309864607,10.835307209467496,45.52903575484678,39.507442505119,9.71794142969884e-05,0.0922218039631843,0,0,0
3763,130678.10478430784,2010-11-03 02:41:40,4202.142550153653,2,12,0.5501165986061096,4.046347141265869,11.413007993630858,10.835307209467496,45.547589254803306,39.507442505119,3.23295607813634e-05,0.0922218039631843,0,0,0
3764,130708.12021454444,2010-11-03 02:42:10,4232.157980355195,2,12,0.5499359965324402,4.048775672912598,11.417594659834323,10.835307209467496,45.56615443544063,39.507442505119,3.24249267578125e-05,0.0922218039631843,0,0,0
3765,130738.1354124311,2010-11-03 02:42:40,4262.173178261892,2,12,0.550297200679779,4.051527500152588,11.4221813406384,10.835307209467496,45.58473152897805,39.507442505119,6.47544875391759e-05,0.0922218039631843,0,0,0
3766,130768.1508704521,2010-11-03 02:43:10,4292.188636282875,2,12,0.5499359965324402,4.054117679595947,11.426768025083444,10.835307209467496,45.60332055519208,39.507442505119,9.70840483205393e-05,0.0922218039631843,0,0,0
3767,130798.16605936132,2010-11-03 02:43:40,4322.203825187102,2,12,0.5501165986061096,4.056869983673096,11.431354690837848,10.835307209467496,45.62192163265662,39.507442505119,9.71794142969884e-05,0.0922218039631843,0,0,0
3768,130828.18153007398,2010-11-03 02:44:10,4352.219295904778,2,12,0.5501165986061096,4.059298038482666,11.43594141744612,10.835307209467496,45.64053520425584,39.507442505119,3.23295607813634e-05,0.0922218039631843,0,0,0
3769,130858.19674696306,2010-11-03 02:44:40,4382.234512788847,2,12,0.5501165986061096,4.062211990356445,11.44052816703562,10.835307209467496,45.65916096337731,39.507442505119,6.47544875391759e-05,0.0922218039631843,0,0,0
3770,130888.21217180624,2010-11-03 02:45:10,4412.249937632012,2,12,0.5501165986061096,4.064802169799805,11.445114878734726,10.835307209467496,45.67779901861841,39.507442505119,6.47544875391759e-05,0.0922218039631843,0,0,0
3771,130918.22737422418,2010-11-03 02:45:40,4442.265140049971,2,12,0.5499359965324402,4.067554473876953,11.44970152925293,10.835307209467496,45.69644939846691,39.507442505119,6.47544875391759e-05,0.0922218039631843,0,0,0
3772,130948.24271308772,2010-11-03 02:46:10,4472.280478913519,2,12,0.5501165986061096,4.070306301116943,11.45428823974841,10.835307209467496,45.71511273384414,39.507442505119,3.23295607813634e-05,0.0922218039631843,0,0,0
3773,130978.25803145012,2010-11-03 02:46:40,4502.295797275892,2,12,0.5501165986061096,4.073382377624512,11.458874896694692,10.835307209467496,45.73378855573577,39.507442505119,0.0001619339018361,0.0922218039631843,0,0,0
3774,131008.27335820843,2010-11-03 02:47:10,4532.311124034224,2,12,0.5501165986061096,4.075972557067871,11.463461575855336,10.835307209467496,45.75247733481103,39.507442505119,6.47544875391759e-05,0.0922218039631843,0,0,0
3775,131038.28868967852,2010-11-03 02:47:40,4562.326455504317,2,12,0.5499359965324402,4.078724384307861,11.468048215074544,10.835307209467496,45.77117887266,39.507442505119,6.47544875391759e-05,0.0922218039631843,0,0,0
3776,131068.30403348945,2010-11-03 02:48:10,4592.341799315214,2,12,0.550297200679779,4.081638336181641,11.472634987038644,10.835307209467496,45.78989402444199,39.507442505119,9.70840483205393e-05,0.0922218039631843,0,0,0
3777,131098.31947414708,2010-11-03 02:48:40,4622.357239972855,2,12,0.5501165986061096,4.08455228805542,11.47722174381214,10.835307209467496,45.80862224808586,39.507442505119,6.47544875391759e-05,0.0922218039631843,0,0,0
3778,131128.33467851992,2010-11-03 02:49:10,4652.372444340681,2,12,0.5501165986061096,4.087466239929199,11.481808447557867,10.835307209467496,45.82736353819077,39.507442505119,6.47544875391759e-05,0.0922218039631843,0,0,0
3779,131158.3500313233,2010-11-03 02:49:40,4682.387797149037,2,12,0.550297200679779,4.0903801918029785,11.486395157289328,10.835307209467496,45.84611832659815,39.507442505119,9.70840483205393e-05,0.0922218039631843,0,0,0
3780,131188.36533785608,2010-11-03 02:50:10,4712.403103686896,2,12,0.5501165986061096,4.093456268310547,11.490981909878691,10.835307209467496,45.86488688855232,39.507442505119,9.71794142969884e-05,0.0922218039631843,0,0,0
3781,131218.38065624854,2010-11-03 02:50:40,4742.418422074332,2,12,0.5501165986061096,4.096370220184326,11.495568636833124,10.835307209467496,45.88366899573189,39.507442505119,6.47544875391759e-05,0.0922218039631843,0,0,0
3782,131248.39598302194,2010-11-03 02:51:10,4772.4337488477,2,12,0.5501165986061096,4.099445819854736,11.500155376305027,10.835307209467496,45.90246497610776,39.507442505119,6.47544875391759e-05,0.0922218039631843,0,0,0
3783,131278.41132424635,2010-11-03 02:51:40,4802.449090072142,2,12,0.5501165986061096,4.102359771728516,11.504742129834272,10.835307209467496,45.92127492171016,39.507442505119,6.47544875391759e-05,0.0922218039631843,0,0,0
3784,131308.42686895875,2010-11-03 02:52:10,4832.464634799558,2,12,0.5501165986061096,4.105435848236084,11.509328847367096,10.835307209467496,45.94009877330049,39.507442505119,6.47544875391759e-05,0.0922218039631843,0,0,0
3785,131338.44197168286,2010-11-03 02:52:40,4862.479737508627,2,12,0.550297200679779,4.108673572540283,11.513915462036165,10.835307209467496,45.95893629300124,39.507442505119,6.47544875391759e-05,0.0922218039631843,0,0,0
3786,131368.45729126327,2010-11-03 02:53:10,4892.495057084028,2,12,0.5501165986061096,4.111749172210693,11.518502128130375,10.835307209467496,45.97778834864064,39.507442505119,6.47544875391759e-05,0.0922218039631843,0,0,0
3787,131398.4726185379,2010-11-03 02:53:40,4922.510384363662,2,12,0.5501165986061096,4.114986896514893,11.523088813884003,10.835307209467496,45.99665476544048,39.507442505119,9.70840483205393e-05,0.0922218039631843,0,0,0
3788,131428.48814538066,2010-11-03 02:54:10,4952.52591121646,2,12,0.5501165986061096,4.117900848388672,11.527675485734353,10.835307209467496,46.01553559345353,39.507442505119,3.24249267578125e-05,0.0922218039631843,0,0,0
3789,131458.5032855482,2010-11-03 02:54:40,4982.541051368994,2,12,0.5501165986061096,4.121300220489502,11.53226211767742,10.835307209467496,46.034430772143885,39.507442505119,6.47544875391759e-05,0.0922218039631843,0,0,0
3790,131488.51863882775,2010-11-03 02:55:10,5012.556404668577,2,12,0.5501165986061096,4.12437629699707,11.536848794450682,10.835307209467496,46.05334065863114,39.507442505119,9.71794142969884e-05,0.0922218039631843,0,0,0
3791,131518.53400030776,2010-11-03 02:55:40,5042.571766133541,2,12,0.5501165986061096,4.1276140213012695,11.541435465377338,10.835307209467496,46.07226524773034,39.507442505119,9.71794142969884e-05,0.0922218039631843,0,0,0
3792,131548.54941994793,2010-11-03 02:56:10,5072.58718577372,2,12,0.5501165986061096,4.130851745605469,11.546022150036851,10.835307209467496,46.09120479458266,39.507442505119,9.71794142969884e-05,0.0922218039631843,0,0,0
3793,131578.56459006527,2010-11-03 02:56:40,5102.602355891051,2,12,0.550297200679779,4.134251117706299,11.550608886963444,10.835307209467496,46.110159618259,39.507442505119,0.0001295089750783,0.0922218039631843,0,0,0
3794,131608.57991606672,2010-11-03 02:57:10,5132.617681917555,2,12,0.5499359965324402,4.137488842010498,11.555195644642351,10.835307209467496,46.12912968183936,39.507442505119,9.70840483205393e-05,0.0922218039631843,0,0,0
3795,131638.5952438025,2010-11-03 02:57:40,5162.633009633277,2,12,0.5501165986061096,4.140726566314697,11.55978236479604,10.835307209467496,46.14811485228487,39.507442505119,6.47544875391759e-05,0.0922218039631843,0,0,0
3796,131668.6108521938,2010-11-03 02:58:10,5192.648618134883,2,12,0.550297200679779,4.1444501876831055,11.564369174630627,10.835307209467496,46.167115759469446,39.507442505119,0.0001619339018361,0.0922218039631843,0,0,0
3797,131698.6259803464,2010-11-03 02:58:40,5222.663746292476,2,12,0.5501165986061096,4.147849559783936,11.568955722893913,10.835307209467496,46.18613149252309,39.507442505119,0.0001295089750783,0.0922218039631843,0,0,0
3798,131728.64118772172,2010-11-03 02:59:10,5252.678953557534,2,12,0.5501165986061096,4.151087284088135,11.573542328373424,10.835307209467496,46.2051631151872,39.507442505119,9.70840483205393e-05,0.0922218039631843,0,0,0
3799,131758.65655262026,2010-11-03 02:59:40,5282.6943184510565,2,12,0.5501165986061096,4.154487133026123,11.57812902066546,10.835307209467496,46.22421073883976,39.507442505119,9.71794142969884e-05,0.0922218039631843,0,0,0
3800,131788.67196000484,2010-11-03 03:00:10,5312.709725835643,2,12,0.5501165986061096,4.158048629760742,11.582715691309335,10.835307209467496,46.24327402819327,39.507442505119,9.71794142969884e-05,0.0922218039631843,0,0,0
3801,131818.68737631672,2010-11-03 03:00:40,5342.725142147514,2,12,0.5499359965324402,4.161448001861572,11.587302288196929,10.835307209467496,46.26235302004032,39.507442505119,9.70840483205393e-05,0.0922218039631843,0,0,0
3802,131848.70272571658,2010-11-03 03:01:10,5372.740491552375,2,12,0.5501165986061096,4.1648478507995605,11.591888954061494,10.835307209467496,46.28144834248391,39.507442505119,6.47544875391759e-05,0.0922218039631843,0,0,0
3803,131878.71790964337,2010-11-03 03:01:40,5402.7556754741645,2,12,0.5501165986061096,4.16840934753418,11.59647547023129,10.835307209467496,46.30055923116106,39.507442505119,6.47544875391759e-05,0.0922218039631843,0,0,0
3804,131908.73326450685,2010-11-03 03:02:10,5432.771030337651,2,12,0.5499359965324402,4.171970844268799,11.601062086288524,10.835307209467496,46.31968682685616,39.507442505119,6.47544875391759e-05,0.0922218039631843,0,0,0
3805,131938.7486956758,2010-11-03 03:02:40,5462.786461506607,2,12,0.5501165986061096,4.175693988800049,11.605648678979817,10.835307209467496,46.33883060589962,39.507442505119,0.0001295089750783,0.0922218039631843,0,0,0
3806,131968.7639260335,2010-11-03 03:03:10,5492.80169186932,2,12,0.550297200679779,4.179417610168457,11.61023523025502,10.835307209467496,46.35799069475474,39.507442505119,0.0001295089750783,0.0922218039631843,0,0,0
3807,131998.77922287217,2010-11-03 03:03:40,5522.816988702954,2,12,0.550297200679779,4.182979106903076,11.614821810393671,10.835307209467496,46.37716740558258,39.507442505119,0.0001295089750783,0.0922218039631843,0,0,0
3808,132028.79457829703,2010-11-03 03:04:10,5552.832344152905,2,12,0.550297200679779,4.186540603637695,11.619408426199277,10.835307209467496,46.39636090645059,39.507442505119,0.0001295089750783,0.0922218039631843,0,0,0
3809,132058.8100222479,2010-11-03 03:04:40,5582.847788083716,2,12,0.550297200679779,4.1901021003723145,11.623995064533542,10.835307209467496,46.41557135134932,39.507442505119,6.47544875391759e-05,0.0922218039631843,0,0,0
3810,132088.8252185857,2010-11-03 03:05:10,5612.862984436536,2,12,0.5501165986061096,4.1938252449035645,11.628581660641808,10.835307209467496,46.43479852609457,39.507442505119,9.70840483205393e-05,0.0922218039631843,0,0,0
3811,132118.8405547024,2010-11-03 03:05:40,5642.8783205331765,2,12,0.5501165986061096,4.197548389434815,11.633168202711904,10.835307209467496,46.45404246935094,39.507442505119,6.47544875391759e-05,0.0922218039631843,0,0,0
3812,132136.96534824048,2010-11-03 03:05:59,5661.003114071278,2,12,0.550297200679779,4.200138568878174,11.635937837940457,10.835307209467496,46.465671402224864,39.507442505119,0.0001618385285837,0.0922218039631843,0,0,0
3813,132166.97424604307,2010-11-03 03:06:29,30.01550050202236,3,12,0.0,4.117253303527832,11.635937837940457,10.835307209467496,46.465671402224864,39.507442505119,-0.0003885269106831,0.0922218039631843,0,0,0
3814,132196.98941023563,2010-11-03 03:06:59,60.03066457927673,3,12,0.0,4.107216358184815,11.635937837940457,10.835307209467496,46.465671402224864,39.507442505119,-0.0001942634553415,0.0922218039631843,0,0,0
3815,132227.00472714438,2010-11-03 03:07:29,90.04598149303453,3,12,0.0,4.101388454437256,11.635937837940457,10.835307209467496,46.465671402224864,39.507442505119,-9.71794142969884e-05,0.0922218039631843,0,0,0
3816,132256.9731701336,2010-11-03 03:07:59,120.01442447725285,3,12,0.0,4.097503185272217,11.635937837940457,10.835307209467496,46.465671402224864,39.507442505119,-6.47544875391759e-05,0.0922218039631843,0,0,0
3817,132256.9833780544,2010-11-03 03:07:59,0.015621493651461,4,12,0.9810503721237184,4.199814796447754,11.635942120883197,10.835307209467496,46.46568938979116,39.507442505119,0.0,0.0922218039631843,0,0,0
3818,132257.9989924091,2010-11-03 03:08:00,1.031235838304074,4,12,0.9302991628646852,4.199653148651123,11.636210202411172,10.835307209467496,46.466815245602135,39.507442505119,-3.23295607813634e-05,0.0922218039631843,0,0,0
3819,132260.2177295032,2010-11-03 03:08:02,3.249972932435194,4,12,0.8802703619003296,4.199653148651123,11.63676701627133,10.835307209467496,46.469153673680815,39.507442505119,-3.23295607813634e-05,0.0922218039631843,0,0,0
3820,132263.5770777683,2010-11-03 03:08:06,6.609321197527675,4,12,0.8302416205406189,4.199814796447754,11.637563705244926,10.835307209467496,46.47249952488053,39.507442505119,6.47544875391759e-05,0.0922218039631843,0,0,0
3821,132268.13977232086,2010-11-03 03:08:10,11.172015755096377,4,12,0.7798516154289246,4.199653148651123,11.638582580675426,10.835307209467496,46.4767784836301,39.507442505119,-3.23295607813634e-05,0.0922218039631843,0,0,0
3822,132274.15511289638,2010-11-03 03:08:16,17.187356325597356,4,12,0.7294616103172302,4.199814796447754,11.639842175284798,10.835307209467496,46.482068387472594,39.507442505119,0.0,0.0922218039631843,0,0,0
3823,132281.9987549687,2010-11-03 03:08:24,25.03099839792405,4,12,0.6794328689575195,4.199653148651123,11.64137507228182,10.835307209467496,46.48850608240472,39.507442505119,3.24249267578125e-05,0.0922218039631843,0,0,0
3824,132292.59240222204,2010-11-03 03:08:35,35.62464565126026,4,12,0.6292234659194946,4.199653148651123,11.643297357079456,10.835307209467496,46.49657908806193,39.507442505119,-3.23295607813634e-05,0.0922218039631843,0,0,0
3825,132307.67054401367,2010-11-03 03:08:50,50.70278744288628,4,12,0.5791947245597839,4.199491024017334,11.645822478279008,10.835307209467496,46.507183873555455,39.507442505119,-3.24249267578125e-05,0.0922218039631843,0,0,0
3826,132331.0920175048,2010-11-03 03:09:13,74.12426093402377,4,12,0.5291659235954285,4.199653148651123,11.649416061885209,10.835307209467496,46.52227587421809,39.507442505119,-3.23295607813634e-05,0.0922218039631843,0,0,0
3827,132372.1073588619,2010-11-03 03:09:54,115.1396023111536,4,12,0.4787759482860565,4.199653148651123,11.655133834574947,10.835307209467496,46.546288840481054,39.507442505119,3.24249267578125e-05,0.0922218039631843,0,0,0
3828,132444.3096610061,2010-11-03 03:11:06,187.34190443028947,4,12,0.4287471771240234,4.199653148651123,11.66420045184114,10.835307209467496,46.58436593646186,39.507442505119,0.0,0.0922218039631843,0,0,0
3829,132546.839879771,2010-11-03 03:12:49,289.872123200219,4,12,0.3787184059619903,4.199653148651123,11.675675424079042,10.835307209467496,46.63255740626584,39.507442505119,0.0,0.0922218039631843,0,0,0
3830,132672.27613908713,2010-11-03 03:14:54,415.30838251635817,4,12,0.3286896347999573,4.199653148651123,11.687978537452953,10.835307209467496,46.68422687067,39.507442505119,0.0,0.0922218039631843,0,0,0
3831,132820.08720160933,2010-11-03 03:17:22,563.119445038577,4,12,0.2786608636379242,4.199814796447754,11.700429260211209,10.835307209467496,46.73651620969366,39.507442505119,3.23295607813634e-05,0.0922218039631843,0,0,0
3832,132997.8354198179,2010-11-03 03:20:20,740.8676632471053,4,12,0.2286321073770523,4.199653148651123,11.712934489108594,10.835307209467496,46.789034450870375,39.507442505119,-3.23295607813634e-05,0.0922218039631843,0,0,0
3833,133221.23948232777,2010-11-03 03:24:03,964.2717257870607,4,12,0.1786033362150192,4.199491024017334,11.725532221131845,10.835307209467496,46.841941137335496,39.507442505119,-3.24249267578125e-05,0.0922218039631843,0,0,0
3834,133525.90832000875,2010-11-03 03:29:08,1268.9405634429788,4,12,0.1283939480781555,4.199491024017334,11.738432377218825,10.835307209467496,46.896117919723125,39.507442505119,-6.47544875391759e-05,0.0922218039631843,0,0,0
3835,134015.27849555464,2010-11-03 03:37:17,1758.310738983848,4,12,0.078365184366703,4.199491024017334,11.752217414472067,10.835307209467496,46.95401095053656,39.507442505119,-3.24249267578125e-05,0.0922218039631843,0,0,0
3836,134503.50818593407,2010-11-03 03:45:25,2246.5404293632955,4,12,0.0496483072638511,4.199491024017334,11.76079765529691,10.835307209467496,46.990045429625646,39.507442505119,-3.24249267578125e-05,0.0922218039631843,0,0,0
3837,134533.52467358654,2010-11-03 03:45:56,30.015456637529837,5,12,0.0,4.192044734954834,11.76079765529691,10.835307209467496,46.990045429625646,39.507442505119,-6.47544875391759e-05,0.0922218039631843,0,0,0
3838,134563.52423957357,2010-11-03 03:46:26,60.015022624551285,5,12,0.0,4.190911293029785,11.76079765529691,10.835307209467496,46.990045429625646,39.507442505119,-3.24249267578125e-05,0.0922218039631843,0,0,0
3839,134563.71362111162,2010-11-03 03:46:26,0.187616790372892,6,12,-1.9243103452026844e-05,4.190749645233154,11.76079765529691,10.835307210470363,46.990045429625646,39.50744250932177,0.0,0.0939245000481605,0,0,0
3840,134568.54158364885,2010-11-03 03:46:31,5.015579327629352,6,12,0.0003419754502829,4.190749645233154,11.760798407999664,10.835307210637485,46.99004858419191,39.50744251002212,-6.47544875391759e-05,0.0939245000481605,0,0,0
3841,134598.55873227672,2010-11-03 03:47:01,30.0153410540156,7,12,-1.0997490882873535,4.0202836990356445,11.760798407999664,10.844476649915036,46.99004858419191,39.544496108803685,-0.0009065627818927,0.0939245000481605,0,0,0
3842,134628.57406402752,2010-11-03 03:47:31,60.03067280480893,7,12,-1.099568486213684,3.9948675632476807,11.760798407999664,10.853646096030753,46.99004858419191,39.581234331355255,-0.0005504131549969,0.0939245000481605,0,0,0
3843,134658.5893936931,2010-11-03 03:48:01,90.04600247039726,7,12,-1.099568486213684,3.977060317993164,11.760798407999664,10.86281555924534,46.99004858419191,39.61777893573716,-0.0004209041653666,0.0939245000481605,0,0,0
3844,134688.6047036144,2010-11-03 03:48:31,120.06131239170082,7,12,-1.0997490882873535,3.9631381034851074,11.760798407999664,10.871984846270948,46.99004858419191,39.65418015488941,-0.0003561496851034,0.0939245000481605,0,0,0
3845,134718.62003763588,2010-11-03 03:49:01,150.07664641316208,7,12,-1.099568486213684,3.9516441822052,11.760798407999664,10.881154097965943,46.99004858419191,39.690465422265845,-0.0002590179501567,0.0939245000481605,0,0,0
3846,134748.63546157678,2010-11-03 03:49:31,180.09207035407613,7,12,-1.099929690361023,3.9411215782165527,11.760798407999664,10.890323325173776,46.99004858419191,39.72664983451478,-0.0002913951757363,0.0939245000481605,0,0,0
3847,134778.65070208986,2010-11-03 03:50:01,210.107310867126,7,12,-1.099929690361023,3.931570291519165,11.760798407999664,10.89949255053656,46.99004858419191,39.76274247493464,-0.0002266406954731,0.0939245000481605,0,0,0
3848,134808.66615595043,2010-11-03 03:50:31,240.12276473273675,7,12,-1.0997490882873535,3.9221808910369873,11.760798407999664,10.908661896545029,46.99004858419191,39.79874901270512,-0.0002266406954731,0.0939245000481605,0,0,0
3849,134838.68136480445,2010-11-03 03:51:01,270.13797358676084,7,12,-1.099929690361023,3.9131155014038086,11.760798407999664,10.917831079723737,46.99004858419191,39.83467145093263,-0.0002913475036621,0.0939245000481605,0,0,0
3850,134868.69684670004,2010-11-03 03:51:31,300.1534554873511,7,12,-1.0997490882873535,3.90469741821289,11.760798407999664,10.9270003618103,46.99004858419191,39.87051392733061,-0.0002266406954731,0.0939245000481605,0,0,0
3851,134898.7119929478,2010-11-03 03:52:01,330.1686017250753,7,12,-1.0997490882873535,3.8962793350219727,11.760798407999664,10.936169553628895,46.99004858419191,39.906277352914834,-0.0001942634553415,0.0939245000481605,0,0,0
3852,134928.72728603205,2010-11-03 03:52:31,360.18389481436355,7,12,-1.099929690361023,3.8880231380462646,11.760798407999664,10.945338820917364,46.99004858419191,39.94196508195855,-0.0002590179501567,0.0939245000481605,0,0,0
3853,134958.7427386796,2010-11-03 03:53:01,390.19934745692126,7,12,-1.0997490882873535,3.879928827285767,11.760798407999664,10.954508097932946,46.99004858419191,39.97757777634604,-0.0001942634553415,0.0939245000481605,0,0,0
3854,134988.75793878685,2010-11-03 03:53:31,420.214547564112,7,12,-1.0997490882873535,3.871834516525269,11.760798407999664,10.963677207906652,46.99004858419191,40.013115424475565,-0.0001942634553415,0.0939245000481605,0,0,0
3855,135018.77368359367,2010-11-03 03:54:01,450.2302923709568,7,12,-1.099929690361023,3.8637402057647705,11.760798407999664,10.972846346764491,46.99004858419191,40.04857977295188,-0.0002266406954731,0.0939245000481605,0,0,0
3856,135048.7886391003,2010-11-03 03:54:31,480.24524787758673,7,12,-1.0997490882873535,3.8558077812194815,11.760798407999664,10.982015155390076,46.99004858419191,40.08397016020628,-0.0001942634553415,0.0939245000481605,0,0,0
3857,135078.80393529232,2010-11-03 03:55:01,510.2605440696199,7,12,-1.0997490882873535,3.8481991291046143,11.760798407999664,10.991184046668234,46.99004858419191,40.119288939690655,-0.0001942634553415,0.0939245000481605,0,0,0
3858,135108.81927058697,2010-11-03 03:55:31,540.2758793642591,7,12,-1.0997490882873535,3.840590476989746,11.760798407999664,11.000352912528786,46.99004858419191,40.15453749966305,-0.0001618862152099,0.0939245000481605,0,0,0
3859,135138.83461242294,2010-11-03 03:56:01,570.2912212002267,7,12,-1.0997490882873535,3.832982063293457,11.760798407999664,11.009522081049736,46.99004858419191,40.18971744402644,-0.0002265930233988,0.0939245000481605,0,0,0
3860,135168.84993007855,2010-11-03 03:56:31,600.3065388558363,7,12,-1.099568486213684,3.825535297393799,11.760798407999664,11.018691249879453,46.99004858419191,40.22482911840797,-0.0002266406954731,0.0939245000481605,0,0,0
3861,135198.86526100727,2010-11-03 03:57:01,630.3218697845776,7,12,-1.099568486213684,3.818412303924561,11.760798407999664,11.027860408794316,46.99004858419191,40.25987367700498,-0.0001942634553415,0.0939245000481605,0,0,0
3862,135228.8805922869,2010-11-03 03:57:31,660.3372010641949,7,12,-1.099929690361023,3.811289310455322,11.760798407999664,11.037029495371309,46.99004858419191,40.29485216513182,-0.0001618862152099,0.0939245000481605,0,0,0
3863,135258.8959470251,2010-11-03 03:58:01,690.3525558023682,7,12,-1.0997490882873535,3.804328203201294,11.760798407999664,11.046198625433306,46.99004858419191,40.32976649740044,-0.0001942634553415,0.0939245000481605,0,0,0
3864,135288.91124152788,2010-11-03 03:58:31,720.3678503302474,7,12,-1.0997490882873535,3.797528982162476,11.760798407999664,11.055367747817458,46.99004858419191,40.36461761595818,-0.0001942634553415,0.0939245000481605,0,0,0
3865,135318.92659833626,2010-11-03 03:59:01,750.3832071135257,7,12,-1.0997490882873535,3.790729761123657,11.760798407999664,11.064536904504802,46.99004858419191,40.39940697214178,-0.0001618862152099,0.0939245000481605,0,0,0
3866,135348.94190012722,2010-11-03 03:59:31,780.3985089045348,7,12,-1.0997490882873535,3.784092426300049,11.760798407999664,11.073706088400945,46.99004858419191,40.4341355322119,-0.0001942634553415,0.0939245000481605,0,0,0
3867,135378.9573635317,2010-11-03 04:00:01,810.4139723189808,7,12,-1.099929690361023,3.777778863906861,11.760798407999664,11.082875302071136,46.99004858419191,40.468804447499686,-0.0001618862152099,0.0939245000481605,0,0,0
3868,135408.97255222537,2010-11-03 04:00:31,840.4291610026567,7,12,-1.099568486213684,3.771627187728882,11.760798407999664,11.092044467053151,46.99004858419191,40.503415033233765,-0.0001618862152099,0.0939245000481605,0,0,0
3869,135438.98801143933,2010-11-03 04:01:01,870.4446202216301,7,12,-1.099929690361023,3.7654755115509033,11.760798407999664,11.101213629098892,46.99004858419191,40.53796874315072,-0.0001295089750783,0.0939245000481605,0,0,0
3870,135469.0032404687,2010-11-03 04:01:31,900.4598492460026,7,12,-1.0997490882873535,3.759323835372925,11.760798407999664,11.110382747312292,46.99004858419191,40.57246650103644,-0.0001295089750783,0.0939245000481605,0,0,0
3871,135499.0185746205,2010-11-03 04:02:01,930.4751833977892,7,12,-1.099568486213684,3.753334045410156,11.760798407999664,11.119551863956875,46.99004858419191,40.6069089356967,-0.0001942634553415,0.0939245000481605,0,0,0
3872,135529.03399710776,2010-11-03 04:02:31,960.4906059101372,7,12,-1.0997490882873535,3.747182607650757,11.760798407999664,11.128721046713649,46.99004858419191,40.64129708499705,-0.0002266406954731,0.0939245000481605,0,0,0
3873,135559.04921639786,2010-11-03 04:03:01,990.5058251751487,7,12,-1.0997490882873535,3.741192817687988,11.760798407999664,11.13789014178476,46.99004858419191,40.67562969429739,-0.0001618862152099,0.0939245000481605,0,0,0
3874,135589.06452303095,2010-11-03 04:03:31,1020.5211318082444,7,12,-1.099929690361023,3.73520302772522,11.760798407999664,11.147059182070931,46.99004858419191,40.70990677408973,-0.0001942634553415,0.0939245000481605,0,0,0
3875,135619.07992952332,2010-11-03 04:04:01,1050.5365383206542,7,12,-1.0997490882873535,3.729375123977661,11.760798407999664,11.156228237987907,46.99004858419191,40.74412960949101,-0.0001618862152099,0.0939245000481605,0,0,0
3876,135649.09518348996,2010-11-03 04:04:31,1080.5517922672364,7,12,-1.0997490882873535,3.7238709926605225,11.760798407999664,11.165397114611851,46.99004858419191,40.77829846772615,-0.0001295089750783,0.0939245000481605,0,0,0
3877,135679.110504534,2010-11-03 04:05:01,1110.567113311304,7,12,-1.0997490882873535,3.717881202697754,11.760798407999664,11.17456602270957,46.99004858419191,40.812414034777454,-0.0001618862152099,0.0939245000481605,0,0,0
3878,135709.12583730737,2010-11-03 04:05:31,1140.5824461046998,7,12,-1.0997490882873535,3.7123770713806152,11.760798407999664,11.18373492608257,46.99004858419191,40.8464776398493,-0.0001295089750783,0.0939245000481605,0,0,0
3879,135739.14115018604,2010-11-03 04:06:01,1170.597758968348,7,12,-1.0997490882873535,3.7067110538482666,11.760798407999664,11.192903797651262,46.99004858419191,40.88048943075648,-0.0001618862152099,0.0939245000481605,0,0,0
3880,135769.15658621214,2010-11-03 04:06:31,1200.6131949793908,7,12,-1.0997490882873535,3.701206922531128,11.760798407999664,11.202072686328451,46.99004858419191,40.91445045332618,-0.0001295089750783,0.0939245000481605,0,0,0
3881,135799.17175608885,2010-11-03 04:07:01,1230.6283648661465,7,12,-1.0997490882873535,3.695864677429199,11.760798407999664,11.21124150834146,46.99004858419191,40.94836147768427,-0.0001295089750783,0.0939245000481605,0,0,0
3882,135829.18712669163,2010-11-03 04:07:31,1260.6437354689206,7,12,-1.099568486213684,3.6905224323272714,11.760798407999664,11.220410322968348,46.99004858419191,40.98222331880367,-0.0001295089750783,0.0939245000481605,0,0,0
3883,135859.20236860818,2010-11-03 04:08:02,1290.6589773754488,7,12,-1.0997490882873535,3.685180187225342,11.760798407999664,11.22957916936639,46.99004858419191,41.01603622317019,-0.0001618862152099,0.0939245000481605,0,0,0
3884,135889.21773394282,2010-11-03 04:08:32,1320.6743427200977,7,12,-1.0997490882873535,3.679999828338623,11.760798407999664,11.23874799812378,46.99004858419191,41.04980131897124,-0.0001295089750783,0.0939245000481605,0,0,0
3885,135919.23301891185,2010-11-03 04:09:02,1350.6896276891164,7,12,-1.099568486213684,3.674819469451904,11.760798407999664,11.247916730424707,46.99004858419191,41.08351813395197,-9.713172767078504e-05,0.0939245000481605,0,0,0
3886,135949.250901946,2010-11-03 04:09:32,1380.7075107233054,7,12,-1.099568486213684,3.669801235198975,11.760798407999664,11.257086219518747,46.99004858419191,41.1171910197748,-0.0001618862152099,0.0939245000481605,0,0,0
3887,135979.2636632506,2010-11-03 04:10:02,1410.720272032882,7,12,-1.099568486213684,3.664782762527466,11.760798407999664,11.266254191986624,46.99004858419191,41.150812503688485,-0.0001295089750783,0.0939245000481605,0,0,0
3888,136009.2789467359,2010-11-03 04:10:32,1440.7355555131849,7,12,-1.099929690361023,3.659926176071167,11.760798407999664,11.275422914001975,46.99004858419191,41.184391838421845,-0.0001295089750783,0.0939245000481605,0,0,0
3889,136039.29424482764,2010-11-03 04:11:02,1470.7508536099726,7,12,-1.0997490882873535,3.655069589614868,11.760798407999664,11.284591582843236,46.99004858419191,41.21792652847319,-0.0001618862152099,0.0939245000481605,0,0,0
3890,136069.30954965125,2010-11-03 04:11:32,1500.766158438564,7,12,-1.099568486213684,3.6503748893737793,11.760798407999664,11.293760284473816,46.99004858419191,41.25141784167771,-0.0001295089750783,0.0939245000481605,0,0,0
3891,136099.32503649418,2010-11-03 04:12:02,1530.781645271466,7,12,-1.099568486213684,3.645518302917481,11.760798407999664,11.302928769874006,46.99004858419191,41.284864960453525,-0.0001618862152099,0.0939245000481605,0,0,0
3892,136129.34012205544,2010-11-03 04:12:32,1560.7967308327325,7,12,-1.099568486213684,3.6409854888916016,11.760798407999664,11.312096492173136,46.99004858419191,41.31826703182606,-0.0001618862152099,0.0939245000481605,0,0,0
3893,136159.35551237743,2010-11-03 04:13:02,1590.8121212700164,7,12,-1.0993878841400146,3.636776447296143,11.760798407999664,11.321264436894133,46.99004858419191,41.35162825154025,-9.713172767078504e-05,0.0939245000481605,0,0,0
3894,136189.37073003344,2010-11-03 04:13:32,1620.8273388107236,7,12,-1.099568486213684,3.6324055194854736,11.760798407999664,11.330432335583566,46.99004858419191,41.384948398480745,-9.713172767078504e-05,0.0939245000481605,0,0,0
3895,136219.3860329623,2010-11-03 04:14:02,1650.8426417445855,7,12,-1.099568486213684,3.6278727054595943,11.760798407999664,11.339600208278574,46.99004858419191,41.41822840925516,-0.0001295089750783,0.0939245000481605,0,0,0
3896,136249.40132065312,2010-11-03 04:14:32,1680.857929430386,7,12,-1.099568486213684,3.623663663864136,11.760798407999664,11.34876803068856,46.99004858419191,41.45146879210182,-9.713172767078504e-05,0.0939245000481605,0,0,0
3897,136279.4167702681,2010-11-03 04:15:02,1710.8733790503989,7,12,-1.0997490882873535,3.619292736053467,11.760798407999664,11.357935998978826,46.99004858419191,41.48467082862853,-0.0001295089750783,0.0939245000481605,0,0,0
3898,136309.43193888167,2010-11-03 04:15:32,1740.8885476639766,7,12,-1.0997490882873535,3.6152455806732178,11.760798407999664,11.367104443805436,46.99004858419191,41.51783680845307,-0.0001295089750783,0.0939245000481605,0,0,0
3899,136339.44723179052,2010-11-03 04:16:02,1770.9038405778272,7,12,-1.099568486213684,3.6115221977233887,11.760798407999664,11.376272899767653,46.99004858419191,41.55096651601252,-9.713172767078504e-05,0.0939245000481605,0,0,0
3900,136369.46250498516,2010-11-03 04:16:32,1800.9191137674425,7,12,-1.0997490882873535,3.6076369285583496,11.760798407999664,11.38544133281205,46.99004858419191,41.58406045103881,-9.713172767078504e-05,0.0939245000481605,0,0,0
3901,136399.4779198083,2010-11-03 04:17:02,1830.9345286056348,7,12,-1.099568486213684,3.6040754318237305,11.760798407999664,11.394609793026056,46.99004858419191,41.6171197655546,-3.237724376958795e-05,0.0939245000481605,0,0,0
3902,136429.4930870735,2010-11-03 04:17:32,1860.9496958558093,7,12,-1.0997490882873535,3.6003520488739014,11.760798407999664,11.403778232476366,46.99004858419191,41.65014568756149,-9.713172767078504e-05,0.0939245000481605,0,0,0
3903,136459.50852859832,2010-11-03 04:18:02,1890.965137405678,7,12,-1.099568486213684,3.5967905521392822,11.760798407999664,11.412946792944922,46.99004858419191,41.683138564828624,-6.47544875391759e-05,0.0939245000481605,0,0,0
3904,136489.52375203877,2010-11-03 04:18:32,1920.980360816037,7,12,-1.0997490882873535,3.593067169189453,11.760798407999664,11.42211521499803,46.99004858419191,41.716098904370135,-0.0001295089750783,0.0939245000481605,0,0,0
3905,136519.53911367414,2010-11-03 04:19:02,1950.995722451427,7,12,-1.099568486213684,3.589991569519043,11.760798407999664,11.431283713597416,46.99004858419191,41.74902818770025,-6.47544875391759e-05,0.0939245000481605,0,0,0
3906,136549.5542608492,2010-11-03 04:19:32,1981.0108696264904,7,12,-1.0997490882873535,3.586430072784424,11.760798407999664,11.440452113823229,46.99004858419191,41.781925965623245,-9.713172767078504e-05,0.0939245000481605,0,0,0
3907,136579.56956000364,2010-11-03 04:20:02,2011.0261687809184,7,12,-1.099568486213684,3.5831923484802246,11.760798407999664,11.449620560043137,46.99004858419191,41.81479344155235,-9.713172767078504e-05,0.0939245000481605,0,0,0
3908,136609.58484418067,2010-11-03 04:20:32,2041.0414529579605,7,12,-1.099568486213684,3.5799546241760254,11.760798407999664,11.458788977152162,46.99004858419191,41.84763096605201,-0.0001295089750783,0.0939245000481605,0,0,0
3909,136639.60012727,2010-11-03 04:21:02,2071.056736047288,7,12,-1.0997490882873535,3.576716899871826,11.760798407999664,11.467957413745676,46.99004858419191,41.88043935340952,-0.0001295089750783,0.0939245000481605,0,0,0
3910,136669.6154270059,2010-11-03 04:21:32,2101.0720357831665,7,12,-1.099568486213684,3.573641061782837,11.760798407999664,11.477125850454811,46.99004858419191,41.913218995612056,-9.713172767078504e-05,0.0939245000481605,0,0,0
3911,136699.63074804994,2010-11-03 04:22:02,2131.087356827234,7,12,-1.0997490882873535,3.570565223693848,11.760798407999664,11.4862942939371,46.99004858419191,41.94597025976148,-9.713172767078504e-05,0.0939245000481605,0,0,0
3912,136729.64618251214,2010-11-03 04:22:32,2161.102791299436,7,12,-1.099568486213684,3.5674893856048584,11.760798407999664,11.495462807023266,46.99004858419191,41.97869297967602,-6.47544875391759e-05,0.0939245000481605,0,0,0
3913,136759.66129911586,2010-11-03 04:23:02,2191.117907893164,7,12,-1.099568486213684,3.564413547515869,11.760798407999664,11.504631184563785,46.99004858419191,42.01138635297622,-6.47544875391759e-05,0.0939245000481605,0,0,0
3914,136789.67674556296,2010-11-03 04:23:32,2221.1333543603077,7,12,-1.099568486213684,3.56133770942688,11.760798407999664,11.513799597393986,46.99004858419191,42.04405211766689,-9.713172767078504e-05,0.0939245000481605,0,0,0
3915,136819.69188408644,2010-11-03 04:24:02,2251.1484928637256,7,12,-1.0997490882873535,3.5579380989074707,11.760798407999664,11.52296795090251,46.99004858419191,42.07668939110315,-0.0001295089750783,0.0939245000481605,0,0,0
3916,136849.70715588256,2010-11-03 04:24:32,2281.163764664875,7,12,-1.0997490882873535,3.5550241470336914,11.760798407999664,11.532136367149535,46.99004858419191,42.10929787869775,-9.713172767078504e-05,0.0939245000481605,0,0,0
3917,136879.72245612473,2010-11-03 04:25:02,2311.1790649020054,7,12,-1.099568486213684,3.551786422729492,11.760798407999664,11.54130473324872,46.99004858419191,42.14187719753375,-9.713172767078504e-05,0.0939245000481605,0,0,0
3918,136909.73772873788,2010-11-03 04:25:32,2341.1943375151823,7,12,-1.0997490882873535,3.548710584640503,11.760798407999664,11.550473116308552,46.99004858419191,42.17442761603143,-9.713172767078504e-05,0.0939245000481605,0,0,0
3919,136939.75344537443,2010-11-03 04:26:02,2371.210054156722,7,12,-1.0993878841400146,3.545472860336304,11.760798407999664,11.559641678611246,46.99004858419191,42.20694906311278,-9.713172767078504e-05,0.0939245000481605,0,0,0
3920,136969.76830504183,2010-11-03 04:26:32,2401.22491381911,7,12,-1.099568486213684,3.5422351360321045,11.760798407999664,11.568809940604568,46.99004858419191,42.23943984758318,-6.47544875391759e-05,0.0939245000481605,0,0,0
3921,136999.78358953967,2010-11-03 04:27:02,2431.2401983169525,7,12,-1.099568486213684,3.5389974117279053,11.760798407999664,11.577978350156638,46.99004858419191,42.27190102593623,-6.47544875391759e-05,0.0939245000481605,0,0,0
3922,137029.79887177685,2010-11-03 04:27:32,2461.255480554152,7,12,-1.099568486213684,3.535435914993286,11.760798407999664,11.587146798521427,46.99004858419191,42.30433103759462,-9.713172767078504e-05,0.0939245000481605,0,0,0
3923,137059.81439073998,2010-11-03 04:28:02,2491.270999522269,7,12,-1.0997490882873535,3.531874418258667,11.760798407999664,11.596315313704617,46.99004858419191,42.33672963823533,-9.713172767078504e-05,0.0939245000481605,0,0,0
3924,137089.82945543414,2010-11-03 04:28:32,2521.286064211436,7,12,-1.0993878841400146,3.528151035308838,11.760798407999664,11.605483735272054,46.99004858419191,42.36909484241162,-9.713172767078504e-05,0.0939245000481605,0,0,0
3925,137119.84473130546,2010-11-03 04:29:02,2551.301340082745,7,12,-1.099568486213684,3.524427652359009,11.760798407999664,11.614652136418403,46.99004858419191,42.40142619182406,-0.0001618862152099,0.0939245000481605,0,0,0
3926,137149.86004806886,2010-11-03 04:29:32,2581.316656846127,7,12,-1.0997490882873535,3.5208661556243896,11.760798407999664,11.6238205921789,46.99004858419191,42.43372390303223,-9.713172767078504e-05,0.0939245000481605,0,0,0
3927,137179.8753177898,2010-11-03 04:30:02,2611.331926567085,7,12,-1.099568486213684,3.5166571140289307,11.760798407999664,11.632989009188847,46.99004858419191,42.46598625346289,-0.0001618862152099,0.0939245000481605,0,0,0
3928,137209.89071169574,2010-11-03 04:30:32,2641.347320473027,7,12,-1.0997490882873535,3.5126099586486816,11.760798407999664,11.642157514539088,46.99004858419191,42.49821224712496,-0.0001618862152099,0.0939245000481605,0,0,0
3929,137239.90584294606,2010-11-03 04:31:02,2671.362451733365,7,12,-1.0997490882873535,3.5084011554718018,11.760798407999664,11.65132620779084,46.99004858419191,42.53040051396139,-0.0001618862152099,0.0939245000481605,0,0,0
3930,137269.92111996023,2010-11-03 04:31:32,2701.377728742515,7,12,-1.0997490882873535,3.503706455230713,11.760798407999664,11.660495399283006,46.99004858419191,42.562549330133095,-0.0001295089750783,0.0939245000481605,0,0,0
3931,137299.93643872358,2010-11-03 04:32:02,2731.3930475008774,7,12,-1.0997490882873535,3.499011754989624,11.760798407999664,11.669664459747649,46.99004858419191,42.59465453171776,-0.0001295089750783,0.0939245000481605,0,0,0
3932,137329.9517071162,2010-11-03 04:32:32,2761.408315898532,7,12,-1.099929690361023,3.4936695098876958,11.760798407999664,11.678833696391006,46.99004858419191,42.6267136745499,-0.0001295089750783,0.0939245000481605,0,0,0
3933,137359.96700882702,2010-11-03 04:33:02,2791.4236176093405,7,12,-1.0997490882873535,3.4880034923553467,11.760798407999664,11.688002798560214,46.99004858419191,42.65872160258108,-0.0001295089750783,0.0939245000481605,0,0,0
3934,137389.98227460316,2010-11-03 04:33:32,2821.4388833804383,7,12,-1.099568486213684,3.481528043746948,11.760798407999664,11.697171975316856,46.99004858419191,42.69067355736622,-0.0001295089750783,0.0939245000481605,0,0,0
3935,137419.9975681536,2010-11-03 04:34:02,2851.4541769308776,7,12,-1.099568486213684,3.4742431640625,11.760798407999664,11.706340940905504,46.99004858419191,42.72256135324709,-0.0001618862152099,0.0939245000481605,0,0,0
3936,137450.0129819943,2010-11-03 04:34:32,2881.4695907715795,7,12,-1.099568486213684,3.465825080871582,11.760798407999664,11.71550929208312,46.99004858419191,42.75437619686373,-0.0002266406954731,0.0939245000481605,0,0,0
3937,137480.02816333965,2010-11-03 04:35:02,2911.4847721219503,7,12,-1.0997490882873535,3.4561119079589844,11.760798407999664,11.724677572993963,46.99004858419191,42.78610879406487,-0.0002913951757363,0.0939245000481605,0,0,0
3938,137510.04341431882,2010-11-03 04:35:32,2941.500023096113,7,12,-1.099568486213684,3.444617986679077,11.760798407999664,11.733845869197884,46.99004858419191,42.817744612235,-0.0003561496851034,0.0939245000481605,0,0,0
3939,137540.05871463614,2010-11-03 04:36:02,2971.515323413444,7,12,-1.0997490882873535,3.4306960105896,11.760798407999664,11.743014245404549,46.99004858419191,42.84926487041151,-0.0004208564641885,0.0939245000481605,0,0,0
3940,137570.07412293804,2010-11-03 04:36:32,3001.530731725345,7,12,-1.0997490882873535,3.413536071777344,11.760798407999664,11.752182634485854,46.99004858419191,42.88064289185531,-0.0004856586456298,0.0939245000481605,0,0,0
3941,137600.08927055923,2010-11-03 04:37:02,3031.545879336498,7,12,-1.0997490882873535,3.391519546508789,11.760798407999664,11.761350967991412,46.99004858419191,42.91184194375193,-0.0006475448608398,0.0939245000481605,0,0,0
3942,137630.10456755827,2010-11-03 04:37:32,3061.561176335545,7,12,-1.099568486213684,3.362703800201416,11.760798407999664,11.77051936480307,46.99004858419191,42.94281112518148,-0.0008741855854168,0.0939245000481605,0,0,0
3943,137660.11985055736,2010-11-03 04:38:02,3091.576459334646,7,12,-1.0997490882873535,3.3243370056152344,11.760798407999664,11.779687788548715,46.99004858419191,42.97347626159742,-0.0011979580158367,0.0939245000481605,0,0,0
3944,137690.13525322016,2010-11-03 04:38:32,3121.5918620074726,7,12,-1.0997490882873535,3.271723985671997,11.760798407999664,11.788856156518744,46.99004858419191,43.003728087106325,-0.0016188621520996,0.0939245000481605,0,0,0
3945,137720.15040216464,2010-11-03 04:39:02,3151.6070109419284,7,12,-1.099568486213684,3.197256565093994,11.760798407999664,11.798024464480244,46.99004858419191,43.03340385170452,-0.0022987842094153,0.0939245000481605,0,0,0
3946,137750.16567687306,2010-11-03 04:39:32,3181.6222856503346,7,12,-1.099568486213684,3.084746122360229,11.760798407999664,11.807192820218456,46.99004858419191,43.06223990419164,-0.003593873931095,0.0939245000481605,0,0,0
3947,137778.8528594642,2010-11-03 04:40:01,3210.309468241495,7,12,-1.0997490882873535,2.884331464767456,11.760798407999664,11.815955484198785,46.99004858419191,43.08851317653497,-0.0078352931886911,0.0939245000481605,0,0,0
3948,137793.60268131376,2010-11-03 04:40:16,3225.059290091035,7,12,-1.099568486213684,2.699781894683838,11.760798407999664,11.820460922588742,46.99004858419191,43.101114497860415,-0.0110405925661325,0.0939245000481605,0,0,0
3949,137853.622782618,2010-11-03 04:41:16,60.01507025845283,8,12,0.0,3.325146436691284,11.760798407999664,11.820460922588742,46.99004858419191,43.101114497860415,0.0012303352123126,0.0939245000481605,0,0,0
3950,137853.81585036658,2010-11-03 04:41:16,0.187489482593088,9,12,-1.9243103452026844e-05,3.325470209121704,11.760798407999664,11.820460923590932,46.99004858419191,43.101114501193166,0.0,0.0939245000481605,0,0,0
3951,137858.64391071798,2010-11-03 04:41:21,5.015549834008737,9,12,0.0007031940040178,3.3330788612365723,11.760799274429708,11.820460923674696,46.99005146932459,43.10111450147172,0.0011008263099938,0.0939245000481605,0,0,0
