Data_Point,Test_Time(s),Date_Time,Step_Time(s),Step_Index,Cycle_Index,Current(A),Voltage(V),Charge_Capacity(Ah),Discharge_Capacity(Ah),Charge_Energy(Wh),Discharge_Energy(Wh),dV/dt(V/s),Internal_Resistance(Ohm),Is_FC_Data,AC_Impedance(Ohm),ACI_Phase_Angle(Deg)
2625,91848.72573826484,2010-11-02 15:54:27,30.01527366580425,1,9,0.0,3.366265296936035,7.811558231715446,7.871344921293777,31.22826205886798,28.687126201783546,0.0007446765666827,0.0938397273421287,0,0,0
2626,91878.7410432438,2010-11-02 15:54:57,60.0305786497835,1,9,0.0,3.3892531394958496,7.811558231715446,7.871344921293777,31.22826205886798,28.687126201783546,0.0005180359003134,0.0938397273421287,0,0,0
2627,91908.756312268,2010-11-02 15:55:27,90.04584766898913,1,9,0.0,3.4067368507385254,7.811558231715446,7.871344921293777,31.22826205886798,28.687126201783546,0.0003885269106831,0.0938397273421287,0,0,0
2628,91938.72472020471,2010-11-02 15:55:57,120.01425562577356,1,9,0.0,3.420820951461792,7.811558231715446,7.871344921293777,31.22826205886798,28.687126201783546,0.0003561496851034,0.0938397273421287,0,0,0
2629,91968.73723060502,2010-11-02 15:56:27,30.015390597684217,2,9,0.5501165986061096,3.581573486328125,7.816145054550019,7.871344921293777,31.244520170864792,28.687126201783546,0.0016512393485754,0.0938397273421287,0,0,0
2630,91998.75241061706,2010-11-02 15:56:57,60.030571451816265,2,9,0.5499359965324402,3.6324055194854736,7.820731785010413,7.871344921293777,31.26107193656389,28.687126201783546,0.0011332035064697,0.0938397273421287,0,0,0
2631,92028.7677830444,2010-11-02 15:57:27,90.04594303202995,2,9,0.550297200679779,3.6693155765533447,7.825318530546782,7.871344921293777,31.27782179346205,28.687126201783546,0.0008418083307333,0.0938397273421287,0,0,0
2632,92058.78295489604,2010-11-02 15:57:57,120.06111488369044,2,9,0.5501165986061096,3.6981310844421382,7.829905222758887,7.871344921293777,31.294721017668312,28.687126201783546,0.0006799221155233,0.0938397273421287,0,0,0
2633,92088.7983483308,2010-11-02 15:58:27,150.07650831845643,2,9,0.550297200679779,3.722090244293213,7.834491928363123,7.871344921293777,31.311740111158173,28.687126201783546,0.0006151676061563,0.0938397273421287,0,0,0
2634,92118.81350943063,2010-11-02 15:58:57,180.0916694182787,2,9,0.5499359965324402,3.741678476333618,7.839078593172271,7.871344921293777,31.32885794529854,28.687126201783546,0.0004856586456298,0.0938397273421287,0,0,0
2635,92148.82894615846,2010-11-02 15:59:27,210.10710614611085,2,9,0.5501165986061096,3.757381200790405,7.843665380886126,7.871344921293777,31.34605793298871,28.687126201783546,0.0003561496851034,0.0938397273421287,0,0,0
2636,92178.8440970478,2010-11-02 15:59:57,240.12225703544613,2,9,0.550297200679779,3.7685513496398926,7.848252056970154,7.871344921293777,31.363319475503573,28.687126201783546,0.0002590179501567,0.0938397273421287,0,0,0
2637,92208.85954079316,2010-11-02 16:00:27,270.1377007807951,2,9,0.5499359965324402,3.774864912033081,7.852838797186649,7.871344921293777,31.38062045236311,28.687126201783546,0.0001295089750783,0.0938397273421287,0,0,0
2638,92238.8747939628,2010-11-02 16:00:57,300.15295395043785,2,9,0.5501165986061096,3.77907395362854,7.857425508725873,7.871344921293777,31.397945162132388,28.687126201783546,9.713172767078504e-05,0.0938397273421287,0,0,0
2639,92268.89007405964,2010-11-02 16:01:27,330.16823405230747,2,9,0.5501165986061096,3.782797336578369,7.862012227034119,7.871344921293777,31.4152876961599,28.687126201783546,6.47544875391759e-05,0.0938397273421287,0,0,0
2640,92298.90525942504,2010-11-02 16:01:57,360.18341941268784,2,9,0.5499359965324402,3.7861969470977774,7.866598888633143,7.871344921293777,31.43264616118415,28.687126201783546,6.47544875391759e-05,0.0938397273421287,0,0,0
2641,92328.92056947669,2010-11-02 16:02:27,390.1987294693293,2,9,0.5501165986061096,3.7897584438323975,7.871185646444099,7.871344921293777,31.450020839057068,28.687126201783546,9.713172767078504e-05,0.0938397273421287,0,0,0
2642,92358.93584101716,2010-11-02 16:02:57,420.2140010048158,2,9,0.550297200679779,3.793158054351807,7.875772408403649,7.871344921293777,31.467410832068463,28.687126201783546,0.0001295089750783,0.0938397273421287,0,0,0
2643,92388.95113366036,2010-11-02 16:03:27,450.2292936479906,2,9,0.5501165986061096,3.796233892440796,7.880359094935328,7.871344921293777,31.4848155776598,28.687126201783546,6.47544875391759e-05,0.0938397273421287,0,0,0
2644,92418.96640587252,2010-11-02 16:03:57,480.2445658601664,2,9,0.5501165986061096,3.799471616744995,7.884945758146079,7.871344921293777,31.5022348444208,28.687126201783546,9.713172767078504e-05,0.0938397273421287,0,0,0
2645,92448.98190656502,2010-11-02 16:04:27,510.2600665626892,2,9,0.550297200679779,3.8027093410491934,7.889532525471117,7.871344921293777,31.519668927424373,28.687126201783546,0.0001618862152099,0.0938397273421287,0,0,0
2646,92478.99697568524,2010-11-02 16:04:57,540.2751356728911,2,9,0.550297200679779,3.8056232929229736,7.894119156681018,7.871344921293777,31.537116439719235,28.687126201783546,9.713172767078504e-05,0.0938397273421287,0,0,0
2647,92509.01226053396,2010-11-02 16:05:27,570.2904205216097,2,9,0.5501165986061096,3.808375358581543,7.898705961644654,7.871344921293777,31.554578394313225,28.687126201783546,6.47544875391759e-05,0.0938397273421287,0,0,0
2648,92539.02757311692,2010-11-02 16:05:57,600.3057331045571,2,9,0.5501165986061096,3.811451196670532,7.903292764175655,7.871344921293777,31.572054021654736,28.687126201783546,6.47544875391759e-05,0.0938397273421287,0,0,0
2649,92569.0429828674,2010-11-02 16:06:27,630.3211428550497,2,9,0.5501165986061096,3.8145270347595215,7.907879510910697,7.871344921293777,31.589543093970384,28.687126201783546,6.47544875391759e-05,0.0938397273421287,0,0,0
2650,92599.05812995225,2010-11-02 16:06:57,660.3362899398884,2,9,0.550297200679779,3.817440986633301,7.912466222662174,7.871344921293777,31.607045756483064,28.687126201783546,6.47544875391759e-05,0.0938397273421287,0,0,0
2651,92629.07354793328,2010-11-02 16:07:27,690.3517079309506,2,9,0.550297200679779,3.82035493850708,7.917053010052425,7.871344921293777,31.62456227045358,28.687126201783546,9.713172767078504e-05,0.0938397273421287,0,0,0
2652,92659.08873398036,2010-11-02 16:07:57,720.3668939730327,2,9,0.5501165986061096,3.823430776596069,7.921639674976929,7.871344921293777,31.64209206693297,28.687126201783546,6.47544875391759e-05,0.0938397273421287,0,0,0
2653,92689.104138588,2010-11-02 16:08:27,750.3822985756755,2,9,0.5499359965324402,3.8265066146850586,7.926226461341852,7.871344921293777,31.659636385063017,28.687126201783546,6.47544875391759e-05,0.0938397273421287,0,0,0
2654,92719.11925313664,2010-11-02 16:08:57,780.3974131242985,2,9,0.5501165986061096,3.829906225204468,7.930813174201288,7.871344921293777,31.67719499260728,28.687126201783546,0.0001295089750783,0.0938397273421287,0,0,0
2655,92749.1346049776,2010-11-02 16:09:27,810.4127649752651,2,9,0.5499359965324402,3.832820177078247,7.935399842878091,7.871344921293777,31.694768395727525,28.687126201783546,3.237724376958795e-05,0.0938397273421287,0,0,0
2656,92779.14993420208,2010-11-02 16:09:57,840.42809419474,2,9,0.5501165986061096,3.836381435394287,7.939986470206043,7.871344921293777,31.712356823154806,28.687126201783546,9.713172767078504e-05,0.0938397273421287,0,0,0
2657,92809.16516890062,2010-11-02 16:10:27,870.4433288882634,2,9,0.5501165986061096,3.839781045913696,7.944573099275003,7.871344921293777,31.729960749370825,28.687126201783546,9.713172767078504e-05,0.0938397273421287,0,0,0
2658,92839.18040999513,2010-11-02 16:10:57,900.4585699827646,2,9,0.550297200679779,3.8431806564331055,7.949159744616881,7.871344921293777,31.747580267854325,28.687126201783546,9.713172767078504e-05,0.0938397273421287,0,0,0
2659,92869.19575081856,2010-11-02 16:11:27,930.4739108062048,2,9,0.5499359965324402,3.8464183807373047,7.953746452672267,7.871344921293777,31.76521536566404,28.687126201783546,6.47544875391759e-05,0.0938397273421287,0,0,0
2660,92899.21104520108,2010-11-02 16:11:57,960.4892051837088,2,9,0.5501165986061096,3.849817991256714,7.958333218360478,7.871344921293777,31.782865918085893,28.687126201783546,9.713172767078504e-05,0.0938397273421287,0,0,0
2661,92929.22633432044,2010-11-02 16:12:27,990.5044943081,2,9,0.550297200679779,3.853217601776123,7.962919971217175,7.871344921293777,31.800531489581942,28.687126201783546,9.713172767078504e-05,0.0938397273421287,0,0,0
2662,92959.24173557472,2010-11-02 16:12:57,1020.5198955523596,2,9,0.550297200679779,3.856293439865112,7.967506724521371,7.871344921293777,31.8182116629428,28.687126201783546,9.713172767078504e-05,0.0938397273421287,0,0,0
2663,92989.25704381683,2010-11-02 16:13:27,1050.535203799484,2,9,0.5501165986061096,3.859207391738892,7.97209340353775,7.871344921293777,31.835906046800844,28.687126201783546,6.47544875391759e-05,0.0938397273421287,0,0,0
2664,93019.27218876636,2010-11-02 16:13:57,1080.5503487540052,2,9,0.5501165986061096,3.862445116043091,7.976680051919046,7.871344921293777,31.85361448475583,28.687126201783546,9.713172767078504e-05,0.0938397273421287,0,0,0
2665,93049.28749683304,2010-11-02 16:14:27,1110.5656568457418,2,9,0.5501165986061096,3.86535906791687,7.981266838126141,7.871344921293777,31.871337246700005,28.687126201783546,9.713172767078504e-05,0.0938397273421287,0,0,0
2666,93079.30277065924,2010-11-02 16:14:57,1140.580930646884,2,9,0.5501165986061096,3.86811113357544,7.98585351683463,7.871344921293777,31.889072923354178,28.687126201783546,6.47544875391759e-05,0.0938397273421287,0,0,0
2667,93109.31819347736,2010-11-02 16:15:27,1170.5963534649952,2,9,0.550297200679779,3.8710250854492183,7.990440276514154,7.871344921293777,31.906821858221136,28.687126201783546,9.713172767078504e-05,0.0938397273421287,0,0,0
2668,93139.33336691296,2010-11-02 16:15:57,1200.6115269006095,2,9,0.5501165986061096,3.873453378677368,7.995026948852394,7.871344921293777,31.92458279371644,28.687126201783546,3.237724376958795e-05,0.0938397273421287,0,0,0
2669,93169.3486460374,2010-11-02 16:16:27,1230.6268060200273,2,9,0.5499359965324402,3.876043558120728,7.999613651223866,7.871344921293777,31.94235551254962,28.687126201783546,9.713172767078504e-05,0.0938397273421287,0,0,0
2670,93199.36405698086,2010-11-02 16:16:57,1260.6422169685095,2,9,0.5499359965324402,3.878471851348877,8.004200320941264,7.871344921293777,31.96013931964836,28.687126201783546,6.47544875391759e-05,0.0938397273421287,0,0,0
2671,93229.37920849174,2010-11-02 16:17:27,1290.6573684793966,2,9,0.550297200679779,3.8809001445770255,8.008787021710747,7.871344921293777,31.977933771312767,28.687126201783546,9.713172767078504e-05,0.0938397273421287,0,0,0
2672,93259.39449253849,2010-11-02 16:17:57,1320.6726525211009,2,9,0.5499359965324402,3.882842779159546,8.013373780179549,7.871344921293777,31.99573835745353,28.687126201783546,3.237724376958795e-05,0.0938397273421287,0,0,0
2673,93289.40991680018,2010-11-02 16:18:28,1350.6880767828156,2,9,0.550297200679779,3.8847854137420654,8.017960519334176,7.871344921293777,32.01355211884476,28.687126201783546,6.47544875391759e-05,0.0938397273421287,0,0,0
2674,93319.42524913244,2010-11-02 16:18:58,1380.7034091200728,2,9,0.5501165986061096,3.886566162109375,8.022547225212495,7.871344921293777,32.0313743338102,28.687126201783546,6.47544875391759e-05,0.0938397273421287,0,0,0
2675,93349.44046367564,2010-11-02 16:19:28,1410.7186236783357,2,9,0.550297200679779,3.888346910476685,8.027133850696666,7.871344921293777,32.04920422538758,28.687126201783546,3.237724376958795e-05,0.0938397273421287,0,0,0
2676,93379.45894205592,2010-11-02 16:19:58,1440.7371021287754,2,9,0.5501165986061096,3.889803886413574,8.03172105898197,7.871344921293777,32.06704395656052,28.687126201783546,3.237724376958795e-05,0.0938397273421287,0,0,0
2677,93409.47098480686,2010-11-02 16:20:28,1470.749144879719,2,9,0.5501165986061096,3.891422748565674,8.036307248547386,7.871344921293777,32.084886742677405,28.687126201783546,3.237724376958795e-05,0.0938397273421287,0,0,0
2678,93439.48636603616,2010-11-02 16:20:58,1500.7645260238055,2,9,0.550297200679779,3.892879724502564,8.040894004767477,7.871344921293777,32.102738473184644,28.687126201783546,9.713172767078504e-05,0.0938397273421287,0,0,0
2679,93469.5015018278,2010-11-02 16:21:28,1530.7796618204673,2,9,0.5499359965324402,3.894012928009033,8.045480750013096,7.871344921293777,32.120596524765354,28.687126201783546,3.237724376958795e-05,0.0938397273421287,0,0,0
2680,93499.516792877,2010-11-02 16:21:58,1560.794952864651,2,9,0.5499359965324402,3.894984245300293,8.050067615821144,7.871344921293777,32.1384609107194,28.687126201783546,0.0,0.0938397273421287,0,0,0
2681,93529.53245211524,2010-11-02 16:22:28,1590.8106121279654,2,9,0.550297200679779,3.8966031074523926,8.054654373913039,7.871344921293777,32.15633069714628,28.687126201783546,3.237724376958795e-05,0.0938397273421287,0,0,0
2682,93559.54736563707,2010-11-02 16:22:58,1620.8255256247326,2,9,0.5499359965324402,3.8977363109588623,8.059241027131545,7.871344921293777,32.17420599791355,28.687126201783546,3.237724376958795e-05,0.0938397273421287,0,0,0
2683,93589.56264641062,2010-11-02 16:23:28,1650.8408063982788,2,9,0.5501165986061096,3.899193286895752,8.063827738490527,7.871344921293777,32.192087337934424,28.687126201783546,3.237724376958795e-05,0.0938397273421287,0,0,0
2684,93619.57796327423,2010-11-02 16:23:58,1680.856123266924,2,9,0.5501165986061096,3.9003264904022217,8.068414476070972,7.871344921293777,32.209974513145085,28.687126201783546,6.47544875391759e-05,0.0938397273421287,0,0,0
2685,93649.59323576214,2010-11-02 16:24:28,1710.8713957447628,2,9,0.5501165986061096,3.901621580123901,8.073001168509695,7.871344921293777,32.22786730187809,28.687126201783546,0.0,0.0938397273421287,0,0,0
2686,93679.6085106159,2010-11-02 16:24:58,1740.8866705985326,2,9,0.5501165986061096,3.903078556060791,8.077587881745938,7.871344921293777,32.24576597420087,28.687126201783546,9.713172767078504e-05,0.0938397273421287,0,0,0
2687,93709.62380422148,2010-11-02 16:25:28,1770.9019642041096,2,9,0.5501165986061096,3.9042117595672607,8.082174552344469,7.871344921293777,32.26367022619056,28.687126201783546,3.237724376958795e-05,0.0938397273421287,0,0,0
2688,93739.63909833333,2010-11-02 16:25:58,1800.917258320963,2,9,0.5501165986061096,3.9053449630737305,8.086761234311897,7.871344921293777,32.28158030959315,28.687126201783546,3.237724376958795e-05,0.0938397273421287,0,0,0
2689,93769.654369939,2010-11-02 16:26:28,1830.9325299266245,2,9,0.5501165986061096,3.90664005279541,8.091347950927428,7.871344921293777,32.29949621944592,28.687126201783546,3.237724376958795e-05,0.0938397273421287,0,0,0
2690,93799.6697705617,2010-11-02 16:26:58,1860.9479305743955,2,9,0.550297200679779,3.9080970287323,8.095934663994008,7.871344921293777,32.31741800013566,28.687126201783546,6.47544875391759e-05,0.0938397273421287,0,0,0
2691,93829.68493848856,2010-11-02 16:27:28,1890.9630984761964,2,9,0.5501165986061096,3.9092302322387695,8.10052163435502,7.871344921293777,32.3353466591747,28.687126201783546,6.47544875391759e-05,0.0938397273421287,0,0,0
2692,93859.70034218392,2010-11-02 16:27:58,1920.9785021715743,2,9,0.550297200679779,3.910525321960449,8.105109106946779,7.871344921293777,32.35328332157981,28.687126201783546,3.237724376958795e-05,0.0938397273421287,0,0,0
2693,93889.71553001548,2010-11-02 16:28:28,1950.993690008136,2,9,0.5501165986061096,3.911820411682129,8.109696503506854,7.871344921293777,32.37122564342647,28.687126201783546,3.237724376958795e-05,0.0938397273421287,0,0,0
2694,93919.73080688428,2010-11-02 16:28:58,1981.008966871923,2,9,0.5501165986061096,3.9131155014038086,8.114283941483727,7.871344921293777,32.389174227964226,28.687126201783546,0.0,0.0938397273421287,0,0,0
2695,93949.74609256006,2010-11-02 16:29:28,2011.024252567756,2,9,0.5501165986061096,3.914410352706909,8.118871059175005,7.871344921293777,32.40712761159136,28.687126201783546,0.0,0.0938397273421287,0,0,0
2696,93979.7613583512,2010-11-02 16:29:58,2041.039518358904,2,9,0.5501165986061096,3.915867328643799,8.123457808153848,7.871344921293777,32.425085645689386,28.687126201783546,6.47544875391759e-05,0.0938397273421287,0,0,0
2697,94009.77665102444,2010-11-02 16:30:28,2071.054811007091,2,9,0.5501165986061096,3.9171624183654794,8.128044478744739,7.871344921293777,32.44304954592236,28.687126201783546,3.237724376958795e-05,0.0938397273421287,0,0,0
2698,94039.7919307153,2010-11-02 16:30:58,2101.070090722997,2,9,0.5501165986061096,3.918619394302368,8.132631140251515,7.871344921293777,32.46101973110492,28.687126201783546,6.47544875391759e-05,0.0938397273421287,0,0,0
2699,94069.80721209034,2010-11-02 16:31:28,2131.0853720679697,2,9,0.5501165986061096,3.920076370239258,8.137217765856265,7.871344921293777,32.478996122462625,28.687126201783546,6.47544875391759e-05,0.0938397273421287,0,0,0
2700,94099.82250727486,2010-11-02 16:31:58,2161.100667252488,2,9,0.5501165986061096,3.9213714599609375,8.141804481527707,7.871344921293777,32.496979202096625,28.687126201783546,3.237724376958795e-05,0.0938397273421287,0,0,0
2701,94129.8378005847,2010-11-02 16:32:28,2191.1159605974144,2,9,0.550297200679779,3.922990322113037,8.146391076999826,7.871344921293777,32.514968219796295,28.687126201783546,6.47544875391759e-05,0.0938397273421287,0,0,0
2702,94159.8531192378,2010-11-02 16:32:58,2221.131279225451,2,9,0.5501165986061096,3.924123525619507,8.150977691188613,7.871344921293777,32.5329637650228,28.687126201783546,0.0,0.0938397273421287,0,0,0
2703,94189.86832674847,2010-11-02 16:33:28,2251.146486736122,2,9,0.5501165986061096,3.925580501556397,8.155564407592223,7.871344921293777,32.550966321097,28.687126201783546,3.237724376958795e-05,0.0938397273421287,0,0,0
2704,94219.88361016865,2010-11-02 16:33:58,2281.1617701462496,2,9,0.5501165986061096,3.927037477493286,8.160151137438648,7.871344921293777,32.568975414757084,28.687126201783546,3.237724376958795e-05,0.0938397273421287,0,0,0
2705,94249.89891050602,2010-11-02 16:34:28,2311.1770704936557,2,9,0.5501165986061096,3.928494453430176,8.164737781140941,7.871344921293777,32.58699087766659,28.687126201783546,3.237724376958795e-05,0.0938397273421287,0,0,0
2706,94279.91420065296,2010-11-02 16:34:58,2341.192360640599,2,9,0.5501165986061096,3.9299514293670654,8.169324449741701,7.871344921293777,32.60501313268544,28.687126201783546,0.0,0.0938397273421287,0,0,0
2707,94309.92962394224,2010-11-02 16:35:28,2371.2077839198614,2,9,0.550297200679779,3.931408405303955,8.173911098720101,7.871344921293777,32.62304206847684,28.687126201783546,3.237724376958795e-05,0.0938397273421287,0,0,0
2708,94339.94475426523,2010-11-02 16:35:58,2401.2229142478727,2,9,0.5501165986061096,3.933027267456055,8.178497681763528,7.871344921293777,32.64107750219913,28.687126201783546,6.47544875391759e-05,0.0938397273421287,0,0,0
2709,94369.96028928342,2010-11-02 16:36:28,2431.238449276077,2,9,0.550297200679779,3.934484243392944,8.183084412191697,7.871344921293777,32.65912037007976,28.687126201783546,6.47544875391759e-05,0.0938397273421287,0,0,0
2710,94399.97533212304,2010-11-02 16:36:58,2461.253492105679,2,9,0.5499359965324402,3.935941219329834,8.18767102647452,7.871344921293777,32.67716966121639,28.687126201783546,6.47544875391759e-05,0.0938397273421287,0,0,0
2711,94429.99073865551,2010-11-02 16:37:28,2491.268898633127,2,9,0.5499359965324402,3.937398195266724,8.192257676974307,7.871344921293777,32.69522594321391,28.687126201783546,0.0,0.0938397273421287,0,0,0
2712,94460.00590147964,2010-11-02 16:37:58,2521.2840614672778,2,9,0.5501165986061096,3.9390170574188232,8.19684424709027,7.871344921293777,32.71328911916445,28.687126201783546,3.237724376958795e-05,0.0938397273421287,0,0,0
2713,94490.02120835333,2010-11-02 16:38:28,2551.2993683359614,2,9,0.5501165986061096,3.940635919570923,8.201430930110716,7.871344921293777,32.731359863736124,28.687126201783546,3.237724376958795e-05,0.0938397273421287,0,0,0
2714,94520.03648197402,2010-11-02 16:38:58,2581.314641961666,2,9,0.5501165986061096,3.942092895507813,8.206017591795815,7.871344921293777,32.74943770597692,28.687126201783546,0.0,0.0938397273421287,0,0,0
2715,94550.05175529396,2010-11-02 16:39:28,2611.329915281606,2,9,0.5501165986061096,3.943873643875122,8.210604272417816,7.871344921293777,32.76752289125868,28.687126201783546,6.47544875391759e-05,0.0938397273421287,0,0,0
2716,94580.06708958108,2010-11-02 16:39:58,2641.345249568731,2,9,0.5499359965324402,3.945330619812012,8.215190972005384,7.871344921293777,32.78561543495858,28.687126201783546,3.237724376958795e-05,0.0938397273421287,0,0,0
2717,94610.08248687048,2010-11-02 16:40:28,2671.360646858119,2,9,0.5501165986061096,3.946787595748901,8.2197777273052,7.871344921293777,32.8037155524293,28.687126201783546,3.237724376958795e-05,0.0938397273421287,0,0,0
2718,94640.09760032638,2010-11-02 16:40:58,2701.3757603039894,2,9,0.5499359965324402,3.948568344116211,8.224364323778413,7.871344921293777,32.82182243906262,28.687126201783546,3.237724376958795e-05,0.0938397273421287,0,0,0
2719,94670.11290383663,2010-11-02 16:41:28,2731.391063824315,2,9,0.5501165986061096,3.950187206268311,8.228951036673564,7.871344921293777,32.83993728811872,28.687126201783546,3.237724376958795e-05,0.0938397273421287,0,0,0
2720,94700.12818395358,2010-11-02 16:41:58,2761.4063439612723,2,9,0.550297200679779,3.95212984085083,8.233537625151328,7.871344921293777,32.858059226257446,28.687126201783546,9.713172767078504e-05,0.0938397273421287,0,0,0
2721,94730.14346362438,2010-11-02 16:42:28,2791.421623607004,2,9,0.5501165986061096,3.9534249305725098,8.238124294457917,7.871344921293777,32.876189070822726,28.687126201783546,3.237724376958795e-05,0.0938397273421287,0,0,0
2722,94760.15886163556,2010-11-02 16:42:58,2821.437021618193,2,9,0.5501165986061096,3.9552056789398193,8.242710969820186,7.871344921293777,32.894326621937175,28.687126201783546,6.47544875391759e-05,0.0938397273421287,0,0,0
2723,94790.17403590826,2010-11-02 16:43:28,2851.4521958908967,2,9,0.5497553944587708,3.956662654876709,8.247297640354288,7.871344921293777,32.912471906242324,28.687126201783546,0.0,0.0938397273421287,0,0,0
2724,94820.18930284228,2010-11-02 16:43:58,2881.467462819885,2,9,0.5501165986061096,3.958605289459229,8.251884296533394,7.871344921293777,32.93062475986846,28.687126201783546,3.237724376958795e-05,0.0938397273421287,0,0,0
2725,94850.2045947536,2010-11-02 16:44:28,2911.482754731233,2,9,0.5501165986061096,3.960386037826538,8.256470985329033,7.871344921293777,32.948785650216,28.687126201783546,6.47544875391759e-05,0.0938397273421287,0,0,0
2726,94880.21999202797,2010-11-02 16:44:58,2941.498152030646,2,9,0.5504778623580933,3.962166786193848,8.261057605662884,7.871344921293777,32.96695420550415,28.687126201783546,9.713172767078504e-05,0.0938397273421287,0,0,0
2727,94910.23516209016,2010-11-02 16:45:28,2971.5133220727894,2,9,0.5501165986061096,3.963947534561157,8.265644305767834,7.871344921293777,32.98513104201161,28.687126201783546,6.47544875391759e-05,0.0938397273421287,0,0,0
2728,94940.25042965072,2010-11-02 16:45:58,3001.528589633354,2,9,0.5501165986061096,3.965566396713257,8.27023101458936,7.871344921293777,33.00331601142952,28.687126201783546,3.237724376958795e-05,0.0938397273421287,0,0,0
2729,94970.2658611505,2010-11-02 16:46:28,3031.5440211381488,2,9,0.5501165986061096,3.9673471450805664,8.274817662999506,7.871344921293777,33.02150883580396,28.687126201783546,6.47544875391759e-05,0.0938397273421287,0,0,0
2730,95000.28102212504,2010-11-02 16:46:58,3061.5591821126577,2,9,0.5499359965324402,3.969127893447876,8.279404292215707,7.871344921293777,33.03970966149886,28.687126201783546,3.237724376958795e-05,0.0938397273421287,0,0,0
2731,95030.2962901016,2010-11-02 16:47:28,3091.5744500842484,2,9,0.5499359965324402,3.9709086418151855,8.283990950104743,7.871344921293777,33.05791887994248,28.687126201783546,3.237724376958795e-05,0.0938397273421287,0,0,0
2732,95060.3115374718,2010-11-02 16:47:58,3121.5896974594275,2,9,0.550297200679779,3.972689390182495,8.288577609806516,7.871344921293777,33.076136378261644,28.687126201783546,3.237724376958795e-05,0.0938397273421287,0,0,0
2733,95090.3268284859,2010-11-02 16:48:28,3151.604988493586,2,9,0.5501165986061096,3.974632024765015,8.293164345184802,7.871344921293777,33.09436255434652,28.687126201783546,6.47544875391759e-05,0.0938397273421287,0,0,0
2734,95120.34227357962,2010-11-02 16:48:58,3181.6204335973257,2,9,0.5501165986061096,3.976574659347534,8.297751016945902,7.871344921293777,33.11259692867428,28.687126201783546,6.47544875391759e-05,0.0938397273421287,0,0,0
2735,95150.3569487966,2010-11-02 16:49:28,3211.635108578721,2,9,0.550297200679779,3.978031635284424,8.302337524578476,7.871344921293777,33.13083887413511,28.687126201783546,3.237724376958795e-05,0.0938397273421287,0,0,0
2736,95180.3570854932,2010-11-02 16:49:58,3241.635245480835,2,9,0.5499359965324402,3.980136156082153,8.306921735444044,7.871344921293777,33.14908049964701,28.687126201783546,0.0,0.0938397273421287,0,0,0
2737,95210.37237046722,2010-11-02 16:50:28,3271.650530454866,2,9,0.550297200679779,3.982240676879883,8.31150831987251,7.871344921293777,33.16734039267317,28.687126201783546,3.237724376958795e-05,0.0938397273421287,0,0,0
2738,95240.38796853276,2010-11-02 16:50:59,3301.6661285204223,2,9,0.5499359965324402,3.984021425247192,8.316094963825794,7.871344921293777,33.18560933107192,28.687126201783546,3.237724376958795e-05,0.0938397273421287,0,0,0
2739,95270.4029384654,2010-11-02 16:51:29,3331.6810984530616,2,9,0.5499359965324402,3.985802173614502,8.320681491575662,7.871344921293777,33.203886685147886,28.687126201783546,3.237724376958795e-05,0.0938397273421287,0,0,0
2740,95300.41834510314,2010-11-02 16:51:59,3361.6965050907843,2,9,0.5501165986061096,3.9880685806274414,8.325268064427783,7.871344921293777,33.22217324374475,28.687126201783546,9.713172767078504e-05,0.0938397273421287,0,0,0
2741,95330.43622898444,2010-11-02 16:52:29,3391.714389087376,2,9,0.550297200679779,3.990011215209961,8.329855022211776,7.871344921293777,33.24047035710204,28.687126201783546,9.713172767078504e-05,0.0938397273421287,0,0,0
2742,95360.4489949757,2010-11-02 16:52:59,3421.727154988413,2,9,0.5501165986061096,3.992277622222901,8.334441169672326,7.871344921293777,33.25877349282532,28.687126201783546,9.713172767078504e-05,0.0938397273421287,0,0,0
2743,95390.46407539412,2010-11-02 16:53:29,3451.74223538178,2,9,0.5501165986061096,3.994058132171631,8.33902777538564,7.871344921293777,33.27708783039917,28.687126201783546,9.70840483205393e-05,0.0938397273421287,0,0,0
2744,95420.47936380171,2010-11-02 16:53:59,3481.757523789382,2,9,0.550297200679779,3.99616265296936,8.343614301059889,7.871344921293777,33.29541127995866,28.687126201783546,6.47544875391759e-05,0.0938397273421287,0,0,0
2745,95450.49464713168,2010-11-02 16:54:29,3511.7728071193096,2,9,0.5501165986061096,3.99810528755188,8.34820089247923,7.871344921293777,33.313744642719485,28.687126201783546,3.237724376958795e-05,0.0938397273421287,0,0,0
2746,95480.51013773396,2010-11-02 16:54:59,3541.7882977216204,2,9,0.5501165986061096,4.000209808349609,8.352787443374202,7.871344921293777,33.33208731883678,28.687126201783546,3.23295607813634e-05,0.0938397273421287,0,0,0
2747,95510.5252140271,2010-11-02 16:55:29,3571.803374014752,2,9,0.5501165986061096,4.002476215362549,8.357373974484762,7.871344921293777,33.350439661577624,28.687126201783546,6.47544875391759e-05,0.0938397273421287,0,0,0
2748,95540.54062356206,2010-11-02 16:55:59,3601.818783554719,2,9,0.5499359965324402,4.004418849945068,8.361960623135325,7.871344921293777,33.36880228172615,28.687126201783546,6.47544875391759e-05,0.0938397273421287,0,0,0
2749,95570.55580540368,2010-11-02 16:56:29,3631.833965391304,2,9,0.5501165986061096,4.006847381591797,8.366547208003249,7.871344921293777,33.387174608605235,28.687126201783546,9.71794142969884e-05,0.0938397273421287,0,0,0
2750,95600.57108043788,2010-11-02 16:56:59,3661.849240430536,2,9,0.5501165986061096,4.008951663970947,8.371133829311319,7.871344921293777,33.405557182877004,28.687126201783546,3.23295607813634e-05,0.0938397273421287,0,0,0
2751,95630.58635148716,2010-11-02 16:57:29,3691.8645114998594,2,9,0.5501165986061096,4.011056423187256,8.375720453752189,7.871344921293777,33.42394983301374,28.687126201783546,0.0,0.0938397273421287,0,0,0
2752,95660.60163375444,2010-11-02 16:57:59,3721.8797937420713,2,9,0.5501165986061096,4.013484477996826,8.3803070205721,7.871344921293777,33.442352524186866,28.687126201783546,6.47544875391759e-05,0.0938397273421287,0,0,0
2753,95690.61692184124,2010-11-02 16:58:29,3751.8950818288727,2,9,0.5499359965324402,4.015589237213135,8.384893598653198,7.871344921293777,33.46076565316963,28.687126201783546,3.24249267578125e-05,0.0938397273421287,0,0,0
2754,95720.63234481977,2010-11-02 16:58:59,3781.9105048073848,2,9,0.550297200679779,4.018017292022705,8.389480238829265,7.871344921293777,33.47918958871527,28.687126201783546,3.23295607813634e-05,0.0938397273421287,0,0,0
2755,95750.64748704244,2010-11-02 16:59:29,3811.925647030087,2,9,0.5501165986061096,4.0202836990356445,8.394066816759329,7.871344921293777,33.497623696255424,28.687126201783546,3.23295607813634e-05,0.0938397273421287,0,0,0
2756,95780.66278501392,2010-11-02 16:59:59,3841.9409450015614,2,9,0.5499359965324402,4.022550106048584,8.398653341485415,7.871344921293777,33.516068274600954,28.687126201783546,3.23295607813634e-05,0.0938397273421287,0,0,0
2757,95810.6780504642,2010-11-02 17:00:29,3871.9562104518586,2,9,0.5499359965324402,4.0249786376953125,8.403239856912826,7.871344921293777,33.53452359089782,28.687126201783546,6.47544875391759e-05,0.0938397273421287,0,0,0
2758,95840.69348734242,2010-11-02 17:00:59,3901.9716473300655,2,9,0.550297200679779,4.027406692504883,8.407826434391596,7.871344921293777,33.552990010373016,28.687126201783546,6.47544875391759e-05,0.0938397273421287,0,0,0
2759,95870.70864643222,2010-11-02 17:01:29,3931.9868064198713,2,9,0.5497553944587708,4.029673099517822,8.412413049105187,7.871344921293777,33.57146756994349,28.687126201783546,6.47544875391759e-05,0.0938397273421287,0,0,0
2760,95900.72407247336,2010-11-02 17:01:59,3962.002232456015,2,9,0.5499359965324402,4.032101631164551,8.41699961457023,7.871344921293777,33.589955923794946,28.687126201783546,3.24249267578125e-05,0.0938397273421287,0,0,0
2761,95930.7391973528,2010-11-02 17:02:29,3992.017357340439,2,9,0.5499359965324402,4.034529685974121,8.421586140542678,7.871344921293777,33.608455292813915,28.687126201783546,3.24249267578125e-05,0.0938397273421287,0,0,0
2762,95960.75448979546,2010-11-02 17:02:59,4022.032649783112,2,9,0.5501165986061096,4.0371198654174805,8.426172694137158,7.871344921293777,33.626965933526044,28.687126201783546,6.47544875391759e-05,0.0938397273421287,0,0,0
2763,95990.76977980204,2010-11-02 17:03:29,4052.0479397897066,2,9,0.5499359965324402,4.039547920227051,8.430759269550915,7.871344921293777,33.64548797890141,28.687126201783546,6.47544875391759e-05,0.0938397273421287,0,0,0
2764,96020.78504428494,2010-11-02 17:03:59,4082.063204272588,2,9,0.550297200679779,4.04213809967041,8.435345791265252,7.871344921293777,33.66402103504211,28.687126201783546,6.47544875391759e-05,0.0938397273421287,0,0,0
2765,96050.80032828152,2010-11-02 17:04:29,4112.078488299255,2,9,0.5501165986061096,4.044566631317139,8.439932338958945,7.871344921293777,33.68256573299317,28.687126201783546,6.47544875391759e-05,0.0938397273421287,0,0,0
2766,96080.81576764092,2010-11-02 17:04:59,4142.093927628581,2,9,0.550297200679779,4.047318458557129,8.444518878011634,7.871344921293777,33.70112192839065,28.687126201783546,9.70840483205393e-05,0.0938397273421287,0,0,0
2767,96110.83102855991,2010-11-02 17:05:29,4172.109188547567,2,9,0.5501165986061096,4.049746990203857,8.449105512163873,7.871344921293777,33.71969020655337,28.687126201783546,6.47544875391759e-05,0.0938397273421287,0,0,0
2768,96140.8461564218,2010-11-02 17:05:59,4202.124316419447,2,9,0.5501165986061096,4.052175045013428,8.453692016757111,7.871344921293777,33.738269642888426,28.687126201783546,6.47544875391759e-05,0.0938397273421287,0,0,0
2769,96170.86144121535,2010-11-02 17:06:29,4232.139601203003,2,9,0.5501165986061096,4.054765224456787,8.458278540007987,7.871344921293777,33.75686095063842,28.687126201783546,3.23295607813634e-05,0.0938397273421287,0,0,0
2770,96200.87681885068,2010-11-02 17:06:59,4262.154978843343,2,9,0.550297200679779,4.057517528533936,8.462865224916937,7.871344921293777,33.77546480456837,28.687126201783546,0.0001295089750783,0.0938397273421287,0,0,0
2771,96230.892051449,2010-11-02 17:07:29,4292.170211436624,2,9,0.5499359965324402,4.059945583343506,8.467451867152661,7.871344921293777,33.79408056090332,28.687126201783546,9.70840483205393e-05,0.0938397273421287,0,0,0
2772,96260.90734126508,2010-11-02 17:07:59,4322.185501277805,2,9,0.5501165986061096,4.062697887420654,8.472038477791429,7.871344921293777,33.81270802154068,28.687126201783546,9.71794142969884e-05,0.0938397273421287,0,0,0
2773,96290.92262270532,2010-11-02 17:08:29,4352.200782692953,2,9,0.5501165986061096,4.065288066864014,8.476625062016096,7.871344921293777,33.831347718470255,28.687126201783546,6.47544875391759e-05,0.0938397273421287,0,0,0
2774,96320.93815013955,2010-11-02 17:08:59,4382.216310127203,2,9,0.5501165986061096,4.068039894104004,8.481211640350013,7.871344921293777,33.84999974253688,28.687126201783546,6.47544875391759e-05,0.0938397273421287,0,0,0
2775,96350.95319443784,2010-11-02 17:09:29,4412.231354450532,2,9,0.550297200679779,4.070953845977783,8.485798181718655,7.871344921293777,33.86866417423386,28.687126201783546,0.0001295089750783,0.0938397273421287,0,0,0
2776,96380.96861740132,2010-11-02 17:09:59,4442.246777398969,2,9,0.5501165986061096,4.073544025421143,8.490384806127729,7.871344921293777,33.887341585224924,28.687126201783546,9.70840483205393e-05,0.0938397273421287,0,0,0
2777,96410.98377464149,2010-11-02 17:10:29,4472.261934639157,2,9,0.5501165986061096,4.076296329498291,8.494971322914482,7.871344921293777,33.906031412090854,28.687126201783546,3.24249267578125e-05,0.0938397273421287,0,0,0
2778,96440.99926202076,2010-11-02 17:10:59,4502.27742203346,2,9,0.550297200679779,4.07921028137207,8.499557956263146,7.871344921293777,33.9247347231266,28.687126201783546,9.71794142969884e-05,0.0938397273421287,0,0,0
2779,96471.0143378728,2010-11-02 17:11:29,4532.292497860429,2,9,0.550297200679779,4.0822858810424805,8.504144517233728,7.871344921293777,33.943450828731656,28.687126201783546,9.70840483205393e-05,0.0938397273421287,0,0,0
2780,96501.02964842568,2010-11-02 17:11:59,4562.307808413309,2,9,0.5501165986061096,4.08487606048584,8.508731114539628,7.871344921293777,33.962180278624366,28.687126201783546,6.47544875391759e-05,0.0938397273421287,0,0,0
2781,96531.04490837222,2010-11-02 17:12:29,4592.323068359868,2,9,0.5501165986061096,4.087790012359619,8.513317616633438,7.871344921293777,33.98092260180939,28.687126201783546,6.47544875391759e-05,0.0938397273421287,0,0,0
2782,96561.06021358678,2010-11-02 17:12:59,4622.33837358946,2,9,0.5501165986061096,4.090866088867188,8.517904192068986,7.871344921293777,33.99967864344114,28.687126201783546,9.71794142969884e-05,0.0938397273421287,0,0,0
2783,96591.07549756332,2010-11-02 17:13:29,4652.353657550963,2,9,0.5501165986061096,4.093780040740967,8.522490794198289,7.871344921293777,34.01844828156007,28.687126201783546,9.71794142969884e-05,0.0938397273421287,0,0,0
2784,96621.0907788682,2010-11-02 17:13:59,4682.368938875887,2,9,0.5499359965324402,4.096693992614746,8.527077362781423,7.871344921293777,34.03723142863448,28.687126201783546,9.71794142969884e-05,0.0938397273421287,0,0,0
2785,96651.10616776164,2010-11-02 17:14:29,4712.384327774329,2,9,0.5501165986061096,4.099769592285156,8.531663983352004,7.871344921293777,34.05602852603996,28.687126201783546,9.70840483205393e-05,0.0938397273421287,0,0,0
2786,96681.12142725708,2010-11-02 17:14:59,4742.399587359987,2,9,0.5501165986061096,4.102845668792725,8.536250573614293,7.871344921293777,34.07483926512187,28.687126201783546,9.71794142969884e-05,0.0938397273421287,0,0,0
2787,96711.13672855684,2010-11-02 17:15:29,4772.414888544482,2,9,0.5501165986061096,4.105759620666504,8.540837168173297,7.871344921293777,34.09366409470148,28.687126201783546,9.71794142969884e-05,0.0938397273421287,0,0,0
2788,96741.15188592231,2010-11-02 17:15:59,4802.430045914995,2,9,0.5501165986061096,4.108835220336914,8.545423772096434,7.871344921293777,34.11250305743845,28.687126201783546,6.47544875391759e-05,0.0938397273421287,0,0,0
2789,96771.16717613944,2010-11-02 17:16:29,4832.445336127102,2,9,0.550297200679779,4.112072944641113,8.550010375109876,7.871344921293777,34.131356165504585,28.687126201783546,9.70840483205393e-05,0.0938397273421287,0,0,0
2790,96801.1824927675,2010-11-02 17:16:59,4862.460652755147,2,9,0.5501165986061096,4.115148544311523,8.554596933487549,7.871344921293777,34.15022325751852,28.687126201783546,6.47544875391759e-05,0.0938397273421287,0,0,0
2791,96831.1978939115,2010-11-02 17:17:29,4892.476053899156,2,9,0.5501165986061096,4.118224620819092,8.5591835596848,7.871344921293777,34.169105063084515,28.687126201783546,6.47544875391759e-05,0.0938397273421287,0,0,0
2792,96861.2130745501,2010-11-02 17:17:59,4922.491234562813,2,9,0.5499359965324402,4.121300220489502,8.563770067605628,7.871344921293777,34.188000869213845,28.687126201783546,3.23295607813634e-05,0.0938397273421287,0,0,0
2793,96891.22831277744,2010-11-02 17:18:29,4952.506472770107,2,9,0.5501165986061096,4.12470006942749,8.568356712583473,7.871344921293777,34.20691184271655,28.687126201783546,9.71794142969884e-05,0.0938397273421287,0,0,0
2794,96921.24361748072,2010-11-02 17:18:59,4982.521777468373,2,9,0.5499359965324402,4.1277756690979,8.572943293044542,7.871344921293777,34.2258374655707,28.687126201783546,6.47544875391759e-05,0.0938397273421287,0,0,0
2795,96951.2588807606,2010-11-02 17:19:29,5012.537040748252,2,9,0.5501165986061096,4.131175518035889,8.577529918357696,7.871344921293777,34.244778041392536,28.687126201783546,9.71794142969884e-05,0.0938397273421287,0,0,0
2796,96981.27415931862,2010-11-02 17:19:59,5042.552319306268,2,9,0.5501165986061096,4.134251117706299,8.582116484408274,7.871344921293777,34.26373336346233,28.687126201783546,6.47544875391759e-05,0.0938397273421287,0,0,0
2797,97011.28960272312,2010-11-02 17:20:29,5072.567762720792,2,9,0.5501165986061096,4.137650966644287,8.58670307447058,7.871344921293777,34.282703850102784,28.687126201783546,6.47544875391759e-05,0.0938397273421287,0,0,0
2798,97041.30475121648,2010-11-02 17:20:59,5102.582911234196,2,9,0.550297200679779,4.141050338745117,8.591289644066638,7.871344921293777,34.30168936782437,28.687126201783546,6.47544875391759e-05,0.0938397273421287,0,0,0
2799,97071.32022362336,2010-11-02 17:21:29,5132.598383646102,2,9,0.5499359965324402,4.1444501876831055,8.595876319694431,7.871344921293777,34.32069063960888,28.687126201783546,0.0001295089750783,0.0938397273421287,0,0,0
2800,97101.3352945882,2010-11-02 17:21:59,5162.613454575845,2,9,0.5501165986061096,4.147687911987305,8.600462831034307,7.871344921293777,34.33970698794648,28.687126201783546,6.47544875391759e-05,0.0938397273421287,0,0,0
2801,97131.35057857475,2010-11-02 17:22:29,5192.628738562412,2,9,0.5499359965324402,4.151249408721924,8.605049417559748,7.871344921293777,34.35873917281846,28.687126201783546,9.71794142969884e-05,0.0938397273421287,0,0,0
2802,97161.36591269146,2010-11-02 17:23:00,5222.644072669085,2,9,0.5501165986061096,4.154648780822754,8.609636066996352,7.871344921293777,34.37778735745407,28.687126201783546,9.70840483205393e-05,0.0938397273421287,0,0,0
2803,97191.3811511193,2010-11-02 17:23:30,5252.659311132018,2,9,0.5501165986061096,4.158210277557373,8.61422263382189,7.871344921293777,34.396850998410514,28.687126201783546,0.0001295089750783,0.0938397273421287,0,0,0
2804,97221.39643858456,2010-11-02 17:24:00,5282.674598597268,2,9,0.5501165986061096,4.161610126495361,8.618809166764429,7.871344921293777,34.415930496148455,28.687126201783546,6.47544875391759e-05,0.0938397273421287,0,0,0
2805,97251.41435041062,2010-11-02 17:24:30,5312.692510483476,2,9,0.550297200679779,4.165333271026611,8.623396183179418,7.871344921293777,34.435027931487134,28.687126201783546,0.0001618385285837,0.0938397273421287,0,0,0
2806,97281.42701673812,2010-11-02 17:25:00,5342.70517672575,2,9,0.550297200679779,4.1687331199646,8.627982033611973,7.871344921293777,34.454136520457,28.687126201783546,9.71794142969884e-05,0.0938397273421287,0,0,0
2807,97311.44228118088,2010-11-02 17:25:30,5372.720441168532,2,9,0.5501165986061096,4.17213249206543,8.632568529462738,7.871344921293777,34.47326393215494,28.687126201783546,9.70840483205393e-05,0.0938397273421287,0,0,0
2808,97341.45771518192,2010-11-02 17:26:00,5402.735875169557,2,9,0.5499359965324402,4.175693988800049,8.637154613845732,7.871344921293777,34.492405820058025,28.687126201783546,9.70840483205393e-05,0.0938397273421287,0,0,0
2809,97371.47287544466,2010-11-02 17:26:30,5432.75103543229,2,9,0.5501165986061096,4.179255485534668,8.641740177879646,7.871344921293777,34.51156190288887,28.687126201783546,9.70840483205393e-05,0.0938397273421287,0,0,0
2810,97401.48836219234,2010-11-02 17:27:00,5462.766522205043,2,9,0.5501165986061096,4.182979106903076,8.646326710510934,7.871344921293777,34.53073861989268,28.687126201783546,0.0001295089750783,0.0938397273421287,0,0,0
2811,97431.50345826484,2010-11-02 17:27:30,5492.781618252484,2,9,0.550297200679779,4.186540603637695,8.65091321666553,7.871344921293777,34.54993175198945,28.687126201783546,9.71794142969884e-05,0.0938397273421287,0,0,0
2812,97461.51876046188,2010-11-02 17:28:00,5522.796920449507,2,9,0.5501165986061096,4.189939975738525,8.65549977354359,7.871344921293777,34.569141899837945,28.687126201783546,0.0,0.0938397273421287,0,0,0
2813,97491.53402217785,2010-11-02 17:28:30,5552.812182170494,2,9,0.5499359965324402,4.1938252449035645,8.660086327678549,7.871344921293777,34.58836884386014,28.687126201783546,9.70840483205393e-05,0.0938397273421287,0,0,0
2814,97521.54930909672,2010-11-02 17:29:00,5582.827469084368,2,9,0.5501165986061096,4.197548389434815,8.6646728448973,7.871344921293777,34.60761255194146,28.687126201783546,6.47544875391759e-05,0.0938397273421287,0,0,0
2815,97540.4397183444,2010-11-02 17:29:19,5601.717878332067,2,9,0.550297200679779,4.200138568878174,8.667559449223221,7.871344921293777,34.619732687166206,28.687126201783546,0.0001618385285837,0.0938397273421287,0,0,0
2816,97570.45296262395,2010-11-02 17:29:49,30.015276242235423,3,9,0.0,4.115472316741943,8.667559449223221,7.871344921293777,34.619732687166206,28.687126201783546,-0.0004209518374409,0.0938397273421287,0,0,0
2817,97600.46823857549,2010-11-02 17:30:19,60.0305521686826,3,9,0.0,4.105112075805664,8.667559449223221,7.871344921293777,34.619732687166206,28.687126201783546,-0.0001942634553415,0.0938397273421287,0,0,0
2818,97630.48365135856,2010-11-02 17:30:49,90.04596494673243,3,9,0.0,4.099122047424316,8.667559449223221,7.871344921293777,34.619732687166206,28.687126201783546,-6.47544875391759e-05,0.0938397273421287,0,0,0
2819,97660.45195125058,2010-11-02 17:31:19,120.01426483877064,3,9,0.0,4.095236778259277,8.667559449223221,7.871344921293777,34.619732687166206,28.687126201783546,-6.47544875391759e-05,0.0938397273421287,0,0,0
2820,97660.4668966504,2010-11-02 17:31:19,0.015626686613894,4,9,0.9852043390274048,4.199653148651123,8.667563725745401,7.871344921293777,34.619750647076046,28.687126201783546,0.0,0.0938397273421287,0,0,0
2821,97661.41998789276,2010-11-02 17:31:20,0.96871792397176,4,9,0.935175597667694,4.199653148651123,8.66781631578652,7.871344921293777,34.620811451027215,28.687126201783546,0.0,0.0938397273421287,0,0,0
2822,97663.62311398942,2010-11-02 17:31:22,3.17184402065155,4,9,0.8847855925559998,4.199653148651123,8.668371982947413,7.871344921293777,34.62314508763641,28.687126201783546,0.0,0.0938397273421287,0,0,0
2823,97666.92005136234,2010-11-02 17:31:25,6.468781393555452,4,9,0.8347568511962891,4.199653148651123,8.66915805969253,7.871344921293777,34.62644639005941,28.687126201783546,-3.23295607813634e-05,0.0938397273421287,0,0,0
2824,97671.43549801686,2010-11-02 17:31:30,10.984228048089268,4,9,0.7845474481582642,4.199653148651123,8.67017222824658,7.871344921293777,34.6307056084734,28.687126201783546,-3.23295607813634e-05,0.0938397273421287,0,0,0
2825,97677.38855318342,2010-11-02 17:31:36,16.937283239702182,4,9,0.7345187067985535,4.199653148651123,8.671426483318214,7.871344921293777,34.63597312976931,28.687126201783546,0.0,0.0938397273421287,0,0,0
2826,97685.06034370784,2010-11-02 17:31:43,24.60907373906405,4,9,0.6843093037605286,4.199653148651123,8.672936063710937,7.871344921293777,34.64231292807472,28.687126201783546,0.0,0.0938397273421287,0,0,0
2827,97695.4039863813,2010-11-02 17:31:54,34.952716412506604,4,9,0.6342805624008179,4.199653148651123,8.674827369042792,7.871344921293777,34.65025587094774,28.687126201783546,0.0,0.0938397273421287,0,0,0
2828,97710.0914105416,2010-11-02 17:32:09,49.64014065802715,4,9,0.5842517614364624,4.199491024017334,8.677307195593757,7.871344921293777,34.66067047113311,28.687126201783546,-3.24249267578125e-05,0.0938397273421287,0,0,0
2829,97732.71608426292,2010-11-02 17:32:31,72.26481429414191,4,9,0.5342230200767517,4.199653148651123,8.6808102615768,7.871344921293777,34.6753823726141,28.687126201783546,0.0,0.0938397273421287,0,0,0
2830,97771.91885044852,2010-11-02 17:33:10,111.46758047973596,4,9,0.4841942191123962,4.199653148651123,8.68633007831483,7.871344921293777,34.698564074221245,28.687126201783546,0.0,0.0938397273421287,0,0,0
2831,97842.8554413377,2010-11-02 17:34:21,182.40417136891705,4,9,0.4341654479503631,4.199491024017334,8.695340140083605,7.871344921293777,34.73640385231113,28.687126201783546,-6.47544875391759e-05,0.0938397273421287,0,0,0
2832,97945.58865083872,2010-11-02 17:36:04,285.1373808699407,4,9,0.3841366767883301,4.199653148651123,8.706992268040382,7.871344921293777,34.78533964011725,28.687126201783546,0.0,0.0938397273421287,0,0,0
2833,98072.27472208272,2010-11-02 17:38:11,411.82345211393056,4,9,0.334107905626297,4.199653148651123,8.719615699698158,7.871344921293777,34.83835463623821,28.687126201783546,-3.23295607813634e-05,0.0938397273421287,0,0,0
2834,98223.4761296678,2010-11-02 17:40:42,563.024859699018,4,9,0.2840791642665863,4.199814796447754,8.732584112403591,7.871344921293777,34.89281846784549,28.687126201783546,0.0,0.0938397273421287,0,0,0
2835,98405.97402377307,2010-11-02 17:43:44,745.5227538043039,4,9,0.234050378203392,4.199653148651123,8.745695608116316,7.871344921293777,34.94788318679666,28.687126201783546,0.0,0.0938397273421287,0,0,0
2836,98632.08094803173,2010-11-02 17:47:31,971.629678072959,4,9,0.1840216070413589,4.199653148651123,8.75877549429789,7.871344921293777,35.00281514075489,28.687126201783546,0.0,0.0938397273421287,0,0,0
2837,98935.2492620598,2010-11-02 17:52:34,1274.7979920910273,4,9,0.1339928358793258,4.199653148651123,8.772063784002675,7.871344921293777,35.05862236012019,28.687126201783546,0.0,0.0938397273421287,0,0,0
2838,99407.50951518204,2010-11-02 18:00:26,1747.058245213244,4,9,0.0837834626436233,4.199653148651123,8.786097481757274,7.871344921293777,35.11756009490726,28.687126201783546,-3.23295607813634e-05,0.0938397273421287,0,0,0
2839,99977.28433152128,2010-11-02 18:09:56,2316.8330615524906,4,9,0.0496483072638511,4.199491024017334,8.796459902311929,7.871344921293777,35.16107945523136,28.687126201783546,-3.24249267578125e-05,0.0938397273421287,0,0,0
2840,100007.30191480332,2010-11-02 18:10:26,30.015391439786235,5,9,0.0,4.191720962524414,8.796459902311929,7.871344921293777,35.16107945523136,28.687126201783546,-9.70840483205393e-05,0.0938397273421287,0,0,0
2841,100037.30157561706,2010-11-02 18:10:56,60.0150522434847,5,9,0.0,4.190587520599365,8.796459902311929,7.871344921293777,35.16107945523136,28.687126201783546,-6.47544875391759e-05,0.0938397273421287,0,0,0
2842,100037.49182473557,2010-11-02 18:10:56,0.187489327205216,6,9,-1.9243103452026844e-05,4.190587520599365,8.796459902311929,7.871344922295965,35.16107945523136,28.687126205983297,0.0,0.0931989923119545,0,0,0
2843,100042.31988919724,2010-11-02 18:11:01,5.015553783868194,6,9,0.0007031940040178,4.190587520599365,8.796460784322301,7.871344922546705,35.16108315158273,28.68712620703405,-6.47544875391759e-05,0.0931989923119545,0,0,0
2844,100072.3378915709,2010-11-02 18:11:31,30.01505624809621,7,9,-1.0997490882873535,4.016236782073975,8.796460784322301,7.880513404359971,35.16108315158273,28.724143592717148,-0.0009065627818927,0.0931989923119545,0,0,0
2845,100102.35316886575,2010-11-02 18:12:01,60.030333537946646,7,9,-1.099568486213684,3.989687442779541,8.796460784322301,7.889681971907749,35.16108315158273,28.760837093084515,-0.0006151676061563,0.0931989923119545,0,0,0
2846,100132.36846194002,2010-11-02 18:12:31,90.04562661219738,7,9,-1.0997490882873535,3.9715561866760254,8.796460784322301,7.89885047510885,35.16108315158273,28.79733025597987,-0.0004532813909463,0.0931989923119545,0,0,0
2847,100162.38394415138,2010-11-02 18:13:01,120.06110882356344,7,9,-1.099568486213684,3.957310199737549,8.796460784322301,7.908019018419372,35.16108315158273,28.833676239089908,-0.0003561496851034,0.0931989923119545,0,0,0
2848,100192.39915246906,2010-11-02 18:13:31,150.07631714124872,7,9,-1.099568486213684,3.9454925060272217,8.796460784322301,7.917187418113989,35.16108315158273,28.86990250020517,-0.0002590179501567,0.0931989923119545,0,0,0
2849,100222.41431800496,2010-11-02 18:14:01,180.0914826771441,7,9,-1.099568486213684,3.934808015823364,8.796460784322301,7.926355835741424,35.16108315158273,28.906026152721267,-0.0002590179501567,0.0931989923119545,0,0,0
2850,100252.42972561013,2010-11-02 18:14:31,210.1068902822815,7,9,-1.099568486213684,3.9249329566955566,8.796460784322301,7.935524313677983,35.16108315158273,28.94205671284401,-0.0001942634553415,0.0931989923119545,0,0,0
2851,100282.44490311088,2010-11-02 18:15:01,240.12206778304304,7,9,-1.099568486213684,3.915705442428589,8.796460784322301,7.944692729481961,35.16108315158273,28.977999502474,-0.0002266406954731,0.0931989923119545,0,0,0
2852,100312.46028873112,2010-11-02 18:15:31,270.13745340831537,7,9,-1.099568486213684,3.90680193901062,8.796460784322301,7.95386120031205,35.16108315158273,29.01385842377415,-0.0001618862152099,0.0931989923119545,0,0,0
2853,100342.47545012168,2010-11-02 18:16:01,300.15261479385083,7,9,-1.0997490882873535,3.897898197174072,8.796460784322301,7.96302962793385,35.16108315158273,29.04963614737348,-0.0002266406954731,0.0931989923119545,0,0,0
2854,100372.49085398747,2010-11-02 18:16:31,330.1680186646668,7,9,-1.0997490882873535,3.889318227767944,8.796460784322301,7.972198107935436,35.16108315158273,29.08533477885627,-0.0002266406954731,0.0931989923119545,0,0,0
2855,100402.50603955338,2010-11-02 18:17:01,360.1832042556227,7,9,-1.0997490882873535,3.8809001445770255,8.796460784322301,7.981366525152047,35.16108315158273,29.12095454687532,-0.0001942634553415,0.0931989923119545,0,0,0
2856,100432.52164741338,2010-11-02 18:17:31,390.1988122008398,7,9,-1.099568486213684,3.872482061386109,8.796460784322301,7.990535130875005,35.16108315158273,29.1564978337946,-0.0002266406954731,0.0931989923119545,0,0,0
2857,100462.53658751654,2010-11-02 18:18:01,420.2137521887327,7,9,-1.099568486213684,3.86454963684082,8.796460784322301,7.999703510118141,35.16108315158273,29.19196491816735,-0.0001618862152099,0.0931989923119545,0,0,0
2858,100492.5520031718,2010-11-02 18:18:31,450.2291678539894,7,9,-1.099568486213684,3.856293439865112,8.796460784322301,8.008872030938866,35.16108315158273,29.22735869267381,-0.0001942634553415,0.0931989923119545,0,0,0
2859,100522.56718919885,2010-11-02 18:19:01,480.2443538710088,7,9,-1.0993878841400146,3.848522901535034,8.796460784322301,8.018040527125999,35.16108315158273,29.26267871756159,-0.0001942634553415,0.0931989923119545,0,0,0
2860,100552.58257083916,2010-11-02 18:19:31,510.2597355113341,7,9,-1.0997490882873535,3.840590476989746,8.796460784322301,8.027209087257866,35.16108315158273,29.29792775123414,-0.0002266406954731,0.0931989923119545,0,0,0
2861,100582.59774794392,2010-11-02 18:20:01,540.2749126161071,7,9,-1.099568486213684,3.833143949508667,8.796460784322301,8.036377537390022,35.16108315158273,29.33310606245501,-0.0001942157687153,0.0931989923119545,0,0,0
2862,100612.61300643683,2010-11-02 18:20:31,570.2901711341001,7,9,-1.099568486213684,3.825535297393799,8.796460784322301,8.045546041655035,35.16108315158273,29.36821550700673,-0.0002266406954731,0.0931989923119545,0,0,0
2863,100642.62841498434,2010-11-02 18:21:01,600.3055797668025,7,9,-1.0997490882873535,3.81792664527893,8.796460784322301,8.054714617523073,35.16108315158273,29.40325673081721,-0.0002590179501567,0.0931989923119545,0,0,0
2864,100672.6435802546,2010-11-02 18:21:31,630.320744931772,7,9,-1.0997490882873535,3.810803651809693,8.796460784322301,8.063883089699335,35.16108315158273,29.438229974897173,-0.0001618862152099,0.0931989923119545,0,0,0
2865,100702.65886319857,2010-11-02 18:22:01,660.3360278707235,7,9,-1.0997490882873535,3.803680658340454,8.796460784322301,8.073051537722806,35.16108315158273,29.473135991592752,-0.0001295089750783,0.0931989923119545,0,0,0
2866,100732.67429178103,2010-11-02 18:22:31,690.3514564532236,7,9,-1.099568486213684,3.796557664871216,8.796460784322301,8.082220128489302,35.16108315158273,29.50797757601015,-0.0001942634553415,0.0931989923119545,0,0,0
2867,100762.68943398872,2010-11-02 18:23:01,720.3665986608881,7,9,-1.0997490882873535,3.7897584438323975,8.796460784322301,8.091388666248886,35.16108315158273,29.54275555362588,-0.0001942634553415,0.0931989923119545,0,0,0
2868,100792.70483965904,2010-11-02 18:23:31,750.3820043362085,7,9,-1.099568486213684,3.782959222793579,8.796460784322301,8.100557277960721,35.16108315158273,29.577471222577888,-0.0001618862152099,0.0931989923119545,0,0,0
2869,100822.71999399696,2010-11-02 18:24:01,780.397158674152,7,9,-1.0997490882873535,3.7763218879699703,8.796460784322301,8.10972578601387,35.16108315158273,29.61212553438452,-0.0002266406954731,0.0931989923119545,0,0,0
2870,100852.73529527168,2010-11-02 18:24:31,810.4124599438599,7,9,-1.0993878841400146,3.7700083255767822,8.796460784322301,8.11889432459835,35.16108315158273,29.64672051932375,-0.0001295089750783,0.0931989923119545,0,0,0
2871,100882.750602792,2010-11-02 18:25:02,840.4277674892327,7,9,-1.0997490882873535,3.7636947631835938,8.796460784322301,8.128062884753634,35.16108315158273,29.681256579552308,-0.0001618862152099,0.0931989923119545,0,0,0
2872,100912.76584879374,2010-11-02 18:25:32,870.4430134659207,7,9,-1.099568486213684,3.757381200790405,8.796460784322301,8.13723140873742,35.16108315158273,29.715734840279417,-0.0001618862152099,0.0931989923119545,0,0,0
2873,100942.78113253972,2010-11-02 18:26:02,900.4582972118866,7,9,-1.099568486213684,3.751553535461426,8.796460784322301,8.146399989006198,35.16108315158273,29.750157380690613,-0.0001295089750783,0.0931989923119545,0,0,0
2874,100972.79903320792,2010-11-02 18:26:32,930.4761979653058,7,9,-1.0997490882873535,3.7454018592834473,8.796460784322301,8.155569289958992,35.16108315158273,29.784527801395885,-0.0001618862152099,0.0931989923119545,0,0,0
2875,101002.81176378578,2010-11-02 18:27:02,960.4889285431713,7,9,-1.0997490882873535,3.739412069320679,8.796460784322301,8.164737085043951,35.16108315158273,29.81883853789669,-0.0002266406954731,0.0931989923119545,0,0,0
2876,101032.82699444424,2010-11-02 18:27:32,990.5041591164096,7,9,-1.099929690361023,3.73358416557312,8.796460784322301,8.173905641467323,35.16108315158273,29.85309888413237,-0.0001942634553415,0.0931989923119545,0,0,0
2877,101062.8422975786,2010-11-02 18:28:02,1020.5194622507722,7,9,-1.099568486213684,3.728241920471192,8.796460784322301,8.183074110087638,35.16108315158273,29.88730622991462,-0.0001295089750783,0.0931989923119545,0,0,0
2878,101092.85755752516,2010-11-02 18:28:32,1050.5347221973311,7,9,-1.0997490882873535,3.722414016723633,8.796460784322301,8.192242530500318,35.16108315158273,29.921462006395977,-0.0001942634553415,0.0931989923119545,0,0,0
2879,101122.8730821574,2010-11-02 18:29:02,1080.5502468546488,7,9,-1.099568486213684,3.717233657836914,8.796460784322301,8.201411126192223,35.16108315158273,29.955567014839424,-9.713172767078504e-05,0.0931989923119545,0,0,0
2880,101152.8881290321,2010-11-02 18:29:32,1110.5652937042848,7,9,-1.099568486213684,3.711567640304565,8.796460784322301,8.210579545559844,35.16108315158273,29.98962115462872,-0.0001618862152099,0.0931989923119545,0,0,0
2881,101182.9034085475,2010-11-02 18:30:02,1140.580573219691,7,9,-1.099568486213684,3.7062253952026367,8.796460784322301,8.219748046365638,35.16108315158273,30.02362652486536,-0.0001295089750783,0.0931989923119545,0,0,0
2882,101212.91870420822,2010-11-02 18:30:32,1170.5958688803976,7,9,-1.0997490882873535,3.701045036315918,8.796460784322301,8.228916517347715,35.16108315158273,30.05758320790041,-0.0001295089750783,0.0931989923119545,0,0,0
2883,101242.93412498124,2010-11-02 18:31:02,1200.6112896584166,7,9,-1.0997490882873535,3.695864677429199,8.796460784322301,8.238084999977968,35.16108315158273,30.09149211077575,-0.0001295089750783,0.0931989923119545,0,0,0
2884,101272.949278442,2010-11-02 18:31:32,1230.6264431191703,7,9,-1.0997490882873535,3.690684318542481,8.796460784322301,8.24725345549329,35.16108315158273,30.12535354844682,-0.0001295089750783,0.0931989923119545,0,0,0
2885,101302.96467306971,2010-11-02 18:32:02,1260.6418377419018,7,9,-1.0997490882873535,3.685665845870972,8.796460784322301,8.256421944172748,35.16108315158273,30.159168662289847,-0.0001295089750783,0.0931989923119545,0,0,0
2886,101332.9798341896,2010-11-02 18:32:32,1290.656998861774,7,9,-1.099568486213684,3.680809259414673,8.796460784322301,8.265590360788966,35.16108315158273,30.192937850188628,-0.0001295089750783,0.0931989923119545,0,0,0
2887,101362.9952592884,2010-11-02 18:33:02,1320.6724239605787,7,9,-1.099568486213684,3.675628900527954,8.796460784322301,8.274758899954378,35.16108315158273,30.226661780969547,-0.0001295089750783,0.0931989923119545,0,0,0
2888,101393.01039755122,2010-11-02 18:33:32,1350.687562223396,7,9,-1.0997490882873535,3.6707725524902335,8.796460784322301,8.283927412896112,35.16108315158273,30.26034031919888,-0.0001295089750783,0.0931989923119545,0,0,0
2889,101423.02581330673,2010-11-02 18:34:02,1380.7029779889033,7,9,-1.0997490882873535,3.6660778522491455,8.796460784322301,8.293096010118981,35.16108315158273,30.29397454696447,-0.0001295089750783,0.0931989923119545,0,0,0
2890,101453.0409681459,2010-11-02 18:34:32,1410.7181328431354,7,9,-1.099929690361023,3.661221265792847,8.796460784322301,8.302264499180662,35.16108315158273,30.32756482090744,-0.0001295089750783,0.0931989923119545,0,0,0
2891,101483.05628783656,2010-11-02 18:35:02,1440.7334525087622,7,9,-1.099568486213684,3.656526565551758,8.796460784322301,8.311433081343479,35.16108315158273,30.361112204890716,-0.0001295089750783,0.0931989923119545,0,0,0
2892,101513.0715639485,2010-11-02 18:35:32,1470.7487286206724,7,9,-1.0993878841400146,3.652155637741089,8.796460784322301,8.320601612319248,35.16108315158273,30.39461662367109,-9.713172767078504e-05,0.0931989923119545,0,0,0
2893,101543.0868196996,2010-11-02 18:36:02,1500.7639843717589,7,9,-1.0997490882873535,3.6474609375,8.796460784322301,8.329770160223594,35.16108315158273,30.428078960119127,-9.713172767078504e-05,0.0931989923119545,0,0,0
2894,101573.1020999368,2010-11-02 18:36:32,1530.7792646390417,7,9,-1.0997490882873535,3.643090009689331,8.796460784322301,8.3389386316804,35.16108315158273,30.461499252396397,-6.47544875391759e-05,0.0931989923119545,0,0,0
2895,101603.11739658997,2010-11-02 18:37:02,1560.7945612621506,7,9,-1.0997490882873535,3.638557195663452,8.796460784322301,8.34810708426076,35.16108315158273,30.494879056533893,-9.713172767078504e-05,0.0931989923119545,0,0,0
2896,101633.13269483212,2010-11-02 18:37:32,1590.8098595043011,7,9,-1.0997490882873535,3.634348154067993,8.796460784322301,8.357275540194596,35.16108315158273,30.52821927708958,-0.0001295089750783,0.0931989923119545,0,0,0
2897,101663.14796197164,2010-11-02 18:38:02,1620.8251266438149,7,9,-1.099929690361023,3.629977226257324,8.796460784322301,8.366444026377966,35.16108315158273,30.56152053750959,-0.0001295089750783,0.0931989923119545,0,0,0
2898,101693.1632627802,2010-11-02 18:38:32,1650.8404274523714,7,9,-1.099568486213684,3.626091957092285,8.796460784322301,8.375612599153817,35.16108315158273,30.594783795952555,-9.713172767078504e-05,0.0931989923119545,0,0,0
2899,101723.17854331816,2010-11-02 18:39:02,1680.8557079903296,7,9,-1.099568486213684,3.622044801712036,8.796460784322301,8.384781088874561,35.16108315158273,30.62800936628112,-6.47544875391759e-05,0.0931989923119545,0,0,0
2900,101753.19397979036,2010-11-02 18:39:32,1710.8711444725488,7,9,-1.099568486213684,3.617835760116577,8.796460784322301,8.393949683064935,35.16108315158273,30.66119867144713,-0.0001295089750783,0.0931989923119545,0,0,0
2901,101783.20909985776,2010-11-02 18:40:02,1740.8862645299228,7,9,-1.0997490882873535,3.614112377166748,8.796460784322301,8.40311813659048,35.16108315158273,30.694351661639548,-9.713172767078504e-05,0.0931989923119545,0,0,0
2902,101813.22437938818,2010-11-02 18:40:32,1770.901544060366,7,9,-1.099568486213684,3.610227108001709,8.796460784322301,8.412286674066761,35.16108315158273,30.72746978708977,-9.713172767078504e-05,0.0931989923119545,0,0,0
2903,101843.23967470304,2010-11-02 18:41:02,1800.9168393752095,7,9,-1.0997490882873535,3.60666561126709,8.796460784322301,8.421455188094427,35.16108315158273,30.76055359931695,-3.237724376958795e-05,0.0931989923119545,0,0,0
2904,101873.25534583596,2010-11-02 18:41:32,1830.932510518178,7,9,-1.0997490882873535,3.6029422283172607,8.796460784322301,8.430623805521414,35.16108315158273,30.79360412173092,-9.713172767078504e-05,0.0931989923119545,0,0,0
2905,101903.27026369364,2010-11-02 18:42:02,1860.947428370818,7,9,-1.099568486213684,3.599542617797852,8.796460784322301,8.439792182237307,35.16108315158273,30.82662116737786,-6.47544875391759e-05,0.0931989923119545,0,0,0
2906,101933.28551465776,2010-11-02 18:42:32,1890.9626793299428,7,9,-1.099568486213684,3.5961430072784424,8.796460784322301,8.448960751447837,35.16108315158273,30.85960693920581,-9.713172767078504e-05,0.0931989923119545,0,0,0
2907,101963.30103480884,2010-11-02 18:43:02,1920.9781994860248,7,9,-1.0997490882873535,3.5925815105438232,8.796460784322301,8.45812932153775,35.16108315158273,30.892561688354355,-0.0001295089750783,0.0931989923119545,0,0,0
2908,101993.31609062586,2010-11-02 18:43:32,1950.9932552980324,7,9,-1.099568486213684,3.589505910873413,8.796460784322301,8.467297793207788,35.16108315158273,30.92548586672188,-6.47544875391759e-05,0.0931989923119545,0,0,0
2909,102023.33137048212,2010-11-02 18:44:02,1981.0085351593016,7,9,-1.099568486213684,3.586268186569214,8.796460784322301,8.476466377754871,35.16108315158273,30.9583809339299,-3.237724376958795e-05,0.0931989923119545,0,0,0
2910,102053.34665003762,2010-11-02 18:44:32,2011.023814709795,7,9,-1.0997490882873535,3.583030462265014,8.796460784322301,8.485634888134417,35.16108315158273,30.99124675989833,-9.713172767078504e-05,0.0931989923119545,0,0,0
2911,102083.36214052964,2010-11-02 18:45:02,2041.0393052018308,7,9,-1.099568486213684,3.5799546241760254,8.796460784322301,8.494803483851088,35.16108315158273,31.0240844622802,-6.47544875391759e-05,0.0931989923119545,0,0,0
2912,102113.37724320864,2010-11-02 18:45:32,2071.0544078808257,7,9,-1.099568486213684,3.577040672302246,8.796460784322301,8.503972018128273,35.16108315158273,31.05689385502425,-6.47544875391759e-05,0.0931989923119545,0,0,0
2913,102143.3925029998,2010-11-02 18:46:02,2101.0696676719967,7,9,-1.0997490882873535,3.573802947998047,8.796460784322301,8.513140558250722,35.16108315158273,31.089674991127005,-6.47544875391759e-05,0.0931989923119545,0,0,0
2914,102173.40792011368,2010-11-02 18:46:32,2131.0850847958945,7,9,-1.099568486213684,3.570888996124268,8.796460784322301,8.522309164464758,35.16108315158273,31.122428605232027,-6.47544875391759e-05,0.0931989923119545,0,0,0
2915,102203.42309856182,2010-11-02 18:47:02,2161.1002632339955,7,9,-1.0997490882873535,3.5678131580352783,8.796460784322301,8.531477716836685,35.16108315158273,31.15515453310849,-6.47544875391759e-05,0.0931989923119545,0,0,0
2916,102233.43848037256,2010-11-02 18:47:32,2191.115645054771,7,9,-1.099568486213684,3.564899206161499,8.796460784322301,8.540646299008792,35.16108315158273,31.187852926199216,-9.713172767078504e-05,0.0931989923119545,0,0,0
2917,102263.45363473055,2010-11-02 18:48:02,2221.130799432815,7,9,-1.099568486213684,3.56198525428772,8.796460784322301,8.549814733662224,35.16108315158273,31.22052357699837,-6.47544875391759e-05,0.0931989923119545,0,0,0
2918,102293.4690554284,2010-11-02 18:48:32,2251.146220105571,7,9,-1.099568486213684,3.5590713024139404,8.796460784322301,8.558983307818258,35.16108315158273,31.253167967813035,-6.47544875391759e-05,0.0931989923119545,0,0,0
2919,102323.48422855824,2010-11-02 18:49:02,2281.16139323041,7,9,-1.0997490882873535,3.555833578109741,8.796460784322301,8.568151776915766,35.16108315158273,31.28578467732733,-9.713172767078504e-05,0.0931989923119545,0,0,0
2920,102353.49961231885,2010-11-02 18:49:32,2311.176777011078,7,9,-1.099568486213684,3.552919626235962,8.796460784322301,8.577320320850436,35.16108315158273,31.318373722771195,-6.47544875391759e-05,0.0931989923119545,0,0,0
2921,102383.51476799011,2010-11-02 18:50:02,2341.191932662299,7,9,-1.0997490882873535,3.5498437881469727,8.796460784322301,8.586488765982304,35.16108315158273,31.35093427991576,-9.713172767078504e-05,0.0931989923119545,0,0,0
2922,102413.5302304522,2010-11-02 18:50:32,2371.2073951293805,7,9,-1.0997490882873535,3.5467679500579834,8.796460784322301,8.595657336477565,35.16108315158273,31.383466591042225,-6.47544875391759e-05,0.0931989923119545,0,0,0
2923,102443.54534597324,2010-11-02 18:51:02,2401.222510645419,7,9,-1.099568486213684,3.543368339538574,8.796460784322301,8.604825838730308,35.16108315158273,31.415969385808385,-6.47544875391759e-05,0.0931989923119545,0,0,0
2924,102473.56092763285,2010-11-02 18:51:32,2431.2380923050227,7,9,-1.0997490882873535,3.539968729019165,8.796460784322301,8.613994450516012,35.16108315158273,31.44844231585396,-0.0001295089750783,0.0931989923119545,0,0,0
2925,102503.57593543,2010-11-02 18:52:02,2461.2531001071907,7,9,-1.0997490882873535,3.536892890930176,8.796460784322301,8.623162928709807,35.16108315158273,31.48088430121448,-3.237724376958795e-05,0.0931989923119545,0,0,0
2926,102533.59121945166,2010-11-02 18:52:32,2491.268384123832,7,9,-1.099929690361023,3.5331695079803467,8.796460784322301,8.632331520515564,35.16108315158273,31.51329526670876,-0.0001295089750783,0.0931989923119545,0,0,0
2927,102563.60661329245,2010-11-02 18:53:02,2521.283777974637,7,9,-1.099568486213684,3.529769897460937,8.796460784322301,8.641500128170023,35.16108315158273,31.545674243897743,-6.47544875391759e-05,0.0931989923119545,0,0,0
2928,102593.62183803112,2010-11-02 18:53:32,2551.299002818574,7,9,-1.099568486213684,3.5262084007263184,8.796460784322301,8.650668672810875,35.16108315158273,31.578020459309577,-6.47544875391759e-05,0.0931989923119545,0,0,0
2929,102623.63722459871,2010-11-02 18:54:02,2581.314389280936,7,9,-1.099568486213684,3.5224850177764893,8.796460784322301,8.659837322216584,35.16108315158273,31.61033395719162,-9.713172767078504e-05,0.0931989923119545,0,0,0
2930,102653.65234826512,2010-11-02 18:54:32,2611.329512942306,7,9,-1.0997490882873535,3.51876163482666,8.796460784322301,8.669005840224145,35.16108315158273,31.64261222168794,-6.47544875391759e-05,0.0931989923119545,0,0,0
2931,102683.66762287328,2010-11-02 18:55:02,2641.34478754545,7,9,-1.0997490882873535,3.514714479446411,8.796460784322301,8.678174371794114,35.16108315158273,31.67485495552138,-0.0001295089750783,0.0931989923119545,0,0,0
2932,102713.68315390148,2010-11-02 18:55:32,2671.3603185836955,7,9,-1.099568486213684,3.5105056762695312,8.796460784322301,8.687342971174342,35.16108315158273,31.707060247419136,-0.0001295089750783,0.0931989923119545,0,0,0
2933,102743.69819457072,2010-11-02 18:56:02,2701.3753592428798,7,9,-1.0997490882873535,3.5059728622436523,8.796460784322301,8.696511487345289,35.16108315158273,31.739225111661607,-9.713172767078504e-05,0.0931989923119545,0,0,0
2934,102773.7134630686,2010-11-02 18:56:32,2731.390627740784,7,9,-1.0997490882873535,3.501116275787353,8.796460784322301,8.705680057919194,35.16108315158273,31.77134793621831,-0.0001295089750783,0.0931989923119545,0,0,0
2935,102803.72879251864,2010-11-02 18:57:03,2761.405957205872,7,9,-1.0997490882873535,3.4959359169006348,8.796460784322301,8.714848650930179,35.16108315158273,31.803425250076,-0.0001618862152099,0.0931989923119545,0,0,0
2936,102833.74403078108,2010-11-02 18:57:33,2791.4211954582784,7,9,-1.099568486213684,3.490108013153076,8.796460784322301,8.724017151204922,35.16108315158273,31.83545171244484,-0.0001618862152099,0.0931989923119545,0,0,0
2937,102863.75931380024,2010-11-02 18:58:03,2821.436478472417,7,9,-1.0997490882873535,3.483794450759888,8.796460784322301,8.733185699496616,35.16108315158273,31.86742288791331,-0.0001942634553415,0.0931989923119545,0,0,0
2938,102893.7752883656,2010-11-02 18:58:33,2851.452453133013,7,9,-1.099568486213684,3.4765095710754395,8.796460784322301,8.742354128231607,35.16108315158273,31.899331130642917,-0.0002266406954731,0.0931989923119545,0,0,0
2939,102923.77700063006,2010-11-02 18:59:03,2881.454165387448,7,9,-1.0997490882873535,3.4682533740997314,8.796460784322301,8.751518240644609,35.16108315158273,31.931153166704792,-0.0002266406954731,0.0931989923119545,0,0,0
2940,102953.78958278244,2010-11-02 18:59:33,2911.466747454608,7,9,-1.0997490882873535,3.458540201187134,8.796460784322301,8.760685949159342,35.16108315158273,31.962906036688988,-0.0002913951757363,0.0931989923119545,0,0,0
2941,102983.80497514951,2010-11-02 19:00:03,2941.4821398217086,7,9,-1.0997490882873535,3.4472081661224365,8.796460784322301,8.769854557808042,35.16108315158273,31.99456597761301,-0.0003561496851034,0.0931989923119545,0,0,0
2942,103013.82013435964,2010-11-02 19:00:33,2971.4972990418387,7,9,-1.099568486213684,3.43344783782959,8.796460784322301,8.779023033078538,35.16108315158273,32.02611047301991,-0.0003885269106831,0.0931989923119545,0,0,0
2943,103043.83555550357,2010-11-02 19:01:03,3001.5127201757464,7,9,-1.099568486213684,3.416126251220703,8.796460784322301,8.788191702192998,35.16108315158273,32.057513777301644,-0.0005180359003134,0.0931989923119545,0,0,0
2944,103073.85073853312,2010-11-02 19:01:33,3031.5279032053086,7,9,-1.0997490882873535,3.3939478397369385,8.796460784322301,8.79736024542558,35.16108315158273,32.08873780775981,-0.0006799221155233,0.0931989923119545,0,0,0
2945,103103.86602788308,2010-11-02 19:02:03,3061.5431925402254,7,9,-1.099568486213684,3.3652939796447754,8.796460784322301,8.806528817266237,35.16108315158273,32.119731294246215,-0.0008741855854168,0.0931989923119545,0,0,0
2946,103133.88127071192,2010-11-02 19:02:33,3091.558435409156,7,9,-1.0997490882873535,3.3269271850585938,8.796460784322301,8.815697387406976,35.16108315158273,32.15041961612977,-0.0011979580158367,0.0931989923119545,0,0,0
2947,103163.89655916464,2010-11-02 19:03:03,3121.573723861871,7,9,-1.099568486213684,3.2736666202545166,8.796460784322301,8.824865932422444,35.16108315158273,32.18069250197095,-0.0016188621520996,0.0931989923119545,0,0,0
2948,103193.91186122633,2010-11-02 19:03:33,3151.589025903505,7,9,-1.099568486213684,3.197904109954834,8.796460784322301,8.834034419161169,35.16108315158273,32.210382289482865,-0.0023959160316735,0.0931989923119545,0,0,0
2949,103223.92712046612,2010-11-02 19:04:03,3181.604285138288,7,9,-1.099568486213684,3.08312726020813,8.796460784322301,8.843202947202196,35.16108315158273,32.239216841588615,-0.0037233829498291,0.0931989923119545,0,0,0
2950,103251.80186105204,2010-11-02 19:04:31,3209.479025724212,7,9,-1.099568486213684,2.8828744888305664,8.796460784322301,8.851717591660499,35.16108315158273,32.264731918012025,-0.0079971794039011,0.0931989923119545,0,0,0
2951,103266.1768090688,2010-11-02 19:04:45,3223.853973751017,7,9,-1.099568486213684,2.699781894683838,8.796460784322301,8.856108542290103,35.16108315158273,32.27700735641984,-0.0111053464934229,0.0931989923119545,0,0,0
2952,103326.19229576272,2010-11-02 19:05:45,60.01518567154166,8,9,0.0,3.3246607780456543,8.796460784322301,8.856108542290103,35.16108315158273,32.27700735641984,0.0012950897216796,0.0931989923119545,0,0,0
2953,103326.38082618786,2010-11-02 19:05:45,0.187622178823294,9,9,-1.9243103452026844e-05,3.3248226642608643,8.796460784322301,8.856108543293002,35.16108315158273,32.2770073597543,0.0,0.0924721807241439,0,0,0
2954,103331.20876094578,2010-11-02 19:05:50,5.015556931725731,9,9,0.0003419754502829,3.3324313163757324,8.796461602701028,8.85610854345947,35.1610858762089,32.27700736030777,0.0010684489971026,0.0924721807241439,0,0,0
