Data_Point,Test_Time(s),Date_Time,Step_Time(s),Step_Index,Cycle_Index,Current(A),Voltage(V),Charge_Capacity(Ah),Discharge_Capacity(Ah),Charge_Energy(Wh),Discharge_Energy(Wh),dV/dt(V/s),Internal_Resistance(Ohm),Is_FC_Data,AC_Impedance(Ohm),ACI_Phase_Angle(Deg)
3287,114864.112156946,2010-11-02 22:18:04,30.01543757494669,1,11,0.0,3.3416588306427,9.78162348860116,9.845295627068992,39.09483644184517,35.88998583226554,0.0007446765666827,0.0923051163554191,0,0,0
3288,114894.12737926864,2010-11-02 22:18:34,60.03065990260304,1,11,0.0,3.365132093429565,9.78162348860116,9.845295627068992,39.09483644184517,35.88998583226554,0.0005827903514727,0.0923051163554191,0,0,0
3289,114924.14269431272,2010-11-02 22:19:04,90.04597494168135,1,11,0.0,3.382939577102661,9.78162348860116,9.845295627068992,39.09483644184517,35.88998583226554,0.0003885269106831,0.0923051163554191,0,0,0
3290,114954.11113472552,2010-11-02 22:19:34,120.014415354481,1,11,0.0,3.3971855640411377,9.78162348860116,9.845295627068992,39.09483644184517,35.88998583226554,0.0003237724304199,0.0923051163554191,0,0,0
3291,114984.1296674504,2010-11-02 22:20:05,30.018085614861715,2,11,0.5501165986061096,3.5585856437683105,9.786210592319984,9.845295627068992,39.1109823694923,35.88998583226554,0.0017807483673095,0.0923051163554191,0,0,0
3292,115014.14224904138,2010-11-02 22:20:35,60.03066723089558,2,11,0.5501165986061096,3.6118459701538086,9.790796895483062,9.845295627068992,39.12743232028001,35.88998583226554,0.0012303352123126,0.0923051163554191,0,0,0
3293,115044.15753304298,2010-11-02 22:21:05,90.04595112222431,2,11,0.5501165986061096,3.651184320449829,9.795383587924892,9.845295627068992,39.14409244110462,35.88998583226554,0.0009713172912597,0.0923051163554191,0,0,0
3294,115074.1728255508,2010-11-02 22:21:35,120.06124363006118,2,11,0.5499359965324402,3.6817805767059326,9.7999701109218,9.845295627068992,39.16091117764688,35.88998583226554,0.0007446765666827,0.0923051163554191,0,0,0
3295,115104.18829065948,2010-11-02 22:22:05,150.0767087387363,2,11,0.5501165986061096,3.707196712493897,9.80455585446098,9.845295627068992,39.17785496559039,35.88998583226554,0.0006475448608398,0.0923051163554191,0,0,0
3296,115134.20371727207,2010-11-02 22:22:35,180.09213535131926,2,11,0.5501165986061096,3.7285656929016113,9.809141676251198,9.845295627068992,39.194905411480455,35.88998583226554,0.0005827903514727,0.0923051163554191,0,0,0
3297,115164.21895760468,2010-11-02 22:23:05,210.10737569394377,2,11,0.5501165986061096,3.746049404144287,9.813728336700487,9.845295627068992,39.21204809144307,35.88998583226554,0.0004209041653666,0.0923051163554191,0,0,0
3298,115194.2345684722,2010-11-02 22:23:35,240.1229866065679,2,11,0.5501165986061096,3.7596476078033447,9.818314967216892,9.845295627068992,39.22926266245727,35.88998583226554,0.0003237724304199,0.0923051163554191,0,0,0
3299,115224.24962872028,2010-11-02 22:24:05,270.13804682958613,2,11,0.5501165986061096,3.7677419185638423,9.822901612347636,9.845295627068992,39.24652723799515,35.88998583226554,0.0001295089750783,0.0923051163554191,0,0,0
3300,115254.26482024604,2010-11-02 22:24:35,300.1532383302937,2,11,0.550297200679779,3.7729222774505615,9.827488207959949,9.845295627068992,39.263821227781285,35.88998583226554,9.713172767078504e-05,0.0923051163554191,0,0,0
3301,115284.28023272334,2010-11-02 22:25:05,330.1686508025803,2,11,0.5501165986061096,3.7768075466156006,9.832074864268815,9.845295627068992,39.281135404685735,35.88998583226554,0.0001295089750783,0.0923051163554191,0,0,0
3302,115314.29542692075,2010-11-02 22:25:35,360.1838450000193,2,11,0.5501165986061096,3.78036904335022,9.83666150648105,9.845295627068992,39.29846644068131,35.88998583226554,9.713172767078504e-05,0.0923051163554191,0,0,0
3303,115344.31086568368,2010-11-02 22:26:05,390.19928377295633,2,11,0.5501165986061096,3.783606767654419,9.84124810619684,9.845295627068992,39.31581320944732,35.88998583226554,6.47544875391759e-05,0.0923051163554191,0,0,0
3304,115374.32606742496,2010-11-02 22:26:35,420.21448550420087,2,11,0.5501165986061096,3.787168264389038,9.84583476972984,9.845295627068992,39.333175932945785,35.88998583226554,9.713172767078504e-05,0.0923051163554191,0,0,0
3305,115404.34138453922,2010-11-02 22:27:05,450.22980261845913,2,11,0.5501165986061096,3.7905678749084473,9.85042141745572,9.845295627068992,39.35055388158545,35.88998583226554,9.713172767078504e-05,0.0923051163554191,0,0,0
3306,115434.35671189905,2010-11-02 22:27:35,480.245129978292,2,11,0.5499359965324402,3.793643712997437,9.855008063824666,9.845295627068992,39.36794667096029,35.88998583226554,9.713172767078504e-05,0.0923051163554191,0,0,0
3307,115464.37214019585,2010-11-02 22:28:05,510.26055827507895,2,11,0.5499359965324402,3.796557664871216,9.859594790928462,9.845295627068992,39.38535433813748,35.88998583226554,3.237724376958795e-05,0.0923051163554191,0,0,0
3308,115494.38733877924,2010-11-02 22:28:35,540.2757568584659,2,11,0.5501165986061096,3.799957275390625,9.864181420296068,9.845295627068992,39.40277588867476,35.88998583226554,9.713172767078504e-05,0.0923051163554191,0,0,0
3309,115524.40266123682,2010-11-02 22:29:05,570.2910793411246,2,11,0.5501165986061096,3.802871227264404,9.868768056598483,9.845295627068992,39.42021136913617,35.88998583226554,9.713172767078504e-05,0.0923051163554191,0,0,0
3310,115554.41796704284,2010-11-02 22:29:35,600.3063851220933,2,11,0.5501165986061096,3.805785179138184,9.873354696703746,9.845295627068992,39.43766066218972,35.88998583226554,3.237724376958795e-05,0.0923051163554191,0,0,0
3311,115584.4333034302,2010-11-02 22:30:05,630.3217215094601,2,11,0.550297200679779,3.808861017227173,9.87794135829522,9.845295627068992,39.455123695058745,35.88998583226554,6.47544875391759e-05,0.0923051163554191,0,0,0
3312,115614.4486196723,2010-11-02 22:30:35,660.3370377515414,2,11,0.550297200679779,3.811936855316162,9.882528095504604,9.845295627068992,39.47260074266156,35.88998583226554,9.713172767078504e-05,0.0923051163554191,0,0,0
3313,115644.46394392436,2010-11-02 22:31:05,690.3523620036168,2,11,0.5501165986061096,3.815012693405152,9.88711482500272,9.845295627068992,39.490091669699005,35.88998583226554,9.713172767078504e-05,0.0923051163554191,0,0,0
3314,115674.4792630236,2010-11-02 22:31:35,720.3676811028298,2,11,0.5501165986061096,3.8180885314941406,9.891701574030892,9.845295627068992,39.50759667866303,35.88998583226554,9.713172767078504e-05,0.0923051163554191,0,0,0
3315,115704.49458752628,2010-11-02 22:32:05,750.3830056055307,2,11,0.5501165986061096,3.82100248336792,9.89628817838386,9.845295627068992,39.52511525137253,35.88998583226554,6.47544875391759e-05,0.0923051163554191,0,0,0
3316,115734.50988744762,2010-11-02 22:32:35,780.3983055268728,2,11,0.550297200679779,3.824240207672119,9.9008748185242,9.845295627068992,39.54264850353304,35.88998583226554,9.713172767078504e-05,0.0923051163554191,0,0,0
3317,115764.52544186923,2010-11-02 22:33:05,810.4138599585118,2,11,0.5499359965324402,3.8274779319763184,9.90546151183876,9.845295627068992,39.56019689678311,35.88998583226554,6.47544875391759e-05,0.0923051163554191,0,0,0
3318,115794.540514002,2010-11-02 22:33:35,840.4289320912586,2,11,0.550297200679779,3.8310394287109375,9.910048195472347,9.845295627068992,39.57776056121335,35.88998583226554,9.713172767078504e-05,0.0923051163554191,0,0,0
3319,115824.55596068969,2010-11-02 22:34:05,870.4443787689271,2,11,0.550297200679779,3.834438800811768,9.914634862420392,9.845295627068992,39.5953397022935,35.88998583226554,0.0001295089750783,0.0923051163554191,0,0,0
3320,115854.57119700224,2010-11-02 22:34:35,900.4596150814918,2,11,0.550297200679779,3.8378384113311768,9.91922149453364,9.845295627068992,39.61293447519687,35.88998583226554,6.47544875391759e-05,0.0923051163554191,0,0,0
3321,115884.58647742492,2010-11-02 22:35:05,930.4748955041624,2,11,0.5501165986061096,3.841238021850586,9.92380810363081,9.845295627068992,39.63054480620195,35.88998583226554,9.713172767078504e-05,0.0923051163554191,0,0,0
3322,115914.60176149168,2010-11-02 22:35:35,960.4901795709292,2,11,0.5501165986061096,3.844475746154785,9.928394733232423,9.845295627068992,39.64817071548977,35.88998583226554,6.47544875391759e-05,0.0923051163554191,0,0,0
3323,115944.61710650056,2010-11-02 22:36:05,990.5055245798164,2,11,0.5501165986061096,3.8478753566741934,9.932981390079544,9.845295627068992,39.66581207346954,35.88998583226554,9.713172767078504e-05,0.0923051163554191,0,0,0
3324,115974.63265982443,2010-11-02 22:36:35,1020.5210779137154,2,11,0.550297200679779,3.8511130809783936,9.937568093730071,9.845295627068992,39.6834686592632,35.88998583226554,6.47544875391759e-05,0.0923051163554191,0,0,0
3325,116004.6477511952,2010-11-02 22:37:05,1050.5361692744582,2,11,0.5499359965324402,3.8543508052825928,9.942154660452632,9.845295627068992,39.70113950472588,35.88998583226554,6.47544875391759e-05,0.0923051163554191,0,0,0
3326,116034.6630366304,2010-11-02 22:37:35,1080.5514547146531,2,11,0.5501165986061096,3.857426643371582,9.946741300205431,9.845295627068992,39.71882517902986,35.88998583226554,6.47544875391759e-05,0.0923051163554191,0,0,0
3327,116064.67840173445,2010-11-02 22:38:05,1110.5668198136889,2,11,0.5501165986061096,3.8605024814605713,9.951328028474052,9.845295627068992,39.736525328094,35.88998583226554,6.47544875391759e-05,0.0923051163554191,0,0,0
3328,116094.69391079784,2010-11-02 22:38:35,1140.582328902144,2,11,0.550297200679779,3.8637402057647705,9.955914705024792,9.845295627068992,39.75423901330639,35.88998583226554,0.0001295089750783,0.0923051163554191,0,0,0
3329,116124.70906184756,2010-11-02 22:39:05,1170.597480834082,2,11,0.550297200679779,3.86633038520813,9.960501326880866,9.845295627068992,39.77196565572175,35.88998583226554,9.713172767078504e-05,0.0923051163554191,0,0,0
3330,116154.7243392928,2010-11-02 22:39:35,1200.6127573720555,2,11,0.5501165986061096,3.869082450866699,9.965087958721728,9.845295627068992,39.78970508501647,35.88998583226554,6.47544875391759e-05,0.0923051163554191,0,0,0
3331,116184.73966825665,2010-11-02 22:40:05,1230.6280863358922,2,11,0.550297200679779,3.8715107440948486,9.969674616518432,9.845295627068992,39.80745681029451,35.88998583226554,3.237724376958795e-05,0.0923051163554191,0,0,0
3332,116214.75505745584,2010-11-02 22:40:35,1260.6434755651603,2,11,0.5501165986061096,3.874100923538208,9.974261293378731,9.845295627068992,39.82522026352486,35.88998583226554,6.47544875391759e-05,0.0923051163554191,0,0,0
3333,116244.77030166311,2010-11-02 22:41:05,1290.6587197423569,2,11,0.5501165986061096,3.876367330551148,9.978847977806774,9.845295627068992,39.84299466536544,35.88998583226554,6.47544875391759e-05,0.0923051163554191,0,0,0
3334,116274.7856332886,2010-11-02 22:41:35,1320.6740513678374,2,11,0.5499359965324402,3.878633737564087,9.983434695056918,9.845295627068992,39.86077963028635,35.88998583226554,6.47544875391759e-05,0.0923051163554191,0,0,0
3335,116304.80093596682,2010-11-02 22:42:05,1350.6893540460612,2,11,0.550297200679779,3.880738258361816,9.988021411554705,9.845295627068992,39.87857430749337,35.88998583226554,9.713172767078504e-05,0.0923051163554191,0,0,0
3336,116334.81626056976,2010-11-02 22:42:35,1380.7046786490123,2,11,0.5501165986061096,3.882680892944336,9.99260814827873,9.845295627068992,39.89637820382726,35.88998583226554,6.47544875391759e-05,0.0923051163554191,0,0,0
3337,116364.83157292214,2010-11-02 22:43:05,1410.7199910013844,2,11,0.550297200679779,3.884299755096436,9.997194880138228,9.845295627068992,39.91419061745346,35.88998583226554,3.237724376958795e-05,0.0923051163554191,0,0,0
3338,116394.84688902387,2010-11-02 22:43:35,1440.7353071031152,2,11,0.5501165986061096,3.885918617248535,10.001781598171268,9.845295627068992,39.93201078385999,35.88998583226554,0.0,0.0923051163554191,0,0,0
3339,116424.862215697,2010-11-02 22:44:05,1470.7506337762338,2,11,0.5501165986061096,3.8875374794006343,10.006368281063288,9.845295627068992,39.949838264973096,35.88998583226554,6.47544875391759e-05,0.0923051163554191,0,0,0
3340,116454.87754055558,2010-11-02 22:44:35,1500.7659586348232,2,11,0.5501165986061096,3.8891563415527344,10.010954994951916,9.845295627068992,39.9676728729001,35.88998583226554,6.47544875391759e-05,0.0923051163554191,0,0,0
3341,116484.89313386928,2010-11-02 22:45:05,1530.7815519435053,2,11,0.5501165986061096,3.890613317489624,10.015541699731644,9.845295627068992,39.98551405813598,35.88998583226554,9.713172767078504e-05,0.0923051163554191,0,0,0
3342,116514.90830386628,2010-11-02 22:45:35,1560.7967219555735,2,11,0.550297200679779,3.891908407211304,10.020128323532786,9.845295627068992,40.0033613390368,35.88998583226554,3.237724376958795e-05,0.0923051163554191,0,0,0
3343,116544.92348668534,2010-11-02 22:46:05,1590.8119047645855,2,11,0.5501165986061096,3.893203496932984,10.024714916836274,9.845295627068992,40.02121466350479,35.88998583226554,3.237724376958795e-05,0.0923051163554191,0,0,0
3344,116574.93881999503,2010-11-02 22:46:35,1620.82723807427,2,11,0.550297200679779,3.894660472869873,10.029301552855378,9.845295627068992,40.0390742480032,35.88998583226554,9.713172767078504e-05,0.0923051163554191,0,0,0
3345,116604.95412823212,2010-11-02 22:47:05,1650.842546306357,2,11,0.5501165986061096,3.895793676376343,10.033888306757133,9.845295627068992,40.05693979910445,35.88998583226554,6.47544875391759e-05,0.0923051163554191,0,0,0
3346,116634.96956424815,2010-11-02 22:47:35,1680.8579823224125,2,11,0.550297200679779,3.8970887660980233,10.038474998002108,9.845295627068992,40.07481110187839,35.88998583226554,3.237724376958795e-05,0.0923051163554191,0,0,0
3347,116664.98479943292,2010-11-02 22:48:05,1710.873217507162,2,11,0.5499359965324402,3.898221969604492,10.043061665917197,9.845295627068992,40.092688133409645,35.88998583226554,3.237724376958795e-05,0.0923051163554191,0,0,0
3348,116695.0002503612,2010-11-02 22:48:35,1740.8886684304282,2,11,0.550297200679779,3.899517059326172,10.047648281772815,9.845295627068992,40.11057085235649,35.88998583226554,3.237724376958795e-05,0.0923051163554191,0,0,0
3349,116725.01552792676,2010-11-02 22:49:05,1770.903946005992,2,11,0.5501165986061096,3.900812149047852,10.052234837534998,9.845295627068992,40.12845913983309,35.88998583226554,3.237724376958795e-05,0.0923051163554191,0,0,0
3350,116755.03072352769,2010-11-02 22:49:35,1800.919141601922,2,11,0.5501165986061096,3.9021072387695312,10.05682145809756,9.845295627068992,40.14635361405315,35.88998583226554,3.237724376958795e-05,0.0923051163554191,0,0,0
3351,116785.04612163913,2010-11-02 22:50:05,1830.934539708349,2,11,0.5501165986061096,3.903402328491211,10.061408157310169,9.845295627068992,40.164254313501466,35.88998583226554,3.237724376958795e-05,0.0923051163554191,0,0,0
3352,116815.06142982608,2010-11-02 22:50:36,1860.949847900336,2,11,0.550297200679779,3.9048593044281006,10.065994813348906,9.845295627068992,40.182160761551216,35.88998583226554,9.713172767078504e-05,0.0923051163554191,0,0,0
3353,116845.07669554708,2010-11-02 22:51:06,1890.965113616296,2,11,0.550297200679779,3.9059925079345694,10.070581513485813,9.845295627068992,40.200073282481455,35.88998583226554,0.0,0.0923051163554191,0,0,0
3354,116875.09200450598,2010-11-02 22:51:36,1920.9804225802093,2,11,0.5501165986061096,3.90728759765625,10.07516816740744,9.845295627068992,40.21799162402353,35.88998583226554,3.237724376958795e-05,0.0923051163554191,0,0,0
3355,116905.10993472296,2010-11-02 22:52:06,1950.9983528823875,2,11,0.5501165986061096,3.9085826873779297,10.079755166556238,9.845295627068992,40.23591730982099,35.88998583226554,3.237724376958795e-05,0.0923051163554191,0,0,0
3356,116935.12265938104,2010-11-02 22:52:36,1981.0110774552631,2,11,0.5501165986061096,3.90987777709961,10.084341378034871,9.845295627068992,40.25384602050661,35.88998583226554,3.237724376958795e-05,0.0923051163554191,0,0,0
3357,116965.13797155296,2010-11-02 22:53:06,2011.0263896271847,2,11,0.5497553944587708,3.911172866821289,10.088928006030423,9.845295627068992,40.27178241053114,35.88998583226554,0.0,0.0923051163554191,0,0,0
3358,116995.15327758456,2010-11-02 22:53:36,2041.041695658779,2,11,0.5501165986061096,3.9126298427581783,10.0935146013202,9.845295627068992,40.28972482935788,35.88998583226554,3.237724376958795e-05,0.0923051163554191,0,0,0
3359,117025.16867829248,2010-11-02 22:54:06,2071.0570964870003,2,11,0.5501165986061096,3.9139246940612793,10.098101246720828,9.845295627068992,40.30767359320165,35.88998583226554,6.470680091297254e-05,0.0923051163554191,0,0,0
3360,117055.18412165689,2010-11-02 22:54:36,2101.0725397260853,2,11,0.5501165986061096,3.915381669998169,10.10268794352589,9.845295627068992,40.32562882975601,35.88998583226554,6.47544875391759e-05,0.0923051163554191,0,0,0
3361,117085.19930143331,2010-11-02 22:55:06,2131.0877196027777,2,11,0.5501165986061096,3.9166767597198486,10.107274557953833,9.845295627068992,40.34358984435571,35.88998583226554,6.47544875391759e-05,0.0923051163554191,0,0,0
3362,117115.21457835723,2010-11-02 22:55:36,2161.1029964264644,2,11,0.5499359965324402,3.917971849441528,10.111861181131951,9.845295627068992,40.36155731089515,35.88998583226554,3.237724376958795e-05,0.0923051163554191,0,0,0
3363,117145.22988006804,2010-11-02 22:56:06,2191.118298137273,2,11,0.5501165986061096,3.919266939163208,10.116447786165914,9.845295627068992,40.37953106726631,35.88998583226554,3.237724376958795e-05,0.0923051163554191,0,0,0
3364,117175.24522572858,2010-11-02 22:56:36,2221.1336437977875,2,11,0.5501165986061096,3.920885801315308,10.12103444476078,9.845295627068992,40.397511502518974,35.88998583226554,3.237724376958795e-05,0.0923051163554191,0,0,0
3365,117205.2605203968,2010-11-02 22:57:06,2251.148938506117,2,11,0.5501165986061096,3.922342777252197,10.125621091345147,9.845295627068992,40.41549830927493,35.88998583226554,3.237724376958795e-05,0.0923051163554191,0,0,0
3366,117235.27584079924,2010-11-02 22:57:36,2281.1642588985583,2,11,0.550297200679779,3.923799753189087,10.130207709148651,9.845295627068992,40.433491564116125,35.88998583226554,6.47544875391759e-05,0.0923051163554191,0,0,0
3367,117265.29115380326,2010-11-02 22:58:06,2311.1795719025567,2,11,0.5501165986061096,3.925094842910767,10.134794331859826,9.845295627068992,40.4514914438194,35.88998583226554,3.237724376958795e-05,0.0923051163554191,0,0,0
3368,117295.30649127332,2010-11-02 22:58:36,2341.1949093726266,2,11,0.5501165986061096,3.926713705062866,10.139380947012134,9.845295627068992,40.46949785758833,35.88998583226554,6.47544875391759e-05,0.0923051163554191,0,0,0
3369,117325.32181337,2010-11-02 22:59:06,2371.2102314392464,2,11,0.5501165986061096,3.928008794784546,10.143967545034556,9.845295627068992,40.48751088498291,35.88998583226554,0.0,0.0923051163554191,0,0,0
3370,117355.337111537,2010-11-02 22:59:36,2401.225529611222,2,11,0.5501165986061096,3.9296276569366455,10.14855416594538,9.845295627068992,40.50553069507512,35.88998583226554,6.47544875391759e-05,0.0923051163554191,0,0,0
3371,117385.35243174396,2010-11-02 23:00:06,2431.240849848275,2,11,0.550297200679779,3.931084632873535,10.153140791007187,9.845295627068992,40.5235573702005,35.88998583226554,3.237724376958795e-05,0.0923051163554191,0,0,0
3372,117415.3677649584,2010-11-02 23:00:36,2461.2561830577097,2,11,0.550297200679779,3.932541608810425,10.157727440529046,9.845295627068992,40.54159090444357,35.88998583226554,3.237724376958795e-05,0.0923051163554191,0,0,0
3373,117445.38307782206,2010-11-02 23:01:06,2491.271495896295,2,11,0.5501165986061096,3.9339985847473145,10.1623140660636,9.845295627068992,40.55963129040994,35.88998583226554,3.237724376958795e-05,0.0923051163554191,0,0,0
3374,117475.39839587868,2010-11-02 23:01:36,2521.286813952905,2,11,0.5501165986061096,3.935455560684204,10.166900682832756,9.845295627068992,40.577678580753165,35.88998583226554,3.237724376958795e-05,0.0923051163554191,0,0,0
3375,117505.41372072724,2010-11-02 23:02:06,2551.30213880147,2,11,0.5501165986061096,3.9369125366210938,10.171487365245875,9.845295627068992,40.59573304993717,35.88998583226554,0.0,0.0923051163554191,0,0,0
3376,117535.42918361536,2010-11-02 23:02:36,2581.3176016896023,2,11,0.5501165986061096,3.9386932849884033,10.176074022464787,9.845295627068992,40.61379460609399,35.88998583226554,6.47544875391759e-05,0.0923051163554191,0,0,0
3377,117565.44435757228,2010-11-02 23:03:06,2611.3327756715803,2,11,0.550297200679779,3.940312147140503,10.1806606073334,9.845295627068992,40.63186300063843,35.88998583226554,6.47544875391759e-05,0.0923051163554191,0,0,0
3378,117595.45968045092,2010-11-02 23:03:36,2641.3480985502274,2,11,0.5501165986061096,3.941607236862183,10.185247248171809,9.845295627068992,40.64993879319845,35.88998583226554,3.237724376958795e-05,0.0923051163554191,0,0,0
3379,117625.47500456766,2010-11-02 23:04:06,2671.3634226419026,2,11,0.5501165986061096,3.943226099014282,10.189833846537557,9.845295627068992,40.66802162379724,35.88998583226554,6.47544875391759e-05,0.0923051163554191,0,0,0
3380,117655.49033650392,2010-11-02 23:04:36,2701.3787546032213,2,11,0.5501165986061096,3.944844961166382,10.194420436808263,9.845295627068992,40.686111745293246,35.88998583226554,0.0,0.0923051163554191,0,0,0
3381,117685.50579137706,2010-11-02 23:05:06,2731.394209466322,2,11,0.5501165986061096,3.9464638233184814,10.199007154482954,9.845295627068992,40.70420975504587,35.88998583226554,3.237724376958795e-05,0.0923051163554191,0,0,0
3382,117715.52096036656,2010-11-02 23:05:36,2761.4093784458128,2,11,0.550297200679779,3.948244571685791,10.20359383816788,9.845295627068992,40.722314900313336,35.88998583226554,9.713172767078504e-05,0.0923051163554191,0,0,0
3383,117745.5362925384,2010-11-02 23:06:06,2791.42471062267,2,11,0.5501165986061096,3.94986343383789,10.208180423671989,9.845295627068992,40.740427165466414,35.88998583226554,6.47544875391759e-05,0.0923051163554191,0,0,0
3384,117775.55163115132,2010-11-02 23:06:36,2821.4400492506293,2,11,0.5501165986061096,3.9514822959899902,10.21276703329852,9.845295627068992,40.75854714900871,35.88998583226554,6.47544875391759e-05,0.0923051163554191,0,0,0
3385,117805.56692481204,2010-11-02 23:07:06,2851.4553428812687,2,11,0.5501165986061096,3.9532630443573,10.2173536282996,9.845295627068992,40.77667465425264,35.88998583226554,9.713172767078504e-05,0.0923051163554191,0,0,0
3386,117835.58217192156,2010-11-02 23:07:36,2881.47059000081,2,11,0.5501165986061096,3.9547200202941895,10.22194029918724,9.845295627068992,40.79481015959704,35.88998583226554,3.237724376958795e-05,0.0923051163554191,0,0,0
3387,117865.59765795748,2010-11-02 23:08:06,2911.4860760617853,2,11,0.5499359965324402,3.956500768661499,10.226527078326606,9.845295627068992,40.81295390414044,35.88998583226554,3.237724376958795e-05,0.0923051163554191,0,0,0
3388,117895.61309742717,2010-11-02 23:08:36,2941.501515516424,2,11,0.5499359965324402,3.9582815170288086,10.231113810482132,9.845295627068992,40.831105188360176,35.88998583226554,6.47544875391759e-05,0.0923051163554191,0,0,0
3389,117925.6283100606,2010-11-02 23:09:06,2971.5167281448694,2,11,0.5501165986061096,3.959738492965698,10.235700461897174,9.845295627068992,40.849264073404456,35.88998583226554,3.237724376958795e-05,0.0923051163554191,0,0,0
3390,117955.64348999744,2010-11-02 23:09:36,3001.531908076699,2,11,0.5501165986061096,3.9616811275482178,10.240287089067316,9.845295627068992,40.86743086557655,35.88998583226554,6.47544875391759e-05,0.0923051163554191,0,0,0
3391,117985.65882909158,2010-11-02 23:10:06,3031.54724716581,2,11,0.5499359965324402,3.963299989700317,10.24487380121596,9.845295627068992,40.88560596798125,35.88998583226554,6.47544875391759e-05,0.0923051163554191,0,0,0
3392,118015.6743464958,2010-11-02 23:10:36,3061.562764575035,2,11,0.5499359965324402,3.965080738067627,10.249460532194908,9.845295627068992,40.90378925300668,35.88998583226554,6.47544875391759e-05,0.0923051163554191,0,0,0
3393,118045.68947315463,2010-11-02 23:11:06,3091.5778912539377,2,11,0.5501165986061096,3.966861486434937,10.254047275782096,9.845295627068992,40.92198077583571,35.88998583226554,3.237724376958795e-05,0.0923051163554191,0,0,0
3394,118075.70478480024,2010-11-02 23:11:36,3121.59320286947,2,11,0.5501165986061096,3.968642234802246,10.258633994696034,9.845295627068992,40.9401802537592,35.88998583226554,0.0,0.0923051163554191,0,0,0
3395,118105.72012035556,2010-11-02 23:12:06,3151.6085384548355,2,11,0.5501165986061096,3.970746755599976,10.263220697902725,9.845295627068992,40.9583879938138,35.88998583226554,9.713172767078504e-05,0.0923051163554191,0,0,0
3396,118135.73544972038,2010-11-02 23:12:36,3181.623867819673,2,11,0.5501165986061096,3.972365617752075,10.267807389720511,9.845295627068992,40.97660406706457,35.88998583226554,0.0,0.0923051163554191,0,0,0
3397,118165.7508934908,2010-11-02 23:13:06,3211.6393115700344,2,11,0.5501165986061096,3.9741463661193848,10.272394161577186,9.845295627068992,40.994828857664814,35.88998583226554,3.237724376958795e-05,0.0923051163554191,0,0,0
3398,118195.76606537754,2010-11-02 23:13:36,3241.6544834517704,2,11,0.5499359965324402,3.976250886917114,10.27698088343736,9.845295627068992,41.01306202553929,35.88998583226554,3.237724376958795e-05,0.0923051163554191,0,0,0
3399,118225.78151219054,2010-11-02 23:14:06,3271.669930264776,2,11,0.5501165986061096,3.977869749069214,10.281567571132085,9.845295627068992,41.0313035696956,35.88998583226554,3.237724376958795e-05,0.0923051163554191,0,0,0
3400,118255.79673269868,2010-11-02 23:14:36,3301.6851507879283,2,11,0.5501165986061096,3.979974269866944,10.286154157226658,9.845295627068992,41.04955323104063,35.88998583226554,3.237724376958795e-05,0.0923051163554191,0,0,0
3401,118285.81216396284,2010-11-02 23:15:06,3331.70058204711,2,11,0.550297200679779,3.981755018234253,10.290740755132669,9.845295627068992,41.06781211646235,35.88998583226554,0.0,0.0923051163554191,0,0,0
3402,118315.8273543157,2010-11-02 23:15:36,3361.7157723899268,2,11,0.550297200679779,3.9838595390319824,10.29532739404154,9.845295627068992,41.08608008397279,35.88998583226554,3.237724376958795e-05,0.0923051163554191,0,0,0
3403,118345.84280107856,2010-11-02 23:16:06,3391.731219157821,2,11,0.550297200679779,3.985802173614502,10.29991397462286,9.845295627068992,41.10435673758074,35.88998583226554,3.237724376958795e-05,0.0923051163554191,0,0,0
3404,118375.85802313054,2010-11-02 23:16:36,3421.746441199764,2,11,0.5501165986061096,3.987906694412232,10.304500549056351,9.845295627068992,41.1226425637037,35.88998583226554,9.713172767078504e-05,0.0923051163554191,0,0,0
3405,118405.87358546692,2010-11-02 23:17:06,3451.7620035611967,2,11,0.5501165986061096,3.989849328994751,10.309087189020516,9.845295627068992,41.14093780959177,35.88998583226554,6.47544875391759e-05,0.0923051163554191,0,0,0
3406,118435.88868611584,2010-11-02 23:17:36,3481.7771043755374,2,11,0.5499359965324402,3.9917919635772714,10.31367375846408,9.845295627068992,41.15924213859423,35.88998583226554,6.47544875391759e-05,0.0923051163554191,0,0,0
3407,118465.9040902022,2010-11-02 23:18:06,3511.792508396729,2,11,0.5501165986061096,3.993896484375,10.318260403284812,9.845295627068992,41.177556227914,35.88998583226554,3.237724376958795e-05,0.0923051163554191,0,0,0
3408,118495.91942931636,2010-11-02 23:18:36,3541.8078473956143,2,11,0.550297200679779,3.99616265296936,10.322846987041862,9.845295627068992,41.19587960184736,35.88998583226554,9.713172767078504e-05,0.0923051163554191,0,0,0
3409,118525.93460197005,2010-11-02 23:19:06,3571.823020039252,2,11,0.5499359965324402,3.99810528755188,10.327433624525748,9.845295627068992,41.21421288356933,35.88998583226554,6.47544875391759e-05,0.0923051163554191,0,0,0
3410,118555.9499277409,2010-11-02 23:19:36,3601.838345810118,2,11,0.5501165986061096,4.000209808349609,10.33202024372323,9.845295627068992,41.23255568577309,35.88998583226554,3.23295607813634e-05,0.0923051163554191,0,0,0
3411,118585.96528226353,2010-11-02 23:20:06,3631.853700337766,2,11,0.5501165986061096,4.002476215362549,10.336606835657134,9.845295627068992,41.25090827146755,35.88998583226554,6.47544875391759e-05,0.0923051163554191,0,0,0
3412,118615.98057604957,2010-11-02 23:20:36,3661.8689941237935,2,11,0.550297200679779,4.004742622375488,10.341193459207346,9.845295627068992,41.26927089115467,35.88998583226554,9.70840483205393e-05,0.0923051163554191,0,0,0
3413,118645.99602641143,2010-11-02 23:21:06,3691.884444520746,2,11,0.5501165986061096,4.006847381591797,10.345780113166262,9.845295627068992,41.28764369719247,35.88998583226554,9.71794142969884e-05,0.0923051163554191,0,0,0
3414,118676.01122794718,2010-11-02 23:21:36,3721.8996460464778,2,11,0.5499359965324402,4.008951663970947,10.350366716376344,9.845295627068992,41.30602651436992,35.88998583226554,6.47544875391759e-05,0.0923051163554191,0,0,0
3415,118706.02652316177,2010-11-02 23:22:06,3751.914941236008,2,11,0.5501165986061096,4.011218070983887,10.354953298442972,9.845295627068992,41.32441944232832,35.88998583226554,0.0,0.0923051163554191,0,0,0
3416,118736.04194172428,2010-11-02 23:22:37,3781.930359793485,2,11,0.5501165986061096,4.013646602630615,10.359539927644075,9.845295627068992,41.342822893676185,35.88998583226554,6.47544875391759e-05,0.0923051163554191,0,0,0
3417,118766.0571744178,2010-11-02 23:23:07,3811.945592487016,2,11,0.550297200679779,4.0160746574401855,10.364126548628212,9.845295627068992,41.36123679144687,35.88998583226554,9.70840483205393e-05,0.0923051163554191,0,0,0
3418,118796.07265653892,2010-11-02 23:23:37,3841.9610746081567,2,11,0.5501165986061096,4.018179416656494,10.368713237926274,9.845295627068992,41.37966163384966,35.88998583226554,6.47544875391759e-05,0.0923051163554191,0,0,0
3419,118826.09042312746,2010-11-02 23:24:07,3871.978841291917,2,11,0.5501165986061096,4.0206074714660645,10.37330033304881,9.845295627068992,41.3980987120808,35.88998583226554,9.70840483205393e-05,0.0923051163554191,0,0,0
3420,118856.10315919905,2010-11-02 23:24:37,3901.991577388558,2,11,0.5501165986061096,4.022873878479004,10.377886602160572,9.845295627068992,41.41654325907514,35.88998583226554,6.47544875391759e-05,0.0923051163554191,0,0,0
3421,118886.1184620126,2010-11-02 23:25:07,3932.006880086832,2,11,0.5499359965324402,4.025140285491943,10.38247321279003,9.845295627068992,41.43500001201134,35.88998583226554,3.23295607813634e-05,0.0923051163554191,0,0,0
3422,118916.13380501648,2010-11-02 23:25:37,3962.022223090715,2,11,0.5501165986061096,4.027568817138672,10.387059867006723,9.845295627068992,41.45346785343659,35.88998583226554,6.47544875391759e-05,0.0923051163554191,0,0,0
3423,118946.14910952428,2010-11-02 23:26:07,3992.0375276085306,2,11,0.5501165986061096,4.029835224151611,10.391646511278678,9.845295627068992,41.4719465682399,35.88998583226554,3.24249267578125e-05,0.0923051163554191,0,0,0
3424,118976.16464443217,2010-11-02 23:26:37,4022.053062501398,2,11,0.5501165986061096,4.032425403594971,10.396233206991951,9.845295627068992,41.49043638621503,35.88998583226554,6.47544875391759e-05,0.0923051163554191,0,0,0
3425,119006.17976195822,2010-11-02 23:27:07,4052.0681800274538,2,11,0.5501165986061096,4.034853458404541,10.400819836301888,9.845295627068992,41.50893703709749,35.88998583226554,6.47544875391759e-05,0.0923051163554191,0,0,0
3426,119036.19518187911,2010-11-02 23:27:37,4082.0835999533447,2,11,0.5501165986061096,4.0371198654174805,10.4054064630166,9.845295627068992,41.5274488609226,35.88998583226554,3.24249267578125e-05,0.0923051163554191,0,0,0
3427,119066.21038172064,2010-11-02 23:28:07,4112.098799794872,2,11,0.5501165986061096,4.039871692657471,10.409993130100291,9.845295627068992,41.5459722431148,35.88998583226554,9.70840483205393e-05,0.0923051163554191,0,0,0
3428,119096.22585027292,2010-11-02 23:28:37,4142.114268352156,2,11,0.5501165986061096,4.04213809967041,10.414579814190985,9.845295627068992,41.5645069752921,35.88998583226554,3.23295607813634e-05,0.0923051163554191,0,0,0
3429,119126.24102214462,2010-11-02 23:29:07,4172.129440218854,2,11,0.5501165986061096,4.044890403747559,10.41916641676836,9.845295627068992,41.583052918772445,35.88998583226554,9.71794142969884e-05,0.0923051163554191,0,0,0
3430,119156.25647422575,2010-11-02 23:29:37,4202.144892310035,2,11,0.550297200679779,4.047318458557129,10.423753064572177,9.845295627068992,41.60161071105605,35.88998583226554,6.47544875391759e-05,0.0923051163554191,0,0,0
3431,119186.27166872396,2010-11-02 23:30:07,4232.160086823263,2,11,0.5501165986061096,4.049908638000488,10.428339694291,9.845295627068992,41.62018019785789,35.88998583226554,9.70840483205393e-05,0.0923051163554191,0,0,0
3432,119216.28701212384,2010-11-02 23:30:37,4262.175430218121,2,11,0.550297200679779,4.052498817443848,10.4329263720135,9.845295627068992,41.63876170576005,35.88998583226554,3.23295607813634e-05,0.0923051163554191,0,0,0
3433,119246.3023101304,2010-11-02 23:31:07,4292.190728224684,2,11,0.5499359965324402,4.054927349090576,10.43751310716056,9.845295627068992,41.657355524143405,35.88998583226554,0.0,0.0923051163554191,0,0,0
3434,119276.3177594647,2010-11-02 23:31:37,4322.206177538934,2,11,0.5501165986061096,4.057841300964356,10.44209983077527,9.845295627068992,41.6759613278364,35.88998583226554,9.71794142969884e-05,0.0923051163554191,0,0,0
3435,119306.33294870476,2010-11-02 23:32:07,4352.221366778998,2,11,0.550297200679779,4.060593128204346,10.446686497320666,9.845295627068992,41.69457912852235,35.88998583226554,9.70840483205393e-05,0.0923051163554191,0,0,0
3436,119336.3482847212,2010-11-02 23:32:37,4382.236702820503,2,11,0.550297200679779,4.063183307647705,10.451273210167283,9.845295627068992,41.71320893027279,35.88998583226554,9.70840483205393e-05,0.0923051163554191,0,0,0
3437,119366.3635955598,2010-11-02 23:33:07,4412.252013659096,2,11,0.550297200679779,4.0657734870910645,10.455859909992018,9.845295627068992,41.7318511965877,35.88998583226554,9.70840483205393e-05,0.0923051163554191,0,0,0
3438,119396.3789217868,2010-11-02 23:33:37,4442.267339856025,2,11,0.5501165986061096,4.068525791168213,10.460446622384325,9.845295627068992,41.75050597286393,35.88998583226554,9.71794142969884e-05,0.0923051163554191,0,0,0
3439,119426.3942537832,2010-11-02 23:34:07,4472.282671882506,2,11,0.5501165986061096,4.071277618408203,10.465033322530074,9.845295627068992,41.769173281088136,35.88998583226554,9.70840483205393e-05,0.0923051163554191,0,0,0
3440,119456.40956713808,2010-11-02 23:34:37,4502.297985237381,2,11,0.5501165986061096,4.0738677978515625,10.469619982776214,9.845295627068992,41.78785309984638,35.88998583226554,3.23295607813634e-05,0.0923051163554191,0,0,0
3441,119486.4248841521,2010-11-02 23:35:07,4532.313302221314,2,11,0.5501165986061096,4.076781749725342,10.474206657909765,9.845295627068992,41.8065458247854,35.88998583226554,9.70840483205393e-05,0.0923051163554191,0,0,0
3442,119516.44017795316,2010-11-02 23:35:37,4562.328596052454,2,11,0.5501165986061096,4.07953405380249,10.478793343720648,9.845295627068992,41.82525152192822,35.88998583226554,3.24249267578125e-05,0.0923051163554191,0,0,0
3443,119546.45553823016,2010-11-02 23:36:07,4592.343956329453,2,11,0.5501165986061096,4.0826096534729,10.483380025980727,9.845295627068992,41.843970166976405,35.88998583226554,9.70840483205393e-05,0.0923051163554191,0,0,0
3444,119576.47090963494,2010-11-02 23:36:37,4622.359327714179,2,11,0.5501165986061096,4.08519983291626,10.48796663571882,9.845295627068992,41.86270163646974,35.88998583226554,3.23295607813634e-05,0.0923051163554191,0,0,0
3445,119606.48635468354,2010-11-02 23:37:07,4652.374772772806,2,11,0.5501165986061096,4.088437557220459,10.492553256526604,9.845295627068992,41.88144648109933,35.88998583226554,0.0001295089750783,0.0923051163554191,0,0,0
3446,119636.50154756269,2010-11-02 23:37:37,4682.389965641929,2,11,0.550297200679779,4.091351509094238,10.497139800047348,9.845295627068992,41.90020449510626,35.88998583226554,9.70840483205393e-05,0.0923051163554191,0,0,0
3447,119666.51685390504,2010-11-02 23:38:07,4712.405271984299,2,11,0.5501165986061096,4.094265460968018,10.50172639738052,9.845295627068992,41.918976282739735,35.88998583226554,9.70840483205393e-05,0.0923051163554191,0,0,0
3448,119696.53216835768,2010-11-02 23:38:37,4742.420586436913,2,11,0.5501165986061096,4.097179412841797,10.506313051558228,9.845295627068992,41.937761958450885,35.88998583226554,6.47544875391759e-05,0.0923051163554191,0,0,0
3449,119726.54749930144,2010-11-02 23:39:07,4772.435917410768,2,11,0.5501165986061096,4.100255489349365,10.510899724123425,9.845295627068992,41.95656146800226,35.88998583226554,9.71794142969884e-05,0.0923051163554191,0,0,0
3450,119756.56281395456,2010-11-02 23:39:37,4802.451232033808,2,11,0.5501165986061096,4.1031694412231445,10.515486355543368,9.845295627068992,41.97537455946665,35.88998583226554,3.24249267578125e-05,0.0923051163554191,0,0,0
3451,119786.57811583078,2010-11-02 23:40:07,4832.4665339150415,2,11,0.5501165986061096,4.106407165527344,10.520072931376763,9.845295627068992,41.9942014732754,35.88998583226554,0.0001295089750783,0.0923051163554191,0,0,0
3452,119816.59369391145,2010-11-02 23:40:37,4862.482111990699,2,11,0.5499359965324402,4.109321117401123,10.524659603504936,9.845295627068992,42.01304292955041,35.88998583226554,3.24249267578125e-05,0.0923051163554191,0,0,0
3453,119846.60875792892,2010-11-02 23:41:07,4892.497176013202,2,11,0.5499359965324402,4.112396717071533,10.529246091011135,9.845295627068992,42.03189793306678,35.88998583226554,3.23295607813634e-05,0.0923051163554191,0,0,0
3454,119876.62406832643,2010-11-02 23:41:37,4922.5124864307445,2,11,0.5501165986061096,4.115634441375732,10.533832574662217,9.845295627068992,42.05076727051524,35.88998583226554,0.0001295089750783,0.0923051163554191,0,0,0
3455,119906.6394241072,2010-11-02 23:42:07,4952.527842211521,2,11,0.5501165986061096,4.118872165679932,10.538419111796918,9.845295627068992,42.06965136877588,35.88998583226554,6.47544875391759e-05,0.0923051163554191,0,0,0
3456,119936.6547635071,2010-11-02 23:42:37,4982.543181586345,2,11,0.5501165986061096,4.121947765350342,10.54300570655254,9.845295627068992,42.08855033517949,35.88998583226554,6.47544875391759e-05,0.0923051163554191,0,0,0
3457,119966.67007137828,2010-11-02 23:43:07,5012.558489487606,2,11,0.5497553944587708,4.125185489654541,10.547592348668106,9.845295627068992,42.10746409596856,35.88998583226554,6.47544875391759e-05,0.0923051163554191,0,0,0
3458,119996.68539280328,2010-11-02 23:43:37,5042.573810912624,2,11,0.5501165986061096,4.12842321395874,10.552179052187824,9.845295627068992,42.12639292462982,35.88998583226554,6.47544875391759e-05,0.0923051163554191,0,0,0
3459,120026.70070068452,2010-11-02 23:44:07,5072.589118763761,2,11,0.5499359965324402,4.13166093826294,10.556765648938686,9.845295627068992,42.14533622739396,35.88998583226554,6.47544875391759e-05,0.0923051163554191,0,0,0
3460,120056.71604029994,2010-11-02 23:44:37,5102.604458374172,2,11,0.5501165986061096,4.135060787200928,10.561352319514713,9.845295627068992,42.16429481421442,35.88998583226554,9.71794142969884e-05,0.0923051163554191,0,0,0
3461,120086.73137901812,2010-11-02 23:45:07,5132.619797122433,2,11,0.5501165986061096,4.138298511505127,10.565938957569443,9.845295627068992,42.18326843524748,35.88998583226554,6.47544875391759e-05,0.0923051163554191,0,0,0
3462,120116.74665926036,2010-11-02 23:45:37,5162.635077344603,2,11,0.550297200679779,4.141697883605957,10.570526359130373,9.845295627068992,42.20226057213857,35.88998583226554,9.70840483205393e-05,0.0923051163554191,0,0,0
3463,120146.76197798362,2010-11-02 23:46:07,5192.650396062865,2,11,0.550297200679779,4.145259380340576,10.57511381821611,9.845295627068992,42.22126845575238,35.88998583226554,9.70840483205393e-05,0.0923051163554191,0,0,0
3464,120176.77745728272,2010-11-02 23:46:37,5222.665875361961,2,11,0.5501165986061096,4.148497104644775,10.579701097585552,9.845295627068992,42.240291469012966,35.88998583226554,6.47544875391759e-05,0.0923051163554191,0,0,0
3465,120206.79263929474,2010-11-02 23:47:07,5252.681057373984,2,11,0.5501165986061096,4.151896953582764,10.58428847478182,9.845295627068992,42.25933054936048,35.88998583226554,6.47544875391759e-05,0.0923051163554191,0,0,0
3466,120236.8079630606,2010-11-02 23:47:37,5282.696381144858,2,11,0.5501165986061096,4.155458450317383,10.58887582558572,9.845295627068992,42.278385199511305,35.88998583226554,9.71794142969884e-05,0.0923051163554191,0,0,0
3467,120266.82330750307,2010-11-02 23:48:07,5312.71172558232,2,11,0.550297200679779,4.158857822418213,10.593463229526025,9.845295627068992,42.297455921728,35.88998583226554,9.70840483205393e-05,0.0923051163554191,0,0,0
3468,120296.83862708848,2010-11-02 23:48:37,5342.727045167746,2,11,0.5501165986061096,4.162581443786621,10.598050155305488,9.845295627068992,42.31654069831443,35.88998583226554,0.0001295089750783,0.0923051163554191,0,0,0
3469,120326.8540669692,2010-11-02 23:49:07,5372.74248505346,2,11,0.5499359965324402,4.165980815887451,10.602636879463192,9.845295627068992,42.335640752939085,35.88998583226554,6.47544875391759e-05,0.0923051163554191,0,0,0
3470,120356.86925962278,2010-11-02 23:49:37,5402.757677702033,2,11,0.5499359965324402,4.16938066482544,10.607223539082844,9.845295627068992,42.35475674736214,35.88998583226554,6.47544875391759e-05,0.0923051163554191,0,0,0
3471,120386.88457686236,2010-11-02 23:50:07,5432.772994941604,2,11,0.5501165986061096,4.1731038093566895,10.61181025318158,9.845295627068992,42.373889331138784,35.88998583226554,9.70840483205393e-05,0.0923051163554191,0,0,0
3472,120416.89991041264,2010-11-02 23:50:37,5462.788328501914,2,11,0.5499359965324402,4.176503658294678,10.61639705316784,9.845295627068992,42.39303858024229,35.88998583226554,6.47544875391759e-05,0.0923051163554191,0,0,0
3473,120446.9152264041,2010-11-02 23:51:07,5492.803644483344,2,11,0.5501165986061096,4.180226802825928,10.620983807851063,9.845295627068992,42.412204142542144,35.88998583226554,9.70840483205393e-05,0.0923051163554191,0,0,0
3474,120476.93061229504,2010-11-02 23:51:37,5522.819030404356,2,11,0.5499359965324402,4.183788299560547,10.62557053649433,9.845295627068992,42.43138615319959,35.88998583226554,9.70840483205393e-05,0.0923051163554191,0,0,0
3475,120506.94587930923,2010-11-02 23:52:07,5552.834297393493,2,11,0.5499359965324402,4.187511920928955,10.630157261642807,9.845295627068992,42.4505847253098,35.88998583226554,9.71794142969884e-05,0.0923051163554191,0,0,0
3476,120536.96119664906,2010-11-02 23:52:37,5582.849614728303,2,11,0.5501165986061096,4.191073417663574,10.634743970477151,9.845295627068992,42.46980002663455,35.88998583226554,6.47544875391759e-05,0.0923051163554191,0,0,0
3477,120566.9766448806,2010-11-02 23:53:07,5612.865062969875,2,11,0.5501165986061096,4.194958209991455,10.63933070154938,9.845295627068992,42.48903236229628,35.88998583226554,0.0001294136018259,0.0923051163554191,0,0,0
3478,120596.9918353738,2010-11-02 23:53:37,5642.880253463067,2,11,0.5501165986061096,4.198519706726074,10.643917395148003,9.845295627068992,42.50828142816323,35.88998583226554,9.70840483205393e-05,0.0923051163554191,0,0,0
3479,120607.1792288452,2010-11-02 23:53:48,5653.067646924438,2,11,0.550297200679779,4.200138568878174,10.64547414221856,9.845295627068992,42.514818540389165,35.88998583226554,0.0001618385285837,0.0923051163554191,0,0,0
3480,120637.1978469039,2010-11-02 23:54:18,30.015495860436243,3,11,0.0,4.116929531097412,10.64547414221856,9.845295627068992,42.514818540389165,35.88998583226554,-0.0004208564641885,0.0923051163554191,0,0,0
3481,120667.2129801442,2010-11-02 23:54:48,60.03062907565423,3,11,0.0,4.107054710388184,10.64547414221856,9.845295627068992,42.514818540389165,35.88998583226554,-0.0001942634553415,0.0923051163554191,0,0,0
3482,120697.22844495712,2010-11-02 23:55:18,90.04609389861616,3,11,0.0,4.101064682006836,10.64547414221856,9.845295627068992,42.514818540389165,35.88998583226554,-9.71794142969884e-05,0.0923051163554191,0,0,0
3483,120727.19685099412,2010-11-02 23:55:48,120.01450004087124,3,11,0.0,4.097017765045166,10.64547414221856,9.845295627068992,42.514818540389165,35.88998583226554,-0.0001295089750783,0.0923051163554191,0,0,0
3484,120727.20109021231,2010-11-02 23:55:48,2.791969185e-06,4,11,0.9938735961914062,4.199814796447754,10.645474142989354,9.845295627068992,42.51481854362636,35.88998583226554,0.0,0.0923051163554191,0,0,0
3485,120727.8887794605,2010-11-02 23:55:49,0.68769206018099,4,11,0.943483591079712,4.199653148651123,10.645657446888045,9.845295627068992,42.51558835277751,35.88998583226554,-3.23295607813634e-05,0.0923051163554191,0,0,0
3486,120729.84166484786,2010-11-02 23:55:51,2.640577447551773,4,11,0.8932742476463318,4.199653148651123,10.64615439980693,9.845295627068992,42.517675394145954,35.88998583226554,-3.23295607813634e-05,0.0923051163554191,0,0,0
3487,120732.90413757594,2010-11-02 23:55:54,5.703050175630708,4,11,0.8430648446083069,4.199653148651123,10.646891728323212,9.845295627068992,42.52077192692588,35.88998583226554,-3.23295607813634e-05,0.0923051163554191,0,0,0
3488,120737.16970045716,2010-11-02 23:55:58,9.968613056822608,4,11,0.7930361032485962,4.199653148651123,10.647859666671597,9.845295627068992,42.52483693431556,35.88998583226554,0.0,0.0923051163554191,0,0,0
3489,120742.76343460816,2010-11-02 23:56:04,15.562347207838028,4,11,0.7430073022842407,4.199653148651123,10.649051364902974,9.845295627068992,42.52984169282032,35.88998583226554,3.24249267578125e-05,0.0923051163554191,0,0,0
3490,120750.06020399714,2010-11-02 23:56:11,22.85911659681281,4,11,0.69297856092453,4.199653148651123,10.650504550483992,9.845295627068992,42.5359446383321,35.88998583226554,-3.23295607813634e-05,0.0923051163554191,0,0,0
3491,120759.82574840335,2010-11-02 23:56:21,32.624661003042206,4,11,0.6427691578865051,4.199653148651123,10.65231309423357,9.845295627068992,42.54353997210704,35.88998583226554,0.0,0.0923051163554191,0,0,0
3492,120773.45060377348,2010-11-02 23:56:34,46.24951637317766,4,11,0.5923792123794556,4.199653148651123,10.654645941450225,9.845295627068992,42.553337250025,35.88998583226554,0.0,0.0923051163554191,0,0,0
3493,120794.20041727528,2010-11-02 23:56:55,66.99932987495711,4,11,0.5423504114151001,4.199653148651123,10.657906680980274,9.845295627068992,42.56703137670057,35.88998583226554,-3.23295607813634e-05,0.0923051163554191,0,0,0
3494,120828.88755429575,2010-11-02 23:57:30,101.6864669205054,4,11,0.492321640253067,4.199653148651123,10.662870589487262,9.845295627068992,42.58787830553334,35.88998583226554,-3.23295607813634e-05,0.0923051163554191,0,0,0
3495,120891.88718657516,2010-11-02 23:58:33,164.68609919491345,4,11,0.4422928690910339,4.199653148651123,10.671011865014986,9.845295627068992,42.622069209989874,35.88998583226554,-3.23295607813634e-05,0.0923051163554191,0,0,0
3496,120987.88615933523,2010-11-03 00:00:09,260.6850719399578,4,11,0.3920834958553314,4.199653148651123,10.682108684181284,9.845295627068992,42.66867255189295,35.88998583226554,-3.23295607813634e-05,0.0923051163554191,0,0,0
3497,121107.60346728396,2010-11-03 00:02:08,380.4023798886451,4,11,0.3420547246932983,4.199491024017334,10.694299097359307,9.845295627068992,42.719868722399255,35.88998583226554,-6.47544875391759e-05,0.0923051163554191,0,0,0
3498,121249.49264809336,2010-11-03 00:04:30,522.2915606930376,4,11,0.2920259535312652,4.199491024017334,10.70678364525172,9.845295627068992,42.77230013977647,35.88998583226554,-3.24249267578125e-05,0.0923051163554191,0,0,0
3499,121420.27224433936,2010-11-03 00:07:21,693.0711570543396,4,11,0.2419971823692321,4.199653148651123,10.719435269737186,9.845295627068992,42.825433220303246,35.88998583226554,0.0,0.0923051163554191,0,0,0
3500,121630.42631724672,2010-11-03 00:10:51,903.2252298464244,4,11,0.1919684112071991,4.199814796447754,10.732065920733376,9.845295627068992,42.87847821870631,35.88998583226554,3.23295607813634e-05,0.0923051163554191,0,0,0
3501,121907.57985782804,2010-11-03 00:15:28,1180.3787704377469,4,11,0.1419396549463272,4.199491024017334,10.744842213480403,9.845295627068992,42.93213482812462,35.88998583226554,-3.24249267578125e-05,0.0923051163554191,0,0,0
3502,122329.85687258256,2010-11-03 00:22:31,1602.655785182243,4,11,0.0919108763337135,4.199653148651123,10.758358050279108,9.845295627068992,42.98889696704608,35.88998583226554,-3.23295607813634e-05,0.0923051163554191,0,0,0
3503,122984.95962395,2010-11-03 00:33:26,2257.7585365496952,4,11,0.0498289167881011,4.199653148651123,10.770866839606542,9.845295627068992,43.041430221627294,35.88998583226554,0.0,0.0923051163554191,0,0,0
3504,123014.97874388148,2010-11-03 00:33:56,30.015543258749723,5,11,0.0,4.192044734954834,10.770866839606542,9.845295627068992,43.041430221627294,35.88998583226554,-3.23295607813634e-05,0.0923051163554191,0,0,0
3505,123044.97818911204,2010-11-03 00:34:26,60.01498848934455,5,11,0.0,4.190749645233154,10.770866839606542,9.845295627068992,43.041430221627294,35.88998583226554,-3.23295607813634e-05,0.0923051163554191,0,0,0
3506,123045.17012040892,2010-11-03 00:34:26,0.187610003431643,6,11,-1.9243103452026844e-05,4.190749645233154,10.770866839606542,9.845295628071826,43.041430221627294,35.88998583646816,0.0,0.0939245000481605,0,0,0
3507,123049.98254049484,2010-11-03 00:34:31,5.000030089338387,6,11,0.0007031940040178,4.190911293029785,10.770867702852357,9.845295628155194,43.04143383946645,35.88998583681753,-3.24249267578125e-05,0.0939245000481605,0,0,0
3508,123080.00238218663,2010-11-03 00:35:01,30.01556745414516,7,11,-1.099568486213684,4.019959926605225,10.770867702852357,9.854464714938327,43.04143383946645,35.927034855687566,-0.0008418083307333,0.0939245000481605,0,0,0
3509,123110.0174568457,2010-11-03 00:35:31,60.03064210317291,7,11,-1.0997490882873535,3.994220018386841,10.770867702852357,9.863633540924829,43.04143383946645,35.96376594104868,-0.0005827903514727,0.0939245000481605,0,0,0
3510,123140.0329307764,2010-11-03 00:36:01,90.04611604389419,7,11,-1.099568486213684,3.976412773132324,10.770867702852357,9.872802437658606,43.04143383946645,36.00030282879089,-0.0003885269106831,0.0939245000481605,0,0,0
3511,123170.04811165055,2010-11-03 00:36:31,120.06129690805126,7,11,-1.0997490882873535,3.962490558624268,10.770867702852357,9.881970895109957,43.04143383946645,36.03669446746261,-0.0003561496851034,0.0939245000481605,0,0,0
3512,123200.0637719114,2010-11-03 00:37:01,150.07695716885613,7,11,-1.099568486213684,3.9508347511291504,10.770867702852357,9.891139499212011,43.04143383946645,36.07297041130837,-0.0002913951757363,0.0939245000481605,0,0,0
3513,123230.07877776369,2010-11-03 00:37:31,180.09196302616917,7,11,-1.099568486213684,3.940474033355713,10.770867702852357,9.900308098850813,43.04143383946645,36.1091452140567,-0.0002913951757363,0.0939245000481605,0,0,0
3514,123260.09421000532,2010-11-03 00:38:01,210.1073952627906,7,11,-1.099568486213684,3.930598974227905,10.770867702852357,9.9094769644334,43.04143383946645,36.14522906310366,-0.0002590179501567,0.0939245000481605,0,0,0
3515,123290.10942765127,2010-11-03 00:38:31,240.12261290876071,7,11,-1.0997490882873535,3.921209573745728,10.770867702852357,9.918645748700833,43.04143383946645,36.18122522027383,-0.0002590179501567,0.0939245000481605,0,0,0
3516,123320.12476764766,2010-11-03 00:39:01,270.1379529051363,7,11,-1.0997490882873535,3.9124679565429688,10.770867702852357,9.92781458507848,43.04143383946645,36.217137376576815,-0.0001942634553415,0.0939245000481605,0,0,0
3517,123350.14006086728,2010-11-03 00:39:31,300.15324612474984,7,11,-1.099929690361023,3.903564214706421,10.770867702852357,9.93698341382318,43.04143383946645,36.25296873738914,-0.0002590179501567,0.0939245000481605,0,0,0
3518,123380.15538272838,2010-11-03 00:40:01,330.168567985857,7,11,-1.0997490882873535,3.894984245300293,10.770867702852357,9.946152272851563,43.04143383946645,36.28872202658408,-0.0002590179501567,0.0939245000481605,0,0,0
3519,123410.17070485014,2010-11-03 00:40:31,360.1838901076148,7,11,-1.0997490882873535,3.887051820755005,10.770867702852357,9.955321063985147,43.04143383946645,36.324398669826266,-0.0001942634553415,0.0939245000481605,0,0,0
3520,123440.18605964344,2010-11-03 00:41:01,390.19924490092586,7,11,-1.0997490882873535,3.878795623779297,10.770867702852357,9.964489873550963,43.04143383946645,36.36000003314646,-0.0002266406954731,0.0939245000481605,0,0,0
3521,123470.20137855218,2010-11-03 00:41:31,420.2145638096633,7,11,-1.0997490882873535,3.870863199234009,10.770867702852357,9.97365866639736,43.04143383946645,36.39552720927302,-0.0001942634553415,0.0939245000481605,0,0,0
3522,123500.21667492967,2010-11-03 00:42:01,450.2298601871596,7,11,-1.099568486213684,3.8629307746887207,10.770867702852357,9.982827480189764,43.04143383946645,36.430981525759975,-0.0001942634553415,0.0939245000481605,0,0,0
3523,123530.23200394868,2010-11-03 00:42:31,480.2451892061338,7,11,-1.0997490882873535,3.8551602363586426,10.770867702852357,9.991996341415806,43.04143383946645,36.4663639304773,-0.0001942634553415,0.0939245000481605,0,0,0
3524,123560.24733227592,2010-11-03 00:43:01,510.2605175333814,7,11,-1.099568486213684,3.847389698028565,10.770867702852357,10.001165156978518,43.04143383946645,36.50167484618088,-0.0001942634553415,0.0939245000481605,0,0,0
3525,123590.26285835177,2010-11-03 00:43:31,540.2760437245278,7,11,-1.099568486213684,3.839781045913696,10.770867702852357,10.010334006582651,43.04143383946645,36.536915939124526,-0.0001942634553415,0.0939245000481605,0,0,0
3526,123620.27797221368,2010-11-03 00:44:01,570.2911574761616,7,11,-1.0997490882873535,3.832334518432617,10.770867702852357,10.019502778245666,43.04143383946645,36.57208802984104,-0.0002265930233988,0.0939245000481605,0,0,0
3527,123650.29333657588,2010-11-03 00:44:31,600.3065218333455,7,11,-1.099568486213684,3.824887752532959,10.770867702852357,10.028671658581102,43.04143383946645,36.60719291093059,-0.0002266406954731,0.0939245000481605,0,0,0
3528,123680.30863950972,2010-11-03 00:45:01,630.3218247672074,7,11,-1.099568486213684,3.81792664527893,10.770867702852357,10.037840487964322,43.04143383946645,36.64223105744794,-0.0001942634553415,0.0939245000481605,0,0,0
3529,123710.3239485438,2010-11-03 00:45:31,660.3371338063089,7,11,-1.0997490882873535,3.8106417655944815,10.770867702852357,10.047009339437665,43.04143383946645,36.67720399051076,-0.0002266406954731,0.0939245000481605,0,0,0
3530,123740.33927100142,2010-11-03 00:46:01,690.3524562588924,7,11,-1.099568486213684,3.803680658340454,10.770867702852357,10.05617815819306,43.04143383946645,36.71211166371886,-0.0001942634553415,0.0939245000481605,0,0,0
3531,123770.35460953414,2010-11-03 00:46:31,720.3677947916144,7,11,-1.0997490882873535,3.796881437301636,10.770867702852357,10.06534703601332,43.04143383946645,36.746955698111584,-0.0001618862152099,0.0939245000481605,0,0,0
3532,123800.36992549052,2010-11-03 00:47:01,750.3831107529951,7,11,-1.099568486213684,3.7902441024780273,10.770867702852357,10.074515903205349,43.04143383946645,36.78173738158496,-0.0001295089750783,0.0939245000481605,0,0,0
3533,123830.38548549604,2010-11-03 00:47:31,780.3986707635597,7,11,-1.099568486213684,3.783606767654419,10.770867702852357,10.083684855505124,43.04143383946645,36.81645860594087,-0.0001618862152099,0.0939245000481605,0,0,0
3534,123860.40057860115,2010-11-03 00:48:01,810.4137638636444,7,11,-1.0997490882873535,3.7772932052612314,10.770867702852357,10.09285359101299,43.04143383946645,36.85111971582773,-0.0001618862152099,0.0939245000481605,0,0,0
3535,123890.41588351998,2010-11-03 00:48:31,840.4290687774483,7,11,-1.0997490882873535,3.770979642868042,10.770867702852357,10.102022395723411,43.04143383946645,36.88572292263976,-0.0001295089750783,0.0939245000481605,0,0,0
3536,123920.43122108528,2010-11-03 00:49:02,870.444406347768,7,11,-1.099568486213684,3.7649898529052734,10.770867702852357,10.111191225808238,43.04143383946645,36.92026950144946,-0.0001295089750783,0.0939245000481605,0,0,0
3537,123950.44653463564,2010-11-03 00:49:32,900.4597198981303,7,11,-1.099568486213684,3.758838176727295,10.770867702852357,10.12036001914884,43.04143383946645,36.954760596326366,-0.0001618862152099,0.0939245000481605,0,0,0
3538,123980.46185891778,2010-11-03 00:50:02,930.4750441752684,7,11,-1.0997490882873535,3.7528486251831055,10.770867702852357,10.129528875839672,43.04143383946645,36.989197190545966,-0.0001942157687153,0.0939245000481605,0,0,0
3539,124010.47995026196,2010-11-03 00:50:32,960.4931356046438,7,11,-1.099929690361023,3.746858835220337,10.770867702852357,10.138698544873446,43.04143383946645,37.02358268876189,-0.0001942634553415,0.0939245000481605,0,0,0
3540,124040.49253665992,2010-11-03 00:51:02,990.505721922414,7,11,-1.0997490882873535,3.741192817687988,10.770867702852357,10.14786648476394,43.04143383946645,37.05790813712807,-0.0001618862152099,0.0939245000481605,0,0,0
3541,124070.5078694834,2010-11-03 00:51:32,1020.5210547408724,7,11,-1.099568486213684,3.73552680015564,10.770867702852357,10.15703539258108,43.04143383946645,37.09218494063085,-0.0001618862152099,0.0939245000481605,0,0,0
3542,124100.52318366534,2010-11-03 00:52:02,1050.536368922811,7,11,-1.0997490882873535,3.730022668838501,10.770867702852357,10.166204261226856,43.04143383946645,37.12641059209528,-0.0001618862152099,0.0939245000481605,0,0,0
3543,124130.53848837364,2010-11-03 00:52:32,1080.5516736311024,7,11,-1.099568486213684,3.7248423099517822,10.770867702852357,10.175373079602004,43.04143383946645,37.16058657613192,-9.713172767078504e-05,0.0939245000481605,0,0,0
3544,124160.55403458976,2010-11-03 00:53:02,1110.567219847234,7,11,-1.0993878841400146,3.7195000648498535,10.770867702852357,10.184541932617554,43.04143383946645,37.19471320955721,-9.713172767078504e-05,0.0939245000481605,0,0,0
3545,124190.56914091283,2010-11-03 00:53:32,1140.5823261753376,7,11,-1.0997490882873535,3.714157819747925,10.770867702852357,10.19371072859358,43.04143383946645,37.228791436215154,-0.0001618862152099,0.0939245000481605,0,0,0
3546,124220.58445619252,2010-11-03 00:54:02,1170.5976414550166,7,11,-1.0997490882873535,3.708977460861206,10.770867702852357,10.202879642837384,43.04143383946645,37.26282223247623,-0.0001295089750783,0.0939245000481605,0,0,0
3547,124250.59978992828,2010-11-03 00:54:32,1200.6129751907645,7,11,-1.0997490882873535,3.7037971019744873,10.770867702852357,10.212048507273629,43.04143383946645,37.29680564165139,-0.0001618862152099,0.0939245000481605,0,0,0
3548,124280.61513772914,2010-11-03 00:55:02,1230.6283229916214,7,11,-1.0997490882873535,3.698940515518189,10.770867702852357,10.22121744009556,43.04143383946645,37.33074274415084,-0.0001295089750783,0.0939245000481605,0,0,0
3549,124310.63045133464,2010-11-03 00:55:32,1260.6436366071464,7,11,-1.0997490882873535,3.69392204284668,10.770867702852357,10.230386290189598,43.04143383946645,37.36463387895321,-0.0001295089750783,0.0939245000481605,0,0,0
3550,124340.64575643891,2010-11-03 00:56:02,1290.6589416963882,7,11,-1.0997490882873535,3.689065456390381,10.770867702852357,10.239555107790332,43.04143383946645,37.39847982884787,-9.713172767078504e-05,0.0939245000481605,0,0,0
3551,124370.66108287143,2010-11-03 00:56:32,1320.6742681489563,7,11,-1.0997490882873535,3.684046983718872,10.770867702852357,10.248724026188809,43.04143383946645,37.43228144836703,-0.0001295089750783,0.0939245000481605,0,0,0
3552,124400.6766093082,2010-11-03 00:57:02,1350.6897945656658,7,11,-1.099568486213684,3.679352283477783,10.770867702852357,10.257893053172426,43.04143383946645,37.46603940937666,-0.0001295089750783,0.0939245000481605,0,0,0
3553,124430.69175471384,2010-11-03 00:57:32,1380.704939971313,7,11,-1.0997490882873535,3.674495697021485,10.770867702852357,10.267061944396596,43.04143383946645,37.49975352985181,-0.0001618862152099,0.0939245000481605,0,0,0
3554,124460.7072060381,2010-11-03 00:58:02,1410.7203913005926,7,11,-1.0997490882873535,3.669801235198975,10.770867702852357,10.276230933665108,43.04143383946645,37.533425264219176,-0.0001295089750783,0.0939245000481605,0,0,0
3555,124490.72281348708,2010-11-03 00:58:32,1440.7359987896712,7,11,-1.0997490882873535,3.6654303073883057,10.770867702852357,10.28539994422344,43.04143383946645,37.56705453434756,-9.713172767078504e-05,0.0939245000481605,0,0,0
3556,124520.73784792073,2010-11-03 00:59:02,1470.7510331882277,7,11,-1.0997490882873535,3.6608974933624263,10.770867702852357,10.294568678509464,43.04143383946645,37.60064115861283,-9.713172767078504e-05,0.0939245000481605,0,0,0
3557,124550.75302892525,2010-11-03 00:59:32,1500.7662141877224,7,11,-1.0997490882873535,3.656364679336548,10.770867702852357,10.30373754003163,43.04143383946645,37.63418687517845,-0.0001295089750783,0.0939245000481605,0,0,0
3558,124580.76835301692,2010-11-03 01:00:02,1530.7815382743847,7,11,-1.099568486213684,3.652155637741089,10.770867702852357,10.312906452062878,43.04143383946645,37.667692276605536,-0.0001295089750783,0.0939245000481605,0,0,0
3559,124610.78367076776,2010-11-03 01:00:32,1560.7968560252325,7,11,-1.0997490882873535,3.64762282371521,10.770867702852357,10.322075296055443,43.04143383946645,37.70115689274076,-0.0001295089750783,0.0939245000481605,0,0,0
3560,124640.79900759122,2010-11-03 01:01:02,1590.8121928537,7,11,-1.099568486213684,3.643413782119751,10.770867702852357,10.331244081797616,43.04143383946645,37.734581307440486,-9.713172767078504e-05,0.0939245000481605,0,0,0
3561,124670.81432967288,2010-11-03 01:01:32,1620.8275149303454,7,11,-1.0997490882873535,3.639042854309082,10.770867702852357,10.340412907450952,43.04143383946645,37.76796738155639,-0.0001295089750783,0.0939245000481605,0,0,0
3562,124700.8296689324,2010-11-03 01:02:02,1650.8428541999065,7,11,-1.099568486213684,3.635319471359253,10.770867702852357,10.349581750902011,43.04143383946645,37.80131589802125,-9.713172767078504e-05,0.0939245000481605,0,0,0
3563,124730.84497431238,2010-11-03 01:02:32,1680.8581595698492,7,11,-1.0997490882873535,3.631110429763794,10.770867702852357,10.358750672453706,43.04143383946645,37.83462802225555,-0.0001295089750783,0.0939245000481605,0,0,0
3564,124760.8603063138,2010-11-03 01:03:02,1710.8734915712682,7,11,-1.0997490882873535,3.627225160598755,10.770867702852357,10.367919562253798,43.04143383946645,37.86790388285644,-0.0001295089750783,0.0939245000481605,0,0,0
3565,124790.8758995172,2010-11-03 01:03:32,1740.8890847797,7,11,-1.0997490882873535,3.623501777648926,10.770867702852357,10.37708847067498,43.04143383946645,37.90114435727274,-9.713172767078504e-05,0.0939245000481605,0,0,0
3566,124820.8909521162,2010-11-03 01:04:02,1770.9041373736752,7,11,-1.099929690361023,3.6197783946990967,10.770867702852357,10.386257253120078,43.04143383946645,37.93434991077659,-9.713172767078504e-05,0.0939245000481605,0,0,0
3567,124850.90639184653,2010-11-03 01:04:32,1800.919577104002,7,11,-1.099929690361023,3.616055011749268,10.770867702852357,10.395426187268637,43.04143383946645,37.96752220131602,-9.713172767078504e-05,0.0939245000481605,0,0,0
3568,124880.9216179887,2010-11-03 01:05:02,1830.9348032511923,7,11,-1.0997490882873535,3.612493515014648,10.770867702852357,10.4045949765469,43.04143383946645,38.00066122694641,-0.0001618862152099,0.0939245000481605,0,0,0
3569,124910.93706665632,2010-11-03 01:05:32,1860.950251918828,7,11,-1.0997490882873535,3.6090939044952393,10.770867702852357,10.413763915059652,43.04143383946645,38.03376877790734,-9.713172767078504e-05,0.0939245000481605,0,0,0
3570,124940.95226019212,2010-11-03 01:06:02,1890.9654454496035,7,11,-1.0997490882873535,3.60585618019104,10.770867702852357,10.422932719849332,43.04143383946645,38.066844532620486,-9.713172767078504e-05,0.0939245000481605,0,0,0
3571,124970.9676924488,2010-11-03 01:06:32,1920.980877706275,7,11,-1.1001102924346924,3.602294683456421,10.770867702852357,10.432101597163252,43.04143383946645,38.09989000703669,-0.0001295089750783,0.0939245000481605,0,0,0
3572,125000.9831298433,2010-11-03 01:07:02,1950.996315110796,7,11,-1.099929690361023,3.599218845367432,10.770867702852357,10.441270500849878,43.04143383946645,38.13290611859086,-0.0001295089750783,0.0939245000481605,0,0,0
3573,125030.99822621154,2010-11-03 01:07:32,1981.0114114740256,7,11,-1.0997490882873535,3.5961430072784424,10.770867702852357,10.450439310258128,43.04143383946645,38.165893019418775,-6.47544875391759e-05,0.0939245000481605,0,0,0
3574,125061.01356724548,2010-11-03 01:08:02,2011.0267525079912,7,11,-1.0997490882873535,3.593229055404663,10.770867702852357,10.459608188772862,43.04143383946645,38.19885195141309,-9.713172767078504e-05,0.0939245000481605,0,0,0
3575,125091.02887657032,2010-11-03 01:08:32,2041.0420618277933,7,11,-1.099929690361023,3.589991569519043,10.770867702852357,10.468777098250644,43.04143383946645,38.23178333407167,-9.713172767078504e-05,0.0939245000481605,0,0,0
3576,125121.04440358852,2010-11-03 01:09:02,2071.057588846004,7,11,-1.099929690361023,3.587077617645264,10.770867702852357,10.47794608321504,43.04143383946645,38.26468782525674,-6.47544875391759e-05,0.0939245000481605,0,0,0
3577,125151.059645069,2010-11-03 01:09:32,2101.072830331481,7,11,-1.099568486213684,3.5841636657714844,10.770867702852357,10.487114989455776,43.04143383946645,38.29756468379804,-9.713172767078504e-05,0.0939245000481605,0,0,0
3578,125181.07483557222,2010-11-03 01:10:02,2131.0880208296862,7,11,-1.099568486213684,3.581411600112915,10.770867702852357,10.496283799717997,43.04143383946645,38.330414365824055,-3.237724376958795e-05,0.0939245000481605,0,0,0
3579,125211.09017303729,2010-11-03 01:10:32,2161.103358294743,7,11,-1.0997490882873535,3.578497648239136,10.770867702852357,10.50545268086898,43.04143383946645,38.36323778151739,-6.47544875391759e-05,0.0939245000481605,0,0,0
3580,125241.105515184,2010-11-03 01:11:02,2191.118700451512,7,11,-1.099929690361023,3.5754218101501465,10.770867702852357,10.514621589935077,43.04143383946645,38.39603474758898,-6.47544875391759e-05,0.0939245000481605,0,0,0
3581,125271.12082540106,2010-11-03 01:11:32,2221.134010658528,7,11,-1.0997490882873535,3.572507858276367,10.770867702852357,10.523790434900464,43.04143383946645,38.42880519954937,-0.0001618862152099,0.0939245000481605,0,0,0
3582,125301.13613783364,2010-11-03 01:12:02,2251.1493230961128,7,11,-1.0993878841400146,3.569755792617798,10.770867702852357,10.532959304343825,43.04143383946645,38.461549234887336,-9.713172767078504e-05,0.0939245000481605,0,0,0
3583,125331.15148164952,2010-11-03 01:12:32,2281.16466690701,7,11,-1.0997490882873535,3.5668418407440186,10.770867702852357,10.542128221407475,43.04143383946645,38.49426668423581,-9.713172767078504e-05,0.0939245000481605,0,0,0
3584,125361.16691576084,2010-11-03 01:13:02,2311.180101133599,7,11,-1.0993878841400146,3.564089775085449,10.770867702852357,10.55129720785045,43.04143383946645,38.526957195968166,-6.47544875391759e-05,0.0939245000481605,0,0,0
3585,125391.1821154169,2010-11-03 01:13:32,2341.195300674376,7,11,-1.099568486213684,3.56101393699646,10.770867702852357,10.560465956123757,43.04143383946645,38.559619950619336,-9.713172767078504e-05,0.0939245000481605,0,0,0
3586,125421.19744379428,2010-11-03 01:14:02,2371.2106290567613,7,11,-1.0997490882873535,3.5577762126922607,10.770867702852357,10.569634862957702,43.04143383946645,38.592255482509984,-9.713172767078504e-05,0.0939245000481605,0,0,0
3587,125451.21278676308,2010-11-03 01:14:32,2401.225972020544,7,11,-1.0997490882873535,3.5547003746032715,10.770867702852357,10.578803805920112,43.04143383946645,38.62486267544412,-6.47544875391759e-05,0.0939245000481605,0,0,0
3588,125481.2280918473,2010-11-03 01:15:02,2431.241277104773,7,11,-1.0997490882873535,3.5514626502990723,10.770867702852357,10.5879726506854,43.04143383946645,38.65744064593206,-9.713172767078504e-05,0.0939245000481605,0,0,0
3589,125511.24365840922,2010-11-03 01:15:32,2461.2568436666907,7,11,-1.0997490882873535,3.548224925994873,10.770867702852357,10.597141588100127,43.04143383946645,38.689989550041965,-9.713172767078504e-05,0.0939245000481605,0,0,0
3590,125541.25875409074,2010-11-03 01:16:02,2491.271939353232,7,11,-1.099568486213684,3.544987201690674,10.770867702852357,10.606310410594618,43.04143383946645,38.7225078097059,-6.47544875391759e-05,0.0939245000481605,0,0,0
3591,125571.27406290428,2010-11-03 01:16:32,2521.28724816677,7,11,-1.0997490882873535,3.5414257049560547,10.770867702852357,10.615479279708351,43.04143383946645,38.75499521741583,-9.713172767078504e-05,0.0939245000481605,0,0,0
3592,125601.28939881043,2010-11-03 01:17:02,2551.302584067924,7,11,-1.099568486213684,3.538026094436645,10.770867702852357,10.624648199512592,43.04143383946645,38.78745093495031,-9.713172767078504e-05,0.0939245000481605,0,0,0
3593,125631.30483741798,2010-11-03 01:17:32,2581.3180226754475,7,11,-1.0997490882873535,3.5343027114868164,10.770867702852357,10.633817148125289,43.04143383946645,38.81987377646556,-9.713172767078504e-05,0.0939245000481605,0,0,0
3594,125661.32004302388,2010-11-03 01:18:02,2611.333228281364,7,11,-1.0997490882873535,3.5304174423217773,10.770867702852357,10.642986108515847,43.04143383946645,38.85226279919054,-0.0001295089750783,0.0939245000481605,0,0,0
3595,125691.33550740576,2010-11-03 01:18:32,2641.348692663225,7,11,-1.099929690361023,3.5265321731567383,10.770867702852357,10.652155121025883,43.04143383946645,38.88461663535501,-0.0001295089750783,0.0939245000481605,0,0,0
3596,125721.35069361824,2010-11-03 01:19:02,2671.363878875732,7,11,-1.099568486213684,3.5224850177764893,10.770867702852357,10.66132408129558,43.04143383946645,38.91693339586854,-9.713172767078504e-05,0.0939245000481605,0,0,0
3597,125751.36627608987,2010-11-03 01:19:32,2701.379461357388,7,11,-1.0997490882873535,3.5181140899658203,10.770867702852357,10.670493106347628,43.04143383946645,38.94921174054734,-0.0001295089750783,0.0939245000481605,0,0,0
3598,125781.38145949037,2010-11-03 01:20:02,2731.3946447478515,7,11,-1.0997490882873535,3.513743162155152,10.770867702852357,10.679662043084267,43.04143383946645,38.9814494482072,-0.0001295089750783,0.0939245000481605,0,0,0
3599,125811.3966596026,2010-11-03 01:20:32,2761.4098448600544,7,11,-1.0997490882873535,3.508886814117432,10.770867702852357,10.688830925445842,43.04143383946645,39.01364429635527,-0.0001618862152099,0.0939245000481605,0,0,0
3600,125841.41199775937,2010-11-03 01:21:03,2791.425183016838,7,11,-1.099929690361023,3.503544569015503,10.770867702852357,10.6979999353986,43.04143383946645,39.0457936173677,-0.0001618862152099,0.0939245000481605,0,0,0
3601,125871.42731140998,2010-11-03 01:21:33,2821.4404966674506,7,11,-1.099929690361023,3.4978785514831543,10.770867702852357,10.707168863914696,43.04143383946645,39.07789273394092,-0.0001618862152099,0.0939245000481605,0,0,0
3602,125901.44263249917,2010-11-03 01:22:03,2851.455817756631,7,11,-1.099929690361023,3.491564989089966,10.770867702852357,10.716337432828569,43.04143383946645,39.10993564650556,-0.0001942634553415,0.0939245000481605,0,0,0
3603,125931.46057225997,2010-11-03 01:22:33,2881.473757602631,7,11,-1.099568486213684,3.4844419956207275,10.770867702852357,10.725506523482006,43.04143383946645,39.14191892970686,-0.0001942634553415,0.0939245000481605,0,0,0
3604,125961.4733251034,2010-11-03 01:23:03,2911.486510360862,7,11,-1.099568486213684,3.4761857986450195,10.770867702852357,10.734674011338347,43.04143383946645,39.173825841265575,-0.0002266406954731,0.0939245000481605,0,0,0
3605,125991.48861037316,2010-11-03 01:23:33,2941.501795630632,7,11,-1.099568486213684,3.466472625732422,10.770867702852357,10.743842256617192,43.04143383946645,39.20565298483158,-0.0002913951757363,0.0939245000481605,0,0,0
3606,126021.50396104618,2010-11-03 01:24:03,2971.5171463287206,7,11,-1.0997490882873535,3.4548168182373047,10.770867702852357,10.753010982999236,43.04143383946645,39.23738407982838,-0.0003237724304199,0.0939245000481605,0,0,0
3607,126051.5192684111,2010-11-03 01:24:33,3001.5324536936428,7,11,-1.0997490882873535,3.440408945083618,10.770867702852357,10.762179909947582,43.04143383946645,39.268997007568096,-0.0004209041653666,0.0939245000481605,0,0,0
3608,126081.5347949832,2010-11-03 01:25:03,3031.5479802406776,7,11,-1.0997490882873535,3.422116041183472,10.770867702852357,10.771348872607692,43.04143383946645,39.30046163017501,-0.0005180359003134,0.0939245000481605,0,0,0
3609,126111.54992267465,2010-11-03 01:25:33,3061.5631079321074,7,11,-1.099568486213684,3.3983187675476074,10.770867702852357,10.780517818318978,43.04143383946645,39.33173549304672,-0.0007122993702068,0.0939245000481605,0,0,0
3610,126141.56530923724,2010-11-03 01:26:03,3091.5784944947195,7,11,-1.099568486213684,3.366750955581665,10.770867702852357,10.789686807234228,43.04143383946645,39.36275787621271,-0.0009713172912597,0.0939245000481605,0,0,0
3611,126171.58059036668,2010-11-03 01:26:33,3121.5937756492167,7,11,-1.099568486213684,3.3228800296783447,10.770867702852357,10.798855786205287,43.04143383946645,39.39343659069969,-0.0012950897216796,0.0939245000481605,0,0,0
3612,126201.5959145987,2010-11-03 01:27:03,3151.6090998662044,7,11,-1.0997490882873535,3.260715961456299,10.770867702852357,10.808024737934447,43.04143383946645,39.423635049429954,-0.0019750117789953,0.0939245000481605,0,0,0
3613,126231.61137988784,2010-11-03 01:27:33,3181.6245651503177,7,11,-1.0997490882873535,3.17070746421814,10.770867702852357,10.817193734061016,43.04143383946645,39.45314779597494,-0.0028491974808275,0.0939245000481605,0,0,0
3614,126261.62655711792,2010-11-03 01:28:03,3211.639742385416,7,11,-1.0997490882873535,3.0261435508728027,10.770867702852357,10.826362618853697,43.04143383946645,39.481619828068254,-0.0049860477447509,0.0939245000481605,0,0,0
3615,126282.26697745752,2010-11-03 01:28:23,3232.280162715008,7,11,-1.0997490882873535,2.826052665710449,10.770867702852357,10.832667727627532,43.04143383946645,39.50014610902927,-0.0101340292021632,0.0939245000481605,0,0,0
3616,126290.90753449222,2010-11-03 01:28:32,3240.920719749683,7,11,-1.099568486213684,2.699943780899048,10.770867702852357,10.835307208298186,43.04143383946645,39.50744250126419,-0.0120119098573923,0.0939245000481605,0,0,0
3617,126350.92048690288,2010-11-03 01:29:32,60.015224678910045,8,11,0.0,3.296330690383911,10.770867702852357,10.835307208298186,43.04143383946645,39.50744250126419,0.0011979580158367,0.0939245000481605,0,0,0
3618,126351.10633940736,2010-11-03 01:29:32,0.187724830056564,9,11,-1.9243103452026844e-05,3.296654462814331,10.770867702852357,10.835307209301634,43.04143383946645,39.50744250457221,0.0,0.0922218039631843,0,0,0
3619,126355.93416703786,2010-11-03 01:29:37,5.015552475602561,9,11,0.0007031940040178,3.304263114929199,10.77086859055342,10.835307209467496,43.04143676987745,39.507442505119,0.0010684489971026,0.0922218039631843,0,0,0
