Data_Point,Test_Time(s),Date_Time,Step_Time(s),Step_Index,Cycle_Index,Current(A),Voltage(V),Charge_Capacity(Ah),Discharge_Capacity(Ah),Charge_Energy(Wh),Discharge_Energy(Wh),dV/dt(V/s),Internal_Resistance(Ohm),Is_FC_Data,AC_Impedance(Ohm),ACI_Phase_Angle(Deg)
9544,333470.8742866889,2010-11-05 11:01:54,30.015262307452065,1,30,0.0,3.3683698177337646,28.44563190633977,28.50250972920545,113.63315289547104,103.88958955020514,0.0007122993702068,0.0955438911914825,0,0,0
9545,333500.88956428453,2010-11-05 11:02:24,60.03053990807825,1,30,0.0,3.391033887863159,28.44563190633977,28.50250972920545,113.63315289547104,103.88958955020514,0.0005504131549969,0.0955438911914825,0,0,0
9546,333530.9050204659,2010-11-05 11:02:54,90.04599606440692,1,30,0.0,3.407870054244995,28.44563190633977,28.50250972920545,113.63315289547104,103.88958955020514,0.0003885269106831,0.0955438911914825,0,0,0
9547,333560.8734335104,2010-11-05 11:03:24,120.01440911891606,1,30,0.0,3.421630382537842,28.44563190633977,28.50250972920545,113.63315289547104,103.88958955020514,0.0003237724304199,0.0955438911914825,0,0,0
9548,333590.8746701538,2010-11-05 11:03:54,30.01530207672228,2,30,0.5501165986061096,3.5841636657714844,28.45021863777988,28.50250972920545,113.64942352019249,103.88958955020514,0.0016836166614666,0.0955438911914825,0,0,0
9549,333620.88995183463,2010-11-05 11:04:24,60.030583737483184,2,30,0.5499359965324402,3.634833812713623,28.4548053887614,28.50250972920545,113.66598714790808,103.88958955020514,0.0011008263099938,0.0955438911914825,0,0,0
9550,333650.90522627736,2010-11-05 11:04:54,90.04585819526433,2,30,0.5501165986061096,3.672067642211914,28.45939210265257,28.50250972920545,113.6827482717854,103.88958955020514,0.0009065627818927,0.0955438911914825,0,0,0
9551,333680.92052834405,2010-11-05 11:05:24,120.0611602619616,2,30,0.5501165986061096,3.700883150100708,28.46397881363129,28.50250972920545,113.69965931967192,103.88958955020514,0.0006475448608398,0.0955438911914825,0,0,0
9552,333710.93580898724,2010-11-05 11:05:54,150.07644090518255,2,30,0.5501165986061096,3.724680423736572,28.468565540026617,28.50250972920545,113.71669098579852,103.88958955020514,0.0005827903514727,0.0955438911914825,0,0,0
9553,333740.95106943004,2010-11-05 11:06:24,180.09170134798015,2,30,0.5501165986061096,3.7445924282073975,28.473152244249984,28.50250972920545,113.73382212616528,103.88958955020514,0.0004856586456298,0.0955438911914825,0,0,0
9554,333770.96636104566,2010-11-05 11:06:54,210.10699296358987,2,30,0.5499359965324402,3.760295152664185,28.477738907346904,28.50250972920545,113.75103548696232,103.88958955020514,0.0003237724304199,0.0955438911914825,0,0,0
9555,333800.9816384108,2010-11-05 11:07:24,240.122270328628,2,30,0.5501165986061096,3.771465301513672,28.482325652042068,28.50250972920545,113.76831104061996,103.88958955020514,0.0002266406954731,0.0955438911914825,0,0,0
9556,333830.99694117915,2010-11-05 11:07:54,270.1375730970769,2,30,0.5501165986061096,3.7779407501220703,28.486912373987444,28.50250972920545,113.7856256264246,103.88958955020514,0.0001618862152099,0.0955438911914825,0,0,0
9557,333861.0122079628,2010-11-05 11:08:24,300.1528398807022,2,30,0.5501165986061096,3.7823116779327393,28.491499121664763,28.50250972920545,113.80296474220287,103.88958955020514,9.713172767078504e-05,0.0955438911914825,0,0,0
9558,333891.0275139844,2010-11-05 11:08:54,330.1681459022714,2,30,0.5499359965324402,3.7861969470977774,28.49608585134044,28.50250972920545,113.82032268552298,103.88958955020514,6.47544875391759e-05,0.0955438911914825,0,0,0
9559,333921.04289975,2010-11-05 11:09:24,360.1835316678941,2,30,0.5501165986061096,3.789920330047608,28.500672589478185,28.50250972920545,113.83769798287376,103.88958955020514,9.713172767078504e-05,0.0955438911914825,0,0,0
9560,333951.05810853385,2010-11-05 11:09:54,390.1987404517429,2,30,0.5501165986061096,3.7934818267822266,28.50525933627489,28.50250972920545,113.8550900265104,103.88958955020514,9.713172767078504e-05,0.0955438911914825,0,0,0
9561,333981.0733516033,2010-11-05 11:10:24,420.213983521174,2,30,0.5501165986061096,3.7970433235168457,28.50984609184825,28.50250972920545,113.87249825363756,103.88958955020514,0.0001295089750783,0.0955438911914825,0,0,0
9562,334011.08875675226,2010-11-05 11:10:54,450.22938865013055,2,30,0.5499359965324402,3.800281047821045,28.514432856858928,28.50250972920545,113.88992228973063,103.88958955020514,3.237724376958795e-05,0.0955438911914825,0,0,0
9563,334041.1039172907,2010-11-05 11:11:24,480.2445492086014,2,30,0.5501165986061096,3.803680658340454,28.51901960995699,28.50250972920545,113.90736154437144,103.88958955020514,9.713172767078504e-05,0.0955438911914825,0,0,0
9564,334071.1193506902,2010-11-05 11:11:54,510.2599825880756,2,30,0.5501165986061096,3.806918382644653,28.523606294871747,28.50250972920545,113.92481556224374,103.88958955020514,6.47544875391759e-05,0.0955438911914825,0,0,0
9565,334101.1346494486,2010-11-05 11:12:24,540.2752813415025,2,30,0.5501165986061096,3.810156106948853,28.528193078412624,28.50250972920545,113.94228472860604,103.88958955020514,6.47544875391759e-05,0.0955438911914825,0,0,0
9566,334131.1497690599,2010-11-05 11:12:54,570.2904009778254,2,30,0.5499359965324402,3.813231945037842,28.53277983843326,28.50250972920545,113.95976828841796,103.88958955020514,3.237724376958795e-05,0.0955438911914825,0,0,0
9567,334161.1651825648,2010-11-05 11:13:24,600.3058144626394,2,30,0.5501165986061096,3.816469669342041,28.5373666111451,28.50250972920545,113.9772663047044,103.88958955020514,6.47544875391759e-05,0.0955438911914825,0,0,0
9568,334191.1803468325,2010-11-05 11:13:54,630.3209787303692,2,30,0.5501165986061096,3.81938362121582,28.5419532561645,28.50250972920545,113.99477784478375,103.88958955020514,9.713172767078504e-05,0.0955438911914825,0,0,0
9569,334221.1956448591,2010-11-05 11:14:24,660.3362767820445,2,30,0.5501165986061096,3.8224594593048096,28.546539953552777,28.50250972920545,114.01230353202686,103.88958955020514,9.713172767078504e-05,0.0955438911914825,0,0,0
9570,334251.2109053571,2010-11-05 11:14:55,690.3515372499046,2,30,0.5501165986061096,3.825535297393799,28.551126601952628,28.50250972920545,114.02984294732089,103.88958955020514,6.47544875391759e-05,0.0955438911914825,0,0,0
9571,334281.22619564435,2010-11-05 11:15:25,720.3668275422111,2,30,0.5501165986061096,3.828773021697998,28.555713391739125,28.50250972920545,114.04739716864296,103.88958955020514,9.713172767078504e-05,0.0955438911914825,0,0,0
9572,334311.2415001421,2010-11-05 11:15:55,750.3821320650394,2,30,0.550297200679779,3.8321726322174072,28.560300105262364,28.50250972920545,114.06496562533027,103.88958955020514,0.0001295089750783,0.0955438911914825,0,0,0
9573,334341.2567676626,2010-11-05 11:16:25,780.3973995804913,2,30,0.550297200679779,3.8352482318878174,28.564886819252585,28.50250972920545,114.08254879605852,103.88958955020514,9.713172767078504e-05,0.0955438911914825,0,0,0
9574,334371.27203894744,2010-11-05 11:16:55,810.4126708402897,2,30,0.5501165986061096,3.838324069976807,28.569473536563866,28.50250972920545,114.100147087382,103.88958955020514,6.47544875391759e-05,0.0955438911914825,0,0,0
9575,334401.2873255456,2010-11-05 11:17:25,840.4279574634376,2,30,0.5501165986061096,3.841885566711426,28.57406016326419,28.50250972920545,114.11776035727362,103.88958955020514,9.713172767078504e-05,0.0955438911914825,0,0,0
9576,334431.30280213285,2010-11-05 11:17:55,870.4434340257027,2,30,0.5499359965324402,3.845285177230835,28.57864687895509,28.50250972920545,114.13538951199352,103.88958955020514,6.47544875391759e-05,0.0955438911914825,0,0,0
9577,334461.31790963886,2010-11-05 11:18:25,900.458541526734,2,30,0.5499359965324402,3.848522901535034,28.583233571716217,28.50250972920545,114.15303398929969,103.88958955020514,6.47544875391759e-05,0.0955438911914825,0,0,0
9578,334491.33330072777,2010-11-05 11:18:55,930.473932630682,2,30,0.5501165986061096,3.8519225120544434,28.58782023217796,28.50250972920545,114.17069359876108,103.88958955020514,9.713172767078504e-05,0.0955438911914825,0,0,0
9579,334521.34847083007,2010-11-05 11:19:25,960.4891027229507,2,30,0.5501165986061096,3.8551602363586426,28.59240688462864,28.50250972920545,114.18836819840352,103.88958955020514,9.713172767078504e-05,0.0955438911914825,0,0,0
9580,334551.3638548915,2010-11-05 11:19:55,990.5044867893318,2,30,0.5499359965324402,3.858236074447632,28.596993545474085,28.50250972920545,114.20605773375712,103.88958955020514,9.713172767078504e-05,0.0955438911914825,0,0,0
9581,334581.3790575701,2010-11-05 11:20:25,1020.5196894879912,2,30,0.5501165986061096,3.861635684967041,28.601580224128448,28.50250972920545,114.22376187544626,103.88958955020514,9.713172767078504e-05,0.0955438911914825,0,0,0
9582,334611.3944375663,2010-11-05 11:20:55,1050.5350694691751,2,30,0.5501165986061096,3.86454963684082,28.606166931831623,28.50250972920545,114.24148038206982,103.88958955020514,9.713172767078504e-05,0.0955438911914825,0,0,0
9583,334641.4095930421,2010-11-05 11:21:25,1080.5502249599965,2,30,0.5495747923851013,3.8673017024993896,28.610753601082536,28.50250972920545,114.25921258575568,103.88958955020514,3.237724376958795e-05,0.0955438911914825,0,0,0
9584,334671.4249093995,2010-11-05 11:21:55,1110.5655413173654,2,30,0.5499359965324402,3.870215654373169,28.615340316393343,28.50250972920545,114.27695841363266,103.88958955020514,3.237724376958795e-05,0.0955438911914825,0,0,0
9585,334701.4401657571,2010-11-05 11:22:25,1140.5807976749657,2,30,0.5501165986061096,3.873129606246948,28.61992699843687,28.50250972920545,114.29471710624884,103.88958955020514,6.47544875391759e-05,0.0955438911914825,0,0,0
9586,334731.4554785706,2010-11-05 11:22:55,1170.596110463426,2,30,0.5501165986061096,3.875719785690308,28.62451376895923,28.50250972920545,114.31248854615076,103.88958955020514,6.47544875391759e-05,0.0955438911914825,0,0,0
9587,334761.47073987057,2010-11-05 11:23:25,1200.611371788426,2,30,0.5501165986061096,3.878471851348877,28.629100446754386,28.50250972920545,114.33027163169947,103.88958955020514,6.47544875391759e-05,0.0955438911914825,0,0,0
9588,334791.486039837,2010-11-05 11:23:55,1230.626671729818,2,30,0.5499359965324402,3.880738258361816,28.633687056544808,28.50250972920545,114.34806581838822,103.88958955020514,6.47544875391759e-05,0.0955438911914825,0,0,0
9589,334821.50131672586,2010-11-05 11:24:25,1260.64194864373,2,30,0.5501165986061096,3.883004665374756,28.638273696372437,28.50250972920545,114.3658708914718,103.88958955020514,3.237724376958795e-05,0.0955438911914825,0,0,0
9590,334851.5016434367,2010-11-05 11:24:55,1290.6422754448604,2,30,0.5501165986061096,3.8852710723876953,28.64285812130542,28.50250972920545,114.38367745491556,103.88958955020514,6.47544875391759e-05,0.0955438911914825,0,0,0
9591,334881.51644494897,2010-11-05 11:25:25,1320.6570769470718,2,30,0.5501165986061096,3.887213706970215,28.64744468808371,28.50250972920545,114.4015017357588,103.88958955020514,6.47544875391759e-05,0.0955438911914825,0,0,0
9592,334911.5315581993,2010-11-05 11:25:55,1350.672190117254,2,30,0.5501165986061096,3.888994455337525,28.652031312801657,28.50250972920545,114.41933507970306,103.88958955020514,6.47544875391759e-05,0.0955438911914825,0,0,0
9593,334941.5468428526,2010-11-05 11:26:25,1380.6874747704846,2,30,0.5501165986061096,3.890775203704834,28.656618049232595,28.50250972920545,114.43717703691718,103.88958955020514,3.237724376958795e-05,0.0955438911914825,0,0,0
9594,334971.5621104232,2010-11-05 11:26:55,1410.702742326037,2,30,0.5499359965324402,3.892232179641724,28.661204744186744,28.50250972920545,114.45502653949758,103.88958955020514,3.237724376958795e-05,0.0955438911914825,0,0,0
9595,335001.5774034322,2010-11-05 11:27:25,1440.7180353551753,2,30,0.5501165986061096,3.8938510417938232,28.66579145478413,28.50250972920545,114.4728833443918,103.88958955020514,0.0,0.0955438911914825,0,0,0
9596,335031.5926921306,2010-11-05 11:27:55,1470.7333240535029,2,30,0.5501165986061096,3.895146131515503,28.670378197414585,28.50250972920545,114.490746827221,103.88958955020514,3.237724376958795e-05,0.0955438911914825,0,0,0
9597,335061.6079649944,2010-11-05 11:28:25,1500.7485969122924,2,30,0.5501165986061096,3.8966031074523926,28.674964874272053,28.50250972920545,114.50861638187112,103.88958955020514,0.0,0.0955438911914825,0,0,0
9598,335091.6232635774,2010-11-05 11:28:55,1530.763895495294,2,30,0.5499359965324402,3.897898197174072,28.67955153073321,28.50250972920545,114.5264921526981,103.88958955020514,3.237724376958795e-05,0.0955438911914825,0,0,0
9599,335121.63853108283,2010-11-05 11:29:25,1560.7791630007207,2,30,0.5497553944587708,3.899355173110962,28.68413821435188,28.50250972920545,114.54437415141489,103.88958955020514,0.0,0.0955438911914825,0,0,0
9600,335151.6539413346,2010-11-05 11:29:55,1590.794573232415,2,30,0.5501165986061096,3.900488376617432,28.68872491638519,28.50250972920545,114.56226212266182,103.88958955020514,3.237724376958795e-05,0.0955438911914825,0,0,0
9601,335181.6691036324,2010-11-05 11:30:25,1620.8097355502773,2,30,0.5501165986061096,3.9021072387695312,28.69331158071613,28.50250972920545,114.58015584901132,103.88958955020514,6.47544875391759e-05,0.0955438911914825,0,0,0
9602,335211.684400446,2010-11-05 11:30:55,1650.825032363862,2,30,0.5499359965324402,3.902916669845581,28.6978982361174,28.50250972920545,114.598055407389,103.88958955020514,3.237724376958795e-05,0.0955438911914825,0,0,0
9603,335241.69966767065,2010-11-05 11:31:25,1680.8402995885886,2,30,0.5501165986061096,3.904373645782471,28.70248486288295,28.50250972920545,114.61596068702468,103.88958955020514,3.237724376958795e-05,0.0955438911914825,0,0,0
9604,335271.7149450508,2010-11-05 11:31:55,1710.8555769736768,2,30,0.5501165986061096,3.9056687355041504,28.70707153550931,28.50250972920545,114.6338718699766,103.88958955020514,6.47544875391759e-05,0.0955438911914825,0,0,0
9605,335301.7302566563,2010-11-05 11:32:25,1740.8708885741717,2,30,0.5501165986061096,3.90712571144104,28.7116581809461,28.50250972920545,114.65178884061008,103.88958955020514,9.713172767078504e-05,0.0955438911914825,0,0,0
9606,335331.7455143322,2010-11-05 11:32:55,1770.8861462350253,2,30,0.5501165986061096,3.90842080116272,28.716244815259863,28.50250972920545,114.66971161770252,103.88958955020514,6.47544875391759e-05,0.0955438911914825,0,0,0
9607,335361.7610217815,2010-11-05 11:33:25,1800.9016536793768,2,30,0.5501165986061096,3.90939211845398,28.720831460935628,28.50250972920545,114.68764040169194,103.88958955020514,3.237724376958795e-05,0.0955438911914825,0,0,0
9608,335391.7760845459,2010-11-05 11:33:55,1830.916716468801,2,30,0.5501165986061096,3.910849094390869,28.72541806214929,28.50250972920545,114.70557493479926,103.88958955020514,6.47544875391759e-05,0.0955438911914825,0,0,0
9609,335421.79138150986,2010-11-05 11:34:25,1860.9320134277489,2,30,0.5501165986061096,3.912144184112549,28.730004658355483,28.50250972920545,114.72351543280048,103.88958955020514,3.237724376958795e-05,0.0955438911914825,0,0,0
9610,335451.8066354915,2010-11-05 11:34:55,1890.947267389368,2,30,0.5501165986061096,3.913439273834229,28.734591295177868,28.50250972920545,114.74146209066446,103.88958955020514,3.237724376958795e-05,0.0955438911914825,0,0,0
9611,335481.821909458,2010-11-05 11:35:25,1920.9625413509104,2,30,0.5499359965324402,3.914734125137329,28.73917792055009,28.50250972920545,114.75941480639489,103.88958955020514,3.237724376958795e-05,0.0955438911914825,0,0,0
9612,335511.8372535045,2010-11-05 11:35:55,1950.977885397396,2,30,0.5501165986061096,3.916029214859009,28.743764602077132,28.50250972920545,114.77737373524258,103.88958955020514,3.237724376958795e-05,0.0955438911914825,0,0,0
9613,335541.8526599117,2010-11-05 11:36:25,1980.993291814568,2,30,0.5501165986061096,3.9174861907958975,28.74835124250434,28.50250972920545,114.79533875850612,103.88958955020514,6.47544875391759e-05,0.0955438911914825,0,0,0
9614,335571.86781279097,2010-11-05 11:36:55,2011.008444708908,2,30,0.5501165986061096,3.918943166732788,28.7529378340104,28.50250972920545,114.813309764401,103.88958955020514,6.47544875391759e-05,0.0955438911914825,0,0,0
9615,335601.88308532897,2010-11-05 11:37:25,2041.0237172468967,2,30,0.5501165986061096,3.920238256454468,28.757524481979345,28.50250972920545,114.83128732080873,103.88958955020514,6.47544875391759e-05,0.0955438911914825,0,0,0
9616,335631.8983769947,2010-11-05 11:37:55,2071.0390089176444,2,30,0.5501165986061096,3.921695232391357,28.762111136944064,28.50250972920545,114.8492711478346,103.88958955020514,6.47544875391759e-05,0.0955438911914825,0,0,0
9617,335661.913666866,2010-11-05 11:38:25,2101.0542987889,2,30,0.5499359965324402,3.922990322113037,28.766697695699115,28.50250972920545,114.867260993627,103.88958955020514,6.47544875391759e-05,0.0955438911914825,0,0,0
9618,335691.92894215084,2010-11-05 11:38:55,2131.069574043671,2,30,0.5501165986061096,3.924285411834717,28.771284250578844,28.50250972920545,114.8852572720461,103.88958955020514,0.0,0.0955438911914825,0,0,0
9619,335721.94423639297,2010-11-05 11:39:25,2161.084868310899,2,30,0.5501165986061096,3.925904273986816,28.775870885692346,28.50250972920545,114.90326044164388,103.88958955020514,6.47544875391759e-05,0.0955438911914825,0,0,0
9620,335751.9595043395,2010-11-05 11:39:55,2191.10013626244,2,30,0.5501165986061096,3.927361249923706,28.780457522951576,28.50250972920545,114.92127000176248,103.88958955020514,3.237724376958795e-05,0.0955438911914825,0,0,0
9621,335781.97479983984,2010-11-05 11:40:25,2221.115431757734,2,30,0.5501165986061096,3.9286563396453857,28.78504410470579,28.50250972920545,114.93928598874058,103.88958955020514,3.237724376958795e-05,0.0955438911914825,0,0,0
9622,335811.99006847304,2010-11-05 11:40:55,2251.130700390976,2,30,0.5501165986061096,3.930275201797485,28.78963071678057,28.50250972920545,114.9573087648766,103.88958955020514,6.47544875391759e-05,0.0955438911914825,0,0,0
9623,335842.005371452,2010-11-05 11:41:25,2281.146003344888,2,30,0.5501165986061096,3.931570291519165,28.79421740265852,28.50250972920545,114.9753385204772,103.88958955020514,6.47544875391759e-05,0.0955438911914825,0,0,0
9624,335872.0207614432,2010-11-05 11:41:55,2311.1613933611206,2,30,0.5501165986061096,3.9331891536712646,28.798804055524723,28.50250972920545,114.99337486843804,103.88958955020514,6.47544875391759e-05,0.0955438911914825,0,0,0
9625,335902.0359552948,2010-11-05 11:42:25,2341.176587212696,2,30,0.5499359965324402,3.9346461296081534,28.803390751901368,28.50250972920545,115.0114181801648,103.88958955020514,6.47544875391759e-05,0.0955438911914825,0,0,0
9626,335932.0512212864,2010-11-05 11:42:55,2371.191853204345,2,30,0.5501165986061096,3.936103105545044,28.807977419177185,28.50250972920545,115.02946829467116,103.88958955020514,3.237724376958795e-05,0.0955438911914825,0,0,0
9627,335962.0664952129,2010-11-05 11:43:25,2401.2071271308,2,30,0.5501165986061096,3.9375600814819336,28.81256404796408,28.50250972920545,115.04752507243154,103.88958955020514,0.0,0.0955438911914825,0,0,0
9628,335992.08175527473,2010-11-05 11:43:55,2431.222387172596,2,30,0.5499359965324402,3.939178943634033,28.81715062481772,28.50250972920545,115.06558870876232,103.88958955020514,3.237724376958795e-05,0.0955438911914825,0,0,0
9629,336022.097062354,2010-11-05 11:44:25,2461.237694271856,2,30,0.5499359965324402,3.940797805786133,28.821737217498367,28.50250972920545,115.08365944425796,103.88958955020514,9.713172767078504e-05,0.0955438911914825,0,0,0
9630,336052.1123171426,2010-11-05 11:44:55,2491.25294906054,2,30,0.5501165986061096,3.9422547817230233,28.826323760618568,28.50250972920545,115.10173705503912,103.88958955020514,3.237724376958795e-05,0.0955438911914825,0,0,0
9631,336082.1275976555,2010-11-05 11:45:25,2521.2682295784475,2,30,0.5501165986061096,3.943711757659912,28.83091029951596,28.50250972920545,115.11982180875393,103.88958955020514,3.237724376958795e-05,0.0955438911914825,0,0,0
9632,336112.14301488973,2010-11-05 11:45:55,2551.2836467875586,2,30,0.5499359965324402,3.945330619812012,28.83549693392125,28.50250972920545,115.13791419540344,103.88958955020514,0.0,0.0955438911914825,0,0,0
9633,336142.1581985809,2010-11-05 11:46:25,2581.298830478772,2,30,0.550297200679779,3.9469494819641113,28.840083612367824,28.50250972920545,115.1560140634982,103.88958955020514,6.47544875391759e-05,0.0955438911914825,0,0,0
9634,336172.17346667784,2010-11-05 11:46:55,2611.3140985756754,2,30,0.5501165986061096,3.948568344116211,28.84467033556956,28.50250972920545,115.17412140894275,103.88958955020514,3.237724376958795e-05,0.0955438911914825,0,0,0
9635,336202.18885911006,2010-11-05 11:47:26,2641.329491012951,2,30,0.5501165986061096,3.950187206268311,28.849257028653145,28.50250972920545,115.19223600588104,103.88958955020514,3.237724376958795e-05,0.0955438911914825,0,0,0
9636,336232.2040229768,2010-11-05 11:47:56,2671.3446548997304,2,30,0.5501165986061096,3.95180606842041,28.853843630607926,28.50250972920545,115.21035771944943,103.88958955020514,3.237724376958795e-05,0.0955438911914825,0,0,0
9637,336262.2193092491,2010-11-05 11:48:26,2701.3599411720024,2,30,0.5501165986061096,3.9534249305725098,28.858430309500378,28.50250972920545,115.22848721033792,103.88958955020514,3.237724376958795e-05,0.0955438911914825,0,0,0
9638,336292.23458010785,2010-11-05 11:48:56,2731.3752120257877,2,30,0.5501165986061096,3.9552056789398193,28.86301699341253,28.50250972920545,115.24662430274864,103.88958955020514,3.237724376958795e-05,0.0955438911914825,0,0,0
9639,336322.2498650669,2010-11-05 11:49:26,2761.390496989793,2,30,0.550297200679779,3.956824541091919,28.8676037542936,28.50250972920545,115.2647694279498,103.88958955020514,3.237724376958795e-05,0.0955438911914825,0,0,0
9640,336352.2651637501,2010-11-05 11:49:56,2791.405795668033,2,30,0.5499359965324402,3.9584434032440186,28.872190470805,28.50250972920545,115.28292194877372,103.88958955020514,3.237724376958795e-05,0.0955438911914825,0,0,0
9641,336382.280641741,2010-11-05 11:50:26,2821.4212736338013,2,30,0.550297200679779,3.960386037826538,28.876777189129506,28.50250972920545,115.30108232522292,103.88958955020514,6.47544875391759e-05,0.0955438911914825,0,0,0
9642,336412.295714811,2010-11-05 11:50:56,2851.436346703888,2,30,0.5501165986061096,3.961843013763428,28.881363826063737,28.50250972920545,115.31925025440044,103.88958955020514,3.237724376958795e-05,0.0955438911914825,0,0,0
9643,336442.3111241556,2010-11-05 11:51:26,2881.451756048367,2,30,0.550297200679779,3.963623762130737,28.885950500322924,28.50250972920545,115.3374261669404,103.88958955020514,6.47544875391759e-05,0.0955438911914825,0,0,0
9644,336472.32627718017,2010-11-05 11:51:56,2911.4669090730326,2,30,0.5499359965324402,3.965404510498047,28.89053713329422,28.50250972920545,115.35560989018605,103.88958955020514,6.47544875391759e-05,0.0955438911914825,0,0,0
9645,336502.34170805843,2010-11-05 11:52:26,2941.482339951263,2,30,0.5501165986061096,3.967185258865357,28.89512387272532,28.50250972920545,115.3738021082885,103.88958955020514,6.47544875391759e-05,0.0955438911914825,0,0,0
9646,336532.35687890253,2010-11-05 11:52:56,2971.4975108254835,2,30,0.550297200679779,3.968966007232666,28.89971051292222,28.50250972920545,115.39200185816544,103.88958955020514,9.713172767078504e-05,0.0955438911914825,0,0,0
9647,336562.3721518165,2010-11-05 11:53:26,3001.512783739411,2,30,0.550297200679779,3.9709086418151855,28.90429717688944,28.50250972920545,115.41020989147592,103.88958955020514,9.713172767078504e-05,0.0955438911914825,0,0,0
9648,336592.3874201741,2010-11-05 11:53:56,3031.5280520919523,2,30,0.5501165986061096,3.972527503967285,28.908883915810613,28.50250972920545,115.42842649999405,103.88958955020514,6.47544875391759e-05,0.0955438911914825,0,0,0
9649,336622.402728767,2010-11-05 11:54:26,3061.5433606849406,2,30,0.5501165986061096,3.9743082523345943,28.913470628958727,28.50250972920545,115.44665122472531,103.88958955020514,6.47544875391759e-05,0.0955438911914825,0,0,0
9650,336652.41798058833,2010-11-05 11:54:56,3091.5586124861675,2,30,0.550297200679779,3.976250886917114,28.91805812808403,28.50250972920545,115.46488747690972,103.88958955020514,6.47544875391759e-05,0.0955438911914825,0,0,0
9651,336682.43327777786,2010-11-05 11:55:26,3121.57390967569,2,30,0.5501165986061096,3.977707862854004,28.92264562928789,28.50250972920545,115.4831321122896,103.88958955020514,0.0,0.0955438911914825,0,0,0
9652,336712.44857601,2010-11-05 11:55:56,3151.5892079028035,2,30,0.5501165986061096,3.979812383651733,28.927232356198537,28.50250972920545,115.50138185322568,103.88958955020514,6.47544875391759e-05,0.0955438911914825,0,0,0
9653,336742.4638686381,2010-11-05 11:56:26,3181.6045005359533,2,30,0.5501165986061096,3.981755018234253,28.93181896073814,28.50250972920545,115.51964007062396,103.88958955020514,6.47544875391759e-05,0.0955438911914825,0,0,0
9654,336772.4797262766,2010-11-05 11:56:56,3211.620358179456,2,30,0.5501165986061096,3.9835357666015625,28.93640574686517,28.50250972920545,115.53790777955848,103.88958955020514,3.237724376958795e-05,0.0955438911914825,0,0,0
9655,336802.49445172894,2010-11-05 11:57:26,3241.6350837070227,2,30,0.5499359965324402,3.985478401184082,28.940992177845555,28.50250972920545,115.55618282093543,103.88958955020514,3.237724376958795e-05,0.0955438911914825,0,0,0
9656,336832.5097422168,2010-11-05 11:57:56,3271.6503741096044,2,30,0.550297200679779,3.987582921981812,28.94557879791501,28.50250972920545,115.57446753886796,103.88958955020514,9.713172767078504e-05,0.0955438911914825,0,0,0
9657,336862.52503572206,2010-11-05 11:58:26,3301.6656676149314,2,30,0.5501165986061096,3.989363670349121,28.950165398278937,28.50250972920545,115.59276107111106,103.88958955020514,3.237724376958795e-05,0.0955438911914825,0,0,0
9658,336892.54030065605,2010-11-05 11:58:56,3331.6809325489394,2,30,0.5501165986061096,3.991630077362061,28.95475202753992,28.50250972920545,115.6110638323868,103.88958955020514,6.47544875391759e-05,0.0955438911914825,0,0,0
9659,336922.5555804021,2010-11-05 11:59:26,3361.6962122949208,2,30,0.550297200679779,3.99357271194458,28.95933863803521,28.50250972920545,115.6293757151796,103.88958955020514,9.713172767078504e-05,0.0955438911914825,0,0,0
9660,336952.5708645841,2010-11-05 11:59:56,3391.7114964769758,2,30,0.5501165986061096,3.995353221893311,28.963925297064545,28.50250972920545,115.64769712457354,103.88958955020514,-3.237724376958795e-05,0.0955438911914825,0,0,0
9661,336982.5861852372,2010-11-05 12:00:26,3421.726817130067,2,30,0.5501165986061096,3.99761962890625,28.96851191814559,28.50250972920545,115.6660278061768,103.88958955020514,6.47544875391759e-05,0.0955438911914825,0,0,0
9662,337012.6014670283,2010-11-05 12:00:56,3451.742098941203,2,30,0.5501165986061096,3.99972414970398,28.97309858888238,28.50250972920545,115.68436809682996,103.88958955020514,6.47544875391759e-05,0.0955438911914825,0,0,0
9663,337042.6167245087,2010-11-05 12:01:26,3481.7573564266186,2,30,0.550297200679779,4.001667022705078,28.977685200533745,28.50250972920545,115.70271765096696,103.88958955020514,6.47544875391759e-05,0.0955438911914825,0,0,0
9664,337072.6321272267,2010-11-05 12:01:56,3511.7727591194944,2,30,0.5501165986061096,4.003933429718018,28.982271846293592,28.50250972920545,115.7210770168734,103.88958955020514,6.47544875391759e-05,0.0955438911914825,0,0,0
9665,337102.6472957901,2010-11-05 12:02:26,3541.7879277080096,2,30,0.5499359965324402,4.006037712097168,28.98685843596091,28.50250972920545,115.73944590650436,103.88958955020514,9.70840483205393e-05,0.0955438911914825,0,0,0
9666,337132.66259312496,2010-11-05 12:02:56,3571.8032250428955,2,30,0.5501165986061096,4.008304119110107,28.99144505850863,28.50250972920545,115.7578248654347,103.88958955020514,9.70840483205393e-05,0.0955438911914825,0,0,0
9667,337162.6778556781,2010-11-05 12:03:26,3601.818487570898,2,30,0.5499359965324402,4.010246753692627,28.996031653041744,28.50250972920545,115.7762136457028,103.88958955020514,3.23295607813634e-05,0.0955438911914825,0,0,0
9668,337192.69315994025,2010-11-05 12:03:56,3631.833791838088,2,30,0.550297200679779,4.012675285339356,29.00061821045371,28.50250972920545,115.79461239169184,103.88958955020514,6.47544875391759e-05,0.0955438911914825,0,0,0
9669,337222.7085685178,2010-11-05 12:04:26,3661.84920041064,2,30,0.5501165986061096,4.014779567718506,29.00520488192268,28.50250972920545,115.81302187321744,103.88958955020514,6.47544875391759e-05,0.0955438911914825,0,0,0
9670,337252.72370575304,2010-11-05 12:04:56,3691.8643376458926,2,30,0.5499359965324402,4.017045974731445,29.009791493276296,28.50250972920545,115.83144144027122,103.88958955020514,6.47544875391759e-05,0.0955438911914825,0,0,0
9671,337282.7392201247,2010-11-05 12:05:26,3721.879852017537,2,30,0.5501165986061096,4.019312381744385,29.014378178989087,28.50250972920545,115.84987177697694,103.88958955020514,6.47544875391759e-05,0.0955438911914825,0,0,0
9672,337312.7542827738,2010-11-05 12:05:56,3751.8949146666105,2,30,0.5501165986061096,4.021578788757324,29.018964725410235,28.50250972920545,115.868312068712,103.88958955020514,6.47544875391759e-05,0.0955438911914825,0,0,0
9673,337342.769910348,2010-11-05 12:06:26,3781.910542240824,2,30,0.5501165986061096,4.024007320404053,29.023551405746904,28.50250972920545,115.88676363381408,103.88958955020514,6.47544875391759e-05,0.0955438911914825,0,0,0
9674,337372.7848510076,2010-11-05 12:06:56,3811.9254829003935,2,30,0.550297200679779,4.026435375213623,29.02813786407204,28.50250972920545,115.90522498848132,103.88958955020514,9.70840483205393e-05,0.0955438911914825,0,0,0
9675,337402.8001879513,2010-11-05 12:07:26,3841.9408198441497,2,30,0.5501165986061096,4.0287017822265625,29.032724426275536,28.50250972920545,115.92369763853016,103.88958955020514,6.47544875391759e-05,0.0955438911914825,0,0,0
9676,337432.81541622384,2010-11-05 12:07:56,3871.956048116645,2,30,0.5501165986061096,4.031130313873291,29.03731101914379,28.50250972920545,115.9421813197409,103.88958955020514,6.47544875391759e-05,0.0955438911914825,0,0,0
9677,337462.8307171677,2010-11-05 12:08:26,3901.971349060539,2,30,0.5501165986061096,4.033558368682861,29.041897592348885,28.50250972920545,115.96067599625628,103.88958955020514,6.47544875391759e-05,0.0955438911914825,0,0,0
9678,337492.8459927834,2010-11-05 12:08:56,3931.9866246762112,2,30,0.550297200679779,4.036148548126221,29.046484269042978,28.50250972920545,115.97918229759954,103.88958955020514,9.71794142969884e-05,0.0955438911914825,0,0,0
9679,337522.8612705444,2010-11-05 12:09:26,3962.0019024372377,2,30,0.550297200679779,4.03841495513916,29.05107090154621,28.50250972920545,115.9976997625186,103.88958955020514,3.24249267578125e-05,0.0955438911914825,0,0,0
9680,337552.876551714,2010-11-05 12:09:56,3992.017183606772,2,30,0.5501165986061096,4.04100513458252,29.05565759779151,28.50250972920545,116.01622881315252,103.88958955020514,6.47544875391759e-05,0.0955438911914825,0,0,0
9681,337582.89187271794,2010-11-05 12:10:26,4022.0325046157527,2,30,0.5501165986061096,4.04343318939209,29.06024423140486,28.50250972920545,116.03476905471572,103.88958955020514,6.47544875391759e-05,0.0955438911914825,0,0,0
9682,337612.90715080977,2010-11-05 12:10:56,4052.047782702592,2,30,0.5501165986061096,4.046023368835449,29.064830829502863,28.50250972920545,116.05332069962462,103.88958955020514,9.70840483205393e-05,0.0955438911914825,0,0,0
9683,337642.9224151523,2010-11-05 12:11:26,4082.063047070186,2,30,0.5501165986061096,4.048451900482178,29.06941750008896,28.50250972920545,116.07188424768438,103.88958955020514,3.24249267578125e-05,0.0955438911914825,0,0,0
9684,337672.93769818643,2010-11-05 12:11:56,4112.078330079314,2,30,0.5501165986061096,4.051203727722168,29.07400413484175,28.50250972920545,116.0904592730868,103.88958955020514,6.47544875391759e-05,0.0955438911914825,0,0,0
9685,337702.9529902482,2010-11-05 12:12:26,4142.093622141037,2,30,0.5501165986061096,4.053793907165527,29.07859075104709,28.50250972920545,116.1090460218758,103.88958955020514,9.70840483205393e-05,0.0955438911914825,0,0,0
9686,337732.96839521674,2010-11-05 12:12:56,4172.109027109593,2,30,0.5501165986061096,4.056222438812256,29.08317740174672,28.50250972920545,116.12764482571704,103.88958955020514,3.24249267578125e-05,0.0955438911914825,0,0,0
9687,337762.9835525923,2010-11-05 12:13:26,4202.124184485119,2,30,0.5501165986061096,4.058812618255615,29.08776406127897,28.50250972920545,116.14625566902356,103.88958955020514,6.47544875391759e-05,0.0955438911914825,0,0,0
9688,337792.9989559168,2010-11-05 12:13:56,4232.139587814583,2,30,0.5501165986061096,4.0615644454956055,29.09235073902304,28.50250972920545,116.1648785049731,103.88958955020514,0.0001295089750783,0.0955438911914825,0,0,0
9689,337823.0141698233,2010-11-05 12:14:26,4262.154801716207,2,30,0.5501165986061096,4.064154624938965,29.096937354902245,28.50250972920545,116.18351325519686,103.88958955020514,6.47544875391759e-05,0.0955438911914825,0,0,0
9690,337853.0294066522,2010-11-05 12:14:56,4292.170038545061,2,30,0.5499359965324402,4.066744804382324,29.101523905517908,28.50250972920545,116.20216011399532,103.88958955020514,6.47544875391759e-05,0.0955438911914825,0,0,0
9691,337883.04481604183,2010-11-05 12:15:26,4322.185447934653,2,30,0.5501165986061096,4.069497108459473,29.10611058681729,28.50250972920545,116.22082001149217,103.88958955020514,3.24249267578125e-05,0.0955438911914825,0,0,0
9692,337913.0599742795,2010-11-05 12:15:56,4352.200606182356,2,30,0.5499359965324402,4.072248935699463,29.11069716523928,28.50250972920545,116.23949202682516,103.88958955020514,6.47544875391759e-05,0.0955438911914825,0,0,0
9693,337943.07527211565,2010-11-05 12:16:26,4382.215904008468,2,30,0.5499359965324402,4.075001239776611,29.11528381633618,28.50250972920545,116.25817705529896,103.88958955020514,3.24249267578125e-05,0.0955438911914825,0,0,0
9694,337973.0910006067,2010-11-05 12:16:56,4412.231632599835,2,30,0.550297200679779,4.0780768394470215,29.119870505252536,28.50250972920545,116.27687507545971,103.88958955020514,9.70840483205393e-05,0.0955438911914825,0,0,0
9695,338003.10586720647,2010-11-05 12:17:26,4442.24649909929,2,30,0.5501165986061096,4.08082914352417,29.124457069857705,28.50250972920545,116.29558555055884,103.88958955020514,6.47544875391759e-05,0.0955438911914825,0,0,0
9696,338033.1212378994,2010-11-05 12:17:56,4472.261869822364,2,30,0.5501165986061096,4.08358097076416,29.12904366204785,28.50250972920545,116.31430903383792,103.88958955020514,6.47544875391759e-05,0.0955438911914825,0,0,0
9697,338063.1365289236,2010-11-05 12:18:26,4502.277160821435,2,30,0.5501165986061096,4.08649492263794,29.13363030677248,28.50250972920545,116.3330458440708,103.88958955020514,3.23295607813634e-05,0.0955438911914825,0,0,0
9698,338093.1517037226,2010-11-05 12:18:56,4532.292335630477,2,30,0.5501165986061096,4.089408874511719,29.138216917571597,28.50250972920545,116.3517957474662,103.88958955020514,9.70840483205393e-05,0.0955438911914825,0,0,0
9699,338123.1669954685,2010-11-05 12:19:27,4562.307627381425,2,30,0.5501165986061096,4.092322826385498,29.142803456688466,28.50250972920545,116.37055878210406,103.88958955020514,6.47544875391759e-05,0.0955438911914825,0,0,0
9700,338153.1822719464,2010-11-05 12:19:57,4592.322903849224,2,30,0.5499359965324402,4.095236778259277,29.14738998265365,28.50250972920545,116.38933536979874,103.88958955020514,6.47544875391759e-05,0.0955438911914825,0,0,0
9701,338183.1975718877,2010-11-05 12:20:27,4622.338203790616,2,30,0.5501165986061096,4.098474502563477,29.15197653212528,28.50250972920545,116.4081257740256,103.88958955020514,0.0001295089750783,0.0955438911914825,0,0,0
9702,338213.2128496438,2010-11-05 12:20:57,4652.353481541618,2,30,0.5501165986061096,4.101226806640625,29.156563177409623,28.50250972920545,116.42693033707152,103.88958955020514,3.24249267578125e-05,0.0955438911914825,0,0,0
9703,338243.2281445927,2010-11-05 12:21:27,4682.36877649556,2,30,0.5501165986061096,4.104302406311035,29.161149787425103,28.50250972920545,116.44574851635652,103.88958955020514,6.47544875391759e-05,0.0955438911914825,0,0,0
9704,338273.2434131758,2010-11-05 12:21:57,4712.384045068652,2,30,0.550297200679779,4.107540130615234,29.165736341701,28.50250972920545,116.46458053531389,103.88958955020514,9.70840483205393e-05,0.0955438911914825,0,0,0
9705,338303.2590317125,2010-11-05 12:22:27,4742.39966363037,2,30,0.550297200679779,4.110616207122803,29.170323005362707,28.50250972920545,116.4834271151154,103.88958955020514,9.71794142969884e-05,0.0955438911914825,0,0,0
9706,338333.2739865023,2010-11-05 12:22:57,4772.414618395148,2,30,0.5501165986061096,4.113691806793213,29.17490959065039,28.50250972920545,116.50228754958717,103.88958955020514,9.70840483205393e-05,0.0955438911914825,0,0,0
9707,338363.2892675716,2010-11-05 12:23:27,4802.429899464432,2,30,0.5499359965324402,4.116767406463623,29.179496108012746,28.50250972920545,116.52116201432392,103.88958955020514,6.47544875391759e-05,0.0955438911914825,0,0,0
9708,338393.30455003434,2010-11-05 12:23:57,4832.4451819322085,2,30,0.5501165986061096,4.120005130767822,29.184082667326862,28.50250972920545,116.54005111921306,103.88958955020514,9.70840483205393e-05,0.0955438911914825,0,0,0
9709,338423.3198493642,2010-11-05 12:24:27,4862.460481257061,2,30,0.5501165986061096,4.1232428550720215,29.188669280452707,28.50250972920545,116.55895497763028,103.88958955020514,9.70840483205393e-05,0.0955438911914825,0,0,0
9710,338453.33519371145,2010-11-05 12:24:57,4892.475825614322,2,30,0.5501165986061096,4.126480579376221,29.193255854149637,28.50250972920545,116.57787325245428,103.88958955020514,0.0001295089750783,0.0955438911914825,0,0,0
9711,338483.35040455044,2010-11-05 12:25:27,4922.491036443275,2,30,0.5501165986061096,4.129556655883789,29.19784242079417,28.50250972920545,116.59680626990183,103.88958955020514,9.71794142969884e-05,0.0955438911914825,0,0,0
9712,338513.36583509285,2010-11-05 12:25:57,4952.506466990681,2,30,0.5501165986061096,4.132956027984619,29.20242904538092,28.50250972920545,116.61575446689938,103.88958955020514,0.0001295089750783,0.0955438911914825,0,0,0
9713,338543.38098161627,2010-11-05 12:26:27,4982.521613514118,2,30,0.5501165986061096,4.136032104492188,29.20701562496077,28.50250972920545,116.63471752775176,103.88958955020514,9.71794142969884e-05,0.0955438911914825,0,0,0
9714,338573.39623328217,2010-11-05 12:26:57,5012.536865185019,2,30,0.5499359965324402,4.139431476593018,29.21160218576957,28.50250972920545,116.65369566139094,103.88958955020514,9.70840483205393e-05,0.0955438911914825,0,0,0
9715,338603.4115196697,2010-11-05 12:27:27,5042.552151562554,2,30,0.5501165986061096,4.142831325531006,29.216188781167236,28.50250972920545,116.67268923118984,103.88958955020514,9.71794142969884e-05,0.0955438911914825,0,0,0
9716,338633.42680324527,2010-11-05 12:27:57,5072.567435143107,2,30,0.5501165986061096,4.146230697631836,29.22077541383939,28.50250972920545,116.69169842912036,103.88958955020514,9.70840483205393e-05,0.0955438911914825,0,0,0
9717,338663.4421482492,2010-11-05 12:28:27,5102.582780146982,2,30,0.5501165986061096,4.149630546569824,29.22536202568932,28.50250972920545,116.710723183046,103.88958955020514,0.0001295089750783,0.0955438911914825,0,0,0
9718,338693.45738335367,2010-11-05 12:28:57,5132.598015246519,2,30,0.5499359965324402,4.153029918670654,29.22994853369381,28.50250972920545,116.72976313547188,103.88958955020514,9.70840483205393e-05,0.0955438911914825,0,0,0
9719,338723.47270247794,2010-11-05 12:29:27,5162.613334456008,2,30,0.5501165986061096,4.1562676429748535,29.234535129658504,28.50250972920545,116.74881918157944,103.88958955020514,6.47544875391759e-05,0.0955438911914825,0,0,0
9720,338753.4880672512,2010-11-05 12:29:57,5192.628699154043,2,30,0.5501165986061096,4.159829139709473,29.239121569285327,28.50250972920545,116.76789041192971,103.88958955020514,9.70840483205393e-05,0.0955438911914825,0,0,0
9721,338783.5032474988,2010-11-05 12:30:27,5222.64387940166,2,30,0.5501165986061096,4.163390636444092,29.24370717987072,28.50250972920545,116.78697385369992,103.88958955020514,9.70840483205393e-05,0.0955438911914825,0,0,0
9722,338813.5185149942,2010-11-05 12:30:57,5252.659146887037,2,30,0.5499359965324402,4.16679048538208,29.24829286593264,28.50250972920545,116.80607356021773,103.88958955020514,6.47544875391759e-05,0.0955438911914825,0,0,0
9723,338843.5337944996,2010-11-05 12:31:27,5282.674426397431,2,30,0.5499359965324402,4.170351982116699,29.252878455255768,28.50250972920545,116.82518900462864,103.88958955020514,9.71794142969884e-05,0.0955438911914825,0,0,0
9724,338873.5491008971,2010-11-05 12:31:57,5312.689732799951,2,30,0.5501165986061096,4.173913478851318,29.25746432120907,28.50250972920545,116.84432191729468,103.88958955020514,9.71794142969884e-05,0.0955438911914825,0,0,0
9725,338903.5643717258,2010-11-05 12:32:27,5342.705003618648,2,30,0.5501165986061096,4.177312850952148,29.26205095680528,28.50250972920545,116.8634744123321,103.88958955020514,9.70840483205393e-05,0.0955438911914825,0,0,0
9726,338933.57964925125,2010-11-05 12:32:57,5372.720281144087,2,30,0.550297200679779,4.181360244750977,29.266637588901347,28.50250972920545,116.88264337708688,103.88958955020514,0.0001295089750783,0.0955438911914825,0,0,0
9727,338963.5949329471,2010-11-05 12:33:27,5402.735564839927,2,30,0.5501165986061096,4.184759616851807,29.271224140368417,28.50250972920545,116.90182857015378,103.88958955020514,0.0001295089750783,0.0955438911914825,0,0,0
9728,338993.6103638404,2010-11-05 12:33:57,5432.750995758258,2,30,0.550297200679779,4.188644886016846,29.27581073640128,28.50250972920545,116.92103056107013,103.88958955020514,0.0001295089750783,0.0955438911914825,0,0,0
9729,339023.6255056972,2010-11-05 12:34:27,5462.766137589984,2,30,0.5499359965324402,4.192044734954834,29.280397258162584,28.50250972920545,116.94024907520053,103.88958955020514,9.71794142969884e-05,0.0955438911914825,0,0,0
9730,339053.6408010371,2010-11-05 12:34:57,5492.781432934903,2,30,0.5499359965324402,4.195767879486084,29.28498384414735,28.50250972920545,116.95948473319508,103.88958955020514,9.71794142969884e-05,0.0955438911914825,0,0,0
9731,339083.6560845124,2010-11-05 12:35:27,5522.796716415206,2,30,0.5501165986061096,4.199329376220703,29.289570441990392,28.50250972920545,116.97873738759564,103.88958955020514,9.71794142969884e-05,0.0955438911914825,0,0,0
9732,339087.1872950521,2010-11-05 12:35:31,5526.327926970013,2,30,0.550297200679779,4.200138568878174,29.29011004332781,28.50250972920545,116.98100353505552,103.88958955020514,0.0001618385285837,0.0955438911914825,0,0,0
9733,339117.1889960394,2010-11-05 12:36:01,30.015392888402204,3,30,0.0,4.114015579223633,29.29011004332781,28.50250972920545,116.98100353505552,103.88958955020514,-0.0003561019839253,0.0955438911914825,0,0,0
9734,339147.20417694363,2010-11-05 12:36:31,60.030573792659375,3,30,0.0,4.1034932136535645,29.29011004332781,28.50250972920545,116.98100353505552,103.88958955020514,-0.0002265930233988,0.0955438911914825,0,0,0
9735,339177.2196048745,2010-11-05 12:37:01,90.04600172353295,3,30,0.0,4.097179412841797,29.29011004332781,28.50250972920545,116.98100353505552,103.88958955020514,-0.0001295089750783,0.0955438911914825,0,0,0
9736,339207.1879715784,2010-11-05 12:37:31,120.01436843736866,3,30,0.0,4.093294143676758,29.29011004332781,28.50250972920545,116.98100353505552,103.88958955020514,-6.47544875391759e-05,0.0955438911914825,0,0,0
9737,339207.1911719178,2010-11-05 12:37:31,2.766906625e-06,4,30,0.992428719997406,4.199653148651123,29.29011004409058,28.50250972920545,116.98100353825886,103.88958955020514,0.0,0.0955438911914825,0,0,0
9738,339207.8473717786,2010-11-05 12:37:31,0.656202652775582,4,30,0.9418581128120422,4.199653148651123,29.290284592538544,28.50250972920545,116.98173659337442,103.88958955020514,0.0,0.0955438911914825,0,0,0
9739,339209.8631030389,2010-11-05 12:37:33,2.671933913113888,4,30,0.8912875652313232,4.199653148651123,29.290796553031104,28.50250972920545,116.9838866840234,103.88958955020514,0.0,0.0955438911914825,0,0,0
9740,339213.03479522053,2010-11-05 12:37:37,5.843626089739388,4,30,0.8408975601196289,4.199653148651123,29.29155820053188,28.50250972920545,116.98708538539454,103.88958955020514,-6.47544875391759e-05,0.0955438911914825,0,0,0
9741,339217.4097622263,2010-11-05 12:37:41,10.218593090444996,4,30,0.7905075550079346,4.199814796447754,29.292548103701385,28.50250972920545,116.99124271251968,103.88958955020514,3.23295607813634e-05,0.0955438911914825,0,0,0
9742,339223.2066805011,2010-11-05 12:37:47,16.01551137531762,4,30,0.7399369478225708,4.199814796447754,29.29377924094065,28.50250972920545,116.99641316441,103.88958955020514,3.23295607813634e-05,0.0955438911914825,0,0,0
9743,339230.8783283494,2010-11-05 12:37:55,23.687159213575427,4,30,0.6895470023155212,4.199653148651123,29.29530083421577,28.50250972920545,117.00280345637312,103.88958955020514,-3.23295607813634e-05,0.0955438911914825,0,0,0
9744,339241.12820764,2010-11-05 12:38:05,33.93703850920182,4,30,0.6395182013511658,4.199814796447754,29.29718959194764,28.50250972920545,117.01073577229448,103.88958955020514,0.0,0.0955438911914825,0,0,0
9745,339255.331303337,2010-11-05 12:38:19,48.14013420114053,4,30,0.5894894599914551,4.199653148651123,29.299608510037416,28.50250972920545,117.02089461619272,103.88958955020514,0.0,0.0955438911914825,0,0,0
9746,339277.4092061039,2010-11-05 12:38:41,70.21803697305967,4,30,0.5394606590270996,4.199814796447754,29.30305965378271,28.50250972920545,117.03538852771956,103.88958955020514,3.23295607813634e-05,0.0955438911914825,0,0,0
9747,339315.54925236205,2010-11-05 12:39:19,108.35808325126952,4,30,0.4894318878650665,4.199814796447754,29.30848427697704,28.50250972920545,117.05817056641378,103.88958955020514,0.0,0.0955438911914825,0,0,0
9748,339384.29847041715,2010-11-05 12:40:28,177.10730128628768,4,30,0.439222514629364,4.199491024017334,29.317315754498697,28.50250972920545,117.09526055202193,103.88958955020514,-6.47544875391759e-05,0.0955438911914825,0,0,0
9749,339487.6566809068,2010-11-05 12:42:11,280.4655117709205,4,30,0.388832539319992,4.199653148651123,29.329183787341098,28.50250972920545,117.14510329772996,103.88958955020514,-3.23295607813634e-05,0.0955438911914825,0,0,0
9750,339615.3584923696,2010-11-05 12:44:19,408.1673232437894,4,30,0.338803768157959,4.199976921081543,29.342077959329725,28.50250972920545,117.19925566385594,103.88958955020514,3.24249267578125e-05,0.0955438911914825,0,0,0
9751,339766.55986571923,2010-11-05 12:46:50,559.3686965833947,4,30,0.2887749969959259,4.199653148651123,29.355243535152425,28.50250972920545,117.25454784377052,103.88958955020514,-6.47544875391759e-05,0.0955438911914825,0,0,0
9752,339948.6358180529,2010-11-05 12:49:52,741.4446489171046,4,30,0.2387462258338928,4.199653148651123,29.36855880851894,28.50250972920545,117.31046863693396,103.88958955020514,-3.23295607813634e-05,0.0955438911914825,0,0,0
9753,340172.6802602991,2010-11-05 12:53:36,965.4890911633267,4,30,0.1887174546718597,4.199814796447754,29.381814330970432,28.50250972920545,117.36613845064248,103.88958955020514,3.23295607813634e-05,0.0955438911914825,0,0,0
9754,340470.05187968566,2010-11-05 12:58:34,1262.8607105548078,4,30,0.1386886835098266,4.199814796447754,29.39524807744232,28.50250972920545,117.42255676265336,103.88958955020514,3.23295607813634e-05,0.0955438911914825,0,0,0
9755,340929.3904508016,2010-11-05 13:06:13,1722.1992816958486,4,30,0.0886599123477935,4.199653148651123,29.409530438699456,28.50250972920545,117.482539130933,103.88958955020514,-3.23295607813634e-05,0.0955438911914825,0,0,0
9756,341593.33602372714,2010-11-05 13:17:17,2386.1448545962803,4,30,0.0498289167881011,4.199653148651123,29.42195475158624,28.50250972920545,117.5347179547982,103.88958955020514,-3.23295607813634e-05,0.0955438911914825,0,0,0
9757,341623.3502298698,2010-11-05 13:17:47,30.015182117285068,5,30,0.0,4.191720962524414,29.42195475158624,28.50250972920545,117.5347179547982,103.88958955020514,-6.47544875391759e-05,0.0955438911914825,0,0,0
9758,341653.34989947546,2010-11-05 13:18:17,60.01485172796712,5,30,0.0,4.190587520599365,29.42195475158624,28.50250972920545,117.5347179547982,103.88958955020514,-3.24249267578125e-05,0.0955438911914825,0,0,0
9759,341653.5371592149,2010-11-05 13:18:17,0.18752545739172,6,30,-1.9243103452026844e-05,4.190749645233154,29.42195475158624,28.502509730207827,117.5347179547982,103.88958955440587,0.0,0.0948198437690734,0,0,0
9760,341658.36519545614,2010-11-05 13:18:22,5.015561693612131,6,30,0.0007031940040178,4.190587520599365,29.421955596797297,28.502509730375102,117.53472149681258,103.88958955510688,-6.47544875391759e-05,0.0948198437690734,0,0,0
9761,341688.3803438102,2010-11-05 13:18:52,30.01522295422034,7,30,-1.0997490882873535,4.012836933135986,29.421955596797297,28.511678189394686,117.53472149681258,103.92657642098574,-0.0009065627818927,0.0948198437690734,0,0,0
9762,341718.3956289096,2010-11-05 13:19:22,60.03050805857698,7,30,-1.0993878841400146,3.985964059829712,29.421955596797297,28.520846634824004,117.53472149681258,103.96323477639052,-0.0005827903514727,0.0948198437690734,0,0,0
9763,341748.4109077984,2010-11-05 13:19:52,90.04578694240624,7,30,-1.099568486213684,3.967185258865357,29.421955596797297,28.53001498227124,117.53472149681258,103.99968890419946,-0.0004532813909463,0.0948198437690734,0,0,0
9764,341778.4262887319,2010-11-05 13:20:22,120.0611679060424,7,30,-1.099568486213684,3.95293927192688,29.421955596797297,28.539183312175524,117.53472149681258,104.03599353475296,-0.0003237724304199,0.0948198437690734,0,0,0
9765,341808.4416220768,2010-11-05 13:20:52,150.0765012207395,7,30,-1.0997490882873535,3.940635919570923,29.421955596797297,28.548351638760483,117.53472149681258,104.07217684196424,-0.0003237724304199,0.0948198437690734,0,0,0
9766,341838.4567699285,2010-11-05 13:21:22,180.091649077505,7,30,-1.0993878841400146,3.929789543151856,29.421955596797297,28.557519952148773,117.53472149681258,104.10825423433948,-0.0002590179501567,0.0948198437690734,0,0,0
9767,341868.4722025411,2010-11-05 13:21:52,210.10708168505232,7,30,-1.0997490882873535,3.919590711593628,29.421955596797297,28.5666883450874,117.53472149681258,104.14423569757328,-0.0002590179501567,0.0948198437690734,0,0,0
9768,341898.48735073366,2010-11-05 13:22:22,240.12222987765617,7,30,-1.099568486213684,3.9100396633148193,29.421955596797297,28.575856724009007,117.53472149681258,104.18012751522475,-0.0002266406954731,0.0948198437690734,0,0,0
9769,341928.50263392826,2010-11-05 13:22:52,270.1375130722457,7,30,-1.0993878841400146,3.900812149047852,29.421955596797297,28.58502506832372,117.53472149681258,104.21593381916212,-0.0002590179501567,0.0948198437690734,0,0,0
9770,341958.5179041955,2010-11-05 13:23:23,300.15278334457935,7,30,-1.0997490882873535,3.891908407211304,29.421955596797297,28.594193384589257,117.53472149681258,104.25165764968698,-0.0002590179501567,0.0948198437690734,0,0,0
9771,341988.53318198165,2010-11-05 13:23:53,330.16806115071853,7,30,-1.0997490882873535,3.883328437805176,29.421955596797297,28.60336174719077,117.53472149681258,104.2873016929635,-0.0002266406954731,0.0948198437690734,0,0,0
9772,342018.54851155705,2010-11-05 13:24:23,360.1833907010191,7,30,-1.0997490882873535,3.874748468399048,29.421955596797297,28.61253014273704,117.53472149681258,104.32286694187096,-0.0002590179501567,0.0948198437690734,0,0,0
9773,342048.5637670825,2010-11-05 13:24:53,390.1986462265424,7,30,-1.099568486213684,3.86649227142334,29.421955596797297,28.621698373473208,117.53472149681258,104.35835464378953,-0.0002590179501567,0.0948198437690734,0,0,0
9774,342078.57917234686,2010-11-05 13:25:23,420.2140514958493,7,30,-1.099568486213684,3.858559846878052,29.421955596797297,28.630866832443683,117.53472149681258,104.39376770135944,-0.0001942634553415,0.0948198437690734,0,0,0
9775,342108.59431365726,2010-11-05 13:25:53,450.2291928012616,7,30,-1.0993878841400146,3.8504655361175537,29.421955596797297,28.64003509692697,117.53472149681258,104.42910549359992,-0.0001942634553415,0.0948198437690734,0,0,0
9776,342138.6097967458,2010-11-05 13:26:23,480.2446758898173,7,30,-1.099568486213684,3.8425331115722656,29.421955596797297,28.64920355756095,117.53472149681258,104.464371054582,-0.0001942634553415,0.0948198437690734,0,0,0
9777,342168.62487803143,2010-11-05 13:26:53,510.2597571804234,7,30,-1.0997490882873535,3.8346006870269775,29.421955596797297,28.658371906888075,117.53472149681258,104.49956457857688,-0.0001942634553415,0.0948198437690734,0,0,0
9778,342198.64016208315,2010-11-05 13:27:23,540.27504122714,7,30,-1.0997490882873535,3.8271541595458975,29.421955596797297,28.66754028714201,117.53472149681258,104.53468776336894,-0.0001942634553415,0.0948198437690734,0,0,0
9779,342228.6554466461,2010-11-05 13:27:53,570.2903257901454,7,30,-1.099568486213684,3.81970739364624,29.421955596797297,28.676708737664395,117.53472149681258,104.56974159831135,-0.0001618862152099,0.0948198437690734,0,0,0
9780,342258.6707548331,2010-11-05 13:28:23,600.3056339771198,7,30,-1.099568486213684,3.811936855316162,29.421955596797297,28.685877210092723,117.53472149681258,104.6047267808338,-0.0002590179501567,0.0948198437690734,0,0,0
9781,342288.68607013783,2010-11-05 13:28:53,630.3209492818613,7,30,-1.099568486213684,3.804651975631714,29.421955596797297,28.69504562969162,117.53472149681258,104.63964337507127,-0.0001942634553415,0.0948198437690734,0,0,0
9782,342318.70130650053,2010-11-05 13:29:23,660.3361856445512,7,30,-1.099568486213684,3.797528982162476,29.421955596797297,28.70421401167586,117.53472149681258,104.67449302447817,-0.0001942634553415,0.0948198437690734,0,0,0
9783,342348.71658017137,2010-11-05 13:29:53,690.351459315368,7,30,-1.099568486213684,3.790405988693237,29.421955596797297,28.71338246608808,117.53472149681258,104.70927780775573,-0.0001942634553415,0.0948198437690734,0,0,0
9784,342378.7318990751,2010-11-05 13:30:23,720.366778219093,7,30,-1.099568486213684,3.783768653869629,29.421955596797297,28.72255092347453,117.53472149681258,104.74399918943897,-0.0001618862152099,0.0948198437690734,0,0,0
9785,342408.74715222965,2010-11-05 13:30:53,750.3820313736983,7,30,-1.099568486213684,3.7769694328308105,29.421955596797297,28.73171936165192,117.53472149681258,104.77865837550976,-0.0001942634553415,0.0948198437690734,0,0,0
9786,342438.762558296,2010-11-05 13:31:23,780.3974374399944,7,30,-1.099568486213684,3.770332098007202,29.421955596797297,28.74088778081781,117.53472149681258,104.81325584412112,-0.0001618862152099,0.0948198437690734,0,0,0
9787,342468.77771725546,2010-11-05 13:31:53,810.4125963994741,7,30,-1.099568486213684,3.7636947631835938,29.421955596797297,28.75005620031195,117.53472149681258,104.84779325365588,-0.0002266406954731,0.0948198437690734,0,0,0
9788,342498.79303787346,2010-11-05 13:32:23,840.4279170174782,7,30,-1.099568486213684,3.7575430870056152,29.421955596797297,28.759224705105563,117.53472149681258,104.88227273638246,-0.0001618862152099,0.0948198437690734,0,0,0
9789,342528.8084202757,2010-11-05 13:32:53,870.4432994197052,7,30,-1.0997490882873535,3.751391649246216,29.421955596797297,28.76839326080008,117.53472149681258,104.916695407139,-0.0001618862152099,0.0948198437690734,0,0,0
9790,342558.8236136962,2010-11-05 13:33:23,900.4584929254178,7,30,-1.0997490882873535,3.745239973068237,29.421955596797297,28.7775616945346,117.53472149681258,104.95106180110191,-0.0001618862152099,0.0948198437690734,0,0,0
9791,342588.8389836724,2010-11-05 13:33:53,930.4738628214272,7,30,-1.0997490882873535,3.7392501831054688,29.421955596797297,28.78673015948525,117.53472149681258,104.98537286145404,-0.0001618862152099,0.0948198437690734,0,0,0
9792,342618.8541572284,2010-11-05 13:34:23,960.4890363723292,7,30,-1.099568486213684,3.73342227935791,29.421955596797297,28.795898555570343,117.53472149681258,105.01962909354468,-0.0001618862152099,0.0948198437690734,0,0,0
9793,342648.8694357813,2010-11-05 13:34:53,990.504314925333,7,30,-1.099568486213684,3.727918148040772,29.421955596797297,28.80506692622016,117.53472149681258,105.05383215847884,-0.0001295089750783,0.0948198437690734,0,0,0
9794,342678.8847066452,2010-11-05 13:35:23,1020.5195857891428,7,30,-1.099568486213684,3.722252130508423,29.421955596797297,28.814235296170075,117.53472149681258,105.08798398053932,-0.0001618862152099,0.0948198437690734,0,0,0
9795,342708.90000616043,2010-11-05 13:35:53,1050.5348853044716,7,30,-1.099568486213684,3.716586112976074,29.421955596797297,28.82340375390584,117.53472149681258,105.12208439429966,-0.0001295089750783,0.0948198437690734,0,0,0
9796,342738.91529336007,2010-11-05 13:36:23,1080.550172504058,7,30,-1.0997490882873535,3.711081981658936,29.421955596797297,28.8325722210272,117.53472149681258,105.15613417846986,-0.0001295089750783,0.0948198437690734,0,0,0
9797,342768.9305574921,2010-11-05 13:36:53,1110.5654366360648,7,30,-1.0997490882873535,3.705577850341797,29.421955596797297,28.84174061004967,117.53472149681258,105.1901337907742,-0.0001618862152099,0.0948198437690734,0,0,0
9798,342798.94583867665,2010-11-05 13:37:23,1140.580717830662,7,30,-1.099568486213684,3.700235605239868,29.421955596797297,28.850909024810303,117.53472149681258,105.22408435541988,-0.0001295089750783,0.0948198437690734,0,0,0
9799,342828.96136495296,2010-11-05 13:37:53,1170.5962441020083,7,30,-1.099568486213684,3.695055246353149,29.421955596797297,28.860077525463623,117.53472149681258,105.2579864095662,-0.0001295089750783,0.0948198437690734,0,0,0
9800,342858.9764234468,2010-11-05 13:38:23,1200.6113025906975,7,30,-1.099568486213684,3.6897130012512207,29.421955596797297,28.869245922987943,117.53472149681258,105.29183960644816,-0.0001295089750783,0.0948198437690734,0,0,0
9801,342888.9918488763,2010-11-05 13:38:53,1230.6267280253403,7,30,-1.099568486213684,3.684532642364502,29.421955596797297,28.878414343331684,117.53472149681258,105.32564570195282,-0.0001618862152099,0.0948198437690734,0,0,0
9802,342919.0069952644,2010-11-05 13:39:23,1260.6418744084272,7,30,-1.0997490882873535,3.679676055908203,29.421955596797297,28.887582730369743,117.53472149681258,105.3594049421138,-0.0001295089750783,0.0948198437690734,0,0,0
9803,342949.0222601182,2010-11-05 13:39:53,1290.6571392622352,7,30,-1.0997490882873535,3.6746575832366943,29.421955596797297,28.89675116882754,117.53472149681258,105.39311853726272,-0.0001295089750783,0.0948198437690734,0,0,0
9804,342979.0375559594,2010-11-05 13:40:23,1320.6724351084054,7,30,-1.099568486213684,3.669801235198975,29.421955596797297,28.905919640838345,117.53472149681258,105.42678676864384,-9.713172767078504e-05,0.0948198437690734,0,0,0
9805,343009.05283449736,2010-11-05 13:40:53,1350.6877136413586,7,30,-1.099568486213684,3.664782762527466,29.421955596797297,28.915088154942964,117.53472149681258,105.46041032763928,-0.0001295089750783,0.0948198437690734,0,0,0
9806,343039.06835760584,2010-11-05 13:41:23,1380.703236845048,7,30,-1.0997490882873535,3.660088062286377,29.421955596797297,28.924256715960468,117.53472149681258,105.49398998263868,-0.0001295089750783,0.0948198437690734,0,0,0
9807,343069.0833921748,2010-11-05 13:41:53,1410.7182713438544,7,30,-1.099568486213684,3.655555248260498,29.421955596797297,28.93342507982895,117.53472149681258,105.5275257575764,-9.713172767078504e-05,0.0948198437690734,0,0,0
9808,343099.0989101805,2010-11-05 13:42:23,1440.7337893245062,7,30,-1.099568486213684,3.650860548019409,29.421955596797297,28.94259360428396,117.53472149681258,105.5610192070297,-9.713172767078504e-05,0.0948198437690734,0,0,0
9809,343129.11398510524,2010-11-05 13:42:53,1470.748864249222,7,30,-1.0997490882873535,3.6463277339935294,29.421955596797297,28.95176199339123,117.53472149681258,105.59446982502742,-6.47544875391759e-05,0.0948198437690734,0,0,0
9810,343159.12924543273,2010-11-05 13:43:23,1500.7641245817445,7,30,-1.0993878841400146,3.6417949199676514,29.421955596797297,28.96093034524044,117.53472149681258,105.62787900601926,-0.0001295089750783,0.0948198437690734,0,0,0
9811,343189.1446483862,2010-11-05 13:43:53,1530.7795275302583,7,30,-1.099568486213684,3.6374239921569824,29.421955596797297,28.97009881129013,117.53472149681258,105.66124752447791,-6.47544875391759e-05,0.0948198437690734,0,0,0
9812,343219.15981825296,2010-11-05 13:44:23,1560.794697396964,7,30,-1.099568486213684,3.6330530643463135,29.421955596797297,28.97926717767777,117.53472149681258,105.69457532161157,-9.713172767078504e-05,0.0948198437690734,0,0,0
9813,343249.17511482094,2010-11-05 13:44:53,1590.8099939649358,7,30,-1.099568486213684,3.6288440227508554,29.421955596797297,28.988435662752664,117.53472149681258,105.72786395261993,-6.47544875391759e-05,0.0948198437690734,0,0,0
9814,343279.19045447645,2010-11-05 13:45:23,1620.8253336254727,7,30,-1.099568486213684,3.624634981155396,29.421955596797297,28.99760410700196,117.53472149681258,105.76111381327232,-6.47544875391759e-05,0.0948198437690734,0,0,0
9815,343309.2056558769,2010-11-05 13:45:53,1650.840535020879,7,30,-1.099568486213684,3.620425939559937,29.421955596797297,29.00677249326608,117.53472149681258,105.7943258076256,-6.47544875391759e-05,0.0948198437690734,0,0,0
9816,343339.22096776805,2010-11-05 13:46:23,1680.8558469120997,7,30,-1.0997490882873535,3.616378784179688,29.421955596797297,29.01594100296061,117.53472149681258,105.8275007150742,-9.713172767078504e-05,0.0948198437690734,0,0,0
9817,343369.2363613432,2010-11-05 13:46:53,1710.8712404872165,7,30,-1.0997490882873535,3.612493515014648,29.421955596797297,29.02510947998698,117.53472149681258,105.86063904590128,-6.47544875391759e-05,0.0948198437690734,0,0,0
9818,343399.2514649646,2010-11-05 13:47:23,1740.8863441135757,7,30,-1.099568486213684,3.60860824584961,29.421955596797297,29.03427736946215,117.53472149681258,105.89374040013828,-0.0001295089750783,0.0948198437690734,0,0,0
9819,343429.26676770794,2010-11-05 13:47:53,1770.9016468519496,7,30,-1.099568486213684,3.60488486289978,29.421955596797297,29.04344508339876,117.53472149681258,105.92680625648264,-9.713172767078504e-05,0.0948198437690734,0,0,0
9820,343459.2821060151,2010-11-05 13:48:23,1800.916985159109,7,30,-1.099568486213684,3.601323366165161,29.421955596797297,29.052612929407605,117.53472149681258,105.95983867111384,-9.713172767078504e-05,0.0948198437690734,0,0,0
9821,343489.297376082,2010-11-05 13:48:53,1830.932255225929,7,30,-1.099568486213684,3.597438097000122,29.421955596797297,29.061780611320707,117.53472149681258,105.9928372579806,-0.0001295089750783,0.0948198437690734,0,0,0
9822,343519.312632234,2010-11-05 13:49:23,1860.9475113780163,7,30,-1.099568486213684,3.594200372695923,29.421955596797297,29.070948264218405,117.53472149681258,106.02580330505155,-6.47544875391759e-05,0.0948198437690734,0,0,0
9823,343549.3278977144,2010-11-05 13:49:53,1890.962776858389,7,30,-1.099568486213684,3.5908010005950928,29.421955596797297,29.08011593188408,117.53472149681258,106.05873800133656,-6.47544875391759e-05,0.0948198437690734,0,0,0
9824,343579.3432296406,2010-11-05 13:50:23,1920.97810878462,7,30,-1.099568486213684,3.5875632762908936,29.421955596797297,29.08928396892461,117.53472149681258,106.09164301219644,-6.47544875391759e-05,0.0948198437690734,0,0,0
9825,343609.3584582991,2010-11-05 13:50:53,1950.993337453104,7,30,-1.099568486213684,3.5841636657714844,29.421955596797297,29.098452295562858,117.53472149681258,106.1245189633278,-9.713172767078504e-05,0.0948198437690734,0,0,0
9826,343639.3737448821,2010-11-05 13:51:23,1981.0086240261269,7,30,-1.099568486213684,3.581249713897705,29.421955596797297,29.107620634295483,117.53472149681258,106.15736582294014,-3.237724376958795e-05,0.0948198437690734,0,0,0
9827,343669.3890234,2010-11-05 13:51:53,2011.0239025440424,7,30,-1.099568486213684,3.577688217163086,29.421955596797297,29.116789029432017,117.53472149681258,106.19018368820676,-0.0001295089750783,0.0948198437690734,0,0,0
9828,343699.4043209154,2010-11-05 13:52:23,2041.039200059379,7,30,-1.0997490882873535,3.5746123790740967,29.421955596797297,29.125957162822672,117.53472149681258,106.22297209179727,-9.713172767078504e-05,0.0948198437690734,0,0,0
9829,343729.4196056087,2010-11-05 13:52:53,2071.05448475271,7,30,-1.099568486213684,3.5716984272003174,29.421955596797297,29.135125183095138,117.53472149681258,106.25573188286006,-9.713172767078504e-05,0.0948198437690734,0,0,0
9830,343759.4349133696,2010-11-05 13:53:23,2101.0697925136205,7,30,-1.0997490882873535,3.568622589111328,29.421955596797297,29.144293224711905,117.53472149681258,106.28846382049028,-9.713172767078504e-05,0.0948198437690734,0,0,0
9831,343789.45028892474,2010-11-05 13:53:53,2131.0851680687565,7,30,-1.0997490882873535,3.565708637237549,29.421955596797297,29.153461322557757,117.53472149681258,106.32116824961076,-6.47544875391759e-05,0.0948198437690734,0,0,0
9832,343819.46545819496,2010-11-05 13:54:23,2161.1003373389726,7,30,-1.099568486213684,3.562794685363769,29.421955596797297,29.16262945600955,117.53472149681258,106.35384513123611,-6.47544875391759e-05,0.0948198437690734,0,0,0
9833,343849.4807538005,2010-11-05 13:54:53,2191.1156329445425,7,30,-1.099568486213684,3.5597188472747803,29.421955596797297,29.171797718153098,117.53472149681258,106.38649545830972,-6.47544875391759e-05,0.0948198437690734,0,0,0
9834,343879.49601653905,2010-11-05 13:55:24,2221.130895683071,7,30,-1.099568486213684,3.556643009185791,29.421955596797297,29.18096598820755,117.53472149681258,106.41911769444587,-6.47544875391759e-05,0.0948198437690734,0,0,0
9835,343909.51132491656,2010-11-05 13:55:54,2251.1462040605206,7,30,-1.099929690361023,3.553405284881592,29.421955596797297,29.190134362398226,117.53472149681258,106.4517122718664,-0.0001295089750783,0.0948198437690734,0,0,0
9836,343939.5265927578,2010-11-05 13:56:24,2281.1614719017857,7,30,-1.099568486213684,3.5503294467926025,29.421955596797297,29.199302625430818,117.53472149681258,106.48427820332918,-9.713172767078504e-05,0.0948198437690734,0,0,0
9837,343969.5418767543,2010-11-05 13:56:54,2311.176755898377,7,30,-1.0997490882873535,3.5474154949188232,29.421955596797297,29.20847097375185,117.53472149681258,106.51681590642872,-6.47544875391759e-05,0.0948198437690734,0,0,0
9838,343999.55715833994,2010-11-05 13:57:24,2341.19203748395,7,30,-1.0997490882873535,3.544339656829834,29.421955596797297,29.21763937126497,117.53472149681258,106.5493253890806,-9.713172767078504e-05,0.0948198437690734,0,0,0
9839,344029.5724484518,2010-11-05 13:57:54,2371.207327585781,7,30,-1.099568486213684,3.5411019325256348,29.421955596797297,29.22680775145139,117.53472149681258,106.58180612135294,-6.47544875391759e-05,0.0948198437690734,0,0,0
9840,344059.5879227935,2010-11-05 13:58:24,2401.222801932516,7,30,-1.0997490882873535,3.5377023220062256,29.421955596797297,29.23597621014043,117.53472149681258,106.61425813157828,-0.0001295089750783,0.0948198437690734,0,0,0
9841,344089.60299675085,2010-11-05 13:58:54,2431.237875889817,7,30,-1.0997490882873535,3.5346264839172363,29.421955596797297,29.24514452933421,117.53472149681258,106.64667979025532,-6.47544875391759e-05,0.0948198437690734,0,0,0
9842,344119.6182800006,2010-11-05 13:59:24,2461.253159139545,7,30,-1.0997490882873535,3.531226873397827,29.421955596797297,29.254312867889062,117.53472149681258,106.67907107922564,-9.713172767078504e-05,0.0948198437690734,0,0,0
9843,344149.6335630949,2010-11-05 13:59:54,2491.268442238896,7,30,-1.0997490882873535,3.527827262878418,29.421955596797297,29.26348125882509,117.53472149681258,106.71143122569212,-9.713172767078504e-05,0.0948198437690734,0,0,0
9844,344179.64899945183,2010-11-05 14:00:24,2521.2838785958024,7,30,-1.0993878841400146,3.524265766143799,29.421955596797297,29.27264965653673,117.53472149681258,106.74375943854636,-9.713172767078504e-05,0.0948198437690734,0,0,0
9845,344209.6641643511,2010-11-05 14:00:54,2551.299043495109,7,30,-1.0997490882873535,3.52038049697876,29.421955596797297,29.281817932852185,117.53472149681258,106.77605362891708,-9.713172767078504e-05,0.0948198437690734,0,0,0
9846,344239.67949840263,2010-11-05 14:01:24,2581.314377546645,7,30,-1.099929690361023,3.5164952278137207,29.421955596797297,29.29098627286395,117.53472149681258,106.8083132639543,-0.0001295089750783,0.0948198437690734,0,0,0
9847,344269.6946988557,2010-11-05 14:01:54,2611.3295779896744,7,30,-1.099568486213684,3.512771844863892,29.421955596797297,29.30015467761719,117.53472149681258,106.84053722608908,-9.713172767078504e-05,0.0948198437690734,0,0,0
9848,344299.7100000803,2010-11-05 14:02:24,2641.344879219282,7,30,-1.0997490882873535,3.508563041687012,29.421955596797297,29.309323052412516,117.53472149681258,106.87272380851262,-9.713172767078504e-05,0.0948198437690734,0,0,0
9849,344329.7252682424,2010-11-05 14:02:54,2671.3601473813483,7,30,-1.099568486213684,3.504030227661133,29.421955596797297,29.31849140328145,117.53472149681258,106.90487042541292,-9.713172767078504e-05,0.0948198437690734,0,0,0
9850,344359.7406788099,2010-11-05 14:03:24,2701.37555794888,7,30,-1.0997490882873535,3.499173641204834,29.421955596797297,29.32765983728053,117.53472149681258,106.9369745921858,-0.0001618862152099,0.0948198437690734,0,0,0
9851,344389.7558562956,2010-11-05 14:03:54,2731.390735434604,7,30,-1.0997490882873535,3.4938313961029053,29.421955596797297,29.336828201477484,117.53472149681258,106.96903277407976,-0.0001618862152099,0.0948198437690734,0,0,0
9852,344419.7711433899,2010-11-05 14:04:24,2761.406022538953,7,30,-1.099568486213684,3.4883272647857666,29.421955596797297,29.34599658471036,117.53472149681258,107.00104127721688,-0.0001618862152099,0.0948198437690734,0,0,0
9853,344449.7864149104,2010-11-05 14:04:54,2791.421294044365,7,30,-1.099568486213684,3.482013702392578,29.421955596797297,29.35516493297473,117.53472149681258,107.03299509790514,-0.0001618862152099,0.0948198437690734,0,0,0
9854,344479.80186791386,2010-11-05 14:05:24,2821.436747268373,7,30,-1.099568486213684,3.47489070892334,29.421955596797297,29.364333346771897,117.53472149681258,107.06488713995586,-0.0001942634553415,0.0948198437690734,0,0,0
9855,344509.8169740765,2010-11-05 14:05:54,2851.4518532205398,7,30,-1.0997490882873535,3.466796398162842,29.421955596797297,29.37350164746686,117.53472149681258,107.09670908899506,-0.0002590179501567,0.0948198437690734,0,0,0
9856,344539.83227798785,2010-11-05 14:06:24,2881.4671571318404,7,30,-1.0993878841400146,3.457406997680664,29.421955596797297,29.38267004689231,117.53472149681258,107.12845120290486,-0.0002590179501567,0.0948198437690734,0,0,0
9857,344569.8475384657,2010-11-05 14:06:54,2911.482417604713,7,30,-1.099568486213684,3.446074962615967,29.421955596797297,29.3918383902684,117.53472149681258,107.16009909169377,-0.0003237724304199,0.0948198437690734,0,0,0
9858,344599.8629913388,2010-11-05 14:07:24,2941.497870487872,7,30,-1.0997490882873535,3.43247652053833,29.421955596797297,29.401006859268385,117.53472149681258,107.19163460218633,-0.0004209041653666,0.0948198437690734,0,0,0
9859,344629.87817605265,2010-11-05 14:07:54,2971.5130553069007,7,30,-1.099568486213684,3.415964365005493,29.421955596797297,29.410175248011143,117.53472149681258,107.22303183834268,-0.0004532813909463,0.0948198437690734,0,0,0
9860,344659.89338083647,2010-11-05 14:08:24,3001.52825998049,7,30,-1.0997490882873535,3.3947572708129883,29.421955596797297,29.41934363096633,117.53472149681258,107.25425695405843,-0.0005827903514727,0.0948198437690734,0,0,0
9861,344689.90870708355,2010-11-05 14:08:54,3031.543586227545,7,30,-1.099929690361023,3.367074728012085,29.421955596797297,29.428512092804105,117.53472149681258,107.2852605111829,-0.0008418083307333,0.0948198437690734,0,0,0
9862,344719.9240296965,2010-11-05 14:09:24,3061.5589088655915,7,30,-1.099568486213684,3.330164909362793,29.421955596797297,29.437680492424533,117.53472149681258,107.31597002833668,-0.0010684489971026,0.0948198437690734,0,0,0
9863,344749.9394074071,2010-11-05 14:09:54,3091.5742865510447,7,30,-1.0997490882873535,3.279332637786865,29.421955596797297,29.446848845967487,117.53472149681258,107.34628109631524,-0.0015217304462566,0.0948198437690734,0,0,0
9864,344779.95456375496,2010-11-05 14:10:24,3121.589442904018,7,30,-1.0997490882873535,3.2077791690826416,29.421955596797297,29.456017149269066,117.53472149681258,107.3760383022811,-0.0022016526199877,0.0948198437690734,0,0,0
9865,344809.96988063364,2010-11-05 14:10:54,3151.604759777676,7,30,-1.099568486213684,3.101258516311645,29.421955596797297,29.465185570951363,117.53472149681258,107.404994327184,-0.0033348083961755,0.0948198437690734,0,0,0
9866,344839.9851318484,2010-11-05 14:11:24,3181.620010997452,7,30,-1.0997490882873535,2.90910005569458,29.421955596797297,29.47435396950175,117.53472149681258,107.43266380326632,-0.0071553708985447,0.0948198437690734,0,0,0
9867,344856.76619536465,2010-11-05 14:11:41,3198.401074508677,7,30,-1.099929690361023,2.7088472843170166,29.421955596797297,29.479479819129807,117.53472149681258,107.44709479667162,-0.0107816215604543,0.0948198437690734,0,0,0
9868,344857.43820253294,2010-11-05 14:11:41,3199.0730817020176,7,30,-1.099568486213684,2.699620008468628,29.421955596797297,29.47968508508981,117.53472149681258,107.44764993389184,-0.010846328921616,0.0948198437690734,0,0,0
9869,344917.45815077313,2010-11-05 14:12:42,60.01503269468789,8,30,0.0,3.322070598602295,29.421955596797297,29.47968508508981,117.53472149681258,107.44764993389184,0.0012303352123126,0.0948198437690734,0,0,0
9870,344917.65125680953,2010-11-05 14:12:42,0.187483512691295,9,30,-1.9243103452026844e-05,3.322232484817505,29.421955596797297,29.47968508609197,117.53472149681258,107.44764993722124,0.0,0.0939245000481605,0,0,0
9871,344922.47930941667,2010-11-05 14:12:47,5.015536119775902,9,30,0.0005225847125984,3.329841136932373,29.421956464374567,29.479685086259103,117.5347243829415,107.44764993777648,0.0010684489971026,0.0939245000481605,0,0,0
