Data_Point,Test_Time(s),Date_Time,Step_Time(s),Step_Index,Cycle_Index,Current(A),Voltage(V),Charge_Capacity(Ah),Discharge_Capacity(Ah),Charge_Energy(Wh),Discharge_Energy(Wh),dV/dt(V/s),Internal_Resistance(Ohm),Is_FC_Data,AC_Impedance(Ohm),ACI_Phase_Angle(Deg)
2955,103361.24075155146,2010-11-02 19:06:20,30.01515310987812,1,10,0.0,3.3659415245056152,8.796461602701028,8.85610854345947,35.1610858762089,32.27700736030777,0.0007770538213662,0.0924721807241439,0,0,0
2956,103391.25601534764,2010-11-02 19:06:50,60.03041690604624,1,10,0.0,3.38876748085022,8.796461602701028,8.85610854345947,35.1610858762089,32.27700736030777,0.0005504131549969,0.0924721807241439,0,0,0
2957,103421.2714515291,2010-11-02 19:07:20,90.04585309753963,1,10,0.0,3.4062511920928955,8.796461602701028,8.85610854345947,35.1610858762089,32.27700736030777,0.0003885269106831,0.0924721807241439,0,0,0
2958,103451.23972449894,2010-11-02 19:07:50,120.01412606236336,1,10,0.0,3.420173406600952,8.796461602701028,8.85610854345947,35.1610858762089,32.27700736030777,0.0003561496851034,0.0924721807241439,0,0,0
2959,103481.25758111045,2010-11-02 19:08:20,30.015297826112104,2,10,0.5501165986061096,3.581249713897705,8.801048213703407,8.85610854345947,35.177340867016234,32.27700736030777,0.0017159938579425,0.0924721807241439,0,0,0
2960,103511.27289372346,2010-11-02 19:08:51,60.0306104341221,2,10,0.5501165986061096,3.631919860839844,8.80563486993045,8.85610854345947,35.19389044560356,32.27700736030777,0.0011332035064697,0.0924721807241439,0,0,0
2961,103541.28812760997,2010-11-02 19:09:21,90.04584432564363,2,10,0.5499359965324402,3.669153690338135,8.81022144916527,8.85610854345947,35.2106382300761,32.27700736030777,0.0008741855854168,0.0924721807241439,0,0,0
2962,103571.3034136667,2010-11-02 19:09:51,120.06113037736505,2,10,0.550297200679779,3.6981310844421382,8.814808005991564,8.85610854345947,35.22753603996411,32.27700736030777,0.0006799221155233,0.0924721807241439,0,0,0
2963,103601.32132380854,2010-11-02 19:10:21,150.0790406044318,2,10,0.5501165986061096,3.722090244293213,8.819395009167696,8.85610854345947,35.244555929322814,32.27700736030777,0.0006151676061563,0.0924721807241439,0,0,0
2964,103631.3340014593,2010-11-02 19:10:51,180.09171816997045,2,10,0.550297200679779,3.741840362548828,8.823981174262165,8.85610854345947,35.26167222198167,32.27700736030777,0.0004856586456298,0.0924721807241439,0,0,0
2965,103661.34926109009,2010-11-02 19:11:21,210.10697781076613,2,10,0.550297200679779,3.757866859436035,8.82856771767899,8.85610854345947,35.278872234824185,32.27700736030777,0.0003885269106831,0.0924721807241439,0,0,0
2966,103691.36467868516,2010-11-02 19:11:51,240.12239540082743,2,10,0.5501165986061096,3.768875122070313,8.833154264701482,8.85610854345947,35.29613492904525,32.27700736030777,0.0002266406954731,0.0924721807241439,0,0,0
2967,103721.37984490776,2010-11-02 19:12:21,270.13756162343697,2,10,0.5499359965324402,3.775674343109131,8.837740745710567,8.85610854345947,35.313437201297035,32.27700736030777,0.0001942634553415,0.0924721807241439,0,0,0
2968,103751.39531515929,2010-11-02 19:12:51,300.15303189499946,2,10,0.5501165986061096,3.77988338470459,8.842327283224984,8.85610854345947,35.33076400628644,32.27700736030777,9.713172767078504e-05,0.0924721807241439,0,0,0
2969,103781.4104094774,2010-11-02 19:13:21,330.1681261880617,2,10,0.5501165986061096,3.783444881439209,8.846913844341506,8.85610854345947,35.348109097512065,32.27700736030777,9.713172767078504e-05,0.0924721807241439,0,0,0
2970,103811.42580475676,2010-11-02 19:13:51,360.1835214774572,2,10,0.550297200679779,3.787168264389038,8.851500474407423,8.85610854345947,35.36547089040728,32.27700736030777,9.713172767078504e-05,0.0924721807241439,0,0,0
2971,103841.44096555082,2010-11-02 19:14:21,390.1986822614912,2,10,0.5499359965324402,3.790405988693237,8.856087030857468,8.85610854345947,35.38284836590738,32.27700736030777,6.47544875391759e-05,0.0924721807241439,0,0,0
2972,103871.45638241408,2010-11-02 19:14:51,420.2140991297508,2,10,0.5499359965324402,3.7938055992126474,8.860673585304902,8.85610854345947,35.40024137765666,32.27700736030777,9.713172767078504e-05,0.0924721807241439,0,0,0
2973,103901.4715336643,2010-11-02 19:15:21,450.22925037497447,2,10,0.5501165986061096,3.7970433235168457,8.86526013514392,8.85610854345947,35.41764959228143,32.27700736030777,3.237724376958795e-05,0.0924721807241439,0,0,0
2974,103931.4869627631,2010-11-02 19:15:51,480.2446794837884,2,10,0.5501165986061096,3.800442934036255,8.86984670326714,8.85610854345947,35.43507273021692,32.27700736030777,9.713172767078504e-05,0.0924721807241439,0,0,0
2975,103961.5020994169,2010-11-02 19:16:21,510.2598161325771,2,10,0.5501165986061096,3.803356885910034,8.874433285161423,8.85610854345947,35.4525104952045,32.27700736030777,3.237724376958795e-05,0.0924721807241439,0,0,0
2976,103991.51739406008,2010-11-02 19:16:51,540.2751107757441,2,10,0.550297200679779,3.8067564964294434,8.879019895105218,8.85610854345947,35.46996264381419,32.27700736030777,0.0001295089750783,0.0924721807241439,0,0,0
2977,104021.53266911434,2010-11-02 19:17:21,570.2903858300141,2,10,0.5499359965324402,3.8095085620880127,8.883606441594216,8.85610854345947,35.487428525222576,32.27700736030777,6.47544875391759e-05,0.0924721807241439,0,0,0
2978,104051.5479661635,2010-11-02 19:17:51,600.3056828741744,2,10,0.5501165986061096,3.812746286392212,8.888193024359747,8.85610854345947,35.50490832898602,32.27700736030777,0.0001295089750783,0.0924721807241439,0,0,0
2979,104081.56324335812,2010-11-02 19:18:21,630.3209600737996,2,10,0.5499359965324402,3.815498352050781,8.892779531857855,8.85610854345947,35.522401892104575,32.27700736030777,3.237724376958795e-05,0.0924721807241439,0,0,0
2980,104111.57851002646,2010-11-02 19:18:51,660.3362267922622,2,10,0.5501165986061096,3.8185741901397705,8.897366899935477,8.85610854345947,35.53991249399004,32.27700736030777,6.47544875391759e-05,0.0924721807241439,0,0,0
2981,104141.5937824642,2010-11-02 19:19:21,690.351499179876,2,10,0.5501165986061096,3.82165002822876,8.901954232677495,8.85610854345947,35.55743675281389,32.27700736030777,9.713172767078504e-05,0.0924721807241439,0,0,0
2982,104171.60907742816,2010-11-02 19:19:51,720.3667941388312,2,10,0.5501165986061096,3.824563980102539,8.906541456366453,8.85610854345947,35.574974447680056,32.27700736030777,6.47544875391759e-05,0.0924721807241439,0,0,0
2983,104201.62433311908,2010-11-02 19:20:21,750.3820498297673,2,10,0.5501165986061096,3.827963590621948,8.911128684357259,8.85610854345947,35.592526328539414,32.27700736030777,0.0001295089750783,0.0924721807241439,0,0,0
2984,104231.6396406344,2010-11-02 19:20:51,780.3973573450651,2,10,0.5501165986061096,3.830877542495728,8.91571595047703,8.85610854345947,35.610092914184314,32.27700736030777,6.47544875391759e-05,0.0924721807241439,0,0,0
2985,104261.65494721236,2010-11-02 19:21:21,810.4126639230232,2,10,0.550297200679779,3.8342769145965576,8.92030320371747,8.85610854345947,35.627674226559265,32.27700736030777,6.47544875391759e-05,0.0924721807241439,0,0,0
2986,104291.67036241146,2010-11-02 19:21:51,840.4280791221163,2,10,0.5501165986061096,3.837514638900757,8.924889973492041,8.85610854345947,35.64526880935098,32.27700736030777,6.47544875391759e-05,0.0924721807241439,0,0,0
2987,104321.68554045356,2010-11-02 19:22:21,870.4432571642291,2,10,0.550297200679779,3.841076135635376,8.929476657140668,8.85610854345947,35.662878326155905,32.27700736030777,0.0001295089750783,0.0924721807241439,0,0,0
2988,104351.70096086568,2010-11-02 19:22:51,900.4586775763349,2,10,0.550297200679779,3.844475746154785,8.934063333710963,8.85610854345947,35.680503183752926,32.27700736030777,0.0001295089750783,0.0924721807241439,0,0,0
2989,104381.71621232604,2010-11-02 19:23:21,930.473929026686,2,10,0.5501165986061096,3.8475515842437744,8.938649902324675,8.85610854345947,35.69814286150782,32.27700736030777,6.47544875391759e-05,0.0924721807241439,0,0,0
2990,104411.73136412264,2010-11-02 19:23:51,960.4890808383234,2,10,0.5501165986061096,3.8507893085479736,8.943236568320062,8.85610854345947,35.7157980245734,32.27700736030777,6.47544875391759e-05,0.0924721807241439,0,0,0
2991,104441.74678991316,2010-11-02 19:24:21,990.504506623842,2,10,0.5501165986061096,3.854027032852173,8.94782327738615,8.85610854345947,35.733468166532816,32.27700736030777,9.713172767078504e-05,0.0924721807241439,0,0,0
2992,104471.76196962448,2010-11-02 19:24:51,1020.5196863401336,2,10,0.5501165986061096,3.857264757156372,8.952409841119625,8.85610854345947,35.751152357829376,32.27700736030777,9.713172767078504e-05,0.0924721807241439,0,0,0
2993,104501.777350147,2010-11-02 19:25:21,1050.5350668676813,2,10,0.5501165986061096,3.860340595245361,8.956996460938438,8.85610854345947,35.76885108446293,32.27700736030777,9.713172767078504e-05,0.0924721807241439,0,0,0
2994,104531.79250372305,2010-11-02 19:25:51,1080.550220433698,2,10,0.5501165986061096,3.8632545471191406,8.961583093946931,8.85610854345947,35.78656389890988,32.27700736030777,3.237724376958795e-05,0.0924721807241439,0,0,0
2995,104561.80793123788,2010-11-02 19:26:21,1110.5656479485333,2,10,0.5501165986061096,3.86633038520813,8.966169729612297,8.85610854345947,35.80429029786686,32.27700736030777,9.713172767078504e-05,0.0924721807241439,0,0,0
2996,104591.82330589076,2010-11-02 19:26:51,1140.5810226014166,2,10,0.5499359965324402,3.868920564651489,8.970756338043076,8.85610854345947,35.8220298588186,32.27700736030777,6.47544875391759e-05,0.0924721807241439,0,0,0
2997,104621.83835819902,2010-11-02 19:27:21,1170.5960749146907,2,10,0.5501165986061096,3.871834516525269,8.975342881791846,8.85610854345947,35.83978191169959,32.27700736030777,6.47544875391759e-05,0.0924721807241439,0,0,0
2998,104651.85363749388,2010-11-02 19:27:51,1200.6113542045337,2,10,0.5499359965324402,3.874262809753418,8.979929489876074,8.85610854345947,35.857546487725905,32.27700736030777,3.237724376958795e-05,0.0924721807241439,0,0,0
2999,104681.86892893905,2010-11-02 19:28:21,1230.626645659743,2,10,0.550297200679779,3.8770148754119873,8.98451615643971,8.85610854345947,35.87532289733531,32.27700736030777,6.47544875391759e-05,0.0924721807241439,0,0,0
3000,104711.88441695992,2010-11-02 19:28:51,1260.6421336705855,2,10,0.5499359965324402,3.879119396209717,8.989102825490544,8.85610854345947,35.89311037080471,32.27700736030777,3.237724376958795e-05,0.0924721807241439,0,0,0
3001,104741.89950567907,2010-11-02 19:29:21,1290.6572223797093,2,10,0.550297200679779,3.881385803222656,8.993689464836502,8.85610854345947,35.910908096629,32.27700736030777,6.47544875391759e-05,0.0924721807241439,0,0,0
3002,104771.91480351018,2010-11-02 19:29:51,1320.672520220859,2,10,0.550297200679779,3.883652210235596,8.998276198044076,8.85610854345947,35.92871596367272,32.27700736030777,9.713172767078504e-05,0.0924721807241439,0,0,0
3003,104801.93006952188,2010-11-02 19:30:21,1350.6877862225324,2,10,0.5499359965324402,3.885432958602905,9.00286293601506,8.85610854345947,35.94653291867786,32.27700736030777,6.47544875391759e-05,0.0924721807241439,0,0,0
3004,104831.94550926224,2010-11-02 19:30:51,1380.7032259729092,2,10,0.550297200679779,3.887213706970215,9.007449655270047,8.85610854345947,35.964358281178995,32.27700736030777,6.47544875391759e-05,0.0924721807241439,0,0,0
3005,104861.9606648884,2010-11-02 19:31:21,1410.7183815990684,2,10,0.5501165986061096,3.8888325691223145,9.012036285154943,8.85610854345947,35.98219120242304,32.27700736030777,3.237724376958795e-05,0.0924721807241439,0,0,0
3006,104891.97607808748,2010-11-02 19:31:51,1440.7337956502963,2,10,0.5501165986061096,3.890289545059204,9.016623036600324,8.85610854345947,36.0000319501785,32.27700736030777,3.237724376958795e-05,0.0924721807241439,0,0,0
3007,104921.99120249072,2010-11-02 19:32:21,1470.7489192013911,2,10,0.5501165986061096,3.891908407211304,9.021209693238887,8.85610854345947,36.01787927440829,32.27700736030777,6.47544875391759e-05,0.0924721807241439,0,0,0
3008,104952.0066221309,2010-11-02 19:32:51,1500.7643388315448,2,10,0.5501165986061096,3.893203496932984,9.025796456099547,8.85610854345947,36.0357335698586,32.27700736030777,3.237724376958795e-05,0.0924721807241439,0,0,0
3009,104982.02178626329,2010-11-02 19:33:21,1530.7795029639367,2,10,0.550297200679779,3.894660472869873,9.030383210080174,8.85610854345947,36.05359416222818,32.27700736030777,6.47544875391759e-05,0.0924721807241439,0,0,0
3010,105012.03705670104,2010-11-02 19:33:51,1560.794773406696,2,10,0.550297200679779,3.8959555625915527,9.034969919901926,8.85610854345947,36.071460097146,32.27700736030777,9.713172767078504e-05,0.0924721807241439,0,0,0
3011,105042.05233695832,2010-11-02 19:34:21,1590.8100536589411,2,10,0.5501165986061096,3.8970887660980233,9.039556591864788,8.85610854345947,36.08933186118442,32.27700736030777,3.237724376958795e-05,0.0924721807241439,0,0,0
3012,105072.06763805255,2010-11-02 19:34:51,1620.825354763236,2,10,0.5501165986061096,3.898221969604492,9.044143257038046,8.85610854345947,36.10720938773972,32.27700736030777,0.0,0.0924721807241439,0,0,0
3013,105102.0830464146,2010-11-02 19:35:21,1650.8407631252626,2,10,0.5501165986061096,3.899517059326172,9.048729914942053,8.85610854345947,36.12509265154859,32.27700736030777,3.237724376958795e-05,0.0924721807241439,0,0,0
3014,105132.09819045685,2010-11-02 19:35:51,1680.8559071574816,2,10,0.5501165986061096,3.900812149047852,9.053316587606227,8.85610854345947,36.1429816046503,32.27700736030777,3.237724376958795e-05,0.0924721807241439,0,0,0
3015,105162.11347629305,2010-11-02 19:36:21,1710.8711930087024,2,10,0.5501165986061096,3.9021072387695312,9.057903200044787,8.85610854345947,36.160876025942535,32.27700736030777,3.237724376958795e-05,0.0924721807241439,0,0,0
3016,105192.128781673,2010-11-02 19:36:51,1740.8864983836577,2,10,0.5499359965324402,3.903078556060791,9.062489839997372,8.85610854345947,36.17877622931205,32.27700736030777,3.237724376958795e-05,0.0924721807241439,0,0,0
3017,105222.14404319348,2010-11-02 19:37:21,1770.9017599041454,2,10,0.5499359965324402,3.9045355319976807,9.067076376737988,8.85610854345947,36.19668177957385,32.27700736030777,3.237724376958795e-05,0.0924721807241439,0,0,0
3018,105252.15944857305,2010-11-02 19:37:51,1800.91716530879,2,10,0.550297200679779,3.9056687355041504,9.071663087458742,8.85610854345947,36.21459366191144,32.27700736030777,0.0,0.0924721807241439,0,0,0
3019,105282.1746514622,2010-11-02 19:38:21,1830.9323681728624,2,10,0.550297200679779,3.90712571144104,9.076249675353177,8.85610854345947,36.232510865796485,32.27700736030777,3.237724376958795e-05,0.0924721807241439,0,0,0
3020,105312.19003472156,2010-11-02 19:38:51,1860.947751442253,2,10,0.5501165986061096,3.90842080116272,9.080836353758787,8.85610854345947,36.250434236079805,32.27700736030777,6.47544875391759e-05,0.0924721807241439,0,0,0
3021,105342.20530957534,2010-11-02 19:39:21,1890.9630262759736,2,10,0.5501165986061096,3.9097158908844,9.085422994297572,8.85610854345947,36.26836337505021,32.27700736030777,6.47544875391759e-05,0.0924721807241439,0,0,0
3022,105372.22046217394,2010-11-02 19:39:51,1920.9781788745752,2,10,0.5499359965324402,3.911010980606079,9.0900096561358,8.85610854345947,36.28629851202068,32.27700736030777,6.47544875391759e-05,0.0924721807241439,0,0,0
3023,105402.23590237544,2010-11-02 19:40:21,1950.993619091116,2,10,0.5501165986061096,3.912306070327759,9.094596366041776,8.85610854345947,36.3042398433854,32.27700736030777,3.237724376958795e-05,0.0924721807241439,0,0,0
3024,105432.2510769138,2010-11-02 19:40:52,1981.0087936144453,2,10,0.5501165986061096,3.9136011600494394,9.099182987839573,8.85610854345947,36.32218683044741,32.27700736030777,6.47544875391759e-05,0.0924721807241439,0,0,0
3025,105462.26648412796,2010-11-02 19:41:22,2011.0242008636944,2,10,0.5501165986061096,3.914896011352539,9.103769615485906,8.85610854345947,36.340139898598295,32.27700736030777,6.47544875391759e-05,0.0924721807241439,0,0,0
3026,105492.28159745352,2010-11-02 19:41:52,2041.0393141591896,2,10,0.5501165986061096,3.9161911010742183,9.108356302254789,8.85610854345947,36.358099157791486,32.27700736030777,3.237724376958795e-05,0.0924721807241439,0,0,0
3027,105522.29967423134,2010-11-02 19:42:22,2071.057391022205,2,10,0.5501165986061096,3.9174861907958975,9.112943334138864,8.85610854345947,36.37606592932801,32.27700736030777,3.237724376958795e-05,0.0924721807241439,0,0,0
3028,105552.3121864742,2010-11-02 19:42:52,2101.069903184873,2,10,0.5501165986061096,3.918943166732788,9.117529471759775,8.85610854345947,36.39403538528314,32.27700736030777,3.237724376958795e-05,0.0924721807241439,0,0,0
3029,105582.3274595736,2010-11-02 19:43:22,2131.0851762842635,2,10,0.5499359965324402,3.920238256454468,9.122116090528564,8.85610854345947,36.41201302903168,32.27700736030777,0.0,0.0924721807241439,0,0,0
3030,105612.34276013654,2010-11-02 19:43:52,2161.10047685222,2,10,0.5501165986061096,3.921533346176148,9.126702797620249,8.85610854345947,36.42999723684292,32.27700736030777,3.237724376958795e-05,0.0924721807241439,0,0,0
3031,105642.35815026806,2010-11-02 19:44:22,2191.115866973716,2,10,0.550297200679779,3.923152208328247,9.131289480715433,8.85610854345947,36.44798778308788,32.27700736030777,9.713172767078504e-05,0.0924721807241439,0,0,0
3032,105672.37351684076,2010-11-02 19:44:52,2221.131233546429,2,10,0.550297200679779,3.9246091842651367,9.135876093627031,8.85610854345947,36.46598449100792,32.27700736030777,9.713172767078504e-05,0.0924721807241439,0,0,0
3033,105702.38872767976,2010-11-02 19:45:22,2251.1464443904206,2,10,0.5501165986061096,3.925904273986816,9.140462717139318,8.85610854345947,36.48398780781013,32.27700736030777,3.237724376958795e-05,0.0924721807241439,0,0,0
3034,105732.40401031297,2010-11-02 19:45:52,2281.1617270185966,2,10,0.5499359965324402,3.927199363708496,9.145049350649517,8.85610854345947,36.50199752584667,32.27700736030777,0.0,0.0924721807241439,0,0,0
3035,105762.41916668096,2010-11-02 19:46:22,2311.17688339162,2,10,0.5501165986061096,3.928818225860596,9.149635933431073,8.85610854345947,36.52001371595521,32.27700736030777,6.47544875391759e-05,0.0924721807241439,0,0,0
3036,105792.43446636671,2010-11-02 19:46:52,2341.192183077374,2,10,0.5501165986061096,3.9301133155822754,9.1542225574759,8.85610854345947,36.53803671092881,32.27700736030777,0.0,0.0924721807241439,0,0,0
3037,105822.4498814455,2010-11-02 19:47:22,2371.2075981561666,2,10,0.550297200679779,3.931732177734375,9.158809247594032,8.85610854345947,36.55606670075504,32.27700736030777,6.47544875391759e-05,0.0924721807241439,0,0,0
3038,105852.46501744266,2010-11-02 19:47:52,2401.222734153329,2,10,0.5499359965324402,3.933027267456055,9.163395827880237,8.85610854345947,36.5741030757347,32.27700736030777,0.0,0.0924721807241439,0,0,0
3039,105882.48030762972,2010-11-02 19:48:22,2431.238024330348,2,10,0.5501165986061096,3.9346461296081534,9.16798249778842,8.85610854345947,36.592146574378354,32.27700736030777,0.0,0.0924721807241439,0,0,0
3040,105912.49559974157,2010-11-02 19:48:52,2461.253316447209,2,10,0.550297200679779,3.936264991760254,9.1725692070947,8.85610854345947,36.61019716289937,32.27700736030777,6.47544875391759e-05,0.0924721807241439,0,0,0
3041,105942.51087921184,2010-11-02 19:49:22,2491.268595922514,2,10,0.5501165986061096,3.937721967697144,9.177155857850648,8.85610854345947,36.6282542536992,32.27700736030777,6.47544875391759e-05,0.0924721807241439,0,0,0
3042,105972.52615441648,2010-11-02 19:49:52,2521.28387112716,2,10,0.5501165986061096,3.939178943634033,9.181742506803657,8.85610854345947,36.64631843834139,32.27700736030777,3.237724376958795e-05,0.0924721807241439,0,0,0
3043,106002.54147341044,2010-11-02 19:50:22,2551.29919012111,2,10,0.5501165986061096,3.940797805786133,9.186329157513375,8.85610854345947,36.66438972489584,32.27700736030777,0.0,0.0924721807241439,0,0,0
3044,106032.55672255503,2010-11-02 19:50:52,2581.314439270718,2,10,0.550297200679779,3.9425785541534415,9.190915918630608,8.85610854345947,36.68246852071408,32.27700736030777,9.713172767078504e-05,0.0924721807241439,0,0,0
3045,106062.5719909978,2010-11-02 19:51:22,2611.3297077084726,2,10,0.5501165986061096,3.943711757659912,9.195502535307345,8.85610854345947,36.70055391109003,32.27700736030777,0.0,0.0924721807241439,0,0,0
3046,106092.58739434232,2010-11-02 19:51:52,2641.3451110529745,2,10,0.5501165986061096,3.9454925060272217,9.200089232944665,8.85610854345947,36.71864690497579,32.27700736030777,3.237724376958795e-05,0.0924721807241439,0,0,0
3047,106122.60254880556,2010-11-02 19:52:22,2671.360265521243,2,10,0.5501165986061096,3.9469494819641113,9.20467596970282,8.85610854345947,36.73674738509927,32.27700736030777,0.0,0.0924721807241439,0,0,0
3048,106152.61786820552,2010-11-02 19:52:52,2701.3755849161944,2,10,0.5499359965324402,3.948568344116211,9.20926262820406,8.85610854345947,36.75485492664732,32.27700736030777,3.237724376958795e-05,0.0924721807241439,0,0,0
3049,106182.63312416212,2010-11-02 19:53:22,2731.390840862769,2,10,0.5501165986061096,3.950349092483521,9.2138492674729,8.85610854345947,36.77296984643085,32.27700736030777,3.237724376958795e-05,0.0924721807241439,0,0,0
3050,106212.64841794816,2010-11-02 19:53:52,2761.406134658821,2,10,0.550297200679779,3.95212984085083,9.218435936763216,8.85610854345947,36.791092452008336,32.27700736030777,6.47544875391759e-05,0.0924721807241439,0,0,0
3051,106242.66371978428,2010-11-02 19:54:22,2791.421436489931,2,10,0.550297200679779,3.9537487030029297,9.223022566090023,8.85610854345947,36.80922243605622,32.27700736030777,6.47544875391759e-05,0.0924721807241439,0,0,0
3052,106272.67902652264,2010-11-02 19:54:52,2821.436743238314,2,10,0.5501165986061096,3.9552056789398193,9.227609253633508,8.85610854345947,36.82736033612314,32.27700736030777,0.0,0.0924721807241439,0,0,0
3053,106302.69443348616,2010-11-02 19:55:22,2851.452150196837,2,10,0.550297200679779,3.957148313522339,9.232195959940611,8.85610854345947,36.84550602758081,32.27700736030777,9.713172767078504e-05,0.0924721807241439,0,0,0
3054,106332.70955952346,2010-11-02 19:55:52,2881.467276229126,2,10,0.5499359965324402,3.958605289459229,9.236782561460377,8.85610854345947,36.86365891494373,32.27700736030777,3.237724376958795e-05,0.0924721807241439,0,0,0
3055,106362.72483486346,2010-11-02 19:56:22,2911.4825515640964,2,10,0.5501165986061096,3.960386037826538,9.241369232178757,8.85610854345947,36.88182002668084,32.27700736030777,3.237724376958795e-05,0.0924721807241439,0,0,0
3056,106392.7402556114,2010-11-02 19:56:52,2941.497972317053,2,10,0.550297200679779,3.962166786193848,9.245955924005916,8.85610854345947,36.89998918851278,32.27700736030777,6.47544875391759e-05,0.0924721807241439,0,0,0
3057,106422.7554172626,2010-11-02 19:57:22,2971.513133968251,2,10,0.5501165986061096,3.963947534561157,9.250542680051204,8.85610854345947,36.9181665468519,32.27700736030777,9.713172767078504e-05,0.0924721807241439,0,0,0
3058,106452.77075150462,2010-11-02 19:57:52,3001.528468215276,2,10,0.5499359965324402,3.965728282928467,9.255129432402793,8.85610854345947,36.93635195105215,32.27700736030777,9.713172767078504e-05,0.0924721807241439,0,0,0
3059,106482.7859692007,2010-11-02 19:58:22,3031.5436859063584,2,10,0.5499359965324402,3.967185258865357,9.259716105302688,8.85610854345947,36.95454514557935,32.27700736030777,0.0,0.0924721807241439,0,0,0
3060,106512.80149236428,2010-11-02 19:58:52,3061.55920907496,2,10,0.5499359965324402,3.969127893447876,9.264302877859098,8.85610854345947,36.97274683646671,32.27700736030777,3.237724376958795e-05,0.0924721807241439,0,0,0
3061,106542.81662429632,2010-11-02 19:59:22,3091.5743410019627,2,10,0.5499359965324402,3.9709086418151855,9.26888929859636,8.85610854345947,36.99095536606988,32.27700736030777,0.0,0.0924721807241439,0,0,0
3062,106572.83190782674,2010-11-02 19:59:52,3121.589624537403,2,10,0.5499359965324402,3.972851276397705,9.27347523718602,8.85610854345947,37.00917020571436,32.27700736030777,6.47544875391759e-05,0.0924721807241439,0,0,0
3063,106602.8470840794,2010-11-02 20:00:22,3151.6048007850363,2,10,0.5499359965324402,3.9744701385498047,9.278061321914365,8.85610854345947,37.02739410222544,32.27700736030777,0.0,0.0924721807241439,0,0,0
3064,106632.86238839167,2010-11-02 20:00:52,3181.620105102352,2,10,0.5501165986061096,3.976574659347534,9.282647233716675,8.85610854345947,37.045625730814166,32.27700736030777,6.47544875391759e-05,0.0924721807241439,0,0,0
3065,106662.87768004238,2010-11-02 20:01:22,3211.635396753049,2,10,0.5501165986061096,3.978031635284424,9.287233228849384,8.85610854345947,37.063865969451605,32.27700736030777,3.237724376958795e-05,0.0924721807241439,0,0,0
3066,106692.89306511628,2010-11-02 20:01:52,3241.6507818219325,2,10,0.5501165986061096,3.9802980422973633,9.291819085001126,8.85610854345947,37.08211457308606,32.27700736030777,6.47544875391759e-05,0.0924721807241439,0,0,0
3067,106722.90823537896,2010-11-02 20:02:22,3271.6659520846265,2,10,0.5499359965324402,3.982240676879883,9.296405037528306,8.85610854345947,37.10037233526318,32.27700736030777,3.237724376958795e-05,0.0924721807241439,0,0,0
3068,106752.92354974136,2010-11-02 20:02:52,3301.681266447016,2,10,0.5501165986061096,3.9841833114624015,9.300991758970554,8.85610854345947,37.11864203429395,32.27700736030777,9.713172767078504e-05,0.0924721807241439,0,0,0
3069,106782.93880334708,2010-11-02 20:03:22,3331.696520052747,2,10,0.550297200679779,3.986125946044922,9.305578518692847,8.85610854345947,37.136920711244166,32.27700736030777,9.713172767078504e-05,0.0924721807241439,0,0,0
3070,106812.95462412358,2010-11-02 20:03:52,3361.712340854286,2,10,0.5499359965324402,3.987906694412232,9.310165345408995,8.85610854345947,37.15520862519987,32.27700736030777,6.47544875391759e-05,0.0924721807241439,0,0,0
3071,106842.96938441288,2010-11-02 20:04:22,3391.727101113549,2,10,0.5501165986061096,3.990011215209961,9.314751968225268,8.85610854345947,37.17350449825876,32.27700736030777,9.713172767078504e-05,0.0924721807241439,0,0,0
3072,106872.98468995828,2010-11-02 20:04:52,3421.7424066689546,2,10,0.5501165986061096,3.9917919635772714,9.319338728323196,8.85610854345947,37.19180996737342,32.27700736030777,0.0,0.0924721807241439,0,0,0
3073,106902.99996184466,2010-11-02 20:05:22,3451.7576785503043,2,10,0.5501165986061096,3.99373459815979,9.323925494267634,8.85610854345947,37.21012454855156,32.27700736030777,3.237724376958795e-05,0.0924721807241439,0,0,0
3074,106933.01524977609,2010-11-02 20:05:52,3481.772966491743,2,10,0.550297200679779,3.9960007667541504,9.328512184168128,8.85610854345947,37.22844804207849,32.27700736030777,3.237724376958795e-05,0.0924721807241439,0,0,0
3075,106963.03054222876,2010-11-02 20:06:22,3511.78825893943,2,10,0.550297200679779,3.99810528755188,9.333098876328444,8.85610854345947,37.246780897583314,32.27700736030777,9.713172767078504e-05,0.0924721807241439,0,0,0
3076,106993.04584574907,2010-11-02 20:06:52,3541.803562459755,2,10,0.5501165986061096,4.0000481605529785,9.337685647238317,8.85610854345947,37.26512340954386,32.27700736030777,6.480216688942164e-05,0.0924721807241439,0,0,0
3077,107023.06127013107,2010-11-02 20:07:22,3571.8189868417703,2,10,0.5501165986061096,4.002314567565918,9.34227242555178,8.85610854345947,37.283475586811406,32.27700736030777,9.71794142969884e-05,0.0924721807241439,0,0,0
3078,107053.07643143144,2010-11-02 20:07:52,3601.834148142093,2,10,0.5501165986061096,4.004418849945068,9.346859188911262,8.85610854345947,37.301837369910345,32.27700736030777,9.70840483205393e-05,0.0924721807241439,0,0,0
3079,107083.0917391372,2010-11-02 20:08:22,3631.8494558478665,2,10,0.5499359965324402,4.006361484527588,9.351445921964787,8.85610854345947,37.32020878358968,32.27700736030777,6.47544875391759e-05,0.0924721807241439,0,0,0
3080,107113.10702551974,2010-11-02 20:08:52,3661.8647422254016,2,10,0.5499359965324402,4.0084662437438965,9.356032672626815,8.85610854345947,37.33859016278517,32.27700736030777,3.24249267578125e-05,0.0924721807241439,0,0,0
3081,107143.12231233838,2010-11-02 20:09:22,3691.880029049049,2,10,0.5501165986061096,4.010732650756836,9.360619467111809,8.85610854345947,37.35698155620247,32.27700736030777,3.24249267578125e-05,0.0924721807241439,0,0,0
3082,107173.13760552793,2010-11-02 20:09:52,3721.895322238587,2,10,0.5501165986061096,4.012999057769775,9.365206216936889,8.85610854345947,37.37538291170604,32.27700736030777,6.47544875391759e-05,0.0924721807241439,0,0,0
3083,107203.15292960955,2010-11-02 20:10:22,3751.910646320237,2,10,0.5499359965324402,4.015265464782715,9.36979302477294,8.85610854345947,37.393794722011535,32.27700736030777,9.71794142969884e-05,0.0924721807241439,0,0,0
3084,107233.16823394694,2010-11-02 20:10:52,3781.925950657602,2,10,0.5501165986061096,4.017369747161865,9.374379858541593,8.85610854345947,37.412216957239295,32.27700736030777,3.23295607813634e-05,0.0924721807241439,0,0,0
3085,107263.18364307588,2010-11-02 20:11:22,3811.941359786544,2,10,0.5501165986061096,4.019798278808594,9.378966682943922,8.85610854345947,37.43064953120732,32.27700736030777,9.71794142969884e-05,0.0924721807241439,0,0,0
3086,107293.19879310306,2010-11-02 20:11:52,3841.9565098387898,2,10,0.5501165986061096,4.022064685821533,9.383553421710673,8.85610854345947,37.44909232471347,32.27700736030777,9.71794142969884e-05,0.0924721807241439,0,0,0
3087,107323.21419828212,2010-11-02 20:12:22,3871.97191497276,2,10,0.550297200679779,4.024331092834473,9.388140176199116,8.85610854345947,37.46754585219904,32.27700736030777,3.24249267578125e-05,0.0924721807241439,0,0,0
3088,107353.22945957708,2010-11-02 20:12:53,3901.9871762827206,2,10,0.5501165986061096,4.026921272277832,9.392726928915382,8.85610854345947,37.48601002616751,32.27700736030777,9.71794142969884e-05,0.0924721807241439,0,0,0
3089,107383.2448496735,2010-11-02 20:13:23,3932.0025663891793,2,10,0.5501165986061096,4.029187679290772,9.39731367968237,8.85610854345947,37.504485009188365,32.27700736030777,9.71794142969884e-05,0.0924721807241439,0,0,0
3090,107413.26003435718,2010-11-02 20:13:53,3962.0177510678577,2,10,0.5501165986061096,4.031454086303711,9.40190037452189,8.85610854345947,37.52297051072955,32.27700736030777,3.24249267578125e-05,0.0924721807241439,0,0,0
3091,107443.27795117573,2010-11-02 20:14:23,3992.035667971591,2,10,0.5501165986061096,4.033882141113281,9.40648747918148,8.85610854345947,37.54146868938465,32.27700736030777,6.47544875391759e-05,0.0924721807241439,0,0,0
3092,107473.29068868088,2010-11-02 20:14:53,4022.048405391535,2,10,0.550297200679779,4.036472320556641,9.4110738218178,8.85610854345947,37.55997484800648,32.27700736030777,0.0001295089750783,0.0924721807241439,0,0,0
3093,107503.3059501362,2010-11-02 20:15:23,4052.0636668518728,2,10,0.5499359965324402,4.03873872756958,9.41566058344224,8.85610854345947,37.57849387097245,32.27700736030777,6.47544875391759e-05,0.0924721807241439,0,0,0
3094,107533.32124250368,2010-11-02 20:15:53,4082.078959234396,2,10,0.5501165986061096,4.04116678237915,9.420247317693232,8.85610854345947,37.59702387794201,32.27700736030777,6.47544875391759e-05,0.0924721807241439,0,0,0
3095,107563.33653878594,2010-11-02 20:16:23,4112.094255501617,2,10,0.5501165986061096,4.043595314025879,9.424834028275717,8.85610854345947,37.61556509782682,32.27700736030777,6.47544875391759e-05,0.0924721807241439,0,0,0
3096,107593.35205688688,2010-11-02 20:16:53,4142.109773622619,2,10,0.5499359965324402,4.046023368835449,9.429420787046334,8.85610854345947,37.63411796171395,32.27700736030777,6.47544875391759e-05,0.0924721807241439,0,0,0
3097,107623.36717934524,2010-11-02 20:17:23,4172.124896080986,2,10,0.5501165986061096,4.048613548278809,9.434007464188468,8.85610854345947,37.65268210305232,32.27700736030777,3.23295607813634e-05,0.0924721807241439,0,0,0
3098,107653.38270895492,2010-11-02 20:17:53,4202.140425780892,2,10,0.5501165986061096,4.051527500152588,9.438594267768444,8.85610854345947,37.67125842598411,32.27700736030777,0.0001295089750783,0.0924721807241439,0,0,0
3099,107683.39775538852,2010-11-02 20:18:23,4232.155472099202,2,10,0.550297200679779,4.054117679595947,9.443180978144444,8.85610854345947,37.68984619082715,32.27700736030777,0.0001295089750783,0.0924721807241439,0,0,0
3100,107713.41321840198,2010-11-02 20:18:53,4262.170935122672,2,10,0.5501165986061096,4.056384086608887,9.447767771693634,8.85610854345947,37.7084461905328,32.27700736030777,6.47544875391759e-05,0.0924721807241439,0,0,0
3101,107743.42835824876,2010-11-02 20:19:23,4292.18607496443,2,10,0.5499359965324402,4.058974266052246,9.452354513760968,8.85610854345947,37.727057913048576,32.27700736030777,3.23295607813634e-05,0.0924721807241439,0,0,0
3102,107773.44367097205,2010-11-02 20:19:53,4322.201387682715,2,10,0.5501165986061096,4.0615644454956055,9.456941425540029,8.85610854345947,37.74568223007728,32.27700736030777,6.47544875391759e-05,0.0924721807241439,0,0,0
3103,107803.45896904376,2010-11-02 20:20:23,4352.216685759453,2,10,0.5501165986061096,4.064316749572754,9.461528150598625,8.85610854345947,37.764317875650725,32.27700736030777,9.71794142969884e-05,0.0924721807241439,0,0,0
3104,107833.4742906743,2010-11-02 20:20:53,4382.232007384972,2,10,0.5501165986061096,4.066906929016113,9.466114931931896,8.85610854345947,37.78296607031034,32.27700736030777,3.24249267578125e-05,0.0924721807241439,0,0,0
3105,107863.48958786383,2010-11-02 20:21:23,4412.247304574496,2,10,0.550297200679779,4.069820880889893,9.470701590946204,8.85610854345947,37.8016261320516,32.27700736030777,9.71794142969884e-05,0.0924721807241439,0,0,0
3106,107893.50489815103,2010-11-02 20:21:53,4442.262614861713,2,10,0.5501165986061096,4.072411060333252,9.4752883171182,8.85610854345947,37.8202990002729,32.27700736030777,3.24249267578125e-05,0.0924721807241439,0,0,0
3107,107923.5202098969,2010-11-02 20:22:23,4472.27792660757,2,10,0.550297200679779,4.075325012207031,9.479875017691285,8.85610854345947,37.83898440559306,32.27700736030777,0.0001295089750783,0.0924721807241439,0,0,0
3108,107953.53551370294,2010-11-02 20:22:53,4502.2932304186215,2,10,0.5499359965324402,4.077915191650391,9.484461794256992,8.85610854345947,37.85768291881736,32.27700736030777,6.47544875391759e-05,0.0924721807241439,0,0,0
3109,107983.5507623062,2010-11-02 20:23:23,4532.308479016853,2,10,0.5501165986061096,4.080990791320801,9.489048562575032,8.85610854345947,37.87639436275813,32.27700736030777,0.0001295089750783,0.0924721807241439,0,0,0
3110,108013.56609976622,2010-11-02 20:23:53,4562.32381648191,2,10,0.5499359965324402,4.083743095397949,9.49363523285746,8.85610854345947,37.89511833951937,32.27700736030777,6.47544875391759e-05,0.0924721807241439,0,0,0
3111,108043.58139987304,2010-11-02 20:24:23,4592.339116583703,2,10,0.550297200679779,4.086818695068359,9.498221877274275,8.85610854345947,37.9138553599798,32.27700736030777,0.0001295089750783,0.0924721807241439,0,0,0
3112,108073.59676760364,2010-11-02 20:24:53,4622.354484314307,2,10,0.5501165986061096,4.089408874511719,9.50280864085216,8.85610854345947,37.93260607727487,32.27700736030777,6.47544875391759e-05,0.0924721807241439,0,0,0
3113,108103.61207377056,2010-11-02 20:25:23,4652.36979048124,2,10,0.5501165986061096,4.092322826385498,9.507395391818669,8.85610854345947,37.95137009246791,32.27700736030777,9.70840483205393e-05,0.0924721807241439,0,0,0
3114,108133.62763664828,2010-11-02 20:25:53,4682.385353474249,2,10,0.5501165986061096,4.095236778259277,9.511982164450004,8.85610854345947,37.97014772262761,32.27700736030777,6.47544875391759e-05,0.0924721807241439,0,0,0
3115,108163.6426836884,2010-11-02 20:26:23,4712.400400399073,2,10,0.550297200679779,4.098474502563477,9.51656885992784,8.85610854345947,37.98893864223995,32.27700736030777,9.70840483205393e-05,0.0924721807241439,0,0,0
3116,108193.6580643162,2010-11-02 20:26:53,4742.415781969223,2,10,0.550297200679779,4.101388454437256,9.52115560443497,8.85610854345947,38.00774343237831,32.27700736030777,6.47544875391759e-05,0.0924721807241439,0,0,0
3117,108223.67343141022,2010-11-02 20:27:23,4772.431148125899,2,10,0.5499359965324402,4.104140758514404,9.525742402655384,8.85610854345947,38.026562177495805,32.27700736030777,3.24249267578125e-05,0.0924721807241439,0,0,0
3118,108253.6887323491,2010-11-02 20:27:53,4802.446449089844,2,10,0.5501165986061096,4.107540130615234,9.530329122790045,8.85610854345947,38.04539461676749,32.27700736030777,0.0001295089750783,0.0924721807241439,0,0,0
3119,108283.70391454158,2010-11-02 20:28:23,4832.461631252241,2,10,0.5501165986061096,4.110454082489014,9.534915890277668,8.85610854345947,38.064241221411066,32.27700736030777,6.47544875391759e-05,0.0924721807241439,0,0,0
3120,108313.7192410593,2010-11-02 20:28:53,4862.476957779997,2,10,0.5499359965324402,4.113530158996582,9.539502598920627,8.85610854345947,38.08310173938488,32.27700736030777,6.47544875391759e-05,0.0924721807241439,0,0,0
3121,108343.73455376756,2010-11-02 20:29:23,4892.492270478232,2,10,0.5501165986061096,4.116605758666992,9.544089295123785,8.85610854345947,38.101976565962815,32.27700736030777,9.71794142969884e-05,0.0924721807241439,0,0,0
3122,108373.7499696283,2010-11-02 20:29:53,4922.507686338977,2,10,0.550297200679779,4.120005130767822,9.54867602460275,8.85610854345947,38.12086598249916,32.27700736030777,0.0001295089750783,0.0924721807241439,0,0,0
3123,108403.76516450744,2010-11-02 20:30:23,4952.522881218118,2,10,0.5501165986061096,4.122919082641602,9.553262797647632,8.85610854345947,38.13977010323918,32.27700736030777,6.47544875391759e-05,0.0924721807241439,0,0,0
3124,108433.78089596095,2010-11-02 20:30:53,4982.5386126766425,2,10,0.5501165986061096,4.12631893157959,9.55784961751004,8.85610854345947,38.15868899188184,32.27700736030777,9.71794142969884e-05,0.0924721807241439,0,0,0
3125,108463.7957690218,2010-11-02 20:31:23,5012.553485717425,2,10,0.5501165986061096,4.12971830368042,9.562436281630593,8.85610854345947,38.177622039375805,32.27700736030777,0.0001295089750783,0.0924721807241439,0,0,0
3126,108493.81120190505,2010-11-02 20:31:53,5042.568918615699,2,10,0.5501165986061096,4.132632255554199,9.567023053847125,8.85610854345947,38.196570519216365,32.27700736030777,6.47544875391759e-05,0.0924721807241439,0,0,0
3127,108523.82639133056,2010-11-02 20:32:23,5072.584108041226,2,10,0.5501165986061096,4.136032104492188,9.571609875402205,8.85610854345947,38.21553409066,32.27700736030777,6.47544875391759e-05,0.0924721807241439,0,0,0
3128,108553.84203620296,2010-11-02 20:32:53,5102.599752913619,2,10,0.5499359965324402,4.139269828796387,9.57619671025221,8.85610854345947,38.23451284263461,32.27700736030777,6.47544875391759e-05,0.0924721807241439,0,0,0
3129,108583.85701580472,2010-11-02 20:33:23,5132.614732515393,2,10,0.550297200679779,4.142669200897217,9.580783457341727,8.85610854345947,38.25350657202531,32.27700736030777,6.47544875391759e-05,0.0924721807241439,0,0,0
3130,108613.8723194604,2010-11-02 20:33:53,5162.630036171058,2,10,0.5501165986061096,4.146230697631836,9.585370294044052,8.85610854345947,38.27251622153816,32.27700736030777,9.70840483205393e-05,0.0924721807241439,0,0,0
3131,108643.88765308584,2010-11-02 20:34:23,5192.645369796531,2,10,0.550297200679779,4.149630546569824,9.589957093339066,8.85610854345947,38.29154135112293,32.27700736030777,9.71794142969884e-05,0.0924721807241439,0,0,0
3132,108673.90307237516,2010-11-02 20:34:53,5222.660789201121,2,10,0.5501165986061096,4.152868270874023,9.594543916751148,8.85610854345947,38.31058223908036,32.27700736030777,9.71794142969884e-05,0.0924721807241439,0,0,0
3133,108703.91825162029,2010-11-02 20:35:23,5252.675968330949,2,10,0.5501165986061096,4.1562676429748535,9.59913061240259,8.85610854345947,38.32963824976202,32.27700736030777,6.47544875391759e-05,0.0924721807241439,0,0,0
3134,108733.93368816766,2010-11-02 20:35:53,5282.691404878331,2,10,0.550297200679779,4.159829139709473,9.603717393885155,8.85610854345947,38.34871041872711,32.27700736030777,9.70840483205393e-05,0.0924721807241439,0,0,0
3135,108763.94888693652,2010-11-02 20:36:23,5312.706603652193,2,10,0.5501165986061096,4.163228988647461,9.608304134323005,8.85610854345947,38.36779838152805,32.27700736030777,6.47544875391759e-05,0.0924721807241439,0,0,0
3136,108793.96419610594,2010-11-02 20:36:53,5342.721912816607,2,10,0.5501165986061096,4.16679048538208,9.612890936078008,8.85610854345947,38.386902523030926,32.27700736030777,9.71794142969884e-05,0.0924721807241439,0,0,0
3137,108823.9794963932,2010-11-02 20:37:23,5372.737213108876,2,10,0.5501165986061096,4.17018985748291,9.617477687475352,8.85610854345947,38.40602266040264,32.27700736030777,6.47544875391759e-05,0.0924721807241439,0,0,0
3138,108853.99480248996,2010-11-02 20:37:53,5402.752519200621,2,10,0.550297200679779,4.173913478851318,9.622064427612647,8.85610854345947,38.42515900743925,32.27700736030777,9.71794142969884e-05,0.0924721807241439,0,0,0
3139,108884.01011421076,2010-11-02 20:38:23,5432.767830926427,2,10,0.5501165986061096,4.1774749755859375,9.62665110103638,8.85610854345947,38.44431142540723,32.27700736030777,9.71794142969884e-05,0.0924721807241439,0,0,0
3140,108914.02543736006,2010-11-02 20:38:53,5462.7831540707375,2,10,0.550297200679779,4.181198120117188,9.631237776413524,8.85610854345947,38.463480208929326,32.27700736030777,0.0001295089750783,0.0924721807241439,0,0,0
3141,108944.04088132097,2010-11-02 20:39:23,5492.79859804165,2,10,0.5501165986061096,4.184597969055176,9.635824586770685,8.85610854345947,38.48266608453806,32.27700736030777,6.47544875391759e-05,0.0924721807241439,0,0,0
3142,108974.05620365324,2010-11-02 20:39:53,5522.813920368921,2,10,0.5499359965324402,4.188159465789795,9.640411361262696,8.85610854345947,38.50186838619297,32.27700736030777,9.71794142969884e-05,0.0924721807241439,0,0,0
3143,109004.07136198114,2010-11-02 20:40:23,5552.829078701836,2,10,0.5501165986061096,4.191882610321045,9.644998071455218,8.85610854345947,38.5210872312601,32.27700736030777,9.70840483205393e-05,0.0924721807241439,0,0,0
3144,109034.08670287977,2010-11-02 20:40:53,5582.844419595452,2,10,0.5501165986061096,4.195444107055664,9.649584804724498,8.85610854345947,38.54032306169268,32.27700736030777,9.71794142969884e-05,0.0924721807241439,0,0,0
3145,109064.10198201925,2010-11-02 20:41:23,5612.859698729906,2,10,0.5501165986061096,4.199491024017334,9.654171543018128,8.85610854345947,38.55957581122593,32.27700736030777,9.70840483205393e-05,0.0924721807241439,0,0,0
3146,109068.27397270984,2010-11-02 20:41:28,5617.031689420514,2,10,0.5501165986061096,4.200138568878174,9.65480908326236,8.85610854345947,38.5622532362912,32.27700736030777,0.0001618385285837,0.0924721807241439,0,0,0
3147,109098.29145479556,2010-11-02 20:41:58,30.015357274504435,3,10,0.0,4.116443634033203,9.65480908326236,8.85610854345947,38.5622532362912,32.27700736030777,-0.0003885269106831,0.0924721807241439,0,0,0
3148,109128.30671055168,2010-11-02 20:42:28,60.03061303060331,3,10,0.0,4.106245040893555,9.65480908326236,8.85610854345947,38.5622532362912,32.27700736030777,-0.0001942634553415,0.0924721807241439,0,0,0
3149,109158.32202158574,2010-11-02 20:42:58,90.04592406468454,3,10,0.0,4.100255489349365,9.65480908326236,8.85610854345947,38.5622532362912,32.27700736030777,-0.0001295089750783,0.0924721807241439,0,0,0
3150,109188.29065729104,2010-11-02 20:43:28,120.01455976996424,3,10,0.0,4.096370220184326,9.65480908326236,8.85610854345947,38.5622532362912,32.27700736030777,-6.47544875391759e-05,0.0924721807241439,0,0,0
3151,109188.29399585474,2010-11-02 20:43:28,2.621543777e-06,4,10,0.9906226396560668,4.199653148651123,9.654809083983736,8.85610854345947,38.56225323932074,32.27700736030777,0.0,0.0924721807241439,0,0,0
3152,109189.12224688171,2010-11-02 20:43:29,0.828253668580418,4,10,0.9395102262496948,4.199653148651123,9.655029328873,8.85610854345947,38.563178196129336,32.27700736030777,0.0,0.0924721807241439,0,0,0
3153,109191.200219075,2010-11-02 20:43:31,2.906225861862881,4,10,0.8894814252853394,4.199653148651123,9.655555886401144,8.85610854345947,38.56538955700167,32.27700736030777,0.0,0.0924721807241439,0,0,0
3154,109194.35643412836,2010-11-02 20:43:34,6.062440915207576,4,10,0.8392720818519592,4.199653148651123,9.656312399834404,8.85610854345947,38.568566678764284,32.27700736030777,0.0,0.0924721807241439,0,0,0
3155,109198.74702300366,2010-11-02 20:43:38,10.453029790515556,4,10,0.7890626788139343,4.199653148651123,9.657304121563628,8.85610854345947,38.57273160297946,32.27700736030777,0.0,0.0924721807241439,0,0,0
3156,109204.51257936434,2010-11-02 20:43:44,16.218586151200494,4,10,0.7390339374542236,4.199653148651123,9.658526253177872,8.85610854345947,38.57786419211235,32.27700736030777,0.0,0.0924721807241439,0,0,0
3157,109211.99699714256,2010-11-02 20:43:52,23.70300404471161,4,10,0.6890051364898682,4.199653148651123,9.660008615073195,8.85610854345947,38.58408967130428,32.27700736030777,-3.23295607813634e-05,0.0924721807241439,0,0,0
3158,109222.01241223948,2010-11-02 20:44:02,33.718419046388874,4,10,0.6389763951301575,4.199814796447754,9.661852850239343,8.85610854345947,38.59183490546942,32.27700736030777,3.23295607813634e-05,0.0924721807241439,0,0,0
3159,109236.09050458884,2010-11-02 20:44:16,47.796511385728216,4,10,0.588947594165802,4.199653148651123,9.664248259631604,8.85610854345947,38.60189491349364,32.27700736030777,-3.23295607813634e-05,0.0924721807241439,0,0,0
3160,109257.55892019204,2010-11-02 20:44:37,69.2649269788819,4,10,0.5389188528060913,4.199491024017334,9.667600785580014,8.85610854345947,38.61597456176862,32.27700736030777,-3.24249267578125e-05,0.0924721807241439,0,0,0
3161,109294.71477494178,2010-11-02 20:45:14,106.42078173864762,4,10,0.4888900816440582,4.199653148651123,9.672880219644112,8.85610854345947,38.63814664099979,32.27700736030777,3.24249267578125e-05,0.0924721807241439,0,0,0
3162,109360.9330980236,2010-11-02 20:46:21,172.6391048405443,4,10,0.4388613104820251,4.199653148651123,9.681375596578595,8.85610854345947,38.6738247603397,32.27700736030777,0.0,0.0924721807241439,0,0,0
3163,109459.96317321667,2010-11-02 20:48:00,271.6691800135723,4,10,0.388832539319992,4.199653148651123,9.692735124633046,8.85610854345947,38.72153148007938,32.27700736030777,0.0,0.0924721807241439,0,0,0
3164,109582.91488248868,2010-11-02 20:50:02,394.6208892805502,4,10,0.3386231362819671,4.199653148651123,9.705145287252746,8.85610854345947,38.77365062226668,32.27700736030777,3.24249267578125e-05,0.0924721807241439,0,0,0
3165,109728.77274319869,2010-11-02 20:52:28,540.4787499905534,4,10,0.2885943949222564,4.199814796447754,9.71784229926323,8.85610854345947,38.82697440982759,32.27700736030777,0.0,0.0924721807241439,0,0,0
3166,109905.11479937044,2010-11-02 20:55:25,716.8208061572927,4,10,0.2385656088590622,4.199491024017334,9.730730580270375,8.85610854345947,38.88110155158604,32.27700736030777,0.0,0.0924721807241439,0,0,0
3167,110120.56556736864,2010-11-02 20:59:00,932.2715741655132,4,10,0.1883562356233596,4.199653148651123,9.743458942587573,8.85610854345947,38.934557091386026,32.27700736030777,-3.23295607813634e-05,0.0924721807241439,0,0,0
3168,110409.65630416316,2010-11-02 21:03:49,1221.3623109500252,4,10,0.1383274644613266,4.199653148651123,9.756483680246657,8.85610854345947,38.989257211891406,32.27700736030777,0.0,0.0924721807241439,0,0,0
3169,110848.93311291386,2010-11-02 21:11:09,1660.6391197107396,4,10,0.0882986932992935,4.199653148651123,9.770087912889482,8.85610854345947,39.046391116519295,32.27700736030777,3.24249267578125e-05,0.0924721807241439,0,0,0
3170,111465.80157778,2010-11-02 21:21:25,2277.507584591924,4,10,0.0498289167881011,4.199653148651123,9.781621782276524,8.85610854345947,39.09483002110435,32.27700736030777,-3.23295607813634e-05,0.0924721807241439,0,0,0
3171,111495.82053488196,2010-11-02 21:21:56,30.015192022008787,5,10,0.0,4.192044734954834,9.781621782276524,8.85610854345947,39.09483002110435,32.27700736030777,0.0,0.0924721807241439,0,0,0
3172,111525.8203594745,2010-11-02 21:22:26,60.0150166145494,5,10,0.0,4.190749645233154,9.781621782276524,8.85610854345947,39.09483002110435,32.27700736030777,-3.23295607813634e-05,0.0924721807241439,0,0,0
3173,111526.012106698,2010-11-02 21:22:26,0.187493482577665,6,10,-1.9243103452026844e-05,4.190749645233154,9.781621782276524,8.85610854446168,39.09483002110435,32.27700736450778,0.0,0.0923885703086853,0,0,0
3174,111530.84019353052,2010-11-02 21:22:31,5.01558032511924,6,10,0.0007031940040178,4.190911293029785,9.781622664466337,8.85610854479489,39.09483371829448,32.27700736590422,-3.24249267578125e-05,0.0923885703086853,0,0,0
3175,111560.85211293335,2010-11-02 21:23:01,30.01530410177713,7,10,-1.0997490882873535,4.018503189086914,9.781622664466337,8.865277395656587,39.09483371829448,32.31404484164969,-0.0009065627818927,0.0923885703086853,0,0,0
3176,111590.86740576704,2010-11-02 21:23:31,60.030596865252114,7,10,-1.0997490882873535,3.99260139465332,9.781622664466337,8.874446187542928,39.09483371829448,32.350762657040754,-0.0005827426793985,0.0923885703086853,0,0,0
3177,111620.8828723644,2010-11-02 21:24:01,90.04606346264329,7,10,-1.099568486213684,3.9747939109802246,9.781622664466337,8.883615029996989,39.09483371829448,32.38728423315096,-0.0003885269106831,0.0923885703086853,0,0,0
3178,111650.89806583004,2010-11-02 21:24:31,120.06125692825552,7,10,-1.099568486213684,3.960709810256958,9.781622664466337,8.892783659665128,39.09483371829448,32.423660529078894,-0.0003885269106831,0.0923885703086853,0,0,0
3179,111680.91350636235,2010-11-02 21:25:01,150.0766974505593,7,10,-1.099568486213684,3.949054002761841,9.781622664466337,8.901952412477097,39.09483371829448,32.45992038617269,-0.0002590179501567,0.0923885703086853,0,0,0
3180,111710.92867041452,2010-11-02 21:25:31,180.09186148771354,7,10,-1.0997490882873535,3.938369512557984,9.781622664466337,8.91112102519156,39.09483371829448,32.496078048184856,-0.0002913951757363,0.0923885703086853,0,0,0
3181,111740.94402568904,2010-11-02 21:26:01,210.10721678728825,7,10,-1.0997490882873535,3.928494453430176,9.781622664466337,8.920289730067417,39.09483371829448,32.53214362031057,-0.0002913951757363,0.0923885703086853,0,0,0
3182,111770.95931186108,2010-11-02 21:26:31,240.12250295931,7,10,-1.0997490882873535,3.919428825378418,9.781622664466337,8.929458478541163,39.09483371829448,32.56812203975967,-0.0002266406954731,0.0923885703086853,0,0,0
3183,111800.97461863954,2010-11-02 21:27:01,270.13780974278103,7,10,-1.0997490882873535,3.9103634357452393,9.781622664466337,8.938627178481882,39.09483371829448,32.60401646079779,-0.0002590179501567,0.0923885703086853,0,0,0
3184,111830.99005648516,2010-11-02 21:27:31,300.15324755832825,7,10,-1.0997490882873535,3.901621580123901,9.781622664466337,8.947795904749674,39.09483371829448,32.63983009661614,-0.0002590179501567,0.0923885703086853,0,0,0
3185,111861.00525235676,2010-11-02 21:28:01,330.16844346002136,7,10,-1.0997490882873535,3.893365383148194,9.781622664466337,8.956964551952021,39.09483371829448,32.67556456298712,-0.0002266406954731,0.0923885703086853,0,0,0
3186,111891.02057820784,2010-11-02 21:28:31,360.18376930607553,7,10,-1.0997490882873535,3.8849472999572754,9.781622664466337,8.966133223590255,39.09483371829448,32.71122299229849,-0.0001942634553415,0.0923885703086853,0,0,0
3187,111921.03601608354,2010-11-02 21:29:01,390.1992071867856,7,10,-1.0997490882873535,3.876852989196777,9.781622664466337,8.975302000603747,39.09483371829448,32.74680636554514,-0.0002266406954731,0.0923885703086853,0,0,0
3188,111951.05124148387,2010-11-02 21:29:31,420.2144325871117,7,10,-1.0997490882873535,3.869082450866699,9.781622664466337,8.984470731846956,39.09483371829448,32.78231624442767,-0.0001942634553415,0.0923885703086853,0,0,0
3189,111981.06651607198,2010-11-02 21:30:01,450.22970717521815,7,10,-1.0997490882873535,3.860988140106201,9.781622664466337,8.993639501051836,39.09483371829448,32.81775361828374,-0.0002266406954731,0.0923885703086853,0,0,0
3190,112011.08184686536,2010-11-02 21:30:31,480.24503796862166,7,10,-1.0997490882873535,3.853055715560913,9.781622664466337,9.002808278345968,39.09483371829448,32.85311820160387,-0.0002590179501567,0.0923885703086853,0,0,0
3191,112041.09714764386,2010-11-02 21:31:01,510.2603387420909,7,10,-1.0997490882873535,3.845608949661255,9.781622664466337,9.011977044586098,39.09483371829448,32.888411688879984,-0.0001942634553415,0.0923885703086853,0,0,0
3192,112071.11257870754,2010-11-02 21:31:31,540.2757697907468,7,10,-1.0997490882873535,3.8378384113311768,9.781622664466337,9.021145825975536,39.09483371829448,32.92363548553083,-0.0001942634553415,0.0923885703086853,0,0,0
3193,112101.12776957668,2010-11-02 21:32:01,570.2909606749155,7,10,-1.0997490882873535,3.8303918838500977,9.781622664466337,9.030314519421,39.09483371829448,32.9587896026535,-0.0001942634553415,0.0923885703086853,0,0,0
3194,112131.14350670436,2010-11-02 21:32:31,600.3066977975793,7,10,-1.0997490882873535,3.82294511795044,9.781622664466337,9.039483450272929,39.09483371829448,32.99387651295585,-0.0002266406954731,0.0923885703086853,0,0,0
3195,112161.15853565432,2010-11-02 21:33:01,630.3217267425226,7,10,-1.099568486213684,3.815822124481201,9.781622664466337,9.048652154872345,39.09483371829448,33.02889619801607,-0.0002266406954731,0.0923885703086853,0,0,0
3196,112191.1737191701,2010-11-02 21:33:31,660.3369102683237,7,10,-1.0997490882873535,3.808699131011963,9.781622664466337,9.057820850748987,39.09483371829448,33.063849867915565,-0.0001942634553415,0.0923885703086853,0,0,0
3197,112221.18903827932,2010-11-02 21:34:01,690.3522293775617,7,10,-1.0997490882873535,3.801738023757935,9.781622664466337,9.066989608421892,39.09483371829448,33.098738757108954,-0.0001618862152099,0.0923885703086853,0,0,0
3198,112251.20450252586,2010-11-02 21:34:31,720.3676935990222,7,10,-1.099568486213684,3.795100688934326,9.781622664466337,9.076158454731813,39.09483371829448,33.133565399292046,-0.0001942634553415,0.0923885703086853,0,0,0
3199,112281.21967848776,2010-11-02 21:35:01,750.3828695910177,7,10,-1.0997490882873535,3.7884633541107178,9.781622664466337,9.085327186129788,39.09483371829448,33.168330630250026,-0.0001618862152099,0.0923885703086853,0,0,0
3200,112311.23502317585,2010-11-02 21:35:31,780.3982142740919,7,10,-1.0997490882873535,3.7819879055023193,9.781622664466337,9.094496017246843,39.09483371829448,33.20303604574791,-0.0001618862152099,0.0923885703086853,0,0,0
3201,112341.2503155233,2010-11-02 21:36:01,810.4135066215283,7,10,-1.099568486213684,3.775674343109131,9.781622664466337,9.103664848724817,39.09483371829448,33.2376824943906,-0.0001618862152099,0.0923885703086853,0,0,0
3202,112371.26573365972,2010-11-02 21:36:31,840.4289247830161,7,10,-1.099568486213684,3.7693607807159424,9.781622664466337,9.112833661116182,39.09483371829448,33.27227115719595,-0.0001618862152099,0.0923885703086853,0,0,0
3203,112401.28094569167,2010-11-02 21:37:01,870.4441367648477,7,10,-1.099568486213684,3.763209104537964,9.781622664466337,9.122002419056376,39.09483371829448,33.30680320254551,-0.0001618862152099,0.0923885703086853,0,0,0
3204,112431.29627635475,2010-11-02 21:37:31,900.4594674529885,7,10,-1.099568486213684,3.7572193145751953,9.781622664466337,9.131171258384498,39.09483371829448,33.34127962685389,-0.0001618862152099,0.0923885703086853,0,0,0
3205,112461.31156766962,2010-11-02 21:38:01,930.4747587678476,7,10,-1.099568486213684,3.751229763031006,9.781622664466337,9.140340087541489,39.09483371829448,33.37570113686805,-0.0001618862152099,0.0923885703086853,0,0,0
3206,112491.32701795628,2010-11-02 21:38:31,960.490209029462,7,10,-1.099568486213684,3.7454018592834473,9.781622664466337,9.14950894837594,39.09483371829448,33.41006889579343,-0.0001295089750783,0.0923885703086853,0,0,0
3207,112521.34220134174,2010-11-02 21:39:01,990.5053924399753,7,10,-1.0997490882873535,3.739735841751098,9.781622664466337,9.158677788373495,39.09483371829448,33.44438384050805,-0.0001618862152099,0.0923885703086853,0,0,0
3208,112551.35752145348,2010-11-02 21:39:31,1020.520712526653,7,10,-1.099568486213684,3.73406982421875,9.781622664466337,9.167846535746836,39.09483371829448,33.47864612701038,-0.0001295089750783,0.0923885703086853,0,0,0
3209,112581.37286361025,2010-11-02 21:40:01,1050.5360546834213,7,10,-1.0997490882873535,3.7285656929016113,9.781622664466337,9.177015359034527,39.09483371829448,33.51285724387058,-9.713172767078504e-05,0.0923885703086853,0,0,0
3210,112611.38816144135,2010-11-02 21:40:31,1080.5513525396084,7,10,-1.0997490882873535,3.7230615615844727,9.781622664466337,9.186184082297766,39.09483371829448,33.54701858450182,-0.0001618862152099,0.0923885703086853,0,0,0
3211,112641.40360863032,2010-11-02 21:41:01,1110.5667997335656,7,10,-1.0997490882873535,3.717719316482544,9.781622664466337,9.195353512161317,39.09483371829448,33.58113291056804,-0.0001618862152099,0.0923885703086853,0,0,0
3212,112671.41890874716,2010-11-02 21:41:31,1140.582099815308,7,10,-1.099929690361023,3.7123770713806152,9.781622664466337,9.20452310541031,39.09483371829448,33.6151990515694,-0.0001942634553415,0.0923885703086853,0,0,0
3213,112701.43409265892,2010-11-02 21:42:01,1170.5972837521351,7,10,-1.0997490882873535,3.7073585987091056,9.781622664466337,9.21369267462126,39.09483371829448,33.64921644748149,-9.713172767078504e-05,0.0923885703086853,0,0,0
3214,112731.44941869544,2010-11-02 21:42:31,1200.6126097886647,7,10,-1.099929690361023,3.7023401260375977,9.781622664466337,9.222862283497893,39.09483371829448,33.68318674709997,-9.713172767078504e-05,0.0923885703086853,0,0,0
3215,112761.46473081724,2010-11-02 21:43:01,1230.6279219154735,7,10,-1.099568486213684,3.697321653366089,9.781622664466337,9.232031372187182,39.09483371829448,33.71710885310171,-9.713172767078504e-05,0.0923885703086853,0,0,0
3216,112791.48006184124,2010-11-02 21:43:31,1260.6432529394526,7,10,-1.0997490882873535,3.69214129447937,9.781622664466337,9.241200221632235,39.09483371829448,33.75098431176811,-0.0001295089750783,0.0923885703086853,0,0,0
3217,112821.49537338156,2010-11-02 21:44:01,1290.6585644797976,7,10,-1.0997490882873535,3.687122821807861,9.781622664466337,9.250369110231652,39.09483371829448,33.784814384692446,-0.0001295089750783,0.0923885703086853,0,0,0
3218,112851.51081220462,2010-11-02 21:44:31,1320.6740032777973,7,10,-1.099929690361023,3.6822662353515625,9.781622664466337,9.259537964712417,39.09483371829448,33.81859923067795,-0.0001295089750783,0.0923885703086853,0,0,0
3219,112881.52612821112,2010-11-02 21:45:01,1350.6893192893028,7,10,-1.0997490882873535,3.677409648895264,9.781622664466337,9.268706823906948,39.09483371829448,33.85233977542651,-0.0001295089750783,0.0923885703086853,0,0,0
3220,112911.54132997744,2010-11-02 21:45:31,1380.7045210806978,7,10,-1.0997490882873535,3.672714948654175,9.781622664466337,9.27787562973828,39.09483371829448,33.88603620384974,-0.0001295089750783,0.0923885703086853,0,0,0
3221,112941.55662650031,2010-11-02 21:46:01,1410.7198175734816,7,10,-1.0997490882873535,3.668020486831665,9.781622664466337,9.287044493277298,39.09483371829448,33.91968967179098,-0.0001618862152099,0.0923885703086853,0,0,0
3222,112971.57198982991,2010-11-02 21:46:32,1440.7351809331756,7,10,-1.099568486213684,3.663487672805786,9.781622664466337,9.296213331551362,39.09483371829448,33.95330073842073,-0.0001295089750783,0.0923885703086853,0,0,0
3223,113001.58728249816,2010-11-02 21:47:02,1470.7504735964003,7,10,-1.099568486213684,3.6589548587799072,9.781622664466337,9.305382225987548,39.09483371829448,33.98687016503626,-0.0001295089750783,0.0923885703086853,0,0,0
3224,113031.60258875533,2010-11-02 21:47:32,1500.76577983852,7,10,-1.0997490882873535,3.654422044754028,9.781622664466337,9.31455106563458,39.09483371829448,34.02039821388905,-0.0001295089750783,0.0923885703086853,0,0,0
3225,113061.6205217492,2010-11-02 21:48:02,1530.7837128474537,7,10,-1.0997490882873535,3.65005111694336,9.781622664466337,9.323720701881888,39.09483371829448,34.05388820851376,-9.713172767078504e-05,0.0923885703086853,0,0,0
3226,113091.63323917425,2010-11-02 21:48:32,1560.7964302775003,7,10,-1.0997490882873535,3.645842075347901,9.781622664466337,9.33288871039478,39.09483371829448,34.0873318329954,-6.47544875391759e-05,0.0923885703086853,0,0,0
3227,113121.64853063948,2010-11-02 21:49:02,1590.811721737722,7,10,-1.0997490882873535,3.6413092613220215,9.781622664466337,9.342057479869013,39.09483371829448,34.12073935496762,-0.0001942634553415,0.0923885703086853,0,0,0
3228,113151.6639706104,2010-11-02 21:49:32,1620.8271616835873,7,10,-1.099568486213684,3.637585878372192,9.781622664466337,9.3512263025036,39.09483371829448,34.15410939121063,-9.713172767078504e-05,0.0923885703086853,0,0,0
3229,113181.67916493818,2010-11-02 21:50:02,1650.842356036414,7,10,-1.099929690361023,3.633214950561523,9.781622664466337,9.36039504628677,39.09483371829448,34.18744194072122,-0.0001295089750783,0.0923885703086853,0,0,0
3230,113211.69485409612,2010-11-02 21:50:32,1680.858045169288,7,10,-1.0997490882873535,3.6294915676116943,9.781622664466337,9.369563975917638,39.09483371829448,34.22073835883156,-9.713172767078504e-05,0.0923885703086853,0,0,0
3231,113241.70982250496,2010-11-02 21:51:02,1710.8730135731112,7,10,-1.099568486213684,3.6256062984466553,9.781622664466337,9.378732669402655,39.09483371829448,34.253997866799274,-9.713172767078504e-05,0.0923885703086853,0,0,0
3232,113271.72511395012,2010-11-02 21:51:32,1740.8883050233082,7,10,-1.0997490882873535,3.621882915496826,9.781622664466337,9.387901087489093,39.09483371829448,34.28722139261782,-6.47544875391759e-05,0.0923885703086853,0,0,0
3233,113301.74043275864,2010-11-02 21:52:02,1770.9036238317956,7,10,-1.0997490882873535,3.618159532546997,9.781622664466337,9.39706920674064,39.09483371829448,34.32040962374995,-9.713172767078504e-05,0.0923885703086853,0,0,0
3234,113331.75580005816,2010-11-02 21:52:32,1800.9189911313238,7,10,-1.099568486213684,3.614598035812378,9.781622664466337,9.406237703771636,39.09483371829448,34.35356565680228,-6.47544875391759e-05,0.0923885703086853,0,0,0
3235,113361.77108819006,2010-11-02 21:53:02,1830.9342792883003,7,10,-1.0997490882873535,3.610874652862549,9.781622664466337,9.41540652939349,39.09483371829448,34.386690194215646,-9.713172767078504e-05,0.0923885703086853,0,0,0
3236,113391.78650434654,2010-11-02 21:53:32,1860.949695449796,7,10,-1.0997490882873535,3.6076369285583496,9.781622664466337,9.424575492050842,39.09483371829448,34.41978347429036,-3.237724376958795e-05,0.0923885703086853,0,0,0
3237,113421.80176365652,2010-11-02 21:54:02,1890.9649547547533,7,10,-1.0997490882873535,3.604237318038941,9.781622664466337,9.433744330036914,39.09483371829448,34.452845262163585,-6.47544875391759e-05,0.0923885703086853,0,0,0
3238,113451.81707414924,2010-11-02 21:54:32,1920.9802652224207,7,10,-1.0997490882873535,3.601161479949951,9.781622664466337,9.442913170013188,39.09483371829448,34.48587700856486,0.0,0.0923885703086853,0,0,0
3239,113481.83235672228,2010-11-02 21:55:02,1950.9955477954584,7,10,-1.099929690361023,3.597761869430542,9.781622664466337,9.452082103737608,39.09483371829448,34.518879625006306,-9.713172767078504e-05,0.0923885703086853,0,0,0
3240,113511.8476890445,2010-11-02 21:55:32,1981.010880137728,7,10,-1.0997490882873535,3.5946860313415527,9.781622664466337,9.461251061080745,39.09483371829448,34.55185356464936,-9.713172767078504e-05,0.0923885703086853,0,0,0
3241,113541.8629901087,2010-11-02 21:56:02,2011.0261811818727,7,10,-1.099929690361023,3.5916104316711426,9.781622664466337,9.470419898724684,39.09483371829448,34.58479904470632,-9.713172767078504e-05,0.0923885703086853,0,0,0
3242,113571.87847997418,2010-11-02 21:56:32,2041.04167105737,7,10,-1.0997490882873535,3.588858366012573,9.781622664466337,9.479588913680086,39.09483371829448,34.617717362516174,-6.47544875391759e-05,0.0923885703086853,0,0,0
3243,113601.89363586098,2010-11-02 21:57:02,2071.056826959217,7,10,-1.0997490882873535,3.585620641708374,9.781622664466337,9.488757804159633,39.09483371829448,34.65060788124167,-9.713172767078504e-05,0.0923885703086853,0,0,0
3244,113631.90911661871,2010-11-02 21:57:32,2101.07230770693,7,10,-1.0997490882873535,3.5827066898345947,9.781622664466337,9.497926758963198,39.09483371829448,34.68347151924276,-6.47544875391759e-05,0.0923885703086853,0,0,0
3245,113661.92426130758,2010-11-02 21:58:02,2131.0874524108253,7,10,-1.0997490882873535,3.5799546241760254,9.781622664466337,9.507095648455572,39.09483371829448,34.71630816006385,-3.237724376958795e-05,0.0923885703086853,0,0,0
3246,113691.93959598069,2010-11-02 21:58:32,2161.1027870538383,7,10,-1.0997490882873535,3.576878786087036,9.781622664466337,9.516264532526266,39.09483371829448,34.74911821196069,-6.47544875391759e-05,0.0923885703086853,0,0,0
3247,113721.95490248846,2010-11-02 21:59:02,2191.1180935616208,7,10,-1.099929690361023,3.573964834213257,9.781622664466337,9.525433490205709,39.09483371829448,34.781901975262485,-9.713172767078504e-05,0.0923885703086853,0,0,0
3248,113751.97021605384,2010-11-02 21:59:32,2221.1334071270207,7,10,-1.0993878841400146,3.5712127685546875,9.781622664466337,9.534602370707606,39.09483371829448,34.81465923164264,-6.47544875391759e-05,0.0923885703086853,0,0,0
3249,113781.98553723827,2010-11-02 22:00:02,2251.1487283365013,7,10,-1.0997490882873535,3.568298816680908,9.781622664466337,9.543771350855335,39.09483371829448,34.84739038256093,-3.237724376958795e-05,0.0923885703086853,0,0,0
3250,113812.00086369584,2010-11-02 22:00:32,2281.1640547690195,7,10,-1.0997490882873535,3.565384864807129,9.781622664466337,9.552940295596043,39.09483371829448,34.88009474948886,-9.713172767078504e-05,0.0923885703086853,0,0,0
3251,113842.01635781694,2010-11-02 22:01:02,2311.1795489001397,7,10,-1.0997490882873535,3.56263279914856,9.781622664466337,9.562109212994889,39.09483371829448,34.91277196272801,-9.713172767078504e-05,0.0923885703086853,0,0,0
3252,113872.03151609472,2010-11-02 22:01:32,2341.1947071929544,7,10,-1.0997490882873535,3.5592331886291504,9.781622664466337,9.571277995489536,39.09483371829448,34.9454221313591,-0.0001295089750783,0.0923885703086853,0,0,0
3253,113902.0468091038,2010-11-02 22:02:02,2371.210000207055,7,10,-1.099568486213684,3.556481122970581,9.781622664466337,9.580446914693209,39.09483371829448,34.9780448227442,-6.47544875391759e-05,0.0923885703086853,0,0,0
3254,113932.06213991225,2010-11-02 22:02:32,2401.225330985422,7,10,-1.0997490882873535,3.553243398666382,9.781622664466337,9.589615848730118,39.09483371829448,35.010639104287364,-9.713172767078504e-05,0.0923885703086853,0,0,0
3255,113962.07744059549,2010-11-02 22:03:02,2431.2406316686656,7,10,-1.099929690361023,3.5500056743621826,9.781622664466337,9.598784715575569,39.09483371829448,35.04320412834979,-6.47544875391759e-05,0.0923885703086853,0,0,0
3256,113992.09277432624,2010-11-02 22:03:32,2461.255965399401,7,10,-1.0997490882873535,3.5469298362731934,9.781622664466337,9.607953633029286,39.09483371829448,35.075739657124586,-6.47544875391759e-05,0.0923885703086853,0,0,0
3257,114022.10808369616,2010-11-02 22:04:02,2491.271274769328,7,10,-1.0997490882873535,3.543368339538574,9.781622664466337,9.617122595564872,39.09483371829448,35.108244887785204,-9.713172767078504e-05,0.0923885703086853,0,0,0
3258,114052.12382038774,2010-11-02 22:04:32,2521.2870114809666,7,10,-1.0997490882873535,3.539968729019165,9.781622664466337,9.626291625484626,39.09483371829448,35.14071936931523,-0.0001295089750783,0.0923885703086853,0,0,0
3259,114082.1387127618,2010-11-02 22:05:02,2551.30190386002,7,10,-1.0997490882873535,3.536569118499756,9.781622664466337,9.635460374447932,39.09483371829448,35.17316092079143,-9.713172767078504e-05,0.0923885703086853,0,0,0
3260,114112.1540805375,2010-11-02 22:05:32,2581.3172716357367,7,10,-1.099568486213684,3.5328457355499268,9.781622664466337,9.64462938791444,39.09483371829448,35.205570201287,-9.713172767078504e-05,0.0923885703086853,0,0,0
3261,114142.16947373668,2010-11-02 22:06:02,2611.3326648098523,7,10,-1.0997490882873535,3.528960466384888,9.781622664466337,9.653798283342878,39.09483371829448,35.237945103038705,-0.0001295089750783,0.0923885703086853,0,0,0
3262,114172.18488076035,2010-11-02 22:06:32,2641.348071833538,7,10,-1.0997490882873535,3.5250751972198486,9.781622664466337,9.662967302142407,39.09483371829448,35.270285087627954,-9.713172767078504e-05,0.0923885703086853,0,0,0
3263,114202.19999472752,2010-11-02 22:07:02,2671.363185830786,7,10,-1.1001102924346924,3.5208661556243896,9.781622664466337,9.672136231851104,39.09483371829448,35.30258787968864,-0.0001295089750783,0.0923885703086853,0,0,0
3264,114232.21531385682,2010-11-02 22:07:32,2701.378504965086,7,10,-1.0997490882873535,3.5166571140289307,9.781622664466337,9.681305168282256,39.09483371829448,35.33485254035349,-0.0001295089750783,0.0923885703086853,0,0,0
3265,114262.23065411384,2010-11-02 22:08:02,2731.3938451870245,7,10,-1.0997490882873535,3.5122861862182617,9.781622664466337,9.690474122917347,39.09483371829448,35.367077084476925,-0.0001295089750783,0.0923885703086853,0,0,0
3266,114292.2459654587,2010-11-02 22:08:32,2761.4091565318818,7,10,-1.0997490882873535,3.507267951965332,9.781622664466337,9.699643056819976,39.09483371829448,35.39925894354905,-0.0001618862152099,0.0923885703086853,0,0,0
3267,114322.26126311942,2010-11-02 22:09:02,2791.4244542176434,7,10,-1.0997490882873535,3.5022494792938232,9.781622664466337,9.708811979214785,39.09483371829448,35.431394713888864,-0.0001295089750783,0.0923885703086853,0,0,0
3268,114352.27657340662,2010-11-02 22:09:32,2821.4397644797978,7,10,-1.0997490882873535,3.4964215755462646,9.781622664466337,9.71798093092828,39.09483371829448,35.46348044692848,-0.0001618862152099,0.0923885703086853,0,0,0
3269,114382.29190683662,2010-11-02 22:10:02,2851.455097934845,7,10,-1.099568486213684,3.490269899368286,9.781622664466337,9.727149862044325,39.09483371829448,35.49551059664625,-0.0001295089750783,0.0923885703086853,0,0,0
3270,114412.30737560442,2010-11-02 22:10:32,2881.4705666775917,7,10,-1.0997490882873535,3.482823133468628,9.781622664466337,9.73631889182512,39.09483371829448,35.52747886534528,-0.0002266406954731,0.0923885703086853,0,0,0
3271,114442.32253437844,2010-11-02 22:11:02,2911.485725451608,7,10,-1.0997490882873535,3.47440505027771,9.781622664466337,9.745487745361007,39.09483371829448,35.55937436729275,-0.0002266406954731,0.0923885703086853,0,0,0
3272,114472.33786509666,2010-11-02 22:11:32,2941.501056169824,7,10,-1.099568486213684,3.4645299911499023,9.781622664466337,9.754656660765717,39.09483371829448,35.59118605785539,-0.0002590179501567,0.0923885703086853,0,0,0
3273,114502.3531643413,2010-11-02 22:12:02,2971.5163554144765,7,10,-1.0997490882873535,3.4523885250091557,9.781622664466337,9.763825574289626,39.09483371829448,35.62289788036341,-0.0003561496851034,0.0923885703086853,0,0,0
3274,114532.368495651,2010-11-02 22:12:32,3001.5316867492315,7,10,-1.099929690361023,3.437656879425049,9.781622664466337,9.77299451588778,39.09483371829448,35.65448789015517,-0.0004532813909463,0.0923885703086853,0,0,0
3275,114562.38393867956,2010-11-02 22:13:02,3031.547129752729,7,10,-1.099568486213684,3.4190402030944824,9.781622664466337,9.782163542029576,39.09483371829448,35.6859254230231,-0.0005504131549969,0.0923885703086853,0,0,0
3276,114592.39924807457,2010-11-02 22:13:32,3061.562439157744,7,10,-1.0997490882873535,3.3944334983825684,9.781622664466337,9.791332529684292,39.09483371829448,35.7171666862546,-0.0007122993702068,0.0923885703086853,0,0,0
3277,114622.41444569052,2010-11-02 22:14:02,3091.577636763691,7,10,-1.099568486213684,3.361894369125366,9.781622664466337,9.800501462116818,39.09483371829448,35.74814841839931,-0.0009389400365762,0.0923885703086853,0,0,0
3278,114652.42977287492,2010-11-02 22:14:32,3121.592963953098,7,10,-1.0997490882873535,3.316566467285156,9.781622664466337,9.809670444164684,39.09483371829448,35.77877669088232,-0.0013922214275225,0.0923885703086853,0,0,0
3279,114682.44507241531,2010-11-02 22:15:02,3151.608263513539,7,10,-1.099568486213684,3.252621650695801,9.781622664466337,9.818839244089371,39.09483371829448,35.808909766093095,-0.0019750117789953,0.0923885703086853,0,0,0
3280,114712.46037302836,2010-11-02 22:15:32,3181.623564101545,7,10,-1.0997490882873535,3.1590516567230225,9.781622664466337,9.82800783107854,39.09483371829448,35.83833280748974,-0.0029463290702551,0.0923885703086853,0,0,0
3281,114742.47577349568,2010-11-02 22:16:02,3211.638964573878,7,10,-1.099929690361023,3.005745887756348,9.781622664466337,9.837176662620015,39.09483371829448,35.86666697925139,-0.0053745745681226,0.0923885703086853,0,0,0
3282,114761.7880444902,2010-11-02 22:16:22,3230.951235588449,7,10,-1.0997490882873535,2.805655002593994,9.781622664466337,9.843076062748684,39.09483371829448,35.883874226563805,-0.0105549814179539,0.0923885703086853,0,0,0
3283,114769.05374146266,2010-11-02 22:16:29,3238.216932540842,7,10,-1.099568486213684,2.699620008468628,9.781622664466337,9.845295540186893,39.09483371829448,35.88998559089136,-0.0119147775694727,0.0923885703086853,0,0,0
3284,114829.067380793,2010-11-02 22:17:29,60.01521783181865,8,10,0.0,3.30021595954895,9.781622664466337,9.845295615701938,39.09483371829448,35.88998579475329,0.0012303352123126,0.0923885703086853,0,0,0
3285,114829.25391752692,2010-11-02 22:17:29,0.187558549995951,9,10,-0.0001998523803194,3.30005407333374,9.781622664466337,9.845295626114163,39.09483371829448,35.8899858291142,0.0,0.0923051163554191,0,0,0
3286,114834.08185609936,2010-11-02 22:17:34,5.015497112407509,9,10,0.0005225847125984,3.3081483840942383,9.78162348860116,9.845295627068992,39.09483644184517,35.88998583226554,0.0011655807029455,0.0923051163554191,0,0,0
