Data_Point,Test_Time(s),Date_Time,Step_Time(s),Step_Index,Cycle_Index,Current(A),Voltage(V),Charge_Capacity(Ah),Discharge_Capacity(Ah),Charge_Energy(Wh),Discharge_Energy(Wh),dV/dt(V/s),Internal_Resistance(Ohm),Is_FC_Data,AC_Impedance(Ohm),ACI_Phase_Angle(Deg)
11850,413859.312068636,2010-11-06 09:21:51,30.01544347968583,1,37,0.0,3.330812454223633,35.308687022407646,35.37306083863766,141.03356258419817,128.96037942329818,0.0007122993702068,0.0939245000481605,0,0,0
11851,413889.3272564825,2010-11-06 09:22:21,60.03063133629714,1,37,0.0,3.353800058364868,35.308687022407646,35.37306083863766,141.03356258419817,128.96037942329818,0.0005504131549969,0.0939245000481605,0,0,0
11852,413919.3426077069,2010-11-06 09:22:51,90.04598256571211,1,37,0.0,3.371283769607544,35.308687022407646,35.37306083863766,141.03356258419817,128.96037942329818,0.0004209041653666,0.0939245000481605,0,0,0
11853,413949.3111201345,2010-11-06 09:23:21,120.01449498324664,1,37,0.0,3.3852059841156006,35.308687022407646,35.37306083863766,141.03356258419817,128.96037942329818,0.0003561496851034,0.0939245000481605,0,0,0
11854,413979.3231014352,2010-11-06 09:23:51,30.015354898573747,2,37,0.5501165986061096,3.548710584640503,35.313273895441576,35.37306083863766,141.0496582464318,128.96037942329818,0.0018131255637854,0.0939245000481605,0,0,0
11855,414009.3384314968,2010-11-06 09:24:21,60.03068496516304,2,37,0.550297200679779,3.602780342102051,35.31786082227974,35.37306083863766,141.06606700283996,128.96037942329818,0.0012627125252038,0.0939245000481605,0,0,0
11856,414039.35378890665,2010-11-06 09:24:51,90.0460423750053,2,37,0.5501165986061096,3.643090009689331,35.322447666139624,35.37306083863766,141.0826889108582,128.96037942329818,0.0009713172912597,0.0939245000481605,0,0,0
11857,414069.3691324719,2010-11-06 09:25:21,120.06138596535196,2,37,0.5501165986061096,3.674981355667114,35.32703447098971,35.37306083863766,141.09947456970693,128.96037942329818,0.0007770061492919,0.0939245000481605,0,0,0
11858,414099.38451662846,2010-11-06 09:25:51,150.07677009689573,2,37,0.5501165986061096,3.701045036315918,35.331621249401614,35.37306083863766,141.1163923986921,128.96037942329818,0.0006151676061563,0.0939245000481605,0,0,0
11859,414129.39982947207,2010-11-06 09:26:21,180.09208294049378,2,37,0.5501165986061096,3.7230615615844727,35.33620807378675,35.37306083863766,141.13342059344592,128.96037942329818,0.0005504131549969,0.0939245000481605,0,0,0
11860,414159.4151814584,2010-11-06 09:26:51,210.10743492679805,2,37,0.550297200679779,3.741678476333618,35.3407949253002,35.37306083863766,141.15054151958435,128.96037942329818,0.0004856586456298,0.0939245000481605,0,0,0
11861,414189.43078911793,2010-11-06 09:27:21,240.1230425913145,2,37,0.5501165986061096,3.7560861110687256,35.34538175521164,35.37306083863766,141.1677384119396,128.96037942329818,0.0003561496851034,0.0939245000481605,0,0,0
11862,414219.4458763032,2010-11-06 09:27:51,270.13812977162223,2,37,0.5501165986061096,3.7654755115509033,35.34996850461371,35.37306083863766,141.184990109959,128.96037942329818,0.0001942634553415,0.0939245000481605,0,0,0
11863,414249.46122322686,2010-11-06 09:28:21,300.1534766902769,2,37,0.550297200679779,3.771141529083252,35.35455533780376,35.37306083863766,141.2022756192335,128.96037942329818,0.0001295089750783,0.0939245000481605,0,0,0
11864,414279.4765819952,2010-11-06 09:28:51,330.1688354635224,2,37,0.5501165986061096,3.775188684463501,35.35914213919036,35.37306083863766,141.21958274735255,128.96037942329818,6.47544875391759e-05,0.0939245000481605,0,0,0
11865,414309.49192492384,2010-11-06 09:29:21,360.1841783922175,2,37,0.550297200679779,3.77907395362854,35.36372891246621,35.37306083863766,141.23690744560025,128.96037942329818,9.713172767078504e-05,0.0939245000481605,0,0,0
11866,414339.50727796776,2010-11-06 09:29:51,390.19953143616186,2,37,0.550297200679779,3.782635450363159,35.36831572821348,35.37306083863766,141.25424901796347,128.96037942329818,0.0001295089750783,0.0939245000481605,0,0,0
11867,414369.5252354378,2010-11-06 09:30:21,420.2174889913669,2,37,0.550297200679779,3.786035060882568,35.37290290546487,35.37306083863766,141.27160809141492,128.96037942329818,6.47544875391759e-05,0.0939245000481605,0,0,0
11868,414399.5382552476,2010-11-06 09:30:51,450.2305087209997,2,37,0.5501165986061096,3.7894346714019775,35.37748938616292,35.37306083863766,141.2889800492247,128.96037942329818,0.0001295089750783,0.0939245000481605,0,0,0
11869,414429.5533226084,2010-11-06 09:31:21,480.24557607682254,2,37,0.5501165986061096,3.7926723957061768,35.382076208090815,35.37306083863766,141.30636836438916,128.96037942329818,0.0001295089750783,0.0939245000481605,0,0,0
11870,414459.5686668504,2010-11-06 09:31:51,510.2609203187958,2,37,0.5501165986061096,3.795748233795166,35.3866630594147,35.37306083863766,141.32377145958037,128.96037942329818,3.237724376958795e-05,0.0939245000481605,0,0,0
11871,414489.5840227916,2010-11-06 09:32:21,540.2762762549595,2,37,0.5499359965324402,3.798662185668945,35.39124987387465,35.37306083863766,141.34118874052857,128.96037942329818,6.47544875391759e-05,0.0939245000481605,0,0,0
11872,414519.5993741463,2010-11-06 09:32:51,570.2916276447748,2,37,0.5501165986061096,3.801738023757935,35.39583674583185,35.37306083863766,141.3586202716016,128.96037942329818,9.713172767078504e-05,0.0939245000481605,0,0,0
11873,414549.6147136114,2010-11-06 09:33:21,600.3069671048115,2,37,0.5501165986061096,3.804975748062134,35.40042356739185,35.37306083863766,141.37606544320738,128.96037942329818,0.0001295089750783,0.0939245000481605,0,0,0
11874,414579.63006322674,2010-11-06 09:33:51,630.3223166951352,2,37,0.550297200679779,3.807889699935913,35.40501044932817,35.37306083863766,141.39352462119703,128.96037942329818,9.713172767078504e-05,0.0939245000481605,0,0,0
11875,414609.64556021,2010-11-06 09:34:21,660.3378136883991,2,37,0.5501165986061096,3.810803651809693,35.40959729200863,35.37306083863766,141.41099727042942,128.96037942329818,9.713172767078504e-05,0.0939245000481605,0,0,0
11876,414639.6610813535,2010-11-06 09:34:51,690.3533349472336,2,37,0.5501165986061096,3.8138794898986816,35.414184172554975,35.37306083863766,141.42848384314698,128.96037942329818,9.713172767078504e-05,0.0939245000481605,0,0,0
11877,414669.6761049501,2010-11-06 09:35:21,720.3683584335514,2,37,0.5501165986061096,3.816955327987671,35.41877094530378,35.37306083863766,141.4459841714892,128.96037942329818,6.47544875391759e-05,0.0939245000481605,0,0,0
11878,414699.691481217,2010-11-06 09:35:51,750.3837346804138,2,37,0.5501165986061096,3.81986927986145,35.42335776222984,35.37306083863766,141.46349880742943,128.96037942329818,0.0,0.0939245000481605,0,0,0
11879,414729.70693701744,2010-11-06 09:36:21,780.3991905059167,2,37,0.5501165986061096,3.8232688903808594,35.42794464132258,35.37306083863766,141.48102826988264,128.96037942329818,6.47544875391759e-05,0.0939245000481605,0,0,0
11880,414759.7223105776,2010-11-06 09:36:51,810.4145641262227,2,37,0.5501165986061096,3.8265066146850586,35.43253137225008,35.37306083863766,141.49857210588672,128.96037942329818,6.47544875391759e-05,0.0939245000481605,0,0,0
11881,414789.7374998177,2010-11-06 09:37:21,840.4297532860872,2,37,0.5499359965324402,3.829906225204468,35.4371181914522,35.37306083863766,141.51613175014674,128.96037942329818,6.47544875391759e-05,0.0939245000481605,0,0,0
11882,414819.7528897989,2010-11-06 09:37:51,870.44514326222,2,37,0.5501165986061096,3.833305597305298,35.44170430962054,35.37306083863766,141.53370418408264,128.96037942329818,9.70840483205393e-05,0.0939245000481605,0,0,0
11883,414849.76821003086,2010-11-06 09:38:21,900.4604635193233,2,37,0.5501165986061096,3.836867094039917,35.4462901088383,35.37306083863766,141.55129111419447,128.96037942329818,6.47544875391759e-05,0.0939245000481605,0,0,0
11884,414879.7837917406,2010-11-06 09:38:51,930.4760452090025,2,37,0.5501165986061096,3.840266704559326,35.45087604600895,35.37306083863766,141.5688943556737,128.96037942329818,9.713172767078504e-05,0.0939245000481605,0,0,0
11885,414909.799121727,2010-11-06 09:39:21,960.491375200404,2,37,0.5499359965324402,3.843504428863525,35.45546194669425,35.37306083863766,141.58651306093668,128.96037942329818,6.47544875391759e-05,0.0939245000481605,0,0,0
11886,414939.81425579934,2010-11-06 09:39:51,990.5065092877992,2,37,0.5501165986061096,3.847065925598145,35.460048467717776,35.37306083863766,141.60414970375226,128.96037942329818,9.713172767078504e-05,0.0939245000481605,0,0,0
11887,414969.8295923472,2010-11-06 09:40:21,1020.5218458455917,2,37,0.5501165986061096,3.850303649902344,35.4646352342101,35.37306083863766,141.6218024811863,128.96037942329818,9.713172767078504e-05,0.0939245000481605,0,0,0
11888,414999.8449568146,2010-11-06 09:40:51,1050.5372102980132,2,37,0.5501165986061096,3.853379487991333,35.46922202221041,35.37306083863766,141.63947021109016,128.96037942329818,3.237724376958795e-05,0.0939245000481605,0,0,0
11889,415029.8603042847,2010-11-06 09:41:21,1080.5525577730566,2,37,0.5499359965324402,3.856455326080322,35.47380876937545,35.37306083863766,141.65715234147058,128.96037942329818,6.47544875391759e-05,0.0939245000481605,0,0,0
11890,415059.8757622856,2010-11-06 09:41:51,1110.5680157539398,2,37,0.5499359965324402,3.859531164169312,35.4783956011913,35.37306083863766,141.6748490720315,128.96037942329818,3.237724376958795e-05,0.0939245000481605,0,0,0
11891,415089.891000934,2010-11-06 09:42:21,1140.5832544223847,2,37,0.5499359965324402,3.862607002258301,35.48298241884966,35.37306083863766,141.69255950576678,128.96037942329818,9.713172767078504e-05,0.0939245000481605,0,0,0
11892,415119.9063469955,2010-11-06 09:42:51,1170.5986004588376,2,37,0.550297200679779,3.86552095413208,35.487569248818765,35.37306083863766,141.71028328889437,128.96037942329818,9.713172767078504e-05,0.0939245000481605,0,0,0
11893,415149.9218170665,2010-11-06 09:43:21,1200.614070534912,2,37,0.5501165986061096,3.86811113357544,35.49215612951757,35.37306083863766,141.72802003017696,128.96037942329818,3.237724376958795e-05,0.0939245000481605,0,0,0
11894,415179.9370348428,2010-11-06 09:43:51,1230.6292883312576,2,37,0.5499359965324402,3.870863199234009,35.496742919700175,35.37306083863766,141.74576859335622,128.96037942329818,9.713172767078504e-05,0.0939245000481605,0,0,0
11895,415209.95250629226,2010-11-06 09:44:21,1260.6447597657227,2,37,0.550297200679779,3.873129606246948,35.50132973197162,35.37306083863766,141.76352885968956,128.96037942329818,6.47544875391759e-05,0.0939245000481605,0,0,0
11896,415239.9677530309,2010-11-06 09:44:52,1290.6600065193502,2,37,0.5501165986061096,3.8755578994750977,35.50591655338242,35.37306083863766,141.7813001575499,128.96037942329818,6.47544875391759e-05,0.0939245000481605,0,0,0
11897,415269.9830810524,2010-11-06 09:45:22,1320.6753345458471,2,37,0.5501165986061096,3.877824306488037,35.510503317348835,35.37306083863766,141.7990816346267,128.96037942329818,6.47544875391759e-05,0.0939245000481605,0,0,0
11898,415299.9985560808,2010-11-06 09:45:52,1350.6908095492208,2,37,0.5501165986061096,3.879928827285767,35.515090130614745,35.37306083863766,141.8168730455241,128.96037942329818,6.47544875391759e-05,0.0939245000481605,0,0,0
11899,415330.01378496987,2010-11-06 09:46:22,1380.706038463318,2,37,0.5501165986061096,3.881709575653076,35.51967683866202,35.37306083863766,141.83467316568607,128.96037942329818,3.237724376958795e-05,0.0939245000481605,0,0,0
11900,415360.0292632864,2010-11-06 09:46:52,1410.7215167548995,2,37,0.550297200679779,3.883652210235596,35.52426364830965,35.37306083863766,141.85248217080434,128.96037942329818,9.713172767078504e-05,0.0939245000481605,0,0,0
11901,415390.04460637056,2010-11-06 09:47:22,1440.7368598389826,2,37,0.5501165986061096,3.8852710723876953,35.528850473035966,35.37306083863766,141.87029915530965,128.96037942329818,3.237724376958795e-05,0.0939245000481605,0,0,0
11902,415420.0597990693,2010-11-06 09:47:52,1470.7520525426933,2,37,0.5501165986061096,3.886889934539795,35.533437188745616,35.37306083863766,141.88812316918762,128.96037942329818,6.47544875391759e-05,0.0939245000481605,0,0,0
11903,415450.07511659455,2010-11-06 09:48:22,1500.7673700880273,2,37,0.5499359965324402,3.8881850242614746,35.5380239436198,35.37306083863766,141.90595442979563,128.96037942329818,0.0,0.0939245000481605,0,0,0
11904,415480.09066071047,2010-11-06 09:48:52,1530.782914178854,2,37,0.5501165986061096,3.889642000198364,35.542610737138766,35.37306083863766,141.92379266737225,128.96037942329818,0.0,0.0939245000481605,0,0,0
11905,415510.10586260713,2010-11-06 09:49:22,1560.798116100574,2,37,0.550297200679779,3.891098976135254,35.547197597023136,35.37306083863766,141.941637711715,128.96037942329818,0.0,0.0939245000481605,0,0,0
11906,415540.1213988484,2010-11-06 09:49:52,1590.8136523267694,2,37,0.5499359965324402,3.8923940658569336,35.551784494201456,35.37306083863766,141.95948927333106,128.96037942329818,3.237724376958795e-05,0.0939245000481605,0,0,0
11907,415570.1366322136,2010-11-06 09:50:22,1620.8288857070147,2,37,0.550297200679779,3.894012928009033,35.556371277704216,35.37306083863766,141.97734663595264,128.96037942329818,6.47544875391759e-05,0.0939245000481605,0,0,0
11908,415600.15211133217,2010-11-06 09:50:52,1650.8443648106236,2,37,0.5501165986061096,3.894984245300293,35.560958152977896,35.37306083863766,141.99521037382922,128.96037942329818,3.237724376958795e-05,0.0939245000481605,0,0,0
11909,415630.1674335793,2010-11-06 09:51:22,1680.8596870526817,2,37,0.5501165986061096,3.896441221237183,35.565545015734514,35.37306083863766,142.0130798077747,128.96037942329818,6.47544875391759e-05,0.0939245000481605,0,0,0
11910,415660.1826778167,2010-11-06 09:51:52,1710.874931310078,2,37,0.5501165986061096,3.8977363109588623,35.57013179595967,35.37306083863766,142.0309550449394,128.96037942329818,3.237724376958795e-05,0.0939245000481605,0,0,0
11911,415690.1981476621,2010-11-06 09:52:22,1740.8904011305142,2,37,0.5499359965324402,3.899031400680542,35.5747186457426,35.37306083863766,142.04883660898963,128.96037942329818,0.0,0.0939245000481605,0,0,0
11912,415720.2133986914,2010-11-06 09:52:52,1770.9056521848768,2,37,0.5501165986061096,3.900488376617432,35.57930546274301,35.37306083863766,142.06672410300885,128.96037942329818,6.47544875391759e-05,0.0939245000481605,0,0,0
11913,415750.2287148984,2010-11-06 09:53:22,1800.9209683918705,2,37,0.5501165986061096,3.9017834663391113,35.58389228543083,35.37306083863766,142.08461770386788,128.96037942329818,3.237724376958795e-05,0.0939245000481605,0,0,0
11914,415780.2440623734,2010-11-06 09:53:52,1830.936315866914,2,37,0.5501165986061096,3.903078556060791,35.58847910924884,35.37306083863766,142.10251738679582,128.96037942329818,6.47544875391759e-05,0.0939245000481605,0,0,0
11915,415810.2594615125,2010-11-06 09:54:22,1860.951715000906,2,37,0.550297200679779,3.9045355319976807,35.593065938340274,35.37306083863766,142.1204232184382,128.96037942329818,6.47544875391759e-05,0.0939245000481605,0,0,0
11916,415840.27495350834,2010-11-06 09:54:52,1890.9672069766457,2,37,0.5501165986061096,3.90583062171936,35.59765279336824,35.37306083863766,142.1383352163038,128.96037942329818,6.47544875391759e-05,0.0939245000481605,0,0,0
11917,415870.2901212196,2010-11-06 09:55:22,1920.9823747130336,2,37,0.550297200679779,3.90712571144104,35.602239578896324,35.37306083863766,142.1562531108478,128.96037942329818,3.237724376958795e-05,0.0939245000481605,0,0,0
11918,415900.3054571157,2010-11-06 09:55:52,1950.9977106141869,2,37,0.550297200679779,3.9085826873779297,35.60682632487688,35.37306083863766,142.17417702104038,128.96037942329818,6.47544875391759e-05,0.0939245000481605,0,0,0
11919,415930.3208089667,2010-11-06 09:56:22,1981.0130624551284,2,37,0.5501165986061096,3.9097158908844,35.61141305158157,35.37306083863766,142.19210708554257,128.96037942329818,0.0,0.0939245000481605,0,0,0
11920,415960.3361651334,2010-11-06 09:56:52,2011.02841860683,2,37,0.5499359965324402,3.911010980606079,35.615999842369845,35.37306083863766,142.2100436493235,128.96037942329818,0.0,0.0939245000481605,0,0,0
11921,415990.3515202475,2010-11-06 09:57:22,2041.043773740992,2,37,0.5501165986061096,3.9126298427581783,35.620586652883645,35.37306083863766,142.22798659442995,128.96037942329818,6.47544875391759e-05,0.0939245000481605,0,0,0
11922,416020.36685449455,2010-11-06 09:57:52,2071.059107962953,2,37,0.5501165986061096,3.9139246940612793,35.62517392674908,35.37306083863766,142.24593773729077,128.96037942329818,3.237724376958795e-05,0.0939245000481605,0,0,0
11923,416050.382202506,2010-11-06 09:58:22,2101.074455974336,2,37,0.550297200679779,3.915381669998169,35.62976151303691,35.37306083863766,142.26389654778723,128.96037942329818,6.47544875391759e-05,0.0939245000481605,0,0,0
11924,416080.3976025422,2010-11-06 09:58:52,2131.0898560105807,2,37,0.5499359965324402,3.916514873504639,35.634348581492524,35.37306083863766,142.2818595571841,128.96037942329818,-3.237724376958795e-05,0.0939245000481605,0,0,0
11925,416110.41305093415,2010-11-06 09:59:22,2161.105304402528,2,37,0.5499359965324402,3.9181337356567374,35.63893530784617,35.37306083863766,142.29982782091594,128.96037942329818,3.237724376958795e-05,0.0939245000481605,0,0,0
11926,416140.4282752016,2010-11-06 09:59:52,2191.1205286700265,2,37,0.550297200679779,3.919752597808838,35.64352203431132,35.37306083863766,142.31780261138977,128.96037942329818,6.47544875391759e-05,0.0939245000481605,0,0,0
11927,416170.44362461154,2010-11-06 10:00:22,2221.1358781099743,2,37,0.550297200679779,3.9210476875305176,35.648108835016515,35.37306083863766,142.33578428268993,128.96037942329818,3.237724376958795e-05,0.0939245000481605,0,0,0
11928,416200.4589783472,2010-11-06 10:00:52,2251.1512318155706,2,37,0.5501165986061096,3.922342777252197,35.6526955589138,35.37306083863766,142.35377221264213,128.96037942329818,3.237724376958795e-05,0.0939245000481605,0,0,0
11929,416230.4743207696,2010-11-06 10:01:22,2281.166574238002,2,37,0.5501165986061096,3.923961639404297,35.657282301935524,35.37306083863766,142.3717668916693,128.96037942329818,3.237724376958795e-05,0.0939245000481605,0,0,0
11930,416260.4896741744,2010-11-06 10:01:52,2311.181927642847,2,37,0.5501165986061096,3.9254186153411865,35.6618690219394,35.37306083863766,142.38976822391044,128.96037942329818,6.47544875391759e-05,0.0939245000481605,0,0,0
11931,416290.5077486064,2010-11-06 10:02:22,2341.2000021900826,2,37,0.5501165986061096,3.926875591278076,35.66645626028268,35.37306083863766,142.40777831214027,128.96037942329818,6.47544875391759e-05,0.0939245000481605,0,0,0
11932,416320.5206255045,2010-11-06 10:02:52,2371.2128789879357,2,37,0.5501165986061096,3.928332567214966,35.671042558613195,35.37306083863766,142.42579149435178,128.96037942329818,3.237724376958795e-05,0.0939245000481605,0,0,0
11933,416350.5357264191,2010-11-06 10:03:22,2401.2279798874883,2,37,0.550297200679779,3.9299514293670654,35.675629305769995,35.37306083863766,142.44381329528966,128.96037942329818,9.713172767078504e-05,0.0939245000481605,0,0,0
11934,416380.5510740796,2010-11-06 10:03:52,2431.2433275530075,2,37,0.550297200679779,3.931408405303955,35.680216034756384,35.37306083863766,142.4618419205026,128.96037942329818,6.47544875391759e-05,0.0939245000481605,0,0,0
11935,416410.5664139908,2010-11-06 10:04:22,2461.2586674691825,2,37,0.5499359965324402,3.9327034950256343,35.684802818456106,35.37306083863766,142.47987768214986,128.96037942329818,0.0,0.0939245000481605,0,0,0
11936,416440.5817803429,2010-11-06 10:04:52,2491.2740338213466,2,37,0.5501165986061096,3.934484243392944,35.68938961074972,35.37306083863766,142.49792052600066,128.96037942329818,6.47544875391759e-05,0.0939245000481605,0,0,0
11937,416470.5971143443,2010-11-06 10:05:22,2521.2893678127325,2,37,0.5501165986061096,3.935941219329834,35.69397643654722,35.37306083863766,142.51597054195344,128.96037942329818,3.237724376958795e-05,0.0939245000481605,0,0,0
11938,416500.6126252824,2010-11-06 10:05:52,2551.3048787558173,2,37,0.5501165986061096,3.9375600814819336,35.69856321793349,35.37306083863766,142.534027382851,128.96037942329818,6.47544875391759e-05,0.0939245000481605,0,0,0
11939,416530.6278412492,2010-11-06 10:06:22,2581.320094717584,2,37,0.550297200679779,3.939178943634033,35.70314992965447,35.37306083863766,142.5520912095105,128.96037942329818,6.47544875391759e-05,0.0939245000481605,0,0,0
11940,416560.6433398916,2010-11-06 10:06:52,2611.3355933649764,2,37,0.5501165986061096,3.940635919570923,35.707736632088654,35.37306083863766,142.57016223555806,128.96037942329818,3.237724376958795e-05,0.0939245000481605,0,0,0
11941,416590.65865132166,2010-11-06 10:07:22,2641.3509047900334,2,37,0.5504778623580933,3.942416667938232,35.712323348077845,35.37306083863766,142.5882405982768,128.96037942329818,6.47544875391759e-05,0.0939245000481605,0,0,0
11942,416620.6738682408,2010-11-06 10:07:52,2671.366121709189,2,37,0.5499359965324402,3.943711757659912,35.71691009386085,35.37306083863766,142.60632645068733,128.96037942329818,0.0,0.0939245000481605,0,0,0
11943,416650.68931521423,2010-11-06 10:08:22,2701.381568682596,2,37,0.5501165986061096,3.9454925060272217,35.72149686013662,35.37306083863766,142.62441982895731,128.96037942329818,3.237724376958795e-05,0.0939245000481605,0,0,0
11944,416680.7046031857,2010-11-06 10:08:52,2731.39685665411,2,37,0.550297200679779,3.947111368179321,35.72608360290984,35.37306083863766,142.6425205723067,128.96037942329818,3.237724376958795e-05,0.0939245000481605,0,0,0
11945,416710.71996919205,2010-11-06 10:09:22,2761.4122226604104,2,37,0.5501165986061096,3.948730230331421,35.7306703945826,35.37306083863766,142.6606290394759,128.96037942329818,3.237724376958795e-05,0.0939245000481605,0,0,0
11946,416740.73541292734,2010-11-06 10:09:52,2791.4276664007466,2,37,0.550297200679779,3.9505109786987305,35.73525714696336,35.37306083863766,142.67874494993913,128.96037942329818,6.47544875391759e-05,0.0939245000481605,0,0,0
11947,416770.75061864353,2010-11-06 10:10:22,2821.442872111925,2,37,0.5501165986061096,3.95196795463562,35.73984386583994,35.37306083863766,142.6968684364198,128.96037942329818,0.0,0.0939245000481605,0,0,0
11948,416800.7661887543,2010-11-06 10:10:52,2851.4584422477647,2,37,0.5501165986061096,3.9537487030029297,35.744430681164346,35.37306083863766,142.7150000268447,128.96037942329818,3.237724376958795e-05,0.0939245000481605,0,0,0
11949,416830.7814566106,2010-11-06 10:11:22,2881.473710104068,2,37,0.5501165986061096,3.9555294513702393,35.74901748928976,35.37306083863766,142.73313935214358,128.96037942329818,6.47544875391759e-05,0.0939245000481605,0,0,0
11950,416860.79666139954,2010-11-06 10:11:52,2911.4889148678817,2,37,0.5501165986061096,3.957148313522339,35.753604206172724,35.37306083863766,142.75128620840553,128.96037942329818,3.237724376958795e-05,0.0939245000481605,0,0,0
11951,416890.8120393807,2010-11-06 10:12:22,2941.504292834036,2,37,0.550297200679779,3.958929061889648,35.758190969192285,35.37306083863766,142.76944115762984,128.96037942329818,3.237724376958795e-05,0.0939245000481605,0,0,0
11952,416920.8274024697,2010-11-06 10:12:52,2971.5196559681667,2,37,0.550297200679779,3.960871696472168,35.76277775518677,35.37306083863766,142.7876042039761,128.96037942329818,6.47544875391759e-05,0.0939245000481605,0,0,0
11953,416950.842728416,2010-11-06 10:13:22,3001.534981884396,2,37,0.550297200679779,3.962490558624268,35.76736448602939,35.37306083863766,142.80577508890386,128.96037942329818,6.47544875391759e-05,0.0939245000481605,0,0,0
11954,416980.8580631442,2010-11-06 10:13:52,3031.5503166376843,2,37,0.5501165986061096,3.964271306991577,35.771951269463834,35.37306083863766,142.82395429516748,128.96037942329818,6.47544875391759e-05,0.0939245000481605,0,0,0
11955,417010.8734506692,2010-11-06 10:14:22,3061.5657041626982,2,37,0.550297200679779,3.9662139415740967,35.776538027214684,35.37306083863766,142.84214159615104,128.96037942329818,6.47544875391759e-05,0.0939245000481605,0,0,0
11956,417040.8887897733,2010-11-06 10:14:52,3091.5810432417843,2,37,0.5499359965324402,3.967832803726196,35.78112484631024,35.37306083863766,142.8603374446867,128.96037942329818,0.0,0.0939245000481605,0,0,0
11957,417070.90435137285,2010-11-06 10:15:22,3121.596604841316,2,37,0.5499359965324402,3.969613552093506,35.7857116698229,35.37306083863766,142.87854163080783,128.96037942329818,0.0,0.0939245000481605,0,0,0
11958,417100.9194554504,2010-11-06 10:15:52,3151.6117089238137,2,37,0.5501165986061096,3.9715561866760254,35.790298426974154,35.37306083863766,142.89675399778804,128.96037942329818,9.713172767078504e-05,0.0939245000481605,0,0,0
11959,417130.9348313564,2010-11-06 10:16:22,3181.6270848248128,2,37,0.5501165986061096,3.973498821258545,35.7948852863357,35.37306083863766,142.91497531714083,128.96037942329818,9.713172767078504e-05,0.0939245000481605,0,0,0
11960,417160.9501573228,2010-11-06 10:16:53,3211.642410791167,2,37,0.5501165986061096,3.975441455841065,35.79947206473195,35.37306083863766,142.93320490203226,128.96037942329818,9.713172767078504e-05,0.0939245000481605,0,0,0
11961,417190.9654953843,2010-11-06 10:17:23,3241.657748857725,2,37,0.5497553944587708,3.977060317993164,35.80405821589034,35.37306083863766,142.95144053184524,128.96037942329818,3.237724376958795e-05,0.0939245000481605,0,0,0
11962,417220.9808505386,2010-11-06 10:17:53,3271.6731040069253,2,37,0.5499359965324402,3.979002952575684,35.808644148677125,35.37306083863766,142.96968362832968,128.96037942329818,6.47544875391759e-05,0.0939245000481605,0,0,0
11963,417250.99622077536,2010-11-06 10:18:23,3301.688474243785,2,37,0.5501165986061096,3.981107473373413,35.81323068975845,35.37306083863766,142.98793859618672,128.96037942329818,9.713172767078504e-05,0.0939245000481605,0,0,0
11964,417281.0115784008,2010-11-06 10:18:53,3331.7038318691657,2,37,0.5501165986061096,3.9830501079559326,35.81781740118456,35.37306083863766,143.0062033142142,128.96037942329818,6.47544875391759e-05,0.0939245000481605,0,0,0
11965,417311.0270453841,2010-11-06 10:19:23,3361.7192988525208,2,37,0.5501165986061096,3.984992742538452,35.82240416523344,35.37306083863766,143.02447727519217,128.96037942329818,0.0,0.0939245000481605,0,0,0
11966,417341.0422976015,2010-11-06 10:19:53,3391.734551069786,2,37,0.550297200679779,3.9870972633361816,35.82699090843527,35.37306083863766,143.04276027905328,128.96037942329818,6.47544875391759e-05,0.0939245000481605,0,0,0
11967,417371.0576147608,2010-11-06 10:20:23,3421.7498682291566,2,37,0.5501165986061096,3.989039897918701,35.83157758543139,35.37306083863766,143.0610522152539,128.96037942329818,3.237724376958795e-05,0.0939245000481605,0,0,0
11968,417401.0729805816,2010-11-06 10:20:53,3451.7652340750565,2,37,0.5501165986061096,3.991144418716431,35.83616432842565,35.37306083863766,143.0793537183956,128.96037942329818,6.47544875391759e-05,0.0939245000481605,0,0,0
11969,417431.08831849776,2010-11-06 10:21:23,3481.7805719711896,2,37,0.5501165986061096,3.99324893951416,35.84075104559518,35.37306083863766,143.0976646275822,128.96037942329818,3.237724376958795e-05,0.0939245000481605,0,0,0
11970,417461.1036677422,2010-11-06 10:21:53,3511.795921210637,2,37,0.5501165986061096,3.9951913356781006,35.84533781847152,35.37306083863766,143.11598535615897,128.96037942329818,0.0,0.0939245000481605,0,0,0
11971,417491.1190441495,2010-11-06 10:22:23,3541.8112976179,2,37,0.5499359965324402,3.99745774269104,35.84992453005439,35.37306083863766,143.13431558567882,128.96037942329818,6.47544875391759e-05,0.0939245000481605,0,0,0
11972,417521.1343871885,2010-11-06 10:22:53,3571.8266406618827,2,37,0.5501165986061096,3.99972414970398,35.854511318831385,35.37306083863766,143.15265589222784,128.96037942329818,9.713172767078504e-05,0.0939245000481605,0,0,0
11973,417551.1498523122,2010-11-06 10:23:23,3601.842105785596,2,37,0.550297200679779,4.001828670501709,35.85909808990168,35.37306083863766,143.171006092247,128.96037942329818,6.47544875391759e-05,0.0939245000481605,0,0,0
11974,417581.1650540785,2010-11-06 10:23:53,3631.8573075469153,2,37,0.5499359965324402,4.003933429718018,35.86368479446072,35.37306083863766,143.1893660365306,128.96037942329818,3.24249267578125e-05,0.0939245000481605,0,0,0
11975,417611.1804056287,2010-11-06 10:24:23,3661.872659102143,2,37,0.5501165986061096,4.006199836730957,35.86827144643709,35.37306083863766,143.20773586878627,128.96037942329818,9.71794142969884e-05,0.0939245000481605,0,0,0
11976,417641.19577014126,2010-11-06 10:24:53,3691.8880236097034,2,37,0.5501165986061096,4.0084662437438965,35.8728581989948,35.37306083863766,143.22611630254377,128.96037942329818,6.47544875391759e-05,0.0939245000481605,0,0,0
11977,417671.21111875423,2010-11-06 10:25:23,3721.9033722225854,2,37,0.5501165986061096,4.010732650756836,35.87744497337376,35.37306083863766,143.2445069803683,128.96037942329818,6.47544875391759e-05,0.0939245000481605,0,0,0
11978,417701.2266067249,2010-11-06 10:25:53,3751.918860193329,2,37,0.5499359965324402,4.012836933135986,35.88203170777206,35.37306083863766,143.26290785773355,128.96037942329818,3.23295607813634e-05,0.0939245000481605,0,0,0
11979,417731.241840817,2010-11-06 10:26:23,3781.934094285351,2,37,0.5501165986061096,4.015103340148926,35.88661843954176,35.37306083863766,143.2813192372427,128.96037942329818,6.47544875391759e-05,0.0939245000481605,0,0,0
11980,417761.2573092639,2010-11-06 10:26:53,3811.9495627373713,2,37,0.5501165986061096,4.017531871795654,35.89120514275933,35.37306083863766,143.29974108290213,128.96037942329818,6.47544875391759e-05,0.0939245000481605,0,0,0
11981,417791.2726457766,2010-11-06 10:27:23,3841.9648992550633,2,37,0.5501165986061096,4.019798278808594,35.89579193441357,35.37306083863766,143.3181738745187,128.96037942329818,3.24249267578125e-05,0.0939245000481605,0,0,0
11982,417821.2878626758,2010-11-06 10:27:53,3871.9801161441446,2,37,0.5501165986061096,4.022226333618164,35.9003786087481,35.37306083863766,143.33661690638462,128.96037942329818,9.70840483205393e-05,0.0939245000481605,0,0,0
11983,417851.30328309786,2010-11-06 10:28:23,3901.9955365612623,2,37,0.5501165986061096,4.024492740631104,35.90496528624276,35.37306083863766,143.3550707703731,128.96037942329818,3.23295607813634e-05,0.0939245000481605,0,0,0
11984,417881.318566518,2010-11-06 10:28:53,3932.01081999144,2,37,0.5501165986061096,4.026921272277832,35.90955201292961,35.37306083863766,143.37353572123064,128.96037942329818,6.47544875391759e-05,0.0939245000481605,0,0,0
11985,417911.3339299229,2010-11-06 10:29:23,3962.0261833912346,2,37,0.5501165986061096,4.029349327087402,35.914138716105626,35.37306083863766,143.3920116682612,128.96037942329818,6.47544875391759e-05,0.0939245000481605,0,0,0
11986,417941.3492378141,2010-11-06 10:29:53,3992.0414912824704,2,37,0.5499359965324402,4.031777858734131,35.918725366143896,35.37306083863766,143.4104984564201,128.96037942329818,6.47544875391759e-05,0.0939245000481605,0,0,0
11987,417971.3646166424,2010-11-06 10:30:23,4022.056870110777,2,37,0.550297200679779,4.034367561340332,35.923312018997294,35.37306083863766,143.42899654461647,128.96037942329818,6.46591215627268e-05,0.0939245000481605,0,0,0
11988,418001.3799894306,2010-11-06 10:30:53,4052.0722428990057,2,37,0.5501165986061096,4.036633968353272,35.92789869054709,35.37306083863766,143.44750600541036,128.96037942329818,3.23295607813634e-05,0.0939245000481605,0,0,0
11989,418031.3954599227,2010-11-06 10:31:23,4082.087713401143,2,37,0.5499359965324402,4.039224147796631,35.932485398632096,35.37306083863766,143.46602700226774,128.96037942329818,3.23295607813634e-05,0.0939245000481605,0,0,0
11990,418061.41067959374,2010-11-06 10:31:53,4112.102933067156,2,37,0.550297200679779,4.04181432723999,35.93707207389456,35.37306083863766,143.48455925774974,128.96037942329818,9.70840483205393e-05,0.0939245000481605,0,0,0
11991,418091.4262826668,2010-11-06 10:32:23,4142.118536265524,2,37,0.550297200679779,4.04440450668335,35.94165873819819,35.37306083863766,143.50310308596883,128.96037942329818,9.70840483205393e-05,0.0939245000481605,0,0,0
11992,418121.44138723554,2010-11-06 10:32:53,4172.133640703911,2,37,0.5501165986061096,4.046833038330078,35.94624540842838,35.37306083863766,143.52165860330814,128.96037942329818,6.47544875391759e-05,0.0939245000481605,0,0,0
11993,418151.4567245552,2010-11-06 10:33:23,4202.148978033631,2,37,0.550297200679779,4.049584865570068,35.95083209401085,35.37306083863766,143.54022597592643,128.96037942329818,0.0001295089750783,0.0939245000481605,0,0,0
11994,418181.4720988171,2010-11-06 10:33:53,4232.164352295537,2,37,0.5501165986061096,4.051851272583008,35.95541881558003,35.37306083863766,143.55880541526116,128.96037942329818,3.23295607813634e-05,0.0939245000481605,0,0,0
11995,418211.4900765277,2010-11-06 10:34:23,4262.182330081241,2,37,0.5501165986061096,4.054765224456787,35.960005909782254,35.37306083863766,143.5773984147736,128.96037942329818,6.47544875391759e-05,0.0939245000481605,0,0,0
11996,418241.5030730994,2010-11-06 10:34:53,4292.195326572868,2,37,0.5499359965324402,4.057193756103516,35.96459223734016,35.37306083863766,143.59600050328902,128.96037942329818,3.24249267578125e-05,0.0939245000481605,0,0,0
11997,418271.5182583596,2010-11-06 10:35:23,4322.210511838011,2,37,0.550297200679779,4.060269355773926,35.96917895447258,35.37306083863766,143.61461648593115,128.96037942329818,0.0001295089750783,0.0939245000481605,0,0,0
11998,418301.53348131885,2010-11-06 10:35:53,4352.225734797244,2,37,0.5499359965324402,4.062374114990234,35.97376563296052,35.37306083863766,143.63324437472073,128.96037942329818,3.24249267578125e-05,0.0939245000481605,0,0,0
11999,418331.5488311698,2010-11-06 10:36:23,4382.241084643206,2,37,0.5501165986061096,4.065611839294434,35.97835227390372,35.37306083863766,143.6518846450923,128.96037942329818,9.71794142969884e-05,0.0939245000481605,0,0,0
12000,418361.5642872108,2010-11-06 10:36:53,4412.256540794521,2,37,0.5501165986061096,4.068202018737793,35.98293894434743,35.37306083863766,143.67053764641145,128.96037942329818,6.47544875391759e-05,0.0939245000481605,0,0,0
12001,418391.57954239554,2010-11-06 10:37:23,4442.271795873931,2,37,0.550297200679779,4.070953845977783,35.98752565827861,35.37306083863766,143.6892037259454,128.96037942329818,9.70840483205393e-05,0.0939245000481605,0,0,0
12002,418421.5948773844,2010-11-06 10:37:53,4472.287130852782,2,37,0.5501165986061096,4.0738677978515625,35.992112365630014,35.37306083863766,143.70788259004013,128.96037942329818,9.70840483205393e-05,0.0939245000481605,0,0,0
12003,418451.6102986937,2010-11-06 10:38:23,4502.302552162128,2,37,0.5499359965324402,4.076620101928711,35.99669904871902,35.37306083863766,143.72657432133033,128.96037942329818,6.47544875391759e-05,0.0939245000481605,0,0,0
12004,418481.6255816477,2010-11-06 10:38:53,4532.317835116116,2,37,0.550297200679779,4.079371929168701,36.00128570464119,35.37306083863766,143.74527895777442,128.96037942329818,3.23295607813634e-05,0.0939245000481605,0,0,0
12005,418511.64092239086,2010-11-06 10:39:23,4562.333175869382,2,37,0.5501165986061096,4.08212423324585,36.00587241029158,35.37306083863766,143.76399675677948,128.96037942329818,3.24249267578125e-05,0.0939245000481605,0,0,0
12006,418541.6562719562,2010-11-06 10:39:53,4592.348525424617,2,37,0.5501165986061096,4.08519983291626,36.010459124105786,35.37306083863766,143.78272772539222,128.96037942329818,9.70840483205393e-05,0.0939245000481605,0,0,0
12007,418571.67161351646,2010-11-06 10:40:23,4622.363866984897,2,37,0.5501165986061096,4.088113784790039,36.015045820226455,35.37306083863766,143.80147193828097,128.96037942329818,6.47544875391759e-05,0.0939245000481605,0,0,0
12008,418601.6870294073,2010-11-06 10:40:53,4652.379282885741,2,37,0.5499359965324402,4.091027736663818,36.01963256857466,35.37306083863766,143.8202298535476,128.96037942329818,6.47544875391759e-05,0.0939245000481605,0,0,0
12009,418631.7021919207,2010-11-06 10:41:23,4682.39444539408,2,37,0.5499359965324402,4.093941688537598,36.02421922439825,35.37306083863766,143.8390008510767,128.96037942329818,9.70840483205393e-05,0.0939245000481605,0,0,0
12010,418661.71766124485,2010-11-06 10:41:53,4712.409914738328,2,37,0.5499359965324402,4.096855640411377,36.02880583518742,35.37306083863766,143.857785324166,128.96037942329818,0.0,0.0939245000481605,0,0,0
12011,418691.7330086648,2010-11-06 10:42:23,4742.425262133171,2,37,0.5501165986061096,4.099931716918945,36.033392522261366,35.37306083863766,143.87658396693658,128.96037942329818,6.47544875391759e-05,0.0939245000481605,0,0,0
12012,418721.7485746653,2010-11-06 10:42:53,4772.440828133687,2,37,0.5501165986061096,4.103007316589356,36.037979244983326,35.37306083863766,143.8953967113723,128.96037942329818,6.47544875391759e-05,0.0939245000481605,0,0,0
12013,418751.7637267176,2010-11-06 10:43:23,4802.455980185926,2,37,0.5501165986061096,4.106245040893555,36.04256583239113,35.37306083863766,143.91422290830718,128.96037942329818,9.70840483205393e-05,0.0939245000481605,0,0,0
12014,418781.7790455812,2010-11-06 10:43:53,4832.471299049551,2,37,0.5499359965324402,4.109158992767334,36.04715254853648,35.37306083863766,143.9330637812709,128.96037942329818,9.70840483205393e-05,0.0939245000481605,0,0,0
12015,418811.79440830427,2010-11-06 10:44:23,4862.486661772656,2,37,0.5501165986061096,4.112396717071533,36.051739250908845,35.37306083863766,143.95191880427396,128.96037942329818,6.47544875391759e-05,0.0939245000481605,0,0,0
12016,418841.81001773314,2010-11-06 10:44:53,4892.502271326889,2,37,0.5501165986061096,4.115472316741943,36.05632596583898,35.37306083863766,143.97078821466712,128.96037942329818,9.70840483205393e-05,0.0939245000481605,0,0,0
12017,418871.82508607145,2010-11-06 10:45:23,4922.517339539852,2,37,0.5499359965324402,4.118548393249512,36.06091266351565,35.37306083863766,143.98967216750296,128.96037942329818,6.47544875391759e-05,0.0939245000481605,0,0,0
12018,418901.8404544988,2010-11-06 10:45:53,4952.532707967195,2,37,0.5501165986061096,4.121947765350342,36.06549937349934,35.37306083863766,144.0085709663709,128.96037942329818,0.0001295089750783,0.0939245000481605,0,0,0
12019,418931.855815267,2010-11-06 10:46:23,4982.548068740433,2,37,0.5501165986061096,4.12534761428833,36.07008617703042,35.37306083863766,144.0274850042577,128.96037942329818,9.71794142969884e-05,0.0939245000481605,0,0,0
12020,418961.8711477095,2010-11-06 10:46:53,5012.56340117794,2,37,0.550297200679779,4.12842321395874,36.074672931507656,35.37306083863766,144.0464136914785,128.96037942329818,6.47544875391759e-05,0.0939245000481605,0,0,0
12021,418991.8866350487,2010-11-06 10:47:23,5042.578888517106,2,37,0.5501165986061096,4.131499290466309,36.07925971881722,35.37306083863766,144.06535751960564,128.96037942329818,3.24249267578125e-05,0.0939245000481605,0,0,0
12022,419021.9018913511,2010-11-06 10:47:53,5072.594144824581,2,37,0.5501165986061096,4.135060787200928,36.083846459101146,35.37306083863766,144.08431626662878,128.96037942329818,9.71794142969884e-05,0.0939245000481605,0,0,0
12023,419051.91719064594,2010-11-06 10:48:23,5102.609444114347,2,37,0.5501165986061096,4.138298511505127,36.08843316718739,35.37306083863766,144.10329004351533,128.96037942329818,9.71794142969884e-05,0.0939245000481605,0,0,0
12024,419081.9325524668,2010-11-06 10:48:54,5132.624805935199,2,37,0.5501165986061096,4.141860008239746,36.09301996286067,35.37306083863766,144.1222794573387,128.96037942329818,0.0001295089750783,0.0939245000481605,0,0,0
12025,419111.94788857846,2010-11-06 10:49:24,5162.640142046878,2,37,0.5499359965324402,4.145097732543945,36.09760676111678,35.37306083863766,144.14128437006568,128.96037942329818,6.47544875391759e-05,0.0939245000481605,0,0,0
12026,419141.9632419884,2010-11-06 10:49:54,5192.655495456736,2,37,0.5501165986061096,4.148497104644775,36.10219346462117,35.37306083863766,144.16030474909883,128.96037942329818,6.47544875391759e-05,0.0939245000481605,0,0,0
12027,419171.9785886263,2010-11-06 10:50:24,5222.670842094691,2,37,0.5501165986061096,4.151896953582764,36.10678023257336,35.37306083863766,144.179340960337,128.96037942329818,3.24249267578125e-05,0.0939245000481605,0,0,0
12028,419201.9939568431,2010-11-06 10:50:54,5252.686210311509,2,37,0.550297200679779,4.155458450317383,36.11136693636892,35.37306083863766,144.19839261759753,128.96037942329818,9.71794142969884e-05,0.0939245000481605,0,0,0
12029,419232.0094323177,2010-11-06 10:51:24,5282.7016857960825,2,37,0.5499359965324402,4.158696174621582,36.11595367632954,35.37306083863766,144.21746028308144,128.96037942329818,6.47544875391759e-05,0.0939245000481605,0,0,0
12030,419262.024757061,2010-11-06 10:51:54,5312.717010539384,2,37,0.5501165986061096,4.162257671356201,36.12054043565758,35.37306083863766,144.2365439605138,128.96037942329818,9.71794142969884e-05,0.0939245000481605,0,0,0
12031,419292.0399861405,2010-11-06 10:52:24,5342.73223960887,2,37,0.5501165986061096,4.16581916809082,36.12512712605143,35.37306083863766,144.25564329283165,128.96037942329818,9.71794142969884e-05,0.0939245000481605,0,0,0
12032,419322.0553419714,2010-11-06 10:52:54,5372.747595439771,2,37,0.5501165986061096,4.16938066482544,36.129713815049385,35.37306083863766,144.27475875552585,128.96037942329818,6.47544875391759e-05,0.0939245000481605,0,0,0
12033,419352.0706906745,2010-11-06 10:53:24,5402.76294414288,2,37,0.5501165986061096,4.172942161560059,36.13430049904624,35.37306083863766,144.29389039130226,128.96037942329818,9.71794142969884e-05,0.0939245000481605,0,0,0
12034,419382.0860309565,2010-11-06 10:53:54,5432.778284424968,2,37,0.5501165986061096,4.176503658294678,36.13888715419808,35.37306083863766,144.31303825573315,128.96037942329818,9.71794142969884e-05,0.0939245000481605,0,0,0
12035,419412.1013873188,2010-11-06 10:54:24,5462.793640787196,2,37,0.5501165986061096,4.180226802825928,36.1434738808227,35.37306083863766,144.3322029563009,128.96037942329818,0.0001295089750783,0.0939245000481605,0,0,0
12036,419442.1167551747,2010-11-06 10:54:54,5492.809008643113,2,37,0.5501165986061096,4.183626651763916,36.14806058567586,35.37306083863766,144.35138410850996,128.96037942329818,9.71794142969884e-05,0.0939245000481605,0,0,0
12037,419472.1320758228,2010-11-06 10:55:24,5522.824329296205,2,37,0.550297200679779,4.187511920928955,36.152647327766,35.37306083863766,144.3705820893042,128.96037942329818,9.71794142969884e-05,0.0939245000481605,0,0,0
12038,419502.14743508224,2010-11-06 10:55:54,5552.839688550651,2,37,0.5499359965324402,4.190911293029785,36.15723402204937,35.37306083863766,144.38979661722257,128.96037942329818,9.70840483205393e-05,0.0939245000481605,0,0,0
12039,419532.1627849733,2010-11-06 10:56:24,5582.855038441726,2,37,0.550297200679779,4.194796562194824,36.16182073159034,35.37306083863766,144.40902808607336,128.96037942329818,0.0001295089750783,0.0939245000481605,0,0,0
12040,419562.178135531,2010-11-06 10:56:54,5612.870388999464,2,37,0.5501165986061096,4.198358058929443,36.16640741415202,35.37306083863766,144.42827637014273,128.96037942329818,9.71794142969884e-05,0.0939245000481605,0,0,0
12041,419574.4775114606,2010-11-06 10:57:06,5625.169765014209,2,37,0.550297200679779,4.200138568878174,36.16828685846662,35.37306083863766,144.4361685211025,128.96037942329818,0.0001618385285837,0.0939245000481605,0,0,0
12042,419604.4916355772,2010-11-06 10:57:36,30.01535607150156,3,37,0.0,4.117253303527832,36.16828685846662,35.37306083863766,144.4361685211025,128.96037942329818,-0.0003561019839253,0.0939245000481605,0,0,0
12043,419634.50698608987,2010-11-06 10:58:06,60.03070657911479,3,37,0.0,4.107216358184815,36.16828685846662,35.37306083863766,144.4361685211025,128.96037942329818,-0.0002266883820993,0.0939245000481605,0,0,0
12044,419664.5223172591,2010-11-06 10:58:36,90.04603774845673,3,37,0.0,4.101388454437256,36.16828685846662,35.37306083863766,144.4361685211025,128.96037942329818,-0.0001295089750783,0.0939245000481605,0,0,0
12045,419694.490800534,2010-11-06 10:59:06,120.014521028259,3,37,0.0,4.097665309906006,36.16828685846662,35.37306083863766,144.4361685211025,128.96037942329818,-9.70840483205393e-05,0.0939245000481605,0,0,0
12046,419694.4932885774,2010-11-06 10:59:06,2.691718945e-06,4,37,0.9781606197357178,4.199653148651123,36.16828685919799,35.37306083863766,144.436168524174,128.96037942329818,0.0,0.0939245000481605,0,0,0
12047,419695.4462868178,2010-11-06 10:59:07,0.95300094697919,4,37,0.9281318187713624,4.199653148651123,36.16853766131589,35.37306083863766,144.43722179874143,128.96037942329818,0.0,0.0939245000481605,0,0,0
12048,419697.6337584935,2010-11-06 10:59:09,3.140472622816183,4,37,0.8779224753379822,4.199814796447754,36.16908512593032,35.37306083863766,144.4395209624604,128.96037942329818,3.23295607813634e-05,0.0939245000481605,0,0,0
12049,419700.9620196104,2010-11-06 10:59:13,6.468733739603858,4,37,0.8273518681526184,4.199653148651123,36.169872102234194,35.37306083863766,144.44282598931716,128.96037942329818,0.0,0.0939245000481605,0,0,0
12050,419705.5711842194,2010-11-06 10:59:17,11.077898348570084,4,37,0.7773230671882629,4.199653148651123,36.17089799128136,35.37306083863766,144.44713437081197,128.96037942329818,3.24249267578125e-05,0.0939245000481605,0,0,0
12051,419711.5867795407,2010-11-06 10:59:23,17.0934936699685,4,37,0.7272943258285522,4.199653148651123,36.172153272860406,35.37306083863766,144.45240614654065,128.96037942329818,0.0,0.0939245000481605,0,0,0
12052,419719.5241843944,2010-11-06 10:59:31,25.030898523622422,4,37,0.6772655248641968,4.199653148651123,36.17369909901833,35.37306083863766,144.45889812583712,128.96037942329818,0.0,0.0939245000481605,0,0,0
12053,419730.2142259026,2010-11-06 10:59:42,35.72094011706144,4,37,0.6270561814308167,4.199653148651123,36.17563213873631,35.37306083863766,144.46701624822506,128.96037942329818,0.0,0.0939245000481605,0,0,0
12054,419745.5708180391,2010-11-06 10:59:57,51.07753216837413,4,37,0.5768467783927917,4.199491024017334,36.17819445385144,35.37306083863766,144.4777771362609,128.96037942329818,-3.24249267578125e-05,0.0939245000481605,0,0,0
12055,419769.57060916,2010-11-06 11:00:21,75.07732330933753,4,37,0.526818037033081,4.199653148651123,36.18186146675717,35.37306083863766,144.49317739526134,128.96037942329818,-3.23295607813634e-05,0.0939245000481605,0,0,0
12056,419811.3514760365,2010-11-06 11:01:03,116.85819016583704,4,37,0.4767892360687256,4.199653148651123,36.18765942205543,35.37306083863766,144.51752690126182,128.96037942329818,0.0,0.0939245000481605,0,0,0
12057,419883.92892175686,2010-11-06 11:02:16,189.43563588611573,4,37,0.4267604649066925,4.199814796447754,36.196732639663935,35.37306083863766,144.5556315371374,128.96037942329818,3.23295607813634e-05,0.0939245000481605,0,0,0
12058,419985.9123761638,2010-11-06 11:03:58,291.4190902930777,4,37,0.37655109167099,4.199491024017334,36.20809297196296,35.37306083863766,144.60334134790511,128.96037942329818,-3.24249267578125e-05,0.0939245000481605,0,0,0
12059,420110.489475725,2010-11-06 11:06:02,415.9961898542901,4,37,0.3265223205089569,4.199653148651123,36.22024989837138,35.37306083863766,144.65439664130403,128.96037942329818,0.0,0.0939245000481605,0,0,0
12060,420258.58176698745,2010-11-06 11:08:30,564.088481121723,4,37,0.2764935493469238,4.199653148651123,36.23263197364799,35.37306083863766,144.7063974729987,128.96037942329818,-3.23295607813634e-05,0.0939245000481605,0,0,0
12061,420433.5957784904,2010-11-06 11:11:25,739.1024926196544,4,37,0.2264647930860519,4.199814796447754,36.244836018047145,35.37306083863766,144.75765060538924,128.96037942329818,3.23295607813634e-05,0.0939245000481605,0,0,0
12062,420656.328106663,2010-11-06 11:15:08,961.8348208173478,4,37,0.1764360219240188,4.199491024017334,36.2572648533915,35.37306083863766,144.80984779783384,128.96037942329818,0.0,0.0939245000481605,0,0,0
12063,420967.8408723061,2010-11-06 11:20:20,1273.347586435371,4,37,0.1264072507619857,4.199491024017334,36.27026961645013,35.37306083863766,144.86446369189886,128.96037942329818,-3.24249267578125e-05,0.0939245000481605,0,0,0
12064,421479.836189762,2010-11-06 11:28:52,1785.3429038912516,4,37,0.0763784795999527,4.199653148651123,36.2843810199882,35.37306083863766,144.92372709428034,128.96037942329818,-3.23295607813634e-05,0.0939245000481605,0,0,0
12065,421954.3943281243,2010-11-06 11:36:46,2259.9010422535484,4,37,0.0498289167881011,4.199653148651123,36.2926132624796,35.37306083863766,144.95829985108435,128.96037942329818,0.0,0.0939245000481605,0,0,0
12066,421984.4172540349,2010-11-06 11:37:16,30.015344467536277,5,37,0.0,4.192044734954834,36.2926132624796,35.37306083863766,144.95829985108435,128.96037942329818,-3.23295607813634e-05,0.0939245000481605,0,0,0
12067,422014.41698752507,2010-11-06 11:37:46,60.01507795767127,5,37,0.0,4.190911293029785,36.2926132624796,35.37306083863766,144.95829985108435,128.96037942329818,-3.24249267578125e-05,0.0939245000481605,0,0,0
12068,422014.5971528764,2010-11-06 11:37:47,0.187643116085922,6,37,-1.9243103452026844e-05,4.190911293029785,36.2926132624796,35.37306083964067,144.95829985108435,128.9603794275017,0.0,0.0930307656526565,0,0,0
12069,422019.425091108,2010-11-06 11:37:52,5.015581342659176,6,37,0.0003419754502829,4.190911293029785,36.29261402127137,35.3730608397239,144.95830303114568,128.96037942785048,-3.24249267578125e-05,0.0930307656526565,0,0,0
12070,422049.4486182885,2010-11-06 11:38:22,30.015331209442028,7,37,-1.099929690361023,4.019798278808594,36.29261402127137,35.38223049065492,144.95830303114568,128.99742988328197,-0.0009388923645019,0.0930307656526565,0,0,0
12071,422079.4639396634,2010-11-06 11:38:52,60.03065258433551,7,37,-1.099929690361023,3.9945437908172607,36.29261402127137,35.39140006934485,144.95830303114568,129.034166779282,-0.0005827903514727,0.0930307656526565,0,0,0
12072,422109.4791997504,2010-11-06 11:39:22,90.04591267625727,7,37,-1.0997490882873535,3.977222204208374,36.29261402127137,35.40056950372474,144.95830303114568,129.07071157848796,-0.0003885269106831,0.0930307656526565,0,0,0
12073,422139.4946781572,2010-11-06 11:39:52,120.0613910781142,7,37,-1.099568486213684,3.9634618759155273,36.29261402127137,35.40973907020686,144.95830303114568,129.1071155884731,-0.0003237724304199,0.0930307656526565,0,0,0
12074,422169.5101357872,2010-11-06 11:40:22,150.076848733184,7,37,-1.0997490882873535,3.9516441822052,36.29261402127137,35.41890872143662,144.95830303114568,129.1434036815399,-0.0002913951757363,0.0930307656526565,0,0,0
12075,422199.52536611486,2010-11-06 11:40:52,180.0920790357469,7,37,-1.0997490882873535,3.940959692001343,36.29261402127137,35.428078251130415,144.95830303114568,129.17958861939192,-0.0002590179501567,0.0930307656526565,0,0,0
12076,422229.540808211,2010-11-06 11:41:22,210.1075211420045,7,37,-1.099568486213684,3.931084632873535,36.29261402127137,35.43724781238391,144.95830303114568,129.21567951018798,-0.0002266406954731,0.0930307656526565,0,0,0
12077,422259.5560674057,2010-11-06 11:41:52,240.1227803366866,7,37,-1.0997490882873535,3.921533346176148,36.29261402127137,35.44641729408728,144.95830303114568,129.2516814600958,-0.0002913951757363,0.0930307656526565,0,0,0
12078,422289.5715462838,2010-11-06 11:42:22,270.1382592047071,7,37,-1.0997490882873535,3.9124679565429688,36.29261402127137,35.45558689940323,144.95830303114568,129.2875989341297,-0.0002266406954731,0.0930307656526565,0,0,0
12079,422319.58676851616,2010-11-06 11:42:52,300.1534814371258,7,37,-1.099929690361023,3.903726100921631,36.29261402127137,35.46475639939764,144.95830303114568,129.32343407430474,-0.0002266406954731,0.0930307656526565,0,0,0
12080,422349.6021415952,2010-11-06 11:43:22,330.1688545160805,7,37,-1.0997490882873535,3.895146131515503,36.29261402127137,35.47392596682926,144.95830303114568,129.35918984879515,-0.0001942634553415,0.0930307656526565,0,0,0
12081,422379.61747752136,2010-11-06 11:43:52,360.1841904473089,7,37,-1.0997490882873535,3.886889934539795,36.29261402127137,35.483095531883365,144.95830303114568,129.39486854930323,-0.0001942634553415,0.0930307656526565,0,0,0
12082,422409.63282319694,2010-11-06 11:44:22,390.199536117848,7,37,-1.0997490882873535,3.878471851348877,36.29261402127137,35.49226506669894,144.95830303114568,129.43047122362742,-0.0001942634553415,0.0930307656526565,0,0,0
12083,422439.6481750429,2010-11-06 11:44:52,420.2148879688145,7,37,-1.0997490882873535,3.870701313018799,36.29261402127137,35.501434572330545,144.95830303114568,129.46599905692972,-0.0001942634553415,0.0930307656526565,0,0,0
12084,422469.6635403074,2010-11-06 11:45:22,450.23025322825055,7,37,-1.099568486213684,3.862768888473511,36.29261402127137,35.51060422855842,144.95830303114568,129.50145428087447,-0.0001942634553415,0.0930307656526565,0,0,0
12085,422499.6789195016,2010-11-06 11:45:52,480.2456324224699,7,37,-1.099929690361023,3.8546745777130127,36.29261402127137,35.51977381408173,144.95830303114568,129.53683706655565,-0.0002266406954731,0.0930307656526565,0,0,0
12086,422529.6942336886,2010-11-06 11:46:22,510.2609466094213,7,37,-1.099929690361023,3.846904039382935,36.29261402127137,35.52894332287878,144.95830303114568,129.5721480419316,-0.0001942634553415,0.0930307656526565,0,0,0
12087,422559.70959822607,2010-11-06 11:46:52,540.276311152068,7,37,-1.099929690361023,3.8392953872680655,36.29261402127137,35.53811293004662,144.95830303114568,129.60738832107666,-0.0001942634553415,0.0930307656526565,0,0,0
12088,422589.7249407739,2010-11-06 11:47:22,570.2916536947997,7,37,-1.099929690361023,3.831686973571777,36.29261402127137,35.54728256597572,144.95830303114568,129.64255886347803,-0.0001942634553415,0.0930307656526565,0,0,0
12089,422619.7402794921,2010-11-06 11:47:52,600.3069924179972,7,37,-1.099929690361023,3.824402093887329,36.29261402127137,35.55645214034329,144.95830303114568,129.67766075730572,-0.0001942634553415,0.0930307656526565,0,0,0
12090,422649.7556343756,2010-11-06 11:48:22,630.322347296521,7,37,-1.0997490882873535,3.817117214202881,36.29261402127137,35.56562178062675,144.95830303114568,129.71269541662917,-0.0002266406954731,0.0930307656526565,0,0,0
12091,422679.7709853494,2010-11-06 11:48:52,660.3376982702978,7,37,-1.0997490882873535,3.8098323345184326,36.29261402127137,35.574791289494854,144.95830303114568,129.74766339453024,-0.0001942634553415,0.0930307656526565,0,0,0
12092,422709.7864868389,2010-11-06 11:49:22,690.3531997647974,7,37,-1.1001102924346924,3.8027093410491934,36.29261402127137,35.58396091033466,144.95830303114568,129.7825658808738,-0.0001942634553415,0.0930307656526565,0,0,0
12093,422739.80184670485,2010-11-06 11:49:52,720.3685596407956,7,37,-1.099929690361023,3.795910120010376,36.29261402127137,35.593130513583056,144.95830303114568,129.81740433501872,-0.0001942634553415,0.0930307656526565,0,0,0
12094,422769.8171815233,2010-11-06 11:50:22,750.3838944542338,7,37,-1.0997490882873535,3.789272785186768,36.29261402127137,35.60230016399512,144.95830303114568,129.85218095931612,-0.0001618862152099,0.0930307656526565,0,0,0
12095,422799.8323402973,2010-11-06 11:50:52,780.3990532182255,7,37,-1.099568486213684,3.782959222793579,36.29261402127137,35.61146920420721,144.95830303114568,129.88689536885207,-0.0001295089750783,0.0930307656526565,0,0,0
12096,422829.84769713576,2010-11-06 11:51:22,810.4144100566415,7,37,-1.0997490882873535,3.7764837741851807,36.29261402127137,35.62063807261536,144.95830303114568,129.9215505517811,-0.0001295089750783,0.0930307656526565,0,0,0
12097,422859.8636099419,2010-11-06 11:51:52,840.4303228628384,7,37,-1.099568486213684,3.770170211791992,36.29261402127137,35.62980720811272,144.95830303114568,129.95614836041025,-0.0001295089750783,0.0930307656526565,0,0,0
12098,422889.878562431,2010-11-06 11:52:22,870.4452753519362,7,37,-1.0997490882873535,3.7640185356140137,36.29261402127137,35.63897595157769,144.95830303114568,129.9906873490634,-0.0001618862152099,0.0930307656526565,0,0,0
12099,422919.8965733444,2010-11-06 11:52:52,900.4632862653315,7,37,-1.0997490882873535,3.758028745651245,36.29261402127137,35.64814554961001,144.95830303114568,130.02517366833828,-0.0001618862152099,0.0930307656526565,0,0,0
12100,422949.909544202,2010-11-06 11:53:22,930.4762571380096,7,37,-1.099568486213684,3.7522010803222656,36.29261402127137,35.65731369835598,144.95830303114568,130.05959962732524,-0.0001295089750783,0.0930307656526565,0,0,0
12101,422979.9245051624,2010-11-06 11:53:52,960.4912180832154,7,37,-1.0997490882873535,3.746211290359497,36.29261402127137,35.666482761089746,144.95830303114568,130.09397473806158,-0.0001295089750783,0.0930307656526565,0,0,0
12102,423009.93984415615,2010-11-06 11:54:22,990.5065570770886,7,37,-1.0997490882873535,3.740221500396729,36.29261402127137,35.67565226853847,144.95830303114568,130.12829797506834,-0.0001942634553415,0.0930307656526565,0,0,0
12103,423039.9551770448,2010-11-06 11:54:52,1020.5218899907846,7,37,-1.099568486213684,3.73471736907959,36.29261402127137,35.68482172816743,144.95830303114568,130.16256930906675,-0.0001618862152099,0.0930307656526565,0,0,0
12104,423069.9705563543,2010-11-06 11:55:22,1050.5372693053043,7,37,-1.0997490882873535,3.729213237762451,36.29261402127137,35.69399118682541,144.95830303114568,130.19678951036184,-0.0001618862152099,0.0930307656526565,0,0,0
12105,423099.98588731815,2010-11-06 11:55:52,1080.5526002591082,7,37,-1.1001102924346924,3.7238709926605225,36.29261402127137,35.70316061348602,144.95830303114568,130.23095980844474,-9.713172767078504e-05,0.0930307656526565,0,0,0
12106,423130.0012224323,2010-11-06 11:56:22,1110.5679353582595,7,37,-1.099929690361023,3.718366861343384,36.29261402127137,35.71233005570653,144.95830303114568,130.26508024278192,-0.0001295089750783,0.0930307656526565,0,0,0
12107,423160.0168260718,2010-11-06 11:56:52,1140.5835391982291,7,37,-1.099568486213684,3.713348388671875,36.29261402127137,35.72149963124461,144.95830303114568,130.2991519661777,-9.713172767078504e-05,0.0930307656526565,0,0,0
12108,423190.0321132864,2010-11-06 11:57:22,1170.5988262374156,7,37,-1.0997490882873535,3.7080061435699454,36.29261402127137,35.7306691180006,144.95830303114568,130.3331753326295,-9.713172767078504e-05,0.0930307656526565,0,0,0
12109,423220.04727128847,2010-11-06 11:57:52,1200.6139842194557,7,37,-1.099929690361023,3.7026638984680176,36.29261402127137,35.739838528305874,144.95830303114568,130.3671511980886,-0.0001618862152099,0.0930307656526565,0,0,0
12110,423250.0627465174,2010-11-06 11:58:22,1230.6294594383671,7,37,-1.099929690361023,3.697807312011719,36.29261402127137,35.749008055366986,144.95830303114568,130.40108088643711,-0.0001295089750783,0.0930307656526565,0,0,0
12111,423280.07797948166,2010-11-06 11:58:52,1260.6446924025745,7,37,-1.0997490882873535,3.69278883934021,36.29261402127137,35.758177498840176,144.95830303114568,130.43496440026317,-0.0001295089750783,0.0930307656526565,0,0,0
12112,423310.093331493,2010-11-06 11:59:22,1290.660044413941,7,37,-1.099929690361023,3.687770366668701,36.29261402127137,35.76734698802002,144.95830303114568,130.46880273876585,-0.0001618862152099,0.0930307656526565,0,0,0
12113,423340.10867259215,2010-11-06 11:59:52,1320.6753855130692,7,37,-1.099568486213684,3.683075666427612,36.29261402127137,35.77651647990813,144.95830303114568,130.50259632408194,-9.713172767078504e-05,0.0930307656526565,0,0,0
12114,423370.124021997,2010-11-06 12:00:22,1350.6907349179298,7,37,-1.0993878841400146,3.678380966186523,36.29261402127137,35.78568601323537,144.95830303114568,130.53634581084944,-9.713172767078504e-05,0.0930307656526565,0,0,0
12115,423400.1393886049,2010-11-06 12:00:52,1380.7061015257316,7,37,-1.099929690361023,3.6735243797302246,36.29261402127137,35.794855516814366,144.95830303114568,130.57005178454344,-9.713172767078504e-05,0.0930307656526565,0,0,0
12116,423430.1550707001,2010-11-06 12:01:22,1410.7217836210389,7,37,-1.0997490882873535,3.668991804122925,36.29261402127137,35.8040251618992,144.95830303114568,130.6037157485826,-9.713172767078504e-05,0.0930307656526565,0,0,0
12117,423460.1701962561,2010-11-06 12:01:52,1440.7369091871633,7,37,-1.0997490882873535,3.664458990097046,36.29261402127137,35.81319460542965,144.95830303114568,130.63733668377682,-9.713172767078504e-05,0.0930307656526565,0,0,0
12118,423490.1855637412,2010-11-06 12:02:22,1470.7522766621296,7,37,-1.099929690361023,3.659764289855957,36.29261402127137,35.822364139647746,144.95830303114568,130.67091645325584,-0.0001295089750783,0.0930307656526565,0,0,0
12119,423520.2007770965,2010-11-06 12:02:52,1500.767490022402,7,37,-1.099929690361023,3.655393362045288,36.29261402127137,35.831533604504976,144.95830303114568,130.7044546437419,-0.0001295089750783,0.0930307656526565,0,0,0
12120,423550.216181659,2010-11-06 12:03:22,1530.782894604995,7,37,-1.099929690361023,3.651022434234619,36.29261402127137,35.84070310630271,144.95830303114568,130.73795243214948,-9.713172767078504e-05,0.0930307656526565,0,0,0
12121,423580.2316057604,2010-11-06 12:03:52,1560.7983186812469,7,37,-1.099929690361023,3.6463277339935294,36.29261402127137,35.84987262656891,144.95830303114568,130.771410353931,-0.0001942634553415,0.0930307656526565,0,0,0
12122,423610.2468687044,2010-11-06 12:04:22,1590.8135816353129,7,37,-1.0997490882873535,3.642442464828491,36.29261402127137,35.859042001072254,144.95830303114568,130.80482820184383,-0.0001295089750783,0.0930307656526565,0,0,0
12123,423640.26219984365,2010-11-06 12:04:52,1620.8289127645546,7,37,-1.099929690361023,3.638233423233032,36.29261402127137,35.86821143065151,144.95830303114568,130.83820779550615,-9.713172767078504e-05,0.0930307656526565,0,0,0
12124,423670.2775567923,2010-11-06 12:05:22,1650.844269718258,7,37,-1.0997490882873535,3.634186267852783,36.29261402127137,35.87738088953382,144.95830303114568,130.87155002577748,-0.0001618862152099,0.0930307656526565,0,0,0
12125,423700.293025921,2010-11-06 12:05:52,1680.8597388720304,7,37,-1.099568486213684,3.630462884902954,36.29261402127137,35.88655041669973,144.95830303114568,130.9048558801597,-9.713172767078504e-05,0.0930307656526565,0,0,0
12126,423730.308247191,2010-11-06 12:06:22,1710.8749601119716,7,37,-1.0997490882873535,3.626415729522705,36.29261402127137,35.89571980028397,144.95830303114568,130.93812544722007,-9.713172767078504e-05,0.0930307656526565,0,0,0
12127,423760.32359268615,2010-11-06 12:06:52,1740.8903056070733,7,37,-1.0997490882873535,3.622692346572876,36.29261402127137,35.904889192014274,144.95830303114568,130.97135981729707,-6.47544875391759e-05,0.0930307656526565,0,0,0
12128,423790.33895379526,2010-11-06 12:07:23,1770.9056667211617,7,37,-1.0997490882873535,3.618968963623047,36.29261402127137,35.91405862368606,144.95830303114568,131.00456001396384,-9.713172767078504e-05,0.0930307656526565,0,0,0
12129,423820.35431615246,2010-11-06 12:07:53,1800.9210290733408,7,37,-1.099929690361023,3.6152455806732178,36.29261402127137,35.923228150622855,144.95830303114568,131.03772718709865,-0.0001295089750783,0.0930307656526565,0,0,0
12130,423850.3696572515,2010-11-06 12:08:23,1830.936370172469,7,37,-1.0997490882873535,3.6120078563690186,36.29261402127137,35.932397614747,144.95830303114568,131.0708618672388,-3.237724376958795e-05,0.0930307656526565,0,0,0
12131,423880.385014521,2010-11-06 12:08:53,1860.9517274419609,7,37,-1.0997490882873535,3.6084463596344,36.29261402127137,35.941567102409195,144.95830303114568,131.10396506384964,-9.713172767078504e-05,0.0930307656526565,0,0,0
12132,423910.4003587881,2010-11-06 12:09:23,1890.9670717089969,7,37,-1.099568486213684,3.60488486289978,36.29261402127137,35.950736638265894,144.95830303114568,131.137037741676,-0.0001295089750783,0.0930307656526565,0,0,0
12133,423940.4156527195,2010-11-06 12:09:53,1920.982365635375,7,37,-1.099929690361023,3.601809024810791,36.29261402127137,35.959906658044204,144.95830303114568,131.17008201300908,-9.713172767078504e-05,0.0930307656526565,0,0,0
12134,423970.4310116983,2010-11-06 12:10:23,1950.9977246141327,7,37,-1.099929690361023,3.5987331867218018,36.29261402127137,35.969076890269875,144.95830303114568,131.20309783369925,-9.713172767078504e-05,0.0930307656526565,0,0,0
12135,424000.44640277216,2010-11-06 12:10:53,1981.0131156829937,7,37,-1.099929690361023,3.5954954624176025,36.29261402127137,35.97824702055109,144.95830303114568,131.2360846268362,-0.0001295089750783,0.0930307656526565,0,0,0
12136,424030.46178356535,2010-11-06 12:11:23,2011.028496506279,7,37,-1.0997490882873535,3.5925815105438232,36.29261402127137,35.987417290492665,144.95830303114568,131.26904348291035,-9.713172767078504e-05,0.0930307656526565,0,0,0
12137,424060.4770914216,2010-11-06 12:11:53,2041.0438043423776,7,37,-1.0997490882873535,3.589667797088623,36.29261402127137,35.99658751926562,144.95830303114568,131.3019742469205,-3.237724376958795e-05,0.0930307656526565,0,0,0
12138,424090.4924473978,2010-11-06 12:12:23,2071.0591603186413,7,37,-1.1001102924346924,3.586430072784424,36.29261402127137,36.00575773306418,144.95830303114568,131.33487737371286,-9.713172767078504e-05,0.0930307656526565,0,0,0
12139,424120.5077978652,2010-11-06 12:12:53,2101.074510786155,7,37,-1.099568486213684,3.5836780071258545,36.29261402127137,36.01492751497875,144.95830303114568,131.367752146668,-9.713172767078504e-05,0.0930307656526565,0,0,0
12140,424150.5232974399,2010-11-06 12:13:23,2131.090010360862,7,37,-1.099568486213684,3.580925941467285,36.29261402127137,36.0240969534351,144.95830303114568,131.40059926665222,-6.47544875391759e-05,0.0930307656526565,0,0,0
12141,424180.5384967401,2010-11-06 12:13:53,2161.1052096610388,7,37,-1.0997490882873535,3.577850103378296,36.29261402127137,36.033266269232406,144.95830303114568,131.43341904534253,-9.713172767078504e-05,0.0930307656526565,0,0,0
12142,424210.55385335296,2010-11-06 12:14:23,2191.120566278904,7,37,-1.0997490882873535,3.5749361515045166,36.29261402127137,36.04243573244042,144.95830303114568,131.46621228854633,-6.47544875391759e-05,0.0930307656526565,0,0,0
12143,424240.5692257452,2010-11-06 12:14:53,2221.135938666132,7,37,-1.099568486213684,3.5721840858459477,36.29261402127137,36.051605182611965,144.95830303114568,131.49897866565317,-3.237724376958795e-05,0.0930307656526565,0,0,0
12144,424270.58456211246,2010-11-06 12:15:23,2251.1512750334487,7,37,-1.0997490882873535,3.569108247756958,36.29261402127137,36.0607745225228,144.95830303114568,131.53171805258256,-9.713172767078504e-05,0.0930307656526565,0,0,0
12145,424300.5999000187,2010-11-06 12:15:53,2281.1666129396067,7,37,-1.0997490882873535,3.5661942958831787,36.29261402127137,36.06994392030737,144.95830303114568,131.5644307693317,-3.237724376958795e-05,0.0930307656526565,0,0,0
12146,424330.6152579248,2010-11-06 12:16:23,2311.1819708507005,7,37,-1.1001102924346924,3.563118457794189,36.29261402127137,36.0791133643128,144.95830303114568,131.59711629036542,-6.47544875391759e-05,0.0930307656526565,0,0,0
12147,424360.630605044,2010-11-06 12:16:53,2341.1973179698552,7,37,-1.099568486213684,3.56020450592041,36.29261402127137,36.08828272351361,144.95830303114568,131.62977470872158,-6.47544875391759e-05,0.0930307656526565,0,0,0
12148,424390.64630297374,2010-11-06 12:17:23,2371.213015894676,7,37,-1.0997490882873535,3.556966781616211,36.29261402127137,36.097452212770094,144.95830303114568,131.66240535487816,-9.713172767078504e-05,0.0930307656526565,0,0,0
12149,424420.66132136737,2010-11-06 12:17:53,2401.228034288281,7,37,-1.099929690361023,3.553729057312012,36.29261402127137,36.10662155226868,144.95830303114568,131.6950064003871,-9.713172767078504e-05,0.0930307656526565,0,0,0
12150,424450.6768159496,2010-11-06 12:18:23,2431.243528870527,7,37,-1.0997490882873535,3.5504913330078125,36.29261402127137,36.11579098387417,144.95830303114568,131.7275782007095,-9.713172767078504e-05,0.0930307656526565,0,0,0
12151,424480.6921485024,2010-11-06 12:18:53,2461.2588614233214,7,37,-1.0997490882873535,3.5470917224884038,36.29261402127137,36.12496050565424,144.95830303114568,131.76011990602456,-0.0001295089750783,0.0930307656526565,0,0,0
12152,424510.7073844391,2010-11-06 12:19:23,2491.2740973599484,7,37,-1.099568486213684,3.543853998184204,36.29261402127137,36.134129973767855,144.95830303114568,131.79263027279987,-9.713172767078504e-05,0.0930307656526565,0,0,0
12153,424540.7227889966,2010-11-06 12:19:53,2521.2895020026917,7,37,-1.099568486213684,3.540130615234375,36.29261402127137,36.1432994944466,144.95830303114568,131.8251087806565,-9.713172767078504e-05,0.0930307656526565,0,0,0
12154,424570.73806358967,2010-11-06 12:20:23,2551.304776510597,7,37,-1.0997490882873535,3.536731004714966,36.29261402127137,36.15246891673,144.95830303114568,131.8575540660175,-9.713172767078504e-05,0.0930307656526565,0,0,0
12155,424600.7534205384,2010-11-06 12:20:53,2581.3201334643013,7,37,-1.099929690361023,3.532683849334717,36.29261402127137,36.161638478424486,144.95830303114568,131.8899658296505,-0.0001295089750783,0.0930307656526565,0,0,0
12156,424630.76877941686,2010-11-06 12:21:23,2611.335492337797,7,37,-1.099929690361023,3.5287985801696777,36.29261402127137,36.17080798876578,144.95830303114568,131.92234194226418,-9.713172767078504e-05,0.0930307656526565,0,0,0
12157,424660.78426659567,2010-11-06 12:21:53,2641.350979541625,7,37,-1.099568486213684,3.5247514247894287,36.29261402127137,36.1799775169179,144.95830303114568,131.95468084838694,-9.713172767078504e-05,0.0930307656526565,0,0,0
12158,424690.7994820312,2010-11-06 12:22:23,2671.3661949520147,7,37,-1.099929690361023,3.52038049697876,36.29261402127137,36.18914696228098,144.95830303114568,131.98698051748207,-0.0001295089750783,0.0930307656526565,0,0,0
12159,424720.8148281528,2010-11-06 12:22:53,2701.381541078693,7,37,-1.099929690361023,3.515685796737671,36.29261402127137,36.19831649019363,144.95830303114568,132.0192398515371,-0.0001295089750783,0.0930307656526565,0,0,0
12160,424750.8301887556,2010-11-06 12:23:23,2731.396901676492,7,37,-1.099929690361023,3.510991334915161,36.29261402127137,36.20748599745279,144.95830303114568,132.0514566261179,-0.0001295089750783,0.0930307656526565,0,0,0
12161,424780.8455291279,2010-11-06 12:23:53,2761.4122420488065,7,37,-1.099929690361023,3.5059728622436523,36.29261402127137,36.21665551758528,144.95830303114568,132.0836286957371,-0.0001618862152099,0.0930307656526565,0,0,0
12162,424810.8608799965,2010-11-06 12:24:23,2791.4275929173205,7,37,-1.0997490882873535,3.5004687309265137,36.29261402127137,36.22582503511816,144.95830303114568,132.11575228585005,-0.0001295089750783,0.0930307656526565,0,0,0
12163,424840.8788891053,2010-11-06 12:24:53,2821.4456021114243,7,37,-1.0997490882873535,3.494317054748535,36.29261402127137,36.2349953846578,144.95830303114568,132.14782537615602,-0.0001618862152099,0.0930307656526565,0,0,0
12164,424870.8920558118,2010-11-06 12:25:23,2851.458768737734,7,37,-1.0997490882873535,3.487355947494507,36.29261402127137,36.244164233079,144.95830303114568,132.1798335799752,-0.0002266406954731,0.0930307656526565,0,0,0
12165,424900.90693329874,2010-11-06 12:25:53,2881.473646219602,7,37,-1.0997490882873535,3.4794235229492188,36.29261402127137,36.25333360646208,144.95830303114568,132.2117759826702,-0.0001942634553415,0.0930307656526565,0,0,0
12166,424930.92247528426,2010-11-06 12:26:23,2911.4891882151987,7,37,-1.099568486213684,3.470196008682251,36.29261402127137,36.26250308629418,144.95830303114568,132.24363993437896,-0.0002590179501567,0.0930307656526565,0,0,0
12167,424960.9376427801,2010-11-06 12:26:53,2941.504355700961,7,37,-1.0997490882873535,3.4591877460479736,36.29261402127137,36.27167249435748,144.95830303114568,132.27541069177514,-0.0002913951757363,0.0930307656526565,0,0,0
12168,424990.95300863095,2010-11-06 12:27:23,2971.5197215518738,7,37,-1.099929690361023,3.445751190185547,36.29261402127137,36.28084197861126,144.95830303114568,132.3070699796845,-0.0003561496851034,0.0930307656526565,0,0,0
12169,425020.96849494753,2010-11-06 12:27:53,3001.535207878512,7,37,-1.099929690361023,3.42875337600708,36.29261402127137,36.290011524726886,144.95830303114568,132.3385918123678,-0.0005503654247149,0.0930307656526565,0,0,0
12170,425050.9836950146,2010-11-06 12:28:23,3031.550407935578,7,37,-1.0997490882873535,3.407546281814575,36.29261402127137,36.29918092904765,144.95830303114568,132.36993863457133,-0.0006151676061563,0.0930307656526565,0,0,0
12171,425080.99908068,2010-11-06 12:28:53,3061.5657936009497,7,37,-1.0997490882873535,3.378730535507202,36.29261402127137,36.30835034285391,144.95830303114568,132.40105693303707,-0.0008094310760498,0.0930307656526565,0,0,0
12172,425111.0144264408,2010-11-06 12:29:23,3091.5811393817644,7,37,-1.099929690361023,3.338906764984131,36.29261402127137,36.317519795200624,144.95830303114568,132.43186462168217,-0.0012303352123126,0.0930307656526565,0,0,0
12173,425141.02974505886,2010-11-06 12:29:53,3121.596457979726,7,37,-1.0997490882873535,3.283541679382324,36.29261402127137,36.32668924575774,144.95830303114568,132.46224107579624,-0.0017159938579425,0.0930307656526565,0,0,0
12174,425171.0451203784,2010-11-06 12:30:23,3151.6118332992746,7,37,-1.0997490882873535,3.2042176723480225,36.29261402127137,36.33585869057783,144.95830303114568,132.49200887385388,-0.0025254250504076,0.0930307656526565,0,0,0
12175,425201.0604481041,2010-11-06 12:30:53,3181.6271610300328,7,37,-1.099929690361023,3.0842604637146,36.29261402127137,36.34502818934072,144.95830303114568,132.52088407314437,-0.0039176465943455,0.0930307656526565,0,0,0
12176,425227.41958705016,2010-11-06 12:31:20,3207.9862999710817,7,37,-1.0997490882873535,2.884169578552246,36.29261402127137,36.3530807474251,144.95830303114568,132.54503013120825,-0.0086447242647409,0.0930307656526565,0,0,0
12177,425240.8732341181,2010-11-06 12:31:33,3221.4399470439675,7,37,-1.0997490882873535,2.699458122253418,36.29261402127137,36.357190756425794,144.95830303114568,132.55652094708825,-0.0118500236421823,0.0930307656526565,0,0,0
12178,425300.878454474,2010-11-06 12:32:33,60.01511194250264,8,37,0.0,3.2900171279907227,36.29261402127137,36.357190756425794,144.95830303114568,132.55652094708825,0.0012950897216796,0.0930307656526565,0,0,0
12179,425301.0571973159,2010-11-06 12:32:33,0.187426505392306,9,37,-1.9243103452026844e-05,3.2900171279907227,36.29261402127137,36.357190757427645,144.95830303114568,132.55652095038437,0.0,0.0931989923119545,0,0,0
12180,425305.8854146491,2010-11-06 12:32:38,5.015643833646294,9,37,0.0007031940040178,3.297625780105591,36.29261482125818,36.35719075759464,144.9583056665532,132.5565209509338,0.0011008263099938,0.0931989923119545,0,0,0
