Data_Point,Test_Time(s),Date_Time,Step_Time(s),Step_Index,Cycle_Index,Current(A),Voltage(V),Charge_Capacity(Ah),Discharge_Capacity(Ah),Charge_Energy(Wh),Discharge_Energy(Wh),dV/dt(V/s),Internal_Resistance(Ohm),Is_FC_Data,AC_Impedance(Ohm),ACI_Phase_Angle(Deg)
12846,448286.9331536997,2010-11-06 18:55:42,30.01533190116869,1,40,0.0,3.325146436691284,38.262009357696336,38.32791410588885,152.8123113984677,139.76222859339205,0.0006799221155233,0.0939245000481605,0,0,0
12847,448316.9485038615,2010-11-06 18:56:12,60.03068205790608,1,40,0.0,3.3482961654663086,38.262009357696336,38.32791410588885,152.8123113984677,139.76222859339205,0.0005504131549969,0.0939245000481605,0,0,0
12848,448346.9638772463,2010-11-06 18:56:42,90.04605543761157,1,40,0.0,3.3657796382904053,38.262009357696336,38.32791410588885,152.8123113984677,139.76222859339205,0.0004209041653666,0.0939245000481605,0,0,0
12849,448376.9324035434,2010-11-06 18:57:12,120.01458173980436,1,40,0.0,3.379701852798462,38.262009357696336,38.32791410588885,152.8123113984677,139.76222859339205,0.0003237724304199,0.0939245000481605,0,0,0
12850,448406.9558950907,2010-11-06 18:57:42,30.015348808371662,2,40,0.5501165986061096,3.5432064533233643,38.266596047957854,38.32791410588885,152.8283803325697,139.76222859339205,0.0018131255637854,0.0939245000481605,0,0,0
12851,448436.9711275637,2010-11-06 18:58:12,60.03058127633978,2,40,0.5499359965324402,3.597923755645752,38.27118276830126,38.32791410588885,152.8447649142606,139.76222859339205,0.0012626647949218,0.0939245000481605,0,0,0
12852,448466.98649997095,2010-11-06 18:58:42,90.04595367860544,2,40,0.5501165986061096,3.638557195663452,38.2757695184774,38.32791410588885,152.86136508415257,139.76222859339205,0.0009713172912597,0.0939245000481605,0,0,0
12853,448497.0018526941,2010-11-06 18:59:12,120.06130640676147,2,40,0.5501165986061096,3.6707725524902335,38.28035620279308,38.32791410588885,152.87813068543926,139.76222859339205,0.0007770538213662,0.0939245000481605,0,0,0
12854,448527.0172220087,2010-11-06 18:59:42,150.07667572131973,2,40,0.5501165986061096,3.697483539581299,38.28494292373186,38.32791410588885,152.89503034220735,139.76222859339205,0.0006475448608398,0.0939245000481605,0,0,0
12855,448557.0352267216,2010-11-06 19:00:12,180.0946804542878,2,40,0.5499359965324402,3.7195000648498535,38.28952998123,38.32791410588885,152.91204287283975,139.76222859339205,0.0005504131549969,0.0939245000481605,0,0,0
12856,448587.0482552984,2010-11-06 19:00:42,210.10770901095427,2,40,0.5501165986061096,3.738440752029419,38.29411633512508,38.32791410588885,152.92914678762716,139.76222859339205,0.0005180359003134,0.0939245000481605,0,0,0
12857,448617.0633365588,2010-11-06 19:01:12,240.12279026647283,2,40,0.550297200679779,3.753495931625366,38.298702896256096,38.32791410588885,152.94632915046734,139.76222859339205,0.0003561019839253,0.0939245000481605,0,0,0
12858,448647.0788352513,2010-11-06 19:01:42,270.1382889639909,2,40,0.5499359965324402,3.763209104537964,38.303289622954296,38.32791410588885,152.9635697835926,139.76222859339205,0.0001618862152099,0.0939245000481605,0,0,0
12859,448677.0940511479,2010-11-06 19:02:12,300.15350486059435,2,40,0.5501165986061096,3.769198894500733,38.30787632400857,38.32791410588885,152.9808458180747,139.76222859339205,9.713172767078504e-05,0.0939245000481605,0,0,0
12860,448707.1094325126,2010-11-06 19:02:42,330.1688862452815,2,40,0.5501165986061096,3.773407936096192,38.3124631235979,38.32791410588885,152.99814454116887,139.76222859339205,9.713172767078504e-05,0.0939245000481605,0,0,0
12861,448737.1247866844,2010-11-06 19:03:12,360.1842403919784,2,40,0.5501165986061096,3.777131319046021,38.31704986682114,38.32791410588885,153.01546087600977,139.76222859339205,0.0001295089750783,0.0939245000481605,0,0,0
12862,448767.1401694274,2010-11-06 19:03:42,390.1996231350563,2,40,0.550297200679779,3.78069281578064,38.32163659977968,38.32791410588885,153.03279373610292,139.76222859339205,9.713172767078504e-05,0.0939245000481605,0,0,0
12863,448797.1555236895,2010-11-06 19:04:12,420.2149774020536,2,40,0.5501165986061096,3.784092426300049,38.3262233576237,38.32791410588885,153.0501425462253,139.76222859339205,6.47544875391759e-05,0.0939245000481605,0,0,0
12864,448827.1708933197,2010-11-06 19:04:42,450.2303470273876,2,40,0.550297200679779,3.787330150604248,38.33081005654072,38.32791410588885,153.06750652960943,139.76222859339205,6.47544875391759e-05,0.0939245000481605,0,0,0
12865,448857.1862391457,2010-11-06 19:05:12,480.2456928583271,2,40,0.5501165986061096,3.790729761123657,38.33539683215952,38.32791410588885,153.0848857415914,139.76222859339205,0.0001295089750783,0.0939245000481605,0,0,0
12866,448887.2016475629,2010-11-06 19:05:42,510.261101270479,2,40,0.5501165986061096,3.793643712997437,38.339983550658935,38.32791410588885,153.10227916581306,139.76222859339205,6.47544875391759e-05,0.0939245000481605,0,0,0
12867,448917.21698062686,2010-11-06 19:06:12,540.2764343345506,2,40,0.550297200679779,3.796881437301636,38.34457025117629,38.32791410588885,153.11968678319863,139.76222859339205,9.713172767078504e-05,0.0939245000481605,0,0,0
12868,448947.23236104415,2010-11-06 19:06:42,570.2918147518228,2,40,0.5499359965324402,3.799795389175415,38.34915694405994,38.32791410588885,153.1371082944274,139.76222859339205,9.713172767078504e-05,0.0939245000481605,0,0,0
12869,448977.2477369602,2010-11-06 19:07:12,600.3071906678593,2,40,0.5499359965324402,3.802547454833984,38.353743673641205,38.32791410588885,153.1545436049971,139.76222859339205,3.237724376958795e-05,0.0939245000481605,0,0,0
12870,449007.2630745606,2010-11-06 19:07:42,630.3225282682542,2,40,0.550297200679779,3.805785179138184,38.35833037978587,38.32791410588885,153.1719923441783,139.76222859339205,6.47544875391759e-05,0.0939245000481605,0,0,0
12871,449037.2784396948,2010-11-06 19:08:12,660.33789340739,2,40,0.5501165986061096,3.808537244796753,38.36291712093913,38.32791410588885,153.1894547410262,139.76222859339205,6.47544875391759e-05,0.0939245000481605,0,0,0
12872,449067.2940122014,2010-11-06 19:08:42,690.3534659091347,2,40,0.5501165986061096,3.811613082885742,38.367503931652855,38.32791410588885,153.2069309808175,139.76222859339205,9.713172767078504e-05,0.0939245000481605,0,0,0
12873,449097.3092898172,2010-11-06 19:09:12,720.3687435298109,2,40,0.5501165986061096,3.814688920974731,38.37209064232287,38.32791410588885,153.22442076166212,139.76222859339205,6.47544875391759e-05,0.0939245000481605,0,0,0
12874,449127.3245384354,2010-11-06 19:09:42,750.3839921430803,2,40,0.550297200679779,3.8177647590637207,38.37667738561127,38.32791410588885,153.24192492445837,139.76222859339205,6.47544875391759e-05,0.0939245000481605,0,0,0
12875,449157.3398997751,2010-11-06 19:10:12,780.3993534877445,2,40,0.5499359965324402,3.82084059715271,38.38126405024842,38.32791410588885,153.25944325979725,139.76222859339205,6.47544875391759e-05,0.0939245000481605,0,0,0
12876,449187.35529599176,2010-11-06 19:10:42,810.414749699442,2,40,0.5501165986061096,3.824402093887329,38.38585078977522,38.32791410588885,153.27697685047406,139.76222859339205,9.713172767078504e-05,0.0939245000481605,0,0,0
12877,449217.3707554113,2010-11-06 19:11:12,840.4302091289411,2,40,0.5501165986061096,3.8278017044067374,38.390437540659335,38.32791410588885,153.29452588115933,139.76222859339205,9.713172767078504e-05,0.0939245000481605,0,0,0
12878,449247.38596839056,2010-11-06 19:11:42,870.4454220982376,2,40,0.5499359965324402,3.831201314926148,38.39502425448016,38.32791410588885,153.31209041641247,139.76222859339205,9.713172767078504e-05,0.0939245000481605,0,0,0
12879,449277.4013556249,2010-11-06 19:12:12,900.4608093275136,2,40,0.5499359965324402,3.834438800811768,38.39961106436692,38.32791410588885,153.32967111019548,139.76222859339205,6.47544875391759e-05,0.0939245000481605,0,0,0
12880,449307.4167466787,2010-11-06 19:12:42,930.476200386349,2,40,0.5501165986061096,3.8378384113311768,38.40419785124955,38.32791410588885,153.34726748827703,139.76222859339205,6.47544875391759e-05,0.0939245000481605,0,0,0
12881,449337.4322114015,2010-11-06 19:13:12,960.4916651140732,2,40,0.5501165986061096,3.841399908065796,38.40878461455931,38.32791410588885,153.36487942830578,139.76222859339205,9.713172767078504e-05,0.0939245000481605,0,0,0
12882,449367.44747265126,2010-11-06 19:13:42,990.5069263488476,2,40,0.5501165986061096,3.844799518585205,38.41337137114409,38.32791410588885,153.3825067661456,139.76222859339205,6.47544875391759e-05,0.0939245000481605,0,0,0
12883,449397.4628274496,2010-11-06 19:14:12,1020.5222811571964,2,40,0.5499359965324402,3.848037242889404,38.417958165131125,38.32791410588885,153.40014937925417,139.76222859339205,9.713172767078504e-05,0.0939245000481605,0,0,0
12884,449427.4781810549,2010-11-06 19:14:43,1050.5376347625418,2,40,0.5501165986061096,3.851274967193604,38.42254502542849,38.32791410588885,153.41780717429305,139.76222859339205,9.713172767078504e-05,0.0939245000481605,0,0,0
12885,449457.4935352668,2010-11-06 19:15:13,1080.5529889744014,2,40,0.5501165986061096,3.8543508052825928,38.42713188850826,38.32791410588885,153.43547957620584,139.76222859339205,6.47544875391759e-05,0.0939245000481605,0,0,0
12886,449487.50890867657,2010-11-06 19:15:43,1110.568362384182,2,40,0.5501165986061096,3.857426643371582,38.431718781492734,38.32791410588885,153.4531662737289,139.76222859339205,9.713172767078504e-05,0.0939245000481605,0,0,0
12887,449517.524268362,2010-11-06 19:16:13,1140.583722069705,2,40,0.550297200679779,3.8605024814605713,38.43630560008052,38.32791410588885,153.47086644513092,139.76222859339205,6.47544875391759e-05,0.0939245000481605,0,0,0
12888,449547.5396451703,2010-11-06 19:16:43,1170.5990988779686,2,40,0.550297200679779,3.8632545471191406,38.440892469310334,38.32791410588885,153.48858017565485,139.76222859339205,6.47544875391759e-05,0.0939245000481605,0,0,0
12889,449577.55500405387,2010-11-06 19:17:13,1200.6144577614891,2,40,0.5501165986061096,3.86616849899292,38.44547928572226,38.32791410588885,153.50630637352134,139.76222859339205,0.0001295089750783,0.0939245000481605,0,0,0
12890,449607.57039710274,2010-11-06 19:17:43,1230.629850810292,2,40,0.5499359965324402,3.8682730197906494,38.45006608558714,38.32791410588885,153.52404475617425,139.76222859339205,3.237724376958795e-05,0.0939245000481605,0,0,0
12891,449637.5857313397,2010-11-06 19:18:13,1260.6451850472913,2,40,0.550297200679779,3.871348857879639,38.45465289066991,38.32791410588885,153.5417948023551,139.76222859339205,9.713172767078504e-05,0.0939245000481605,0,0,0
12892,449667.60110951134,2010-11-06 19:18:43,1290.660563218958,2,40,0.5501165986061096,3.873291492462158,38.45923973081302,38.32791410588885,153.55955605167557,139.76222859339205,3.237724376958795e-05,0.0939245000481605,0,0,0
12893,449697.6164646054,2010-11-06 19:19:13,1320.67591831302,2,40,0.550297200679779,3.875719785690308,38.46382656844376,38.32791410588885,153.57732760726344,139.76222859339205,9.713172767078504e-05,0.0939245000481605,0,0,0
12894,449727.6318316843,2010-11-06 19:19:43,1350.6912853919978,2,40,0.550297200679779,3.877824306488037,38.4684132661284,38.32791410588885,153.59510844087438,139.76222859339205,9.713172767078504e-05,0.0939245000481605,0,0,0
12895,449757.64720068814,2010-11-06 19:20:13,1380.7066543957803,2,40,0.5499359965324402,3.8796050548553462,38.47300009159462,38.32791410588885,153.61289900536053,139.76222859339205,6.47544875391759e-05,0.0939245000481605,0,0,0
12896,449787.6627634256,2010-11-06 19:20:43,1410.7222171732517,2,40,0.5501165986061096,3.881385803222656,38.47758696676463,38.32791410588885,153.6306983342427,139.76222859339205,6.47544875391759e-05,0.0939245000481605,0,0,0
12897,449817.6779464351,2010-11-06 19:21:13,1440.7374001426638,2,40,0.5501165986061096,3.883166551589966,38.482173721994656,38.32791410588885,153.64850524752077,139.76222859339205,6.47544875391759e-05,0.0939245000481605,0,0,0
12898,449847.6932941758,2010-11-06 19:21:43,1470.7527478833704,2,40,0.5501165986061096,3.8847854137420654,38.4867605572048,38.32791410588885,153.66632005815725,139.76222859339205,6.47544875391759e-05,0.0939245000481605,0,0,0
12899,449877.7086586682,2010-11-06 19:22:13,1500.7681123758923,2,40,0.550297200679779,3.886242389678955,38.4913474051302,38.32791410588885,153.6841420162037,139.76222859339205,3.237724376958795e-05,0.0939245000481605,0,0,0
12900,449907.7240366945,2010-11-06 19:22:43,1530.7834904021963,2,40,0.550297200679779,3.8876993656158447,38.4959341915848,38.32791410588885,153.7019705531614,139.76222859339205,3.237724376958795e-05,0.0939245000481605,0,0,0
12901,449937.7393897585,2010-11-06 19:23:13,1560.798843471203,2,40,0.5499359965324402,3.888994455337525,38.50052102191284,38.32791410588885,153.7198059052432,139.76222859339205,3.237724376958795e-05,0.0939245000481605,0,0,0
12902,449967.7547643563,2010-11-06 19:23:43,1590.8142180639366,2,40,0.5501165986061096,3.890613317489624,38.505107896121125,38.32791410588885,153.73764776372064,139.76222859339205,6.47544875391759e-05,0.0939245000481605,0,0,0
12903,449997.7702008435,2010-11-06 19:24:13,1620.8296545812432,2,40,0.550297200679779,3.891908407211304,38.509694661222646,38.32791410588885,153.7554953785258,139.76222859339205,3.237724376958795e-05,0.0939245000481605,0,0,0
12904,450027.7857133104,2010-11-06 19:24:43,1650.8451670180566,2,40,0.5499359965324402,3.893041610717773,38.51428158790586,38.32791410588885,153.7733497902098,139.76222859339205,0.0,0.0939245000481605,0,0,0
12905,450057.8009144402,2010-11-06 19:25:13,1680.8603681427871,2,40,0.5501165986061096,3.894498586654663,38.51886841706112,38.32791410588885,153.79120989887963,139.76222859339205,6.47544875391759e-05,0.0939245000481605,0,0,0
12906,450087.8162169932,2010-11-06 19:25:43,1710.8756707307855,2,40,0.5501165986061096,3.895793676376343,38.52345528037582,38.32791410588885,153.80907573549274,139.76222859339205,6.47544875391759e-05,0.0939245000481605,0,0,0
12907,450117.8315939667,2010-11-06 19:26:13,1740.8910476643623,2,40,0.5501165986061096,3.896926879882813,38.5280421009165,38.32791410588885,153.8269474565301,139.76222859339205,3.237724376958795e-05,0.0939245000481605,0,0,0
12908,450147.8471013911,2010-11-06 19:26:43,1770.9065550986886,2,40,0.5499359965324402,3.898221969604492,38.532628993674095,38.32791410588885,153.84482543622906,139.76222859339205,3.237724376958795e-05,0.0939245000481605,0,0,0
12909,450177.8624907356,2010-11-06 19:27:13,1800.9219444382322,2,40,0.550297200679779,3.899678945541382,38.537215775474905,38.32791410588885,153.86270902748916,139.76222859339205,6.47544875391759e-05,0.0939245000481605,0,0,0
12910,450207.8776790082,2010-11-06 19:27:43,1830.937132715895,2,40,0.550297200679779,3.9009740352630615,38.54180264064732,38.32791410588885,153.88059890344448,139.76222859339205,3.237724376958795e-05,0.0939245000481605,0,0,0
12911,450237.893086062,2010-11-06 19:28:13,1860.952539769656,2,40,0.5501165986061096,3.902269124984741,38.546389432284805,38.32791410588885,153.8984945882961,139.76222859339205,3.237724376958795e-05,0.0939245000481605,0,0,0
12912,450267.90854862926,2010-11-06 19:28:43,1890.9680023269625,2,40,0.5499359965324402,3.903402328491211,38.55097629955706,38.32791410588885,153.91639664339132,139.76222859339205,0.0,0.0939245000481605,0,0,0
12913,450297.92390674097,2010-11-06 19:29:13,1920.983360438556,2,40,0.5501165986061096,3.9048593044281006,38.55556312538054,38.32791410588885,153.9343047015796,139.76222859339205,0.0,0.0939245000481605,0,0,0
12914,450327.9391633642,2010-11-06 19:29:43,1950.9986170718448,2,40,0.5501165986061096,3.90615439414978,38.56014995614099,38.32791410588885,153.9522187666382,139.76222859339205,3.237724376958795e-05,0.0939245000481605,0,0,0
12915,450357.9545326988,2010-11-06 19:30:13,1981.013986396428,2,40,0.550297200679779,3.90744948387146,38.564736758862566,38.32791410588885,153.97013889021542,139.76222859339205,3.237724376958795e-05,0.0939245000481605,0,0,0
12916,450387.969887873,2010-11-06 19:30:43,2011.0293415757023,2,40,0.5499359965324402,3.9089064598083496,38.56932352316628,38.32791410588885,153.98806501308843,139.76222859339205,3.237724376958795e-05,0.0939245000481605,0,0,0
12917,450417.985243714,2010-11-06 19:31:13,2041.0446974166284,2,40,0.550297200679779,3.9103634357452393,38.57391035015956,38.32791410588885,154.00599769208094,139.76222859339205,6.47544875391759e-05,0.0939245000481605,0,0,0
12918,450448.00062498346,2010-11-06 19:31:43,2071.060078676003,2,40,0.5501165986061096,3.911658525466919,38.57849718448416,38.32791410588885,154.0239366035197,139.76222859339205,0.0,0.0939245000481605,0,0,0
12919,450478.0185487593,2010-11-06 19:32:13,2101.078002456902,2,40,0.5499359965324402,3.9127917289733887,38.583084364472704,38.32791410588885,154.04188324175158,139.76222859339205,-3.237724376958795e-05,0.0939245000481605,0,0,0
12920,450508.0315884488,2010-11-06 19:32:43,2131.091042176433,2,40,0.5501165986061096,3.914572238922119,38.58767086055499,38.32791410588885,154.05983358081724,139.76222859339205,6.47544875391759e-05,0.0939245000481605,0,0,0
12921,450538.04673404485,2010-11-06 19:33:13,2161.106187747493,2,40,0.5501165986061096,3.915705442428589,38.5922576578032,38.32791410588885,154.07779152248452,139.76222859339205,0.0,0.0939245000481605,0,0,0
12922,450568.0621053945,2010-11-06 19:33:43,2191.121559102144,2,40,0.5501165986061096,3.9171624183654794,38.59684453529968,38.32791410588885,154.09575622472414,139.76222859339205,3.237724376958795e-05,0.0939245000481605,0,0,0
12923,450598.07743759145,2010-11-06 19:34:13,2221.13689129905,2,40,0.5501165986061096,3.918619394302368,38.60143127238699,38.32791410588885,154.11372693795093,139.76222859339205,3.237724376958795e-05,0.0939245000481605,0,0,0
12924,450628.09281973296,2010-11-06 19:34:43,2251.152273440627,2,40,0.5501165986061096,3.920076370239258,38.60601814008556,38.32791410588885,154.13170474541573,139.76222859339205,3.237724376958795e-05,0.0939245000481605,0,0,0
12925,450658.1083180645,2010-11-06 19:35:13,2281.1677717822568,2,40,0.5501165986061096,3.921533346176148,38.61060502907638,38.32791410588885,154.14968918781625,139.76222859339205,3.237724376958795e-05,0.0939245000481605,0,0,0
12926,450688.1235297056,2010-11-06 19:35:43,2311.182983403188,2,40,0.5501165986061096,3.922990322113037,38.61519179528346,38.32791410588885,154.167679804334,139.76222859339205,6.47544875391759e-05,0.0939245000481605,0,0,0
12927,450718.13903258846,2010-11-06 19:36:13,2341.1984862961776,2,40,0.5499359965324402,3.924285411834717,38.61977867011712,38.32791410588885,154.18567757088053,139.76222859339205,3.237724376958795e-05,0.0939245000481605,0,0,0
12928,450748.15428166295,2010-11-06 19:36:43,2371.2137353655853,2,40,0.5501165986061096,3.925904273986816,38.62436542925814,38.32791410588885,154.20368167440293,139.76222859339205,3.237724376958795e-05,0.0939245000481605,0,0,0
12929,450778.1696219651,2010-11-06 19:37:13,2401.229075662712,2,40,0.550297200679779,3.927523136138916,38.62895228104349,38.32791410588885,154.2216928557064,139.76222859339205,6.47544875391759e-05,0.0939245000481605,0,0,0
12930,450808.185120016,2010-11-06 19:37:43,2431.2445737236408,2,40,0.550297200679779,3.929141998291016,38.63353910504546,38.32791410588885,154.2397108457423,139.76222859339205,9.713172767078504e-05,0.0939245000481605,0,0,0
12931,450838.20035566686,2010-11-06 19:38:13,2461.259809364529,2,40,0.5501165986061096,3.9304370880126953,38.638125920965415,38.32791410588885,154.25773580027646,139.76222859339205,3.237724376958795e-05,0.0939245000481605,0,0,0
12932,450868.2157307609,2010-11-06 19:38:43,2491.2751844635263,2,40,0.5501165986061096,3.932055950164795,38.64271273916102,38.32791410588885,154.27576775067985,139.76222859339205,3.237724376958795e-05,0.0939245000481605,0,0,0
12933,450898.2310707773,2010-11-06 19:39:13,2521.2905244849644,2,40,0.5501165986061096,3.933512926101685,38.64729949810624,38.32791410588885,154.2938065794964,139.76222859339205,3.237724376958795e-05,0.0939245000481605,0,0,0
12934,450928.2464884426,2010-11-06 19:39:43,2551.305942150213,2,40,0.5501165986061096,3.934969902038574,38.651886239856665,38.32791410588885,154.31185241904612,139.76222859339205,0.0,0.0939245000481605,0,0,0
12935,450958.2618511005,2010-11-06 19:40:13,2581.321304808156,2,40,0.550297200679779,3.936750650405884,38.65647315234615,38.32791410588885,154.32990605275808,139.76222859339205,9.713172767078504e-05,0.0939245000481605,0,0,0
12936,450988.27721896645,2010-11-06 19:40:43,2611.336672674098,2,40,0.5501165986061096,3.938369512557984,38.66105991547746,38.32791410588885,154.34796633223445,139.76222859339205,6.47544875391759e-05,0.0939245000481605,0,0,0
12937,451018.2773364701,2010-11-06 19:41:13,2641.33679019784,2,40,0.550297200679779,3.939826488494873,38.66564442516862,38.32791410588885,154.36602501170452,139.76222859339205,3.237724376958795e-05,0.0939245000481605,0,0,0
12938,451048.2924400062,2010-11-06 19:41:43,2671.351893718937,2,40,0.550297200679779,3.941607236862183,38.67023120360364,38.32791410588885,154.3840999463236,139.76222859339205,6.47544875391759e-05,0.0939245000481605,0,0,0
12939,451078.3078117519,2010-11-06 19:42:13,2701.3672654645634,2,40,0.550297200679779,3.943064212799072,38.67481806268852,38.32791410588885,154.40218251753862,139.76222859339205,3.237724376958795e-05,0.0939245000481605,0,0,0
12940,451108.323049884,2010-11-06 19:42:43,2731.382503591657,2,40,0.5501165986061096,3.944683074951172,38.67940487231762,38.32791410588885,154.4202724171498,139.76222859339205,3.237724376958795e-05,0.0939245000481605,0,0,0
12941,451138.3384320156,2010-11-06 19:43:13,2761.397885728222,2,40,0.550297200679779,3.9464638233184814,38.6839917572653,38.32791410588885,154.43837017867114,139.76222859339205,3.237724376958795e-05,0.0939245000481605,0,0,0
12942,451168.3537823978,2010-11-06 19:43:43,2791.413236110522,2,40,0.550297200679779,3.948082685470581,38.68857856979406,38.32791410588885,154.4564750825125,139.76222859339205,3.237724376958795e-05,0.0939245000481605,0,0,0
12943,451198.3691473064,2010-11-06 19:44:13,2821.428601019082,2,40,0.5501165986061096,3.949539661407471,38.69316534700119,38.32791410588885,154.47458748922244,139.76222859339205,0.0,0.0939245000481605,0,0,0
12944,451228.3845415532,2010-11-06 19:44:43,2851.4439952608627,2,40,0.5501165986061096,3.95132040977478,38.69775214020278,38.32791410588885,154.4927076857967,139.76222859339205,0.0,0.0939245000481605,0,0,0
12945,451258.4000129926,2010-11-06 19:45:13,2881.459466710365,2,40,0.550297200679779,3.95310115814209,38.70233897165687,38.32791410588885,154.51083572374645,139.76222859339205,6.47544875391759e-05,0.0939245000481605,0,0,0
12946,451288.415374182,2010-11-06 19:45:43,2911.474827894629,2,40,0.550297200679779,3.9548819065094,38.70692575773908,38.32791410588885,154.52897138178758,139.76222859339205,6.47544875391759e-05,0.0939245000481605,0,0,0
12947,451318.430738449,2010-11-06 19:46:13,2941.490192156576,2,40,0.5501165986061096,3.956500768661499,38.711512627551855,38.32791410588885,154.54711535319422,139.76222859339205,3.237724376958795e-05,0.0939245000481605,0,0,0
12948,451348.4460981795,2010-11-06 19:46:43,2971.505551887211,2,40,0.5499359965324402,3.9582815170288086,38.71609949345623,38.32791410588885,154.56526720294764,139.76222859339205,3.237724376958795e-05,0.0939245000481605,0,0,0
12949,451378.4613511086,2010-11-06 19:47:14,3001.520804816253,2,40,0.5501165986061096,3.960062265396118,38.72068628139488,38.32791410588885,154.58342687186976,139.76222859339205,3.237724376958795e-05,0.0939245000481605,0,0,0
12950,451408.47671183175,2010-11-06 19:47:44,3031.536165539366,2,40,0.5501165986061096,3.961843013763428,38.72527315018814,38.32791410588885,154.60159509281905,139.76222859339205,6.47544875391759e-05,0.0939245000481605,0,0,0
12951,451438.49208965246,2010-11-06 19:48:14,3061.5515433601563,2,40,0.550297200679779,3.963623762130737,38.72986002320689,38.32791410588885,154.6197714451508,139.76222859339205,6.47544875391759e-05,0.0939245000481605,0,0,0
12952,451468.5074450724,2010-11-06 19:48:44,3091.566898780032,2,40,0.5501165986061096,3.965404510498047,38.73444689635192,38.32791410588885,154.6379561473911,139.76222859339205,3.237724376958795e-05,0.0939245000481605,0,0,0
12953,451498.5228183669,2010-11-06 19:49:14,3121.582272074524,2,40,0.5501165986061096,3.967185258865357,38.73903377950641,38.32791410588885,154.65614927787215,139.76222859339205,3.237724376958795e-05,0.0939245000481605,0,0,0
12954,451528.5381758218,2010-11-06 19:49:44,3151.5976295294795,2,40,0.5501165986061096,3.969127893447876,38.74362068620785,38.32791410588885,154.67435083542432,139.76222859339205,6.47544875391759e-05,0.0939245000481605,0,0,0
12955,451558.553544194,2010-11-06 19:50:14,3181.612997901685,2,40,0.550297200679779,3.9709086418151855,38.74820754523931,38.32791410588885,154.69256071239369,139.76222859339205,0.0,0.0939245000481605,0,0,0
12956,451588.56902440544,2010-11-06 19:50:44,3211.628478113059,2,40,0.5501165986061096,3.972689390182495,38.75279439868278,38.32791410588885,154.7107791726527,139.76222859339205,3.237724376958795e-05,0.0939245000481605,0,0,0
12957,451618.5842784372,2010-11-06 19:51:14,3241.643732144854,2,40,0.550297200679779,3.9747939109802246,38.75738130749644,38.32791410588885,154.72900651844913,139.76222859339205,6.47544875391759e-05,0.0939245000481605,0,0,0
12958,451648.5996543031,2010-11-06 19:51:44,3271.659108010765,2,40,0.550297200679779,3.976736545562744,38.7619682132071,38.32791410588885,154.74724263358488,139.76222859339205,6.47544875391759e-05,0.0939245000481605,0,0,0
12959,451678.61499985337,2010-11-06 19:52:14,3301.674453561004,2,40,0.5501165986061096,3.978355407714844,38.76655518998059,38.32791410588885,154.76548755204266,139.76222859339205,0.0,0.0939245000481605,0,0,0
12960,451708.6303743458,2010-11-06 19:52:44,3331.6898280534874,2,40,0.5501165986061096,3.980621814727783,38.77114197345031,38.32791410588885,154.78374103803677,139.76222859339205,6.47544875391759e-05,0.0939245000481605,0,0,0
12961,451738.645801981,2010-11-06 19:53:14,3361.7052556886224,2,40,0.5501165986061096,3.982564449310303,38.77572877404016,38.32791410588885,154.80200368682958,139.76222859339205,6.47544875391759e-05,0.0939245000481605,0,0,0
12962,451768.6611010602,2010-11-06 19:53:44,3391.7205547678627,2,40,0.5501165986061096,3.984345197677612,38.78031557420787,38.32791410588885,154.82027542568306,139.76222859339205,3.237724376958795e-05,0.0939245000481605,0,0,0
12963,451798.6765385951,2010-11-06 19:54:14,3421.7359923728845,2,40,0.5501165986061096,3.986611604690552,38.784902433225504,38.32791410588885,154.8385566151459,139.76222859339205,6.47544875391759e-05,0.0939245000481605,0,0,0
12964,451828.691845569,2010-11-06 19:54:44,3451.751299276656,2,40,0.5501165986061096,3.988716125488281,38.78948929469876,38.32791410588885,154.85684714379389,139.76222859339205,9.713172767078504e-05,0.0939245000481605,0,0,0
12965,451858.70724431705,2010-11-06 19:55:14,3481.7666980246845,2,40,0.5501165986061096,3.990658760070801,38.79407612248822,38.32791410588885,154.87514698754552,139.76222859339205,3.237724376958795e-05,0.0939245000481605,0,0,0
12966,451888.7225753811,2010-11-06 19:55:44,3511.782029088764,2,40,0.5499359965324402,3.99260139465332,38.79866290062366,38.32791410588885,154.89345619759607,139.76222859339205,3.237724376958795e-05,0.0939245000481605,0,0,0
12967,451918.7379477584,2010-11-06 19:56:14,3541.7974014659667,2,40,0.5499359965324402,3.9948675632476807,38.80324970893358,38.32791410588885,154.9117751475208,139.76222859339205,6.47544875391759e-05,0.0939245000481605,0,0,0
12968,451948.75332691247,2010-11-06 19:56:44,3571.8127806200864,2,40,0.550297200679779,3.99713397026062,38.80783656709885,38.32791410588885,154.93010417738222,139.76222859339205,6.47544875391759e-05,0.0939245000481605,0,0,0
12969,451978.7689051184,2010-11-06 19:57:14,3601.8283588260697,2,40,0.550297200679779,3.99940037727356,38.81242342135595,38.32791410588885,154.94844305377893,139.76222859339205,9.713172767078504e-05,0.0939245000481605,0,0,0
12970,452008.78409964166,2010-11-06 19:57:44,3631.8435533493225,2,40,0.5501165986061096,4.001343250274658,38.81701013170337,38.32791410588885,154.96679141804165,139.76222859339205,3.24249267578125e-05,0.0939245000481605,0,0,0
12971,452038.79951438966,2010-11-06 19:58:14,3661.8589680972887,2,40,0.5501165986061096,4.003609657287598,38.82159696092906,38.32791410588885,154.98515040872132,139.76222859339205,3.24249267578125e-05,0.0939245000481605,0,0,0
12972,452068.8147847873,2010-11-06 19:58:44,3691.874238519998,2,40,0.550297200679779,4.005876064300537,38.826183750000936,38.32791410588885,155.00351935342988,139.76222859339205,3.24249267578125e-05,0.0939245000481605,0,0,0
12973,452098.8302842918,2010-11-06 19:59:14,3721.889737999468,2,40,0.5499359965324402,4.008142471313477,38.83077056816776,38.32791410588885,155.02189877238172,139.76222859339205,6.47544875391759e-05,0.0939245000481605,0,0,0
12974,452128.8456416616,2010-11-06 19:59:44,3751.9050953692094,2,40,0.5501165986061096,4.010408878326416,38.83535734724693,38.32791410588885,155.0402884426561,139.76222859339205,3.24249267578125e-05,0.0939245000481605,0,0,0
12975,452158.8608523152,2010-11-06 20:00:14,3781.920306022726,2,40,0.550297200679779,4.012675285339356,38.839944156980906,38.32791410588885,155.0586887382058,139.76222859339205,6.47544875391759e-05,0.0939245000481605,0,0,0
12976,452188.8762267124,2010-11-06 20:00:44,3811.935680424984,2,40,0.550297200679779,4.015103340148926,38.84453088968178,38.32791410588885,155.07709920713032,139.76222859339205,6.47544875391759e-05,0.0939245000481605,0,0,0
12977,452218.8915913903,2010-11-06 20:01:14,3841.951045102968,2,40,0.550297200679779,4.017369747161865,38.84911769278393,38.32791410588885,155.09552062859458,139.76222859339205,6.47544875391759e-05,0.0939245000481605,0,0,0
12978,452248.9071070552,2010-11-06 20:01:44,3871.9665607878896,2,40,0.550297200679779,4.019636154174805,38.85370448001721,38.32791410588885,155.1139526432556,139.76222859339205,6.47544875391759e-05,0.0939245000481605,0,0,0
12979,452278.9223321547,2010-11-06 20:02:14,3901.981785867415,2,40,0.5501165986061096,4.022064685821533,38.85829128151831,38.32791410588885,155.13239559248362,139.76222859339205,6.47544875391759e-05,0.0939245000481605,0,0,0
12980,452308.93767938414,2010-11-06 20:02:44,3931.997133091833,2,40,0.550297200679779,4.024331092834473,38.862878056766895,38.32791410588885,155.1508493250069,139.76222859339205,3.24249267578125e-05,0.0939245000481605,0,0,0
12981,452338.95305223257,2010-11-06 20:03:14,3962.0125059402126,2,40,0.5499359965324402,4.026759147644043,38.86746489703821,38.32791410588885,155.16931427323453,139.76222859339205,3.23295607813634e-05,0.0939245000481605,0,0,0
12982,452368.9685398223,2010-11-06 20:03:44,3992.027993530003,2,40,0.5501165986061096,4.029187679290772,38.872051707336254,38.32791410588885,155.18779020833273,139.76222859339205,6.47544875391759e-05,0.0939245000481605,0,0,0
12983,452398.9839038537,2010-11-06 20:04:14,4022.0433575663874,2,40,0.5501165986061096,4.031615734100342,38.876638491619765,38.32791410588885,155.2062771031459,139.76222859339205,3.23295607813634e-05,0.0939245000481605,0,0,0
12984,452429.0019094237,2010-11-06 20:04:44,4052.0613632166446,2,40,0.5501165986061096,4.034205913543701,38.88122563896536,38.32791410588885,155.22477669898714,139.76222859339205,6.47544875391759e-05,0.0939245000481605,0,0,0
12985,452459.01493886765,2010-11-06 20:05:14,4082.074392580326,2,40,0.5501165986061096,4.036633968353272,38.88581202149323,38.32791410588885,155.24328455685583,139.76222859339205,6.47544875391759e-05,0.0939245000481605,0,0,0
12986,452489.0299033517,2010-11-06 20:05:44,4112.089357059353,2,40,0.5504778623580933,4.039224147796631,38.89039871421205,38.32791410588885,155.26180513949544,139.76222859339205,9.70840483205393e-05,0.0939245000481605,0,0,0
12987,452519.0452583555,2010-11-06 20:06:14,4142.104712063188,2,40,0.5499359965324402,4.041652679443359,38.894985495294414,38.32791410588885,155.28033753604922,139.76222859339205,6.47544875391759e-05,0.0939245000481605,0,0,0
12988,452549.0606149283,2010-11-06 20:06:44,4172.120068635942,2,40,0.5501165986061096,4.044242858886719,38.89957224436641,38.32791410588885,155.29888144699967,139.76222859339205,9.71794142969884e-05,0.0939245000481605,0,0,0
12989,452579.0759911852,2010-11-06 20:07:14,4202.135444892829,2,40,0.5501165986061096,4.046670913696289,38.90415907731452,38.32791410588885,155.31743740006266,139.76222859339205,6.47544875391759e-05,0.0939245000481605,0,0,0
12990,452609.0913599233,2010-11-06 20:07:44,4232.150813630948,2,40,0.550297200679779,4.0494232177734375,38.90874588611915,38.32791410588885,155.3360050983792,139.76222859339205,9.71794142969884e-05,0.0939245000481605,0,0,0
12991,452639.1067185863,2010-11-06 20:08:14,4262.16617229893,2,40,0.5501165986061096,4.052013397216797,38.91333272175072,38.32791410588885,155.35458486185365,139.76222859339205,6.47544875391759e-05,0.0939245000481605,0,0,0
12992,452669.1221089634,2010-11-06 20:08:44,4292.181562671052,2,40,0.5501165986061096,4.054603576660156,38.917919556919,38.32791410588885,155.3731767506796,139.76222859339205,6.47544875391759e-05,0.0939245000481605,0,0,0
12993,452699.1374855511,2010-11-06 20:09:14,4322.196939258765,2,40,0.5501165986061096,4.0573554039001465,38.92250642055422,38.32791410588885,155.39178099432468,139.76222859339205,6.47544875391759e-05,0.0939245000481605,0,0,0
12994,452729.1528168558,2010-11-06 20:09:44,4352.212270563445,2,40,0.550297200679779,4.060107707977295,38.92709330498352,38.32791410588885,155.4103976849923,139.76222859339205,9.71794142969884e-05,0.0939245000481605,0,0,0
12995,452759.1681827368,2010-11-06 20:10:14,4382.227636449445,2,40,0.550297200679779,4.062697887420654,38.931680156546285,38.32791410588885,155.42902633359398,139.76222859339205,6.47544875391759e-05,0.0939245000481605,0,0,0
12996,452789.1835461416,2010-11-06 20:10:44,4412.242999849239,2,40,0.550297200679779,4.0654497146606445,38.93626696766298,38.32791410588885,155.44766748924772,139.76222859339205,3.23295607813634e-05,0.0939245000481605,0,0,0
12997,452819.198917817,2010-11-06 20:11:14,4442.258371529703,2,40,0.5501165986061096,4.068202018737793,38.940853791451445,38.32791410588885,155.46632131023546,139.76222859339205,6.47544875391759e-05,0.0939245000481605,0,0,0
12998,452849.2142754926,2010-11-06 20:11:44,4472.273729205209,2,40,0.5501165986061096,4.070953845977783,38.945440545330925,38.32791410588885,155.4849876524017,139.76222859339205,6.47544875391759e-05,0.0939245000481605,0,0,0
12999,452879.2296555189,2010-11-06 20:12:14,4502.289109226493,2,40,0.5501165986061096,4.073706150054932,38.95002739021408,38.32791410588885,155.50366713132536,139.76222859339205,3.24249267578125e-05,0.0939245000481605,0,0,0
13000,452909.2450478759,2010-11-06 20:12:44,4532.304501583568,2,40,0.550297200679779,4.076620101928711,38.95461422529114,38.32791410588885,155.52235958525412,139.76222859339205,6.47544875391759e-05,0.0939245000481605,0,0,0
13001,452939.26073173067,2010-11-06 20:13:14,4562.320185438267,2,40,0.550297200679779,4.079695701599121,38.95920111900687,38.32791410588885,155.54106552071497,139.76222859339205,9.70840483205393e-05,0.0939245000481605,0,0,0
13002,452969.27586365264,2010-11-06 20:13:44,4592.335317360257,2,40,0.5501165986061096,4.0826096534729,38.963787924474566,38.32791410588885,155.5597843706499,139.76222859339205,0.0001295089750783,0.0939245000481605,0,0,0
13003,452999.2912393581,2010-11-06 20:14:14,4622.350693065768,2,40,0.550297200679779,4.08552360534668,38.96837472653013,38.32791410588885,155.57851654271707,139.76222859339205,9.70840483205393e-05,0.0939245000481605,0,0,0
13004,453029.3064793749,2010-11-06 20:14:44,4652.365933087592,2,40,0.550297200679779,4.088437557220459,38.97296150565092,38.32791410588885,155.59726211639648,139.76222859339205,9.70840483205393e-05,0.0939245000481605,0,0,0
13005,453059.3218538624,2010-11-06 20:15:14,4682.381307575062,2,40,0.5501165986061096,4.091189861297607,38.97754830672811,38.32791410588885,155.61602133362848,139.76222859339205,3.24249267578125e-05,0.0939245000481605,0,0,0
13006,453089.3372172722,2010-11-06 20:15:44,4712.396670984882,2,40,0.5501165986061096,4.094265460968018,38.98213508012418,38.32791410588885,155.63479401767367,139.76222859339205,9.70840483205393e-05,0.0939245000481605,0,0,0
13007,453119.3526496392,2010-11-06 20:16:14,4742.412103351829,2,40,0.5501165986061096,4.097341537475586,38.98672191551656,38.32791410588885,155.65358092861288,139.76222859339205,9.71794142969884e-05,0.0939245000481605,0,0,0
13008,453149.368097179,2010-11-06 20:16:44,4772.427550896661,2,40,0.5501165986061096,4.100417137145996,38.99130879832207,38.32791410588885,155.67238209050996,139.76222859339205,6.47544875391759e-05,0.0939245000481605,0,0,0
13009,453179.3834679873,2010-11-06 20:17:14,4802.442921704948,2,40,0.5499359965324402,4.103331089019775,38.99589560282684,38.32791410588885,155.69119690591805,139.76222859339205,6.47544875391759e-05,0.0939245000481605,0,0,0
13010,453209.3989276573,2010-11-06 20:17:44,4832.458381375048,2,40,0.5501165986061096,4.106730937957764,39.00048242827461,38.32791410588885,155.71002600393473,139.76222859339205,6.47544875391759e-05,0.0939245000481605,0,0,0
13011,453239.4140833487,2010-11-06 20:18:14,4862.473537051332,2,40,0.5499359965324402,4.109644889831543,39.00506919627513,38.32791410588885,155.72886922593108,139.76222859339205,6.47544875391759e-05,0.0939245000481605,0,0,0
13012,453269.4294118864,2010-11-06 20:18:44,4892.48886559913,2,40,0.5499359965324402,4.112720489501953,39.00965602716893,38.32791410588885,155.74772710857852,139.76222859339205,6.47544875391759e-05,0.0939245000481605,0,0,0
13013,453299.4447883138,2010-11-06 20:19:15,4922.50424202143,2,40,0.5501165986061096,4.116119861602783,39.01424279127179,38.32791410588885,155.76659920333097,139.76222859339205,9.70840483205393e-05,0.0939245000481605,0,0,0
13014,453329.4601643902,2010-11-06 20:19:45,4952.519618097868,2,40,0.550297200679779,4.119195938110352,39.01882966916952,38.32791410588885,155.785486414138,139.76222859339205,6.47544875391759e-05,0.0939245000481605,0,0,0
13015,453359.475468858,2010-11-06 20:20:15,4982.534922575583,2,40,0.550297200679779,4.122595310211182,39.02341656223398,38.32791410588885,155.80438840480977,139.76222859339205,9.70840483205393e-05,0.0939245000481605,0,0,0
13016,453389.490860423,2010-11-06 20:20:45,5012.550314130657,2,40,0.5499359965324402,4.12567138671875,39.02800342872441,38.32791410588885,155.82330506624814,139.76222859339205,6.47544875391759e-05,0.0939245000481605,0,0,0
13017,453419.5062333717,2010-11-06 20:21:15,5042.565687079286,2,40,0.5497553944587708,4.128909111022949,39.03259021849996,38.32791410588885,155.8422363691392,139.76222859339205,9.71794142969884e-05,0.0939245000481605,0,0,0
13018,453449.5216316234,2010-11-06 20:21:45,5072.581085331077,2,40,0.5501165986061096,4.132308483123779,39.03717704083591,38.32791410588885,155.86118279768408,139.76222859339205,0.0001295089750783,0.0939245000481605,0,0,0
13019,453479.537004557,2010-11-06 20:22:15,5102.596458274693,2,40,0.5501165986061096,4.1355462074279785,39.04176386329927,38.32791410588885,155.8801443757839,139.76222859339205,9.70840483205393e-05,0.0939245000481605,0,0,0
13020,453509.55236988165,2010-11-06 20:22:45,5132.61182361433,2,40,0.5501165986061096,4.138946056365967,39.04635070700676,38.32791410588885,155.89912128773125,139.76222859339205,9.71794142969884e-05,0.0939245000481605,0,0,0
13021,453539.5677417074,2010-11-06 20:23:15,5162.627195415093,2,40,0.5499359965324402,4.142183780670166,39.05093752493274,38.32791410588885,155.9181135004387,139.76222859339205,3.24249267578125e-05,0.0939245000481605,0,0,0
13022,453569.5831956733,2010-11-06 20:23:45,5192.642649406018,2,40,0.5501165986061096,4.145745277404785,39.055524314561474,38.32791410588885,155.93712119059813,139.76222859339205,6.47544875391759e-05,0.0939245000481605,0,0,0
13023,453599.5984387127,2010-11-06 20:24:15,5222.65789242031,2,40,0.550297200679779,4.149306774139404,39.06011106124065,38.32791410588885,155.9561445758339,139.76222859339205,0.0001295089750783,0.0939245000481605,0,0,0
13024,453629.6138134758,2010-11-06 20:24:45,5252.673267188482,2,40,0.550297200679779,4.152706146240234,39.06469780274381,38.32791410588885,155.97518360572116,139.76222859339205,0.0001295089750783,0.0939245000481605,0,0,0
13025,453659.6293065794,2010-11-06 20:25:15,5282.688760297049,2,40,0.550297200679779,4.155943870544434,39.06928463072703,38.32791410588885,155.9942387155691,139.76222859339205,6.47544875391759e-05,0.0939245000481605,0,0,0
13026,453689.6445406765,2010-11-06 20:25:45,5312.703994384059,2,40,0.5501165986061096,4.159505367279053,39.07387137737633,38.32791410588885,156.01330934309337,139.76222859339205,9.70840483205393e-05,0.0939245000481605,0,0,0
13027,453719.6599179008,2010-11-06 20:26:15,5342.71937160836,2,40,0.5501165986061096,4.163228988647461,39.07845825490299,38.32791410588885,156.03239662818433,139.76222859339205,0.0001295089750783,0.0939245000481605,0,0,0
13028,453749.67529922025,2010-11-06 20:26:45,5372.734752912848,2,40,0.5499359965324402,4.16646671295166,39.083045084648994,38.32791410588885,156.05149977237045,139.76222859339205,9.71794142969884e-05,0.0939245000481605,0,0,0
13029,453779.6906478231,2010-11-06 20:27:15,5402.750101530743,2,40,0.5501165986061096,4.170028209686279,39.087631905065024,38.32791410588885,156.07061914863502,139.76222859339205,9.71794142969884e-05,0.0939245000481605,0,0,0
13030,453809.7061411572,2010-11-06 20:27:45,5432.765594869887,2,40,0.5501165986061096,4.173751354217529,39.09221871953479,38.32791410588885,156.0897548330105,139.76222859339205,6.47544875391759e-05,0.0939245000481605,0,0,0
13031,453839.7213766578,2010-11-06 20:28:15,5462.780830365412,2,40,0.550297200679779,4.177312850952148,39.09680554596749,38.32791410588885,156.108906900137,139.76222859339205,0.0001295089750783,0.0939245000481605,0,0,0
13032,453869.7368777312,2010-11-06 20:28:45,5492.796331448885,2,40,0.5501165986061096,4.180712699890137,39.10139244049748,38.32791410588885,156.12807581095012,139.76222859339205,6.47544875391759e-05,0.0939245000481605,0,0,0
13033,453899.7522689455,2010-11-06 20:29:15,5522.811722658097,2,40,0.5501165986061096,4.184435844421387,39.10597930223896,38.32791410588885,156.14726124424251,139.76222859339205,6.47544875391759e-05,0.0939245000481605,0,0,0
13034,453929.7674814436,2010-11-06 20:29:45,5552.826935151204,2,40,0.5501165986061096,4.188159465789795,39.11056607056053,38.32791410588885,156.1664629497825,139.76222859339205,0.0001295089750783,0.0939245000481605,0,0,0
13035,453959.7829062867,2010-11-06 20:30:15,5582.842360019434,2,40,0.5501165986061096,4.191882610321045,39.11515294369931,38.32791410588885,156.18568197987375,139.76222859339205,9.70840483205393e-05,0.0939245000481605,0,0,0
13036,453989.7982067343,2010-11-06 20:30:45,5612.857660442026,2,40,0.550297200679779,4.195444107055664,39.119739759219385,38.32791410588885,156.20491775209985,139.76222859339205,6.47544875391759e-05,0.0939245000481605,0,0,0
13037,454019.8135971717,2010-11-06 20:31:15,5642.873050904373,2,40,0.550297200679779,4.199329376220703,39.12432659144658,38.32791410588885,156.2241705649097,139.76222859339205,9.71794142969884e-05,0.0939245000481605,0,0,0
13038,454025.0326823813,2010-11-06 20:31:20,5648.092136098955,2,40,0.550297200679779,4.200300693511963,39.125124144356526,38.32791410588885,156.22751997187055,139.76222859339205,0.0001942634553415,0.0939245000481605,0,0,0
13039,454055.05764438567,2010-11-06 20:31:50,30.01530952531511,3,40,0.0,4.118062496185303,39.125124144356526,38.32791410588885,156.22751997187055,139.76222859339205,-0.0003561973571777,0.0939245000481605,0,0,0
13040,454085.073016417,2010-11-06 20:32:20,60.03068156166739,3,40,0.0,4.108187675476074,39.125124144356526,38.32791410588885,156.22751997187055,139.76222859339205,-0.0001942634553415,0.0939245000481605,0,0,0
13041,454115.0883904685,2010-11-06 20:32:50,90.04605561304949,3,40,0.0,4.102198123931885,39.125124144356526,38.32791410588885,156.22751997187055,139.76222859339205,-0.0001618385285837,0.0939245000481605,0,0,0
13042,454145.0568727508,2010-11-06 20:33:20,120.01453789034936,3,40,0.0,4.0987982749938965,39.125124144356526,38.32791410588885,156.22751997187055,139.76222859339205,-9.71794142969884e-05,0.0939245000481605,0,0,0
13043,454145.0680167598,2010-11-06 20:33:20,0.015651734136363,4,40,0.975090265274048,4.199653148651123,39.12512838376027,38.32791410588885,156.2275377758958,139.76222859339205,0.0,0.0939245000481605,0,0,0
13044,454146.036737987,2010-11-06 20:33:21,0.984372936290972,4,40,0.9247002601623536,4.199814796447754,39.12538238208128,38.32791410588885,156.22860447314116,139.76222859339205,3.23295607813634e-05,0.0939245000481605,0,0,0
13045,454148.2554815624,2010-11-06 20:33:24,3.20311651160011,4,40,0.8744908571243286,4.199491024017334,39.12593558007824,38.32791410588885,156.2309277047137,139.76222859339205,-3.24249267578125e-05,0.0939245000481605,0,0,0
13046,454151.6148089002,2010-11-06 20:33:27,6.562443849454986,4,40,0.8244621157646179,4.199653148651123,39.12672673458556,38.32791410588885,156.23425026398874,139.76222859339205,0.0,0.0939245000481605,0,0,0
13047,454156.1929187267,2010-11-06 20:33:32,11.140553675906398,4,40,0.7744333148002625,4.199653148651123,39.12774195992325,38.32791410588885,156.23851383161724,139.76222859339205,0.0,0.0939245000481605,0,0,0
13048,454162.30221413285,2010-11-06 20:33:38,17.249849082131934,4,40,0.7244045734405518,4.199653148651123,39.12901207851243,38.32791410588885,156.2438478939098,139.76222859339205,3.24249267578125e-05,0.0939245000481605,0,0,0
13049,454170.30215049983,2010-11-06 20:33:46,25.24978544906324,4,40,0.6743757724761963,4.199814796447754,39.13056380977106,38.32791410588885,156.25036464386918,139.76222859339205,3.23295607813634e-05,0.0939245000481605,0,0,0
13050,454181.0833050903,2010-11-06 20:33:56,36.030940039560285,4,40,0.6241664290428162,4.199653148651123,39.13250491116169,38.32791410588885,156.2585166326306,139.76222859339205,0.0,0.0939245000481605,0,0,0
13051,454196.7081698767,2010-11-06 20:34:12,51.655804825892325,4,40,0.5741376280784607,4.199491024017334,39.13509891186258,38.32791410588885,156.26941053920888,139.76222859339205,-6.47544875391759e-05,0.0939245000481605,0,0,0
13052,454221.0829627897,2010-11-06 20:34:36,76.03059773897151,4,40,0.5239282846450806,4.199491024017334,39.13880309529553,38.32791410588885,156.28496685114334,139.76222859339205,-3.24249267578125e-05,0.0939245000481605,0,0,0
13053,454263.8794978804,2010-11-06 20:35:19,118.82713282964014,4,40,0.4738995134830475,4.199653148651123,39.14470707868433,38.32791410588885,156.30976154750505,139.76222859339205,0.0,0.0939245000481605,0,0,0
13054,454336.2383568295,2010-11-06 20:36:32,191.1859917787092,4,40,0.4238707423210144,4.199329376220703,39.15369376845188,38.32791410588885,156.3475021331228,139.76222859339205,-6.47544875391759e-05,0.0939245000481605,0,0,0
13055,454438.28420085553,2010-11-06 20:38:14,293.2318358348339,4,40,0.3738419711589813,4.199653148651123,39.16498080180629,38.32791410588885,156.39490322763805,139.76222859339205,0.0,0.0939245000481605,0,0,0
13056,454561.64263471466,2010-11-06 20:40:17,416.59026966389183,4,40,0.3238131999969482,4.199653148651123,39.17692297356047,38.32791410588885,156.4450565188117,139.76222859339205,-3.23295607813634e-05,0.0939245000481605,0,0,0
13057,454707.0474748707,2010-11-06 20:42:42,561.9951098249092,4,40,0.2737844288349151,4.199491024017334,39.18897854533821,38.32791410588885,156.49568623587544,139.76222859339205,0.0,0.0939245000481605,0,0,0
13058,454882.092847972,2010-11-06 20:45:37,737.0404829212149,4,40,0.223755657672882,4.199329376220703,39.20104708201099,38.32791410588885,156.54637015343428,139.76222859339205,-3.23295607813634e-05,0.0939245000481605,0,0,0
13059,455104.3253722021,2010-11-06 20:49:20,959.2730071813874,4,40,0.173726886510849,4.199491024017334,39.213266146012025,38.32791410588885,156.59768628029028,139.76222859339205,-6.47544875391759e-05,0.0939245000481605,0,0,0
13060,455418.2132458853,2010-11-06 20:54:34,1273.1608808344674,4,40,0.1236981078982353,4.199653148651123,39.22611766606711,38.32791410588885,156.65165843800372,139.76222859339205,0.0,0.0939245000481605,0,0,0
13061,455939.2712676704,2010-11-06 21:03:15,1794.2189026196158,4,40,0.0736693441867828,4.199329376220703,39.24006995552299,38.32791410588885,156.71025348017295,139.76222859339205,-6.47544875391759e-05,0.0939245000481605,0,0,0
13062,456370.3457644986,2010-11-06 21:10:26,2225.29339956314,4,40,0.0498289167881011,4.199491024017334,39.24740036161524,38.32791410588885,156.74103871331727,139.76222859339205,-3.24249267578125e-05,0.0939245000481605,0,0,0
13063,456400.3604577177,2010-11-06 21:10:56,30.00010438093549,5,40,0.0,4.192044734954834,39.24740036161524,38.32791410588885,156.74103871331727,139.76222859339205,-3.23295607813634e-05,0.0939245000481605,0,0,0
13064,456430.37545966025,2010-11-06 21:11:26,60.01510625831402,5,40,0.0,4.190911293029785,39.24740036161524,38.32791410588885,156.74103871331727,139.76222859339205,-6.47544875391759e-05,0.0939245000481605,0,0,0
13065,456430.5622259883,2010-11-06 21:11:26,0.187222852042213,6,40,-1.9243103452026844e-05,4.191073417663574,39.24740036161524,38.327914106889615,156.74103871331727,139.76222859758633,0.0,0.0931989923119545,0,0,0
13066,456435.39029579336,2010-11-06 21:11:31,5.015292657055497,6,40,0.0008838032954372,4.190911293029785,39.24740121683982,38.32791410697335,156.74104229764458,139.76222859793725,-6.47544875391759e-05,0.0931989923119545,0,0,0
13067,456465.4208703185,2010-11-06 21:12:01,30.0153501166373,7,40,-1.099929690361023,4.022388458251953,39.24740121683982,38.33708374645831,156.74104229764458,139.7992986966624,-0.0008741378551349,0.0931989923119545,0,0,0
13068,456495.4362569714,2010-11-06 21:12:31,60.03073676947458,7,40,-1.0997490882873535,3.99761962890625,39.24740121683982,38.34625336778507,156.74104229764458,139.83606111350988,-0.0005827903514727,0.0931989923119545,0,0,0
13069,456525.4542116193,2010-11-06 21:13:01,90.04869150263542,7,40,-1.0997490882873535,3.980621814727783,39.24740121683982,38.35542368055703,156.74104229764458,139.87263868572637,-0.0003885269106831,0.0931989923119545,0,0,0
13070,456555.46723432135,2010-11-06 21:13:31,120.06171411947514,7,40,-1.099568486213684,3.9670233726501465,39.24740121683982,38.36459212250574,156.74104229764458,139.9090694152282,-0.0002913951757363,0.0931989923119545,0,0,0
13071,456585.4823298274,2010-11-06 21:14:01,150.07680962556535,7,40,-1.099568486213684,3.955367565155029,39.24740121683982,38.37376119215121,156.74104229764458,139.94538786068605,-0.0002590179501567,0.0931989923119545,0,0,0
13072,456615.4976848413,2010-11-06 21:14:31,180.09216464443938,7,40,-1.0997490882873535,3.944683074951172,39.24740121683982,38.382930315418605,156.74104229764458,139.98160471546848,-0.0002590179501567,0.0931989923119545,0,0,0
13073,456645.5130500706,2010-11-06 21:15:01,210.10752986878785,7,40,-1.0997490882873535,3.934808015823364,39.24740121683982,38.39209953819691,156.74104229764458,140.0177280334919,-0.0002266406954731,0.0931989923119545,0,0,0
13074,456675.5284380017,2010-11-06 21:15:31,240.12291779981567,7,40,-1.0997490882873535,3.9254186153411865,39.24740121683982,38.40126904519229,156.74104229764458,140.0537640985492,-0.0001942634553415,0.0931989923119545,0,0,0
13075,456705.5438119628,2010-11-06 21:16:01,270.1382917609726,7,40,-1.0997490882873535,3.9161911010742183,39.24740121683982,38.41043857525041,156.74104229764458,140.08971559231173,-0.0002590179501567,0.0931989923119545,0,0,0
13076,456735.559171082,2010-11-06 21:16:31,300.15365088008144,7,40,-1.0997490882873535,3.90761137008667,39.24740121683982,38.4196079894945,156.74104229764458,140.1255854955329,-0.0002266406954731,0.0931989923119545,0,0,0
13077,456765.57456319337,2010-11-06 21:17:01,330.1690429965568,7,40,-1.099929690361023,3.898869514465332,39.24740121683982,38.428777497366426,156.74104229764458,140.1613762417347,-0.0002266406954731,0.0931989923119545,0,0,0
13078,456795.5899178814,2010-11-06 21:17:31,360.18439767959256,7,40,-1.0997490882873535,3.890775203704834,39.24740121683982,38.43794693961805,156.74104229764458,140.19708935068826,-0.0001942634553415,0.0931989923119545,0,0,0
13079,456825.6052664242,2010-11-06 21:18:01,390.199746222301,7,40,-1.099929690361023,3.882357120513916,39.24740121683982,38.44711644671682,156.74104229764458,140.23272688239217,-0.0002266406954731,0.0931989923119545,0,0,0
13080,456855.6206288365,2010-11-06 21:18:31,420.2151086346302,7,40,-1.0993878841400146,3.874262809753418,39.24740121683982,38.4562860180026,156.74104229764458,140.2682892570487,-0.0001942634553415,0.0931989923119545,0,0,0
13081,456885.6361227521,2010-11-06 21:19:01,450.2306025502118,7,40,-1.099929690361023,3.86633038520813,39.24740121683982,38.46545561919312,156.74104229764458,140.30377803833366,-0.0001942634553415,0.0931989923119545,0,0,0
13082,456915.6513892951,2010-11-06 21:19:31,480.2458690932365,7,40,-1.0997490882873535,3.858397960662842,39.24740121683982,38.47462511954,156.74104229764458,140.33919370110596,-0.0002266406954731,0.0931989923119545,0,0,0
13083,456945.66672844434,2010-11-06 21:20:01,510.2612082424976,7,40,-1.099568486213684,3.850627422332764,39.24740121683982,38.48379464645737,156.74104229764458,140.37453778027458,-0.0002266406954731,0.0931989923119545,0,0,0
13084,456975.6821115233,2010-11-06 21:20:31,540.2765913214139,7,40,-1.0997490882873535,3.8428568840026855,39.24740121683982,38.49296415948164,156.74104229764458,140.40981155340202,-0.0002266406954731,0.0931989923119545,0,0,0
13085,457005.6975043064,2010-11-06 21:21:01,570.2919841045532,7,40,-1.0997490882873535,3.8354101181030273,39.24740121683982,38.50213375176346,156.74104229764458,140.44501590514005,-0.0001942634553415,0.0931989923119545,0,0,0
13086,457035.7132158904,2010-11-06 21:21:31,600.3076956884685,7,40,-1.0997490882873535,3.828125476837158,39.24740121683982,38.51130339099139,156.74104229764458,140.48015176440893,-0.0001618862152099,0.0931989923119545,0,0,0
13087,457065.7283262886,2010-11-06 21:22:01,630.3228060867318,7,40,-1.0997490882873535,3.8206787109375,39.24740121683982,38.520472800174346,156.74104229764458,140.51521953541092,-0.0001942634553415,0.0931989923119545,0,0,0
13088,457095.7435743204,2010-11-06 21:22:31,660.3380541185498,7,40,-1.0997490882873535,3.8135557174682617,39.24740121683982,38.52964224594928,156.74104229764458,140.55022070278525,-0.0001618862152099,0.0931989923119545,0,0,0
13089,457125.7589517152,2010-11-06 21:23:01,690.3534315132773,7,40,-1.0997490882873535,3.806432723999024,39.24740121683982,38.53881165324766,156.74104229764458,140.5851563396233,-0.0001942634553415,0.0931989923119545,0,0,0
13090,457155.7743100122,2010-11-06 21:23:31,720.3687898153469,7,40,-1.0997490882873535,3.799633502960205,39.24740121683982,38.54798107345688,156.74104229764458,140.62002832985277,-0.0001942634553415,0.0931989923119545,0,0,0
13091,457185.7898456118,2010-11-06 21:24:01,750.3843254099656,7,40,-1.0997490882873535,3.7929961681365967,39.24740121683982,38.55715060099232,156.74104229764458,140.65483874136103,-0.0001618862152099,0.0931989923119545,0,0,0
13092,457215.8050365512,2010-11-06 21:24:31,780.3995163492718,7,40,-1.0997490882873535,3.786358833312988,39.24740121683982,38.566319992090776,156.74104229764458,140.68958748532734,-0.0001618862152099,0.0931989923119545,0,0,0
13093,457245.8205593088,2010-11-06 21:25:01,810.4150391168724,7,40,-1.0997490882873535,3.77988338470459,39.24740121683982,38.57548956646031,156.74104229764458,140.7242768624726,-0.0001618862152099,0.0931989923119545,0,0,0
13094,457275.8359346133,2010-11-06 21:25:31,840.4304144113576,7,40,-1.099929690361023,3.773569822311402,39.24740121683982,38.58465909258302,156.74104229764458,140.7589076893502,-0.0001942634553415,0.0931989923119545,0,0,0
13095,457305.8512754867,2010-11-06 21:26:01,870.4457552748978,7,40,-1.0997490882873535,3.767256259918213,39.24740121683982,38.59382864283389,156.74104229764458,140.79348081239647,-0.0001618862152099,0.0931989923119545,0,0,0
13096,457335.8665437591,2010-11-06 21:26:31,900.461023557264,7,40,-1.1001102924346924,3.7611045837402335,39.24740121683982,38.60299812155634,156.74104229764458,140.82799724638636,-0.0001942634553415,0.0931989923119545,0,0,0
13097,457365.88196108845,2010-11-06 21:27:01,930.4764410019626,7,40,-1.0997490882873535,3.7554385662078857,39.24740121683982,38.61216761574499,156.74104229764458,140.86245879194212,-9.713172767078504e-05,0.0931989923119545,0,0,0
13098,457395.8972440376,2010-11-06 21:27:32,960.4917238356512,7,40,-1.099568486213684,3.749449014663696,39.24740121683982,38.62133707176143,156.74104229764458,140.8968658753886,-0.0001295089750783,0.0931989923119545,0,0,0
13099,457425.9127354719,2010-11-06 21:28:02,990.5072152700394,7,40,-1.099929690361023,3.7436211109161377,39.24740121683982,38.6305066238266,156.74104229764458,140.93122040227186,-0.0001618862152099,0.0931989923119545,0,0,0
13100,457455.9279710877,2010-11-06 21:28:32,1020.5224508858652,7,40,-1.0997490882873535,3.738116979598999,39.24740121683982,38.6396761210264,156.74104229764458,140.96552279211656,-0.0001618862152099,0.0931989923119545,0,0,0
13101,457485.94334196113,2010-11-06 21:29:02,1050.5378217593145,7,40,-1.0997490882873535,3.7324509620666495,39.24740121683982,38.64884562313564,156.74104229764458,140.9997737052792,-0.0001618862152099,0.0931989923119545,0,0,0
13102,457515.9587204336,2010-11-06 21:29:32,1080.5532002317325,7,40,-1.0997490882873535,3.7271087169647217,39.24740121683982,38.6580151142137,156.74104229764458,141.03397406699838,-0.0001295089750783,0.0931989923119545,0,0,0
13103,457545.974088084,2010-11-06 21:30:02,1110.568567882137,7,40,-1.0997490882873535,3.721928358078003,39.24740121683982,38.66718457024935,156.74104229764458,141.0681256367703,-0.0001295089750783,0.0931989923119545,0,0,0
13104,457575.9894475239,2010-11-06 21:30:32,1140.583927322046,7,40,-1.0997490882873535,3.716586112976074,39.24740121683982,38.67635409371539,156.74104229764458,141.10222884378263,-0.0001618862152099,0.0931989923119545,0,0,0
13105,457606.00435097056,2010-11-06 21:31:02,1170.5988304529385,7,40,-1.0997490882873535,3.7112438678741455,39.24740121683982,38.68552347003382,156.74104229764458,141.13628323972256,-0.0001295089750783,0.0931989923119545,0,0,0
13106,457636.0046133057,2010-11-06 21:31:32,1200.599093219228,7,40,-1.099568486213684,3.7060635089874263,39.24740121683982,38.69468839187413,156.74104229764458,141.17027364468925,-0.0001295089750783,0.0931989923119545,0,0,0
13107,457666.019933618,2010-11-06 21:32:02,1230.6144134161812,7,40,-1.099568486213684,3.701206922531128,39.24740121683982,38.70385793577042,156.74104229764458,141.20423436010827,-9.713172767078504e-05,0.0931989923119545,0,0,0
13108,457696.0352985016,2010-11-06 21:32:32,1260.6297782996787,7,40,-1.0997490882873535,3.696188449859619,39.24740121683982,38.713027473179885,156.74104229764458,141.23814864516063,-0.0001295089750783,0.0931989923119545,0,0,0
13109,457726.0507770738,2010-11-06 21:33:02,1290.645256871961,7,40,-1.0997490882873535,3.6911699771881104,39.24740121683982,38.722197069776016,156.74104229764458,141.27201779806418,-0.0001618862152099,0.0931989923119545,0,0,0
13110,457756.06601995777,2010-11-06 21:33:32,1320.660499755929,7,40,-1.099929690361023,3.6861515045166016,39.24740121683982,38.73136650161352,156.74104229764458,141.30584137006494,-0.0001942634553415,0.0931989923119545,0,0,0
13111,457786.0817011107,2010-11-06 21:34:02,1350.6761809239215,7,40,-1.099929690361023,3.681294918060303,39.24740121683982,38.74053598323313,156.74104229764458,141.33962094632787,-0.0001618862152099,0.0931989923119545,0,0,0
13112,457816.09674752434,2010-11-06 21:34:32,1380.6912273274445,7,40,-1.0997490882873535,3.676762104034424,39.24740121683982,38.74970543087122,156.74104229764458,141.37335686873604,-0.0001295089750783,0.0931989923119545,0,0,0
13113,457846.1121200269,2010-11-06 21:35:02,1410.7065998249475,7,40,-1.0997490882873535,3.672067642211914,39.24740121683982,38.75887494158452,156.74104229764458,141.40704997916703,-0.0001618385285837,0.0931989923119545,0,0,0
13114,457876.12748686015,2010-11-06 21:35:32,1440.7219666583126,7,40,-1.0997490882873535,3.667696714401245,39.24740121683982,38.768044481086775,156.74104229764458,141.44070096252736,-9.713172767078504e-05,0.0931989923119545,0,0,0
13115,457906.1428783702,2010-11-06 21:36:02,1470.737358168274,7,40,-1.099929690361023,3.663002014160156,39.24740121683982,38.77721393317031,156.74104229764458,141.47430990698547,-0.0001295089750783,0.0931989923119545,0,0,0
13116,457936.1582372988,2010-11-06 21:36:32,1500.7527170969074,7,40,-1.099929690361023,3.6586310863494873,39.24740121683982,38.78638339791423,156.74104229764458,141.5078778308367,-9.713172767078504e-05,0.0931989923119545,0,0,0
13117,457966.1735949141,2010-11-06 21:37:02,1530.7680747122624,7,40,-1.0997490882873535,3.6542601585388175,39.24740121683982,38.7955528529192,156.74104229764458,141.5414052964061,-0.0001295089750783,0.0931989923119545,0,0,0
13118,457996.1889627199,2010-11-06 21:37:32,1560.7834425230672,7,40,-1.0997490882873535,3.649889230728149,39.24740121683982,38.80472231710381,156.74104229764458,141.5748928105879,-9.713172767078504e-05,0.0931989923119545,0,0,0
13119,458026.2047183187,2010-11-06 21:38:02,1590.7991981168375,7,40,-1.0997490882873535,3.645518302917481,39.24740121683982,38.81389192240541,156.74104229764458,141.60834125068246,-0.0001295089750783,0.0931989923119545,0,0,0
13120,458056.219699334,2010-11-06 21:38:32,1620.8141791321414,7,40,-1.099929690361023,3.6416330337524414,39.24740121683982,38.82306124410718,156.74104229764458,141.64175003700657,-6.47544875391759e-05,0.0931989923119545,0,0,0
13121,458086.23517079855,2010-11-06 21:39:02,1650.829650596682,7,40,-1.099568486213684,3.637585878372192,39.24740121683982,38.83223074101803,156.74104229764458,141.67512182081515,-6.47544875391759e-05,0.0931989923119545,0,0,0
13122,458116.25042378274,2010-11-06 21:39:32,1680.844903585874,7,40,-1.099929690361023,3.633376836776733,39.24740121683982,38.84140008663877,156.74104229764458,141.7084560717008,-9.713172767078504e-05,0.0931989923119545,0,0,0
13123,458146.2658312024,2010-11-06 21:40:02,1710.860311000536,7,40,-1.099568486213684,3.629653453826904,39.24740121683982,38.8505695994801,156.74104229764458,141.74175469374762,-9.713172767078504e-05,0.0931989923119545,0,0,0
13124,458176.2811831035,2010-11-06 21:40:32,1740.8756629016275,7,40,-1.0997490882873535,3.625768184661865,39.24740121683982,38.85973920030949,156.74104229764458,141.77501833896923,-9.713172767078504e-05,0.0931989923119545,0,0,0
13125,458206.2965521925,2010-11-06 21:41:02,1770.8910319906229,7,40,-1.099929690361023,3.621882915496826,39.24740121683982,38.8689087513803,156.74104229764458,141.8082472778743,-9.713172767078504e-05,0.0931989923119545,0,0,0
13126,458236.3119233016,2010-11-06 21:41:32,1800.9064030996603,7,40,-1.099929690361023,3.618159532546997,39.24740121683982,38.87807832255744,156.74104229764458,141.84144231972573,-0.0001618862152099,0.0931989923119545,0,0,0
13127,458266.3273111523,2010-11-06 21:42:02,1830.921790950488,7,40,-1.0997490882873535,3.614759922027588,39.24740121683982,38.88724789539083,156.74104229764458,141.8746045469918,-0.0001295089750783,0.0931989923119545,0,0,0
13128,458296.3427937698,2010-11-06 21:42:32,1860.937273567868,7,40,-1.099929690361023,3.6113603115081783,39.24740121683982,38.89641750725374,156.74104229764458,141.90773507280224,-0.0001295089750783,0.0931989923119545,0,0,0
13129,458326.3580843678,2010-11-06 21:43:02,1890.9525641759624,7,40,-1.099929690361023,3.6079607009887695,39.24740121683982,38.90558705626003,156.74104229764458,141.94083404953355,-9.713172767078504e-05,0.0931989923119545,0,0,0
13130,458356.37339052965,2010-11-06 21:43:32,1920.9678703278569,7,40,-1.0997490882873535,3.6047229766845694,39.24740121683982,38.91475667076769,156.74104229764458,141.97390278711433,-9.713172767078504e-05,0.0931989923119545,0,0,0
13131,458386.388769759,2010-11-06 21:44:02,1950.983249557164,7,40,-1.0997490882873535,3.601647138595581,39.24740121683982,38.92392627328924,156.74104229764458,142.00694224169527,-6.47544875391759e-05,0.0931989923119545,0,0,0
13132,458416.4041214496,2010-11-06 21:44:32,1980.99860124773,7,40,-1.0997490882873535,3.598409414291382,39.24740121683982,38.93309578034431,156.74104229764458,142.03995248889655,-0.0001295089750783,0.0931989923119545,0,0,0
13133,458446.4194872604,2010-11-06 21:45:02,2011.0139670585424,7,40,-1.099929690361023,3.5954954624176025,39.24740121683982,38.942265403157634,156.74104229764458,142.0729348143871,-6.47544875391759e-05,0.0931989923119545,0,0,0
13134,458476.4377038572,2010-11-06 21:45:32,2041.032183740568,7,40,-1.0997490882873535,3.5924196243286133,39.24740121683982,38.951435902724334,156.74104229764458,142.10589292926738,-9.713172767078504e-05,0.0931989923119545,0,0,0
13135,458506.45047210914,2010-11-06 21:46:02,2071.044951907261,7,40,-1.0997490882873535,3.589505910873413,39.24740121683982,38.96060472806664,156.74104229764458,142.13881801944146,-6.47544875391759e-05,0.0931989923119545,0,0,0
13136,458536.465645269,2010-11-06 21:46:32,2101.060125067187,7,40,-1.099929690361023,3.586591958999634,39.24740121683982,38.96977428391016,156.74104229764458,142.17171903734825,-9.713172767078504e-05,0.0931989923119545,0,0,0
13137,458566.4809587493,2010-11-06 21:47:02,2131.075438557399,7,40,-1.099929690361023,3.5836780071258545,39.24740121683982,38.97894390709671,156.74104229764458,142.20459357843447,-9.713172767078504e-05,0.0931989923119545,0,0,0
13138,458596.49645696057,2010-11-06 21:47:32,2161.090936768704,7,40,-1.099929690361023,3.580925941467285,39.24740121683982,38.98811350855471,156.74104229764458,142.23744181704907,-6.47544875391759e-05,0.0931989923119545,0,0,0
13139,458626.5117043407,2010-11-06 21:48:02,2191.10618413887,7,40,-1.0997490882873535,3.577850103378296,39.24740121683982,38.99728309818182,156.74104229764458,142.27026350150322,-0.0001295089750783,0.0931989923119545,0,0,0
13140,458656.5270609034,2010-11-06 21:48:32,2221.1215406965853,7,40,-1.099929690361023,3.5750980377197266,39.24740121683982,39.00645272392042,156.74104229764458,142.30305862528547,-6.47544875391759e-05,0.0931989923119545,0,0,0
13141,458686.542430564,2010-11-06 21:49:02,2251.136910362019,7,40,-1.099929690361023,3.5720221996307373,39.24740121683982,39.015622361701695,156.74104229764458,142.33582720802886,-0.0001295089750783,0.0931989923119545,0,0,0
13142,458716.5578293821,2010-11-06 21:49:32,2281.152309180223,7,40,-1.099929690361023,3.569108247756958,39.24740121683982,39.02479198827104,156.74104229764458,142.3685691223536,-0.0001295089750783,0.0931989923119545,0,0,0
13143,458746.5732043508,2010-11-06 21:50:02,2311.1676841488948,7,40,-1.0997490882873535,3.5663561820983887,39.24740121683982,39.03396159626617,156.74104229764458,142.4012840653634,-6.47544875391759e-05,0.0931989923119545,0,0,0
13144,458776.58853407647,2010-11-06 21:50:32,2341.183013874633,7,40,-1.0997490882873535,3.5632803440093994,39.24740121683982,39.04313114972224,156.74104229764458,142.4339712554299,-3.237724376958795e-05,0.0931989923119545,0,0,0
13145,458806.60390336096,2010-11-06 21:51:02,2371.1983831591165,7,40,-1.0997490882873535,3.56020450592041,39.24740121683982,39.05230069464528,156.74104229764458,142.46663122331205,-9.713172767078504e-05,0.0931989923119545,0,0,0
13146,458836.6192763597,2010-11-06 21:51:32,2401.21375615787,7,40,-1.099929690361023,3.556966781616211,39.24740121683982,39.06147032967432,156.74104229764458,142.49926292295694,-0.0001295089750783,0.0931989923119545,0,0,0
13147,458866.6346626616,2010-11-06 21:52:02,2431.2291424798827,7,40,-1.099929690361023,3.553729057312012,39.24740121683982,39.070639974648,156.74104229764458,142.53186548346162,-0.0001295089750783,0.0931989923119545,0,0,0
13148,458896.6500113749,2010-11-06 21:52:32,2461.2444911729667,7,40,-1.099929690361023,3.5503294467926025,39.24740121683982,39.079809572936114,156.74104229764458,142.5644380267366,-0.0001295089750783,0.0931989923119545,0,0,0
13149,458926.66538293497,2010-11-06 21:53:02,2491.25986273313,7,40,-1.099568486213684,3.5472536087036133,39.24740121683982,39.088979233041535,156.74104229764458,142.59697983875273,-6.47544875391759e-05,0.0931989923119545,0,0,0
13150,458956.6807693472,2010-11-06 21:53:32,2521.2752491453666,7,40,-1.0997490882873535,3.543530225753784,39.24740121683982,39.09814886609585,156.74104229764458,142.6294896348351,-9.713172767078504e-05,0.0931989923119545,0,0,0
13151,458986.6963339192,2010-11-06 21:54:02,2551.290813717317,7,40,-1.0997490882873535,3.539806842803955,39.24740121683982,39.10731855040651,156.74104229764458,142.6619664285537,-9.713172767078504e-05,0.0931989923119545,0,0,0
13152,459016.7116053794,2010-11-06 21:54:32,2581.3060851776163,7,40,-1.0997490882873535,3.536083459854126,39.24740121683982,39.11648816759303,156.74104229764458,142.69440848893794,-9.713172767078504e-05,0.0931989923119545,0,0,0
13153,459046.72707340046,2010-11-06 21:55:02,2611.3215532286363,7,40,-1.099929690361023,3.532198190689087,39.24740121683982,39.12565783796922,156.74104229764458,142.72681490703292,-6.47544875391759e-05,0.0931989923119545,0,0,0
13154,459076.74221751787,2010-11-06 21:55:32,2641.3366973260177,7,40,-1.0997490882873535,3.527989149093628,39.24740121683982,39.134827384501854,156.74104229764458,142.75918385243523,-9.713172767078504e-05,0.0931989923119545,0,0,0
13155,459106.7576164061,2010-11-06 21:56:02,2671.352096224421,7,40,-1.0997490882873535,3.523780107498169,39.24740121683982,39.14399696131,156.74104229764458,142.79151426568848,-9.713172767078504e-05,0.0931989923119545,0,0,0
13156,459136.77296616696,2010-11-06 21:56:32,2701.3674459651206,7,40,-1.0997490882873535,3.51908540725708,39.24740121683982,39.15316655682328,156.74104229764458,142.82380451777547,-0.0001295089750783,0.0931989923119545,0,0,0
13157,459166.7885037616,2010-11-06 21:57:02,2731.3829835647443,7,40,-1.0997490882873535,3.514552593231201,39.24740121683982,39.1623362210874,156.74104229764458,142.85605320179448,-0.0001295089750783,0.0931989923119545,0,0,0
13158,459196.8037196782,2010-11-06 21:57:32,2761.3981994763853,7,40,-1.0997490882873535,3.5095343589782715,39.24740121683982,39.17150580137729,156.74104229764458,142.888257093127,-0.0001295089750783,0.0931989923119545,0,0,0
13159,459226.8191014439,2010-11-06 21:58:02,2791.4135812670856,7,40,-1.099568486213684,3.503868341445923,39.24740121683982,39.18067538021383,156.74104229764458,142.92041304980532,-0.0001942634553415,0.0931989923119545,0,0,0
13160,459256.8345567682,2010-11-06 21:58:32,2821.429036566275,7,40,-1.0997490882873535,3.4980404376983643,39.24740121683982,39.18984498782606,156.74104229764458,142.9525166550848,-0.0001942634553415,0.0931989923119545,0,0,0
13161,459286.8498875616,2010-11-06 21:59:02,2851.444367444892,7,40,-1.0997490882873535,3.491403102874756,39.24740121683982,39.19901458376884,156.74104229764458,142.9845622451762,-0.0001942634553415,0.0931989923119545,0,0,0
13162,459316.8652225955,2010-11-06 21:59:32,2881.45970239868,7,40,-1.0997490882873535,3.483794450759888,39.24740121683982,39.20818421934782,156.74104229764458,143.016542515139,-0.0002266406954731,0.0931989923119545,0,0,0
13163,459346.8805600706,2010-11-06 22:00:03,2911.475039873761,7,40,-1.0997490882873535,3.47489070892334,39.24740121683982,39.217353886974685,156.74104229764458,143.04844694776688,-0.0001942634553415,0.0931989923119545,0,0,0
13164,459376.8959159015,2010-11-06 22:00:33,2941.490395709676,7,40,-1.099929690361023,3.4640443325042725,39.24740121683982,39.22652354503621,156.74104229764458,143.0802620971021,-0.0003237724304199,0.0931989923119545,0,0,0
13165,459406.91125773743,2010-11-06 22:01:03,2971.50573754063,7,40,-1.0997490882873535,3.451255321502685,39.24740121683982,39.23569323462085,156.74104229764458,143.11197016540447,-0.0003561496851034,0.0931989923119545,0,0,0
13166,459436.9266259542,2010-11-06 22:01:33,3001.5211057574484,7,40,-1.0997490882873535,3.4353904724121094,39.24740121683982,39.24486284489746,156.74104229764458,143.14354661168764,-0.0004532813909463,0.0931989923119545,0,0,0
13167,459466.9421419801,2010-11-06 22:02:03,3031.53662178322,7,40,-1.0997490882873535,3.4148311614990234,39.24740121683982,39.25403260290851,156.74104229764458,143.17495733845115,-0.0005827903514727,0.0931989923119545,0,0,0
13168,459496.9573647439,2010-11-06 22:02:33,3061.551844541953,7,40,-1.099929690361023,3.38731050491333,39.24740121683982,39.26320225477188,156.74104229764458,143.20615016366182,-0.0008418083307333,0.0931989923119545,0,0,0
13169,459526.9727478778,2010-11-06 22:03:03,3091.5672276760065,7,40,-1.0997490882873535,3.3497531414031982,39.24740121683982,39.27237186685995,156.74104229764458,143.2370485638008,-0.0011655330890789,0.0931989923119545,0,0,0
13170,459556.9882240642,2010-11-06 22:03:33,3121.5827038623333,7,40,-1.099929690361023,3.297463893890381,39.24740121683982,39.281541573806514,156.74104229764458,143.26753890638997,-0.0015864849556237,0.0931989923119545,0,0,0
13171,459587.00349016616,2010-11-06 22:04:03,3151.597969964257,7,40,-1.099929690361023,3.222996473312378,39.24740121683982,39.290711236339696,156.74104229764458,143.29745433484143,-0.0022987842094153,0.0931989923119545,0,0,0
13172,459617.0188313806,2010-11-06 22:04:33,3181.6133111836853,7,40,-1.099929690361023,3.111942768096924,39.24740121683982,39.29988089720702,156.74104229764458,143.3265369455126,-0.0035614967346191,0.0931989923119545,0,0,0
13173,459646.2218462034,2010-11-06 22:05:02,3210.8163260064543,7,40,-1.0997490882873535,2.9118521213531494,39.24740121683982,39.30880239577617,156.74104229764458,143.353537723276,-0.0080295084044337,0.0931989923119545,0,0,0
13174,459661.12800503394,2010-11-06 22:05:17,3225.722484842164,7,40,-1.099568486213684,2.711599349975586,39.24740121683982,39.31335622422149,156.74104229764458,143.3663678826315,-0.0118824485689401,0.0931989923119545,0,0,0
13175,459661.94046782615,2010-11-06 22:05:18,3226.534947624262,7,40,-1.1001102924346924,2.699296236038208,39.24740121683982,39.31360443149303,156.74104229764458,143.36703943079428,-0.0120119098573923,0.0931989923119545,0,0,0
13176,459721.9514936837,2010-11-06 22:06:18,60.015126147961645,8,40,0.0,3.284027338027954,39.24740121683982,39.31360443149303,156.74104229764458,143.36703943079428,0.0012303352123126,0.0931989923119545,0,0,0
13177,459722.13555168913,2010-11-06 22:06:18,0.187526364656392,9,40,-1.9243103452026844e-05,3.284351110458374,39.24740121683982,39.31360443249542,156.74104229764458,143.36703943408648,0.0,0.0916610211133956,0,0,0
13178,459726.9637539648,2010-11-06 22:06:23,5.015728650361865,9,40,0.0007031940040178,3.291797876358032,39.24740201543628,39.31360443258012,156.74104492389827,143.36703943436467,0.0011008263099938,0.0916610211133956,0,0,0
