Data_Point,Test_Time(s),Date_Time,Step_Time(s),Step_Index,Cycle_Index,Current(A),Voltage(V),Charge_Capacity(Ah),Discharge_Capacity(Ah),Charge_Energy(Wh),Discharge_Energy(Wh),dV/dt(V/s),Internal_Resistance(Ohm),Is_FC_Data,AC_Impedance(Ohm),ACI_Phase_Angle(Deg)
14178,494134.767745411,2010-11-07 07:39:54,30.015530211180987,1,44,0.0,3.3246607780456543,42.20359555775829,42.270342415373975,168.52603751862122,154.18156836743836,0.0007122993702068,0.0931989923119545,0,0,0
14179,494164.78318254487,2010-11-07 07:40:24,60.03096736507667,1,44,0.0,3.347486734390259,42.20359555775829,42.270342415373975,168.52603751862122,154.18156836743836,0.0005180359003134,0.0931989923119545,0,0,0
14180,494194.7984758949,2010-11-07 07:40:54,90.0462606949655,1,44,0.0,3.3649702072143555,42.20359555775829,42.270342415373975,168.52603751862122,154.18156836743836,0.0004209041653666,0.0931989923119545,0,0,0
14181,494224.76689020754,2010-11-07 07:41:24,120.01467503769024,1,44,0.0,3.379054307937622,42.20359555775829,42.270342415373975,168.52603751862122,154.18156836743836,0.0003561496851034,0.0931989923119545,0,0,0
14182,494254.7741159811,2010-11-07 07:41:54,30.015329765838576,2,44,0.550297200679779,3.5423970222473145,42.20818235370084,42.270342415373975,168.54210243854172,154.18156836743836,0.0018455028766766,0.0931989923119545,0,0,0
14183,494284.7896126485,2010-11-07 07:42:24,60.03082644331428,2,44,0.5501165986061096,3.596952438354492,42.212769150360025,42.270342415373975,168.55848305608333,154.18156836743836,0.0012626647949218,0.0931989923119545,0,0,0
14184,494314.80485388846,2010-11-07 07:42:54,90.04606767315337,2,44,0.5501165986061096,3.6377477645874015,42.217355898084485,42.270342415373975,168.5750789701363,154.18156836743836,0.0009713172912597,0.0931989923119545,0,0,0
14185,494344.8202213584,2010-11-07 07:43:24,120.06143512305717,2,44,0.5501165986061096,3.669801235198975,42.22194265774681,42.270342415373975,168.59184065499707,154.18156836743836,0.0007446765666827,0.0931989923119545,0,0,0
14186,494374.8356031792,2010-11-07 07:43:55,150.07681696388292,2,44,0.5501165986061096,3.696350336074829,42.2265294335424,42.270342415373975,168.60873638887438,154.18156836743836,0.0006151676061563,0.0931989923119545,0,0,0
14187,494404.850965386,2010-11-07 07:44:25,180.09217917069918,2,44,0.550297200679779,3.718690633773804,42.23111614416346,42.270342415373975,168.6257435193728,154.18156836743836,0.0005504131549969,0.0931989923119545,0,0,0
14188,494434.8664123243,2010-11-07 07:44:55,210.10762614911835,2,44,0.5501165986061096,3.737307548522949,42.23570297473437,42.270342415373975,168.64284527407915,154.18156836743836,0.0004209041653666,0.0931989923119545,0,0,0
14189,494464.8817087519,2010-11-07 07:45:25,240.12292253663952,2,44,0.5501165986061096,3.752686738967896,42.240289667906126,42.270342415373975,168.66002450446388,154.18156836743836,0.0003561496851034,0.0931989923119545,0,0,0
14190,494494.8971121165,2010-11-07 07:45:55,270.1383259011918,2,44,0.5501165986061096,3.762723445892334,42.244876414469566,42.270342415373975,168.6772618678837,154.18156836743836,0.0002266406954731,0.0931989923119545,0,0,0
14191,494524.9124557119,2010-11-07 07:46:25,300.153669496551,2,44,0.550297200679779,3.768713235855103,42.24946315716308,42.270342415373975,168.69453507399678,154.18156836743836,0.0001295089750783,0.0931989923119545,0,0,0
14192,494554.9278278986,2010-11-07 07:46:55,330.16904169330365,2,44,0.5501165986061096,3.772760391235352,42.2540499620547,42.270342415373975,168.7118310646131,154.18156836743836,6.47544875391759e-05,0.0931989923119545,0,0,0
14193,494584.94319822063,2010-11-07 07:47:25,360.1844120053518,2,44,0.5501165986061096,3.776645660400391,42.258636733050174,42.270342415373975,168.72914494512756,154.18156836743836,9.713172767078504e-05,0.0931989923119545,0,0,0
14194,494614.9585802268,2010-11-07 07:47:55,390.199794006578,2,44,0.550297200679779,3.7802071571350098,42.26322349162888,42.270342415373975,168.74647540627782,154.18156836743836,9.713172767078504e-05,0.0931989923119545,0,0,0
14195,494644.97396169166,2010-11-07 07:48:25,420.2151754764778,2,44,0.5501165986061096,3.783606767654419,42.26781030709308,42.270342415373975,168.76382197915066,154.18156836743836,9.713172767078504e-05,0.0931989923119545,0,0,0
14196,494674.989399372,2010-11-07 07:48:55,450.2306131867623,2,44,0.5501165986061096,3.786844491958618,42.27239704217192,42.270342415373975,168.781183602766,154.18156836743836,6.47544875391759e-05,0.0931989923119545,0,0,0
14197,494705.0046949024,2010-11-07 07:49:25,480.2459086870688,2,44,0.5501165986061096,3.789920330047608,42.2769837873746,42.270342415373975,168.79856021915862,154.18156836743836,6.47544875391759e-05,0.0931989923119545,0,0,0
14198,494735.02020980034,2010-11-07 07:49:55,510.2614236902885,2,44,0.5501165986061096,3.793158054351807,42.28157057916194,42.270342415373975,168.8159514716927,154.18156836743836,6.47544875391759e-05,0.0931989923119545,0,0,0
14199,494765.0354763733,2010-11-07 07:50:25,540.2766901882005,2,44,0.5501165986061096,3.796233892440796,42.28615739003301,42.270342415373975,168.8333569919229,154.18156836743836,6.47544875391759e-05,0.0931989923119545,0,0,0
14200,494795.0509546349,2010-11-07 07:50:55,570.2921684446947,2,44,0.5501165986061096,3.799147844314575,42.29074421047185,42.270342415373975,168.85077637101733,154.18156836743836,9.713172767078504e-05,0.0931989923119545,0,0,0
14201,494825.066181569,2010-11-07 07:51:25,600.307395363812,2,44,0.5501165986061096,3.8020617961883545,42.295331005799206,42.270342415373975,168.86820930706932,154.18156836743836,6.47544875391759e-05,0.0931989923119545,0,0,0
14202,494855.0815838509,2010-11-07 07:51:55,630.3227976606993,2,44,0.5501165986061096,3.804975748062134,42.29991771529188,42.270342415373975,168.88565533849095,154.18156836743836,6.47544875391759e-05,0.0931989923119545,0,0,0
14203,494885.0969192308,2010-11-07 07:52:25,660.3381330154887,2,44,0.5499359965324402,3.807889699935913,42.30450433946119,42.270342415373975,168.90311451621182,154.18156836743836,3.237724376958795e-05,0.0931989923119545,0,0,0
14204,494915.1122938085,2010-11-07 07:52:55,690.3535076232596,2,44,0.5501165986061096,3.8109655380249023,42.30909097279727,42.270342415373975,168.92058725631398,154.18156836743836,9.713172767078504e-05,0.0931989923119545,0,0,0
14205,494945.1276626719,2010-11-07 07:53:25,720.3688764516041,2,44,0.5499359965324402,3.814041376113892,42.31367774712671,42.270342415373975,168.93807435569457,154.18156836743836,6.47544875391759e-05,0.0931989923119545,0,0,0
14206,494975.1433812482,2010-11-07 07:53:55,750.3845950329861,2,44,0.5501165986061096,3.816955327987671,42.31826454178516,42.270342415373975,168.9555757982512,154.18156836743836,3.237724376958795e-05,0.0931989923119545,0,0,0
14207,495005.1584039025,2010-11-07 07:54:25,780.3996176822145,2,44,0.550297200679779,3.82051682472229,42.32285124495888,42.270342415373975,168.97309133645354,154.18156836743836,0.0001295089750783,0.0931989923119545,0,0,0
14208,495035.1737905954,2010-11-07 07:54:55,810.4150043701394,2,44,0.5501165986061096,3.8235926628112793,42.327438056782576,42.270342415373975,168.99062221821677,154.18156836743836,6.47544875391759e-05,0.0931989923119545,0,0,0
14209,495065.1892121454,2010-11-07 07:55:25,840.4304259200853,2,44,0.5501165986061096,3.8271541595458975,42.3320248276327,42.270342415373975,169.00816828695324,154.18156836743836,0.0001295089750783,0.0931989923119545,0,0,0
14210,495095.2045285879,2010-11-07 07:55:55,870.4457423726918,2,44,0.5501165986061096,3.8303918838500977,42.33661156230215,42.270342415373975,169.02572978618986,154.18156836743836,6.47544875391759e-05,0.0931989923119545,0,0,0
14211,495125.2198918373,2010-11-07 07:56:25,900.4611056221106,2,44,0.550297200679779,3.8339531421661377,42.34119833233202,42.270342415373975,169.0433071393869,154.18156836743836,0.0001295089750783,0.0931989923119545,0,0,0
14212,495155.2352685805,2010-11-07 07:56:55,930.4764823652116,2,44,0.5501165986061096,3.837352752685547,42.34578507802923,42.270342415373975,169.0609001555417,154.18156836743836,9.713172767078504e-05,0.0931989923119545,0,0,0
14213,495185.2506506269,2010-11-07 07:57:25,960.4918644115504,2,44,0.5501165986061096,3.840590476989746,42.35037181236736,42.270342415373975,169.078508709217,154.18156836743836,3.237724376958795e-05,0.0931989923119545,0,0,0
14214,495215.2660986429,2010-11-07 07:57:55,990.5073124275596,2,44,0.550297200679779,3.844151973724365,42.354958551154105,42.270342415373975,169.09613266353705,154.18156836743836,9.713172767078504e-05,0.0931989923119545,0,0,0
14215,495245.28151087445,2010-11-07 07:58:25,1020.5227246592456,2,44,0.550297200679779,3.8472278118133545,42.35954615700507,42.270342415373975,169.11377519622712,154.18156836743836,6.47544875391759e-05,0.0931989923119545,0,0,0
14216,495275.2967274779,2010-11-07 07:58:55,1050.5379412926882,2,44,0.5501165986061096,3.8504655361175537,42.36413376997668,42.270342415373975,169.13143264256246,154.18156836743836,6.47544875391759e-05,0.0931989923119545,0,0,0
14217,495305.3121534338,2010-11-07 07:59:25,1080.553367218557,2,44,0.5501165986061096,3.853541374206543,42.36872061128024,42.270342415373975,169.1491016529335,154.18156836743836,6.47544875391759e-05,0.0931989923119545,0,0,0
14218,495335.32753315935,2010-11-07 07:59:55,1110.5687469441027,2,44,0.5499359965324402,3.856617212295532,42.37330733940057,42.270342415373975,169.16678441528816,154.18156836743836,6.47544875391759e-05,0.0931989923119545,0,0,0
14219,495365.3429060879,2010-11-07 08:00:25,1140.5841199027573,2,44,0.5501165986061096,3.8596930503845215,42.37789409997824,42.270342415373975,169.18448111308385,154.18156836743836,6.47544875391759e-05,0.0931989923119545,0,0,0
14220,495395.3582673224,2010-11-07 08:00:55,1170.5994811321336,2,44,0.5501165986061096,3.862445116043091,42.38248082966235,42.270342415373975,169.20219103091102,154.18156836743836,3.237724376958795e-05,0.0931989923119545,0,0,0
14221,495425.37627770944,2010-11-07 08:01:25,1200.6174915793654,2,44,0.550297200679779,3.86552095413208,42.38706795838687,42.270342415373975,169.21991530108883,154.18156836743836,0.0001295089750783,0.0931989923119545,0,0,0
14222,495455.3893517898,2010-11-07 08:01:55,1230.6305656997658,2,44,0.5501165986061096,3.8679492473602295,42.39165433443386,42.270342415373975,169.23764885942344,154.18156836743836,6.47544875391759e-05,0.0931989923119545,0,0,0
14223,495485.4044110954,2010-11-07 08:02:25,1260.6456248801817,2,44,0.5501165986061096,3.870539426803589,42.3962410507392,42.270342415373975,169.25539542723487,154.18156836743836,9.713172767078504e-05,0.0931989923119545,0,0,0
14224,495515.41977035993,2010-11-07 08:02:55,1290.6609841446534,2,44,0.550297200679779,3.872805833816528,42.40082777485084,42.270342415373975,169.27315315001456,154.18156836743836,6.47544875391759e-05,0.0931989923119545,0,0,0
14225,495545.4352797592,2010-11-07 08:03:25,1320.6764935539095,2,44,0.5501165986061096,3.875072240829468,42.40541459437852,42.270342415373975,169.29092162337986,154.18156836743836,6.47544875391759e-05,0.0931989923119545,0,0,0
14226,495575.4505143775,2010-11-07 08:03:55,1350.6917281622202,2,44,0.550297200679779,3.8770148754119873,42.410001274993405,42.270342415373975,169.30869938340572,154.18156836743836,6.47544875391759e-05,0.0931989923119545,0,0,0
14227,495605.4659981378,2010-11-07 08:04:25,1380.707211927465,2,44,0.5501165986061096,3.878957509994507,42.414588150531245,42.270342415373975,169.32648719875567,154.18156836743836,6.47544875391759e-05,0.0931989923119545,0,0,0
14228,495635.4812427911,2010-11-07 08:04:55,1410.7224565758374,2,44,0.5501165986061096,3.8809001445770255,42.41917492709411,42.270342415373975,169.3442831934088,154.18156836743836,6.47544875391759e-05,0.0931989923119545,0,0,0
14229,495665.4966224264,2010-11-07 08:05:25,1440.7378362161703,2,44,0.5499359965324402,3.882357120513916,42.42376174246484,42.270342415373975,169.36208742182842,154.18156836743836,0.0,0.0931989923119545,0,0,0
14230,495695.51214424166,2010-11-07 08:05:55,1470.7533580263814,2,44,0.550297200679779,3.8841378688812256,42.42834861195696,42.270342415373975,169.37989943548138,154.18156836743836,3.237724376958795e-05,0.0931989923119545,0,0,0
14231,495725.5273592662,2010-11-07 08:06:25,1500.7685730508076,2,44,0.550297200679779,3.8855948448181152,42.43293547463974,42.270342415373975,169.39771851832035,154.18156836743836,3.237724376958795e-05,0.0931989923119545,0,0,0
14232,495755.5427380042,2010-11-07 08:06:55,1530.7839517888883,2,44,0.5501165986061096,3.887051820755005,42.43752227549043,42.270342415373975,169.4155441992222,154.18156836743836,3.237724376958795e-05,0.0931989923119545,0,0,0
14233,495785.5581138851,2010-11-07 08:07:25,1560.7993276748498,2,44,0.5501165986061096,3.8885087966918954,42.4421090871392,42.270342415373975,169.43337651538985,154.18156836743836,0.0,0.0931989923119545,0,0,0
14234,495815.5734940267,2010-11-07 08:07:55,1590.814707816434,2,44,0.5501165986061096,3.889803886413574,42.44669586353098,42.270342415373975,169.45121511478274,154.18156836743836,6.47544875391759e-05,0.0931989923119545,0,0,0
14235,495845.5888599027,2010-11-07 08:08:25,1620.8300736873966,2,44,0.5501165986061096,3.891098976135254,42.45128268030587,42.270342415373975,169.46906008855373,154.18156836743836,0.0,0.0931989923119545,0,0,0
14236,495875.6042532522,2010-11-07 08:08:55,1650.84546703695,2,44,0.550297200679779,3.892555952072144,42.45586946792446,42.270342415373975,169.4869111050088,154.18156836743836,3.237724376958795e-05,0.0931989923119545,0,0,0
14237,495905.6196189227,2010-11-07 08:09:25,1680.860832707412,2,44,0.5501165986061096,3.894012928009033,42.460456287713335,42.270342415373975,169.50476833142093,154.18156836743836,6.47544875391759e-05,0.0931989923119545,0,0,0
14238,495935.63519577024,2010-11-07 08:09:55,1710.8764095550048,2,44,0.550297200679779,3.894984245300293,42.46504322038726,42.270342415373975,169.52263192748146,154.18156836743836,3.237724376958795e-05,0.0931989923119545,0,0,0
14239,495965.6504700426,2010-11-07 08:10:25,1740.8916838323353,2,44,0.5501165986061096,3.8962793350219727,42.46963001682346,42.270342415373975,169.54050055366486,154.18156836743836,0.0,0.0931989923119545,0,0,0
14240,495995.6657156082,2010-11-07 08:10:55,1770.9069293929847,2,44,0.5501165986061096,3.897574424743652,42.47421676820648,42.270342415373975,169.55837515966297,154.18156836743836,0.0,0.0931989923119545,0,0,0
14241,496025.6810936195,2010-11-07 08:11:25,1800.9223074042511,2,44,0.5501165986061096,3.899031400680542,42.47880356551718,42.270342415373975,169.57625602106884,154.18156836743836,6.47544875391759e-05,0.0931989923119545,0,0,0
14242,496055.69647283386,2010-11-07 08:11:55,1830.937686618521,2,44,0.5501165986061096,3.9003264904022217,42.48339036472473,42.270342415373975,169.59414293517386,154.18156836743836,3.237724376958795e-05,0.0931989923119545,0,0,0
14243,496085.71183064464,2010-11-07 08:12:25,1860.953044429364,2,44,0.550297200679779,3.9017834663391113,42.4879771145348,42.270342415373975,169.61203566292193,154.18156836743836,6.47544875391759e-05,0.0931989923119545,0,0,0
14244,496115.72722177865,2010-11-07 08:12:55,1890.9684355884497,2,44,0.550297200679779,3.902754783630371,42.49256392302784,42.270342415373975,169.6299347109758,154.18156836743836,0.0,0.0931989923119545,0,0,0
14245,496145.742581384,2010-11-07 08:13:25,1920.983795173722,2,44,0.5501165986061096,3.904373645782471,42.497150721318455,42.270342415373975,169.64783981371815,154.18156836743836,6.47544875391759e-05,0.0931989923119545,0,0,0
14246,496175.7579780018,2010-11-07 08:13:55,1950.9991917864209,2,44,0.550297200679779,3.90583062171936,42.50173756682423,42.270342415373975,169.66575118579885,154.18156836743836,9.713172767078504e-05,0.0931989923119545,0,0,0
14247,496205.77347670926,2010-11-07 08:14:25,1981.014690493964,2,44,0.550297200679779,3.90712571144104,42.5063243539044,42.270342415373975,169.68366845257432,154.18156836743836,6.47544875391759e-05,0.0931989923119545,0,0,0
14248,496235.7886967612,2010-11-07 08:14:55,2011.029910550952,2,44,0.5499359965324402,3.9082589149475098,42.51091110968624,42.270342415373975,169.7015918430438,154.18156836743836,3.237724376958795e-05,0.0931989923119545,0,0,0
14249,496265.8040675695,2010-11-07 08:15:25,2041.0452813542263,2,44,0.5501165986061096,3.9097158908844,42.51549781172429,42.270342415373975,169.7195213105822,154.18156836743836,6.47544875391759e-05,0.0931989923119545,0,0,0
14250,496295.81945097423,2010-11-07 08:15:56,2071.060664758956,2,44,0.5501165986061096,3.911010980606079,42.520084575538654,42.270342415373975,169.73745729942746,154.18156836743836,3.237724376958795e-05,0.0931989923119545,0,0,0
14251,496325.834827988,2010-11-07 08:16:26,2101.0760417777456,2,44,0.5501165986061096,3.9126298427581783,42.52467131475692,42.270342415373975,169.75539957689423,154.18156836743836,6.47544875391759e-05,0.0931989923119545,0,0,0
14252,496355.850184626,2010-11-07 08:16:56,2131.0913984357103,2,44,0.5501165986061096,3.9139246940612793,42.529258082283256,42.270342415373975,169.7733483668262,154.18156836743836,6.470680091297254e-05,0.0931989923119545,0,0,0
14253,496385.8655555946,2010-11-07 08:17:26,2161.106769379336,2,44,0.5501165986061096,3.915381669998169,42.5338448771277,42.270342415373975,169.7913037361107,154.18156836743836,6.47544875391759e-05,0.0931989923119545,0,0,0
14254,496415.8809538013,2010-11-07 08:17:56,2191.122167591025,2,44,0.5501165986061096,3.9166767597198486,42.53843167523106,42.270342415373975,169.8092654208481,154.18156836743836,3.237724376958795e-05,0.0931989923119545,0,0,0
14255,496445.896360865,2010-11-07 08:18:26,2221.1375746497997,2,44,0.5501165986061096,3.9181337356567374,42.54301844887124,42.270342415373975,169.82723356101388,154.18156836743836,3.237724376958795e-05,0.0931989923119545,0,0,0
14256,496475.9116711924,2010-11-07 08:18:56,2251.152884977116,2,44,0.5499359965324402,3.919428825378418,42.54760514454052,42.270342415373975,169.84520788883194,154.18156836743836,0.0,0.0931989923119545,0,0,0
14257,496505.92704496806,2010-11-07 08:19:26,2281.1682587528094,2,44,0.550297200679779,3.9210476875305176,42.552191930869085,42.270342415373975,169.8631892405454,154.18156836743836,6.47544875391759e-05,0.0931989923119545,0,0,0
14258,496535.9424390645,2010-11-07 08:19:56,2311.183652849228,2,44,0.5501165986061096,3.9225046634674072,42.55677868265072,42.270342415373975,169.8811771172923,154.18156836743836,9.713172767078504e-05,0.0931989923119545,0,0,0
14259,496565.95779179264,2010-11-07 08:20:26,2341.199005577384,2,44,0.550297200679779,3.923961639404297,42.56136544789126,42.270342415373975,169.89917177994292,154.18156836743836,3.237724376958795e-05,0.0931989923119545,0,0,0
14260,496595.9731636536,2010-11-07 08:20:56,2371.214377468373,2,44,0.5501165986061096,3.9254186153411865,42.56595224400118,42.270342415373975,169.9171733917092,154.18156836743836,6.47544875391759e-05,0.0931989923119545,0,0,0
14261,496625.98855687777,2010-11-07 08:21:26,2401.2297706625386,2,44,0.5501165986061096,3.926875591278076,42.5705390676793,42.270342415373975,169.93518182251233,154.18156836743836,3.237724376958795e-05,0.0931989923119545,0,0,0
14262,496656.004093119,2010-11-07 08:21:56,2431.245306903771,2,44,0.5501165986061096,3.928494453430176,42.57512581371165,42.270342415373975,169.95319682794926,154.18156836743836,6.47544875391759e-05,0.0931989923119545,0,0,0
14263,496686.01928442926,2010-11-07 08:22:26,2461.260498214004,2,44,0.5499359965324402,3.929789543151856,42.579712550778666,42.270342415373975,169.97121866134196,154.18156836743836,3.237724376958795e-05,0.0931989923119545,0,0,0
14264,496716.0349464394,2010-11-07 08:22:56,2491.276160224175,2,44,0.550297200679779,3.931408405303955,42.58429938872329,42.270342415373975,169.989247957438,154.18156836743836,6.47544875391759e-05,0.0931989923119545,0,0,0
14265,496746.0500622914,2010-11-07 08:23:26,2521.291276081064,2,44,0.5501165986061096,3.9328653812408447,42.58888613276782,42.270342415373975,170.00728389890384,154.18156836743836,6.47544875391759e-05,0.0931989923119545,0,0,0
14266,496776.0654142876,2010-11-07 08:23:56,2551.3066280974435,2,44,0.5501165986061096,3.934484243392944,42.59347300834494,42.270342415373975,170.02532749621355,154.18156836743836,0.0,0.0931989923119545,0,0,0
14267,496806.0808649803,2010-11-07 08:24:26,2581.322078850284,2,44,0.550297200679779,3.936264991760254,42.59805983718697,42.270342415373975,170.04337808080973,154.18156836743836,6.47544875391759e-05,0.0931989923119545,0,0,0
14268,496836.096174651,2010-11-07 08:24:56,2611.3373884808616,2,44,0.550297200679779,3.937721967697144,42.60264661843266,42.270342415373975,170.0614354916327,154.18156836743836,6.47544875391759e-05,0.0931989923119545,0,0,0
14269,496866.1115197903,2010-11-07 08:25:26,2641.3527335749623,2,44,0.5501165986061096,3.939340829849243,42.60723335724288,42.270342415373975,170.07950008838156,154.18156836743836,9.713172767078504e-05,0.0931989923119545,0,0,0
14270,496896.1269136962,2010-11-07 08:25:56,2671.368127480904,2,44,0.5499359965324402,3.940797805786133,42.61182015102689,42.270342415373975,170.09757224693885,154.18156836743836,6.47544875391759e-05,0.0931989923119545,0,0,0
14271,496926.1269512954,2010-11-07 08:26:26,2701.3681650801423,2,44,0.5501165986061096,3.9425785541534415,42.616404630728205,42.270342415373975,170.11564261256768,154.18156836743836,6.47544875391759e-05,0.0931989923119545,0,0,0
14272,496956.1420104308,2010-11-07 08:26:56,2731.383224215446,2,44,0.5499359965324402,3.944035530090332,42.62099129514922,42.270342415373975,170.13372905981575,154.18156836743836,3.237724376958795e-05,0.0931989923119545,0,0,0
14273,496986.15738917387,2010-11-07 08:27:26,2761.398602963552,2,44,0.550297200679779,3.9458162784576416,42.625578046863744,42.270342415373975,170.15182336280654,154.18156836743836,6.47544875391759e-05,0.0931989923119545,0,0,0
14274,497016.1727540573,2010-11-07 08:27:56,2791.4139678420365,2,44,0.5501165986061096,3.9472732543945312,42.63016487396905,42.270342415373975,170.16992551772455,154.18156836743836,0.0,0.0931989923119545,0,0,0
14275,497046.18813846447,2010-11-07 08:28:26,2821.4293522492685,2,44,0.5501165986061096,3.948892116546631,42.63475166265181,42.270342415373975,170.18803515475017,154.18156836743836,0.0,0.0931989923119545,0,0,0
14276,497076.20349114254,2010-11-07 08:28:56,2851.444704927299,2,44,0.5501165986061096,3.950672864913941,42.63933846523699,42.270342415373975,170.20615251043762,154.18156836743836,3.237724376958795e-05,0.0931989923119545,0,0,0
14277,497106.21887963,2010-11-07 08:29:26,2881.4600934197283,2,44,0.5501165986061096,3.95229172706604,42.64392528857666,42.270342415373975,170.2242777652853,154.18156836743836,0.0,0.0931989923119545,0,0,0
14278,497136.2342348544,2010-11-07 08:29:56,2911.475448639103,2,44,0.5499359965324402,3.9540724754333496,42.6485120883389,42.270342415373975,170.2424108205637,154.18156836743836,0.0,0.0931989923119545,0,0,0
14279,497166.2496132717,2010-11-07 08:30:26,2941.4908270563838,2,44,0.5501165986061096,3.955853223800659,42.65309887951869,42.270342415373975,170.2605517772761,154.18156836743836,3.237724376958795e-05,0.0931989923119545,0,0,0
14280,497196.2651065658,2010-11-07 08:30:56,2971.5063203504133,2,44,0.5501165986061096,3.9576339721679688,42.65768572744169,42.270342415373975,170.2787009268429,154.18156836743836,6.47544875391759e-05,0.0931989923119545,0,0,0
14281,497226.28034686827,2010-11-07 08:31:26,3001.52156065795,2,44,0.5501165986061096,3.9594147205352783,42.66227248094738,42.270342415373975,170.29685775187772,154.18156836743836,6.47544875391759e-05,0.0931989923119545,0,0,0
14282,497256.2957014159,2010-11-07 08:31:56,3031.536915200635,2,44,0.5501165986061096,3.961033582687378,42.666859301685626,42.270342415373975,170.31502295586188,154.18156836743836,0.0,0.0931989923119545,0,0,0
14283,497286.3110716378,2010-11-07 08:32:26,3061.552285412434,2,44,0.5501165986061096,3.9629762172698975,42.67144613631405,42.270342415373975,170.3331964762545,154.18156836743836,0.0,0.0931989923119545,0,0,0
14284,497316.3265868465,2010-11-07 08:32:56,3091.567800631191,2,44,0.5499359965324402,3.964595079421997,42.67603295591898,42.270342415373975,170.35137819654992,154.18156836743836,0.0,0.0931989923119545,0,0,0
14285,497346.3419363365,2010-11-07 08:33:26,3121.583150116252,2,44,0.5501165986061096,3.966699600219727,42.68061976256937,42.270342415373975,170.36956822590142,154.18156836743836,3.237724376958795e-05,0.0931989923119545,0,0,0
14286,497376.3599228139,2010-11-07 08:33:56,3151.6011366287385,2,44,0.5501165986061096,3.968480348587036,42.68520703315691,42.270342415373975,170.38776846583625,154.18156836743836,3.237724376958795e-05,0.0931989923119545,0,0,0
14287,497406.37290735566,2010-11-07 08:34:26,3181.6141211454747,2,44,0.550297200679779,3.9702610969543457,42.68979350520185,42.270342415373975,170.4059740485161,154.18156836743836,3.237724376958795e-05,0.0931989923119545,0,0,0
14288,497436.3879386967,2010-11-07 08:34:56,3211.6291524763737,2,44,0.5501165986061096,3.972203731536865,42.69438037696152,42.270342415373975,170.42418987497928,154.18156836743836,0.0,0.0931989923119545,0,0,0
14289,497466.4033160161,2010-11-07 08:35:26,3241.644529800926,2,44,0.5501165986061096,3.9741463661193848,42.6989672832424,42.270342415373975,170.44241453649852,154.18156836743836,6.47544875391759e-05,0.0931989923119545,0,0,0
14290,497496.4186756315,2010-11-07 08:35:56,3271.659889411261,2,44,0.5501165986061096,3.976089000701904,42.70355412028773,42.270342415373975,170.46064778995978,154.18156836743836,6.47544875391759e-05,0.0931989923119545,0,0,0
14291,497526.43407666025,2010-11-07 08:36:26,3301.6752904399827,2,44,0.5499359965324402,3.977707862854004,42.70814097835909,42.270342415373975,170.4788900169823,154.18156836743836,0.0,0.0931989923119545,0,0,0
14292,497556.4494263709,2010-11-07 08:36:56,3331.6906401455944,2,44,0.5501165986061096,3.979974269866944,42.71272778553168,42.270342415373975,170.49714085489035,154.18156836743836,3.237724376958795e-05,0.0931989923119545,0,0,0
14293,497586.4648034047,2010-11-07 08:37:26,3361.706017179421,2,44,0.550297200679779,3.982240676879883,42.717314619203975,42.270342415373975,170.51540116857606,154.18156836743836,9.713172767078504e-05,0.0931989923119545,0,0,0
14294,497616.4801811002,2010-11-07 08:37:56,3391.721394904974,2,44,0.550297200679779,3.9841833114624015,42.72190146090482,42.270342415373975,170.53367069739878,154.18156836743836,6.47544875391759e-05,0.0931989923119545,0,0,0
14295,497646.4955639285,2010-11-07 08:38:26,3421.7367777082027,2,44,0.5501165986061096,3.985964059829712,42.72648828099432,42.270342415373975,170.55194941761135,154.18156836743836,3.237724376958795e-05,0.0931989923119545,0,0,0
14296,497676.5109134085,2010-11-07 08:38:56,3451.752127213313,2,44,0.5501165986061096,3.9880685806274414,42.73107514723916,42.270342415373975,170.5702376996729,154.18156836743836,6.47544875391759e-05,0.0931989923119545,0,0,0
14297,497706.5262848835,2010-11-07 08:39:26,3481.767498668214,2,44,0.5501165986061096,3.990173101425171,42.73566195362995,42.270342415373975,170.58853509489336,154.18156836743836,3.237724376958795e-05,0.0931989923119545,0,0,0
14298,497736.5416890901,2010-11-07 08:39:56,3511.782902869856,2,44,0.5499359965324402,3.9921157360076895,42.74024875147763,42.270342415373975,170.6068420822683,154.18156836743836,0.0,0.0931989923119545,0,0,0
14299,497766.5570609962,2010-11-07 08:40:26,3541.798274775883,2,44,0.550297200679779,3.994381904602051,42.74483561220961,42.270342415373975,170.6251590016873,154.18156836743836,3.237724376958795e-05,0.0931989923119545,0,0,0
14300,497796.5724030878,2010-11-07 08:40:56,3571.813616892551,2,44,0.5501165986061096,3.9966483116149902,42.74942242333325,42.270342415373975,170.6434855340445,154.18156836743836,9.713172767078504e-05,0.0931989923119545,0,0,0
14301,497826.5879322663,2010-11-07 08:41:26,3601.8291460511045,2,44,0.5499359965324402,3.9985909461975098,42.75400930239398,42.270342415373975,170.66182221391975,154.18156836743836,3.237724376958795e-05,0.0931989923119545,0,0,0
14302,497856.60314967175,2010-11-07 08:41:56,3631.8443634514615,2,44,0.5501165986061096,4.000857353210449,42.758596100063336,42.270342415373975,170.68016855206704,154.18156836743836,3.23295607813634e-05,0.0931989923119545,0,0,0
14303,497886.61886575184,2010-11-07 08:42:26,3661.8600795416246,2,44,0.5499359965324402,4.003123760223389,42.76318301246275,42.270342415373975,170.69852547811445,154.18156836743836,3.23295607813634e-05,0.0931989923119545,0,0,0
14304,497916.6340173079,2010-11-07 08:42:56,3691.875231122687,2,44,0.5501165986061096,4.005390167236328,42.7677697520555,42.270342415373975,170.716891788778,154.18156836743836,6.47544875391759e-05,0.0931989923119545,0,0,0
14305,497946.6492885877,2010-11-07 08:43:26,3721.890502362436,2,44,0.550297200679779,4.007656574249268,42.77235655397815,42.270342415373975,170.7352686569924,154.18156836743836,3.23295607813634e-05,0.0931989923119545,0,0,0
14306,497976.6646505088,2010-11-07 08:43:56,3751.9058643086014,2,44,0.5499359965324402,4.009761333465576,42.776943406761184,42.270342415373975,170.75365603829852,154.18156836743836,3.24249267578125e-05,0.0931989923119545,0,0,0
14307,498006.6800255727,2010-11-07 08:44:26,3781.921239357473,2,44,0.5501165986061096,4.012027740478516,42.78153021256527,42.270342415373975,170.77205363129312,154.18156836743836,6.47544875391759e-05,0.0931989923119545,0,0,0
14308,498036.6953907269,2010-11-07 08:44:56,3811.9366045066336,2,44,0.5501165986061096,4.014455795288086,42.786117040252726,42.270342415373975,170.79046190610512,154.18156836743836,6.47544875391759e-05,0.0931989923119545,0,0,0
14309,498066.7107620815,2010-11-07 08:45:26,3841.9519758612846,2,44,0.5501165986061096,4.016722202301025,42.790703874646056,42.270342415373975,170.80888083060876,154.18156836743836,6.47544875391759e-05,0.0931989923119545,0,0,0
14310,498096.7261540426,2010-11-07 08:45:56,3871.967367832397,2,44,0.550297200679779,4.019150733947754,42.795290802489696,42.270342415373975,170.8273109789732,154.18156836743836,6.47544875391759e-05,0.0931989923119545,0,0,0
14311,498126.7414962546,2010-11-07 08:46:26,3901.9827100392895,2,44,0.550297200679779,4.021740913391113,42.799877668631495,42.270342415373975,170.84575162890587,154.18156836743836,9.71794142969884e-05,0.0931989923119545,0,0,0
14312,498156.7570049821,2010-11-07 08:46:56,3931.998218776871,2,44,0.5501165986061096,4.023845195770264,42.80446449780112,42.270342415373975,170.86420321932792,154.18156836743836,3.23295607813634e-05,0.0931989923119545,0,0,0
14313,498186.7722692846,2010-11-07 08:47:26,3962.013483069277,2,44,0.5499359965324402,4.026273727416992,42.80905128725616,42.270342415373975,170.8826655728064,154.18156836743836,6.47544875391759e-05,0.0931989923119545,0,0,0
14314,498216.7876391204,2010-11-07 08:47:56,3992.028852905136,2,44,0.550297200679779,4.028863906860352,42.8136381142559,42.270342415373975,170.90113920324742,154.18156836743836,9.71794142969884e-05,0.0931989923119545,0,0,0
14315,498246.8030277532,2010-11-07 08:48:27,4022.044241537916,2,44,0.5499359965324402,4.031130313873291,42.81822500748906,42.270342415373975,170.91962413187343,154.18156836743836,3.24249267578125e-05,0.0931989923119545,0,0,0
14316,498276.81838411547,2010-11-07 08:48:57,4052.0595979001423,2,44,0.550297200679779,4.03372049331665,42.82281180501582,42.270342415373975,170.93811997977474,154.18156836743836,9.71794142969884e-05,0.0931989923119545,0,0,0
14317,498306.833762638,2010-11-07 08:49:27,4082.0749764226857,2,44,0.5501165986061096,4.036148548126221,42.82739865881629,42.270342415373975,170.95662748124693,154.18156836743836,6.47544875391759e-05,0.0931989923119545,0,0,0
14318,498336.84912992246,2010-11-07 08:49:57,4112.0903437071765,2,44,0.5501165986061096,4.03873872756958,42.83198552014059,42.270342415373975,170.9751464678595,154.18156836743836,9.71794142969884e-05,0.0931989923119545,0,0,0
14319,498366.8645305101,2010-11-07 08:50:27,4142.10574429981,2,44,0.550297200679779,4.04132890701294,42.83657230876842,42.270342415373975,170.99367664768604,154.18156836743836,9.71794142969884e-05,0.0931989923119545,0,0,0
14320,498396.8798738347,2010-11-07 08:50:57,4172.121087619481,2,44,0.550297200679779,4.04375696182251,42.84115916433058,42.270342415373975,171.01221879207776,154.18156836743836,6.47544875391759e-05,0.0931989923119545,0,0,0
14321,498426.8952484676,2010-11-07 08:51:27,4202.136462252314,2,44,0.5499359965324402,4.046185493469238,42.84574602669823,42.270342415373975,171.03077271280756,154.18156836743836,6.47544875391759e-05,0.0931989923119545,0,0,0
14322,498456.9107484834,2010-11-07 08:51:57,4232.151962268124,2,44,0.5501165986061096,4.049099445343018,42.85033286863056,42.270342415373975,171.04933840981585,154.18156836743836,9.71794142969884e-05,0.0931989923119545,0,0,0
14323,498486.9260041693,2010-11-07 08:52:27,4262.167217954047,2,44,0.5499359965324402,4.051365852355957,42.85491976590655,42.270342415373975,171.0679164224248,154.18156836743836,0.0,0.0931989923119545,0,0,0
14324,498516.941492922,2010-11-07 08:52:57,4292.182706706741,2,44,0.5501165986061096,4.054117679595947,42.859506651727806,42.270342415373975,171.0865065454241,154.18156836743836,3.23295607813634e-05,0.0931989923119545,0,0,0
14325,498546.956754242,2010-11-07 08:53:27,4322.197968026729,2,44,0.5501165986061096,4.056869983673096,42.86409357630303,42.270342415373975,171.1051091172383,154.18156836743836,6.47544875391759e-05,0.0931989923119545,0,0,0
14326,498576.97218072927,2010-11-07 08:53:57,4352.213394513999,2,44,0.550297200679779,4.059783935546875,42.868680479021,42.270342415373975,171.12372401467994,154.18156836743836,0.0001295089750783,0.0931989923119545,0,0,0
14327,498606.9875262645,2010-11-07 08:54:27,4382.228740059225,2,44,0.5501165986061096,4.062374114990234,42.873267432208,42.270342415373975,171.14235131201153,154.18156836743836,9.71794142969884e-05,0.0931989923119545,0,0,0
14328,498637.0028610479,2010-11-07 08:54:57,4412.244074832563,2,44,0.550297200679779,4.065125942230225,42.87785425699623,42.270342415373975,171.1609906660068,154.18156836743836,6.47544875391759e-05,0.0931989923119545,0,0,0
14329,498667.01823853777,2010-11-07 08:55:27,4442.259452327541,2,44,0.550297200679779,4.067878246307373,42.88244113076258,42.270342415373975,171.17964288252958,154.18156836743836,9.71794142969884e-05,0.0931989923119545,0,0,0
14330,498697.0336002935,2010-11-07 08:55:57,4472.274814083231,2,44,0.5501165986061096,4.070630073547363,42.88702801548376,42.270342415373975,171.19830800307307,154.18156836743836,9.70840483205393e-05,0.0931989923119545,0,0,0
14331,498727.0489906807,2010-11-07 08:56:27,4502.29020447039,2,44,0.5499359965324402,4.073382377624512,42.89161487441926,42.270342415373975,171.21698578212724,154.18156836743836,3.24249267578125e-05,0.0931989923119545,0,0,0
14332,498757.0643670678,2010-11-07 08:56:57,4532.30558087264,2,44,0.550297200679779,4.076457977294922,42.89620169405454,42.270342415373975,171.23567642203724,154.18156836743836,9.70840483205393e-05,0.0931989923119545,0,0,0
14333,498787.0797283524,2010-11-07 08:57:27,4562.320942137104,2,44,0.5499359965324402,4.079048156738281,42.90078852331115,42.270342415373975,171.25438020215714,154.18156836743836,6.47544875391759e-05,0.0931989923119545,0,0,0
14334,498817.0950882735,2010-11-07 08:57:57,4592.336302058215,2,44,0.5501165986061096,4.0819621086120605,42.90537535761405,42.270342415373975,171.27309723252998,154.18156836743836,6.47544875391759e-05,0.0931989923119545,0,0,0
14335,498847.110663066,2010-11-07 08:58:27,4622.35187685569,2,44,0.5501165986061096,4.08487606048584,42.90996222468637,42.270342415373975,171.29182770009726,154.18156836743836,3.23295607813634e-05,0.0931989923119545,0,0,0
14336,498877.1258299602,2010-11-07 08:58:57,4652.367043744964,2,44,0.5501165986061096,4.087952136993408,42.91454902116506,42.270342415373975,171.31057130930668,154.18156836743836,0.0001295089750783,0.0931989923119545,0,0,0
14337,498907.14120274346,2010-11-07 08:59:27,4682.382416533193,2,44,0.5501165986061096,4.090703964233398,42.91913588316788,42.270342415373975,171.3293286341443,154.18156836743836,3.23295607813634e-05,0.0931989923119545,0,0,0
14338,498937.1565745392,2010-11-07 08:59:57,4712.397788328944,2,44,0.5501165986061096,4.093780040740967,42.92372277007129,42.270342415373975,171.34809957627573,154.18156836743836,9.71794142969884e-05,0.0931989923119545,0,0,0
14339,498967.17198791873,2010-11-07 09:00:27,4742.413201713508,2,44,0.5501165986061096,4.096693992614746,42.92830967235412,42.270342415373975,171.36688433207,154.18156836743836,3.24249267578125e-05,0.0931989923119545,0,0,0
14340,498997.187339875,2010-11-07 09:00:57,4772.428553659712,2,44,0.5501165986061096,4.099931716918945,42.93289651528748,42.270342415373975,171.38568274356584,154.18156836743836,9.71794142969884e-05,0.0931989923119545,0,0,0
14341,499027.2026954452,2010-11-07 09:01:27,4802.443909229962,2,44,0.550297200679779,4.103007316589356,42.93748341590485,42.270342415373975,171.40449550631178,154.18156836743836,9.70840483205393e-05,0.0931989923119545,0,0,0
14342,499057.21806163696,2010-11-07 09:01:57,4832.459275426738,2,44,0.5501165986061096,4.106083393096924,42.94207023924534,42.270342415373975,171.42332215659584,154.18156836743836,6.47544875391759e-05,0.0931989923119545,0,0,0
14343,499087.2335747756,2010-11-07 09:02:27,4862.474788570316,2,44,0.5501165986061096,4.109158992767334,42.94665715111665,42.270342415373975,171.44216352323306,154.18156836743836,6.47544875391759e-05,0.0931989923119545,0,0,0
14344,499117.249049794,2010-11-07 09:02:57,4892.490263588727,2,44,0.5501165986061096,4.112396717071533,42.951243978949634,42.270342415373975,171.4610189738158,154.18156836743836,9.70840483205393e-05,0.0931989923119545,0,0,0
14345,499147.2641818714,2010-11-07 09:03:27,4922.50539565608,2,44,0.5501165986061096,4.115472316741943,42.95583075856577,42.270342415373975,171.4798886200982,154.18156836743836,9.70840483205393e-05,0.0931989923119545,0,0,0
14346,499177.2795521383,2010-11-07 09:03:57,4952.5207659480775,2,44,0.550297200679779,4.118710041046143,42.96041761416249,42.270342415373975,171.49877323274632,154.18156836743836,6.47544875391759e-05,0.0931989923119545,0,0,0
14347,499207.2949520492,2010-11-07 09:04:27,4982.536165838959,2,44,0.550297200679779,4.121947765350342,42.96500443842002,42.270342415373975,171.51767248064127,154.18156836743836,9.70840483205393e-05,0.0931989923119545,0,0,0
14348,499237.3102938752,2010-11-07 09:04:57,5012.5515076598895,2,44,0.5499359965324402,4.12502384185791,42.96959129821374,42.270342415373975,171.5365866104998,154.18156836743836,6.47544875391759e-05,0.0931989923119545,0,0,0
14349,499267.3256711145,2010-11-07 09:05:27,5042.566884904242,2,44,0.550297200679779,4.128585338592529,42.97417819905255,42.270342415373975,171.55551586147556,154.18156836743836,0.0001295089750783,0.0931989923119545,0,0,0
14350,499297.34162903833,2010-11-07 09:05:57,5072.582842823047,2,44,0.5501165986061096,4.13166093826294,42.978765199976856,42.270342415373975,171.57446060245803,154.18156836743836,6.47544875391759e-05,0.0931989923119545,0,0,0
14351,499327.3434517184,2010-11-07 09:06:27,5102.584665588334,2,44,0.550297200679779,4.134898662567139,42.983349988742816,42.270342415373975,171.59341124550988,154.18156836743836,0.0,0.0931989923119545,0,0,0
14352,499357.35651064594,2010-11-07 09:06:57,5132.597724435611,2,44,0.550297200679779,4.138298511505127,42.98793644250521,42.270342415373975,171.61238400068586,154.18156836743836,3.24249267578125e-05,0.0931989923119545,0,0,0
14353,499387.37153612217,2010-11-07 09:07:27,5162.612749911895,2,44,0.5501165986061096,4.141697883605957,42.99252329753505,42.270342415373975,171.63137378892336,154.18156836743836,9.70840483205393e-05,0.0931989923119545,0,0,0
14354,499417.38691314094,2010-11-07 09:07:57,5192.628126925672,2,44,0.5501165986061096,4.145259380340576,42.99711010910142,42.270342415373975,171.65037892617227,154.18156836743836,0.0001295089750783,0.0931989923119545,0,0,0
14355,499447.4022741246,2010-11-07 09:08:27,5222.643487909435,2,44,0.550297200679779,4.1486592292785645,43.001696924327874,42.270342415373975,171.6693999995815,154.18156836743836,9.71794142969884e-05,0.0931989923119545,0,0,0
14356,499477.4176592837,2010-11-07 09:08:57,5252.658873068544,2,44,0.5497553944587708,4.151896953582764,43.00628375322188,42.270342415373975,171.68843672197733,154.18156836743836,6.47544875391759e-05,0.0931989923119545,0,0,0
14357,499507.4330163978,2010-11-07 09:09:27,5282.674230187661,2,44,0.5501165986061096,4.155296325683594,43.01087054959518,42.270342415373975,171.70748899197548,154.18156836743836,6.47544875391759e-05,0.0931989923119545,0,0,0
14358,499537.4485214212,2010-11-07 09:09:57,5312.689735215981,2,44,0.5501165986061096,4.158857822418213,43.01545738393653,42.270342415373975,171.72655731775544,154.18156836743836,6.47544875391759e-05,0.0931989923119545,0,0,0
14359,499567.4637873827,2010-11-07 09:10:27,5342.705001167529,2,44,0.5501165986061096,4.162419319152832,43.02004417016623,42.270342415373975,171.74564147891394,154.18156836743836,9.70840483205393e-05,0.0931989923119545,0,0,0
14360,499597.47929686727,2010-11-07 09:10:57,5372.720510656986,2,44,0.5501165986061096,4.165980815887451,43.0246309484871,42.270342415373975,171.7647416789649,154.18156836743836,0.0001295089750783,0.0931989923119545,0,0,0
14361,499627.4946314852,2010-11-07 09:11:27,5402.735845274937,2,44,0.5501165986061096,4.16938066482544,43.02921769586982,42.270342415373975,171.78385795228976,154.18156836743836,6.47544875391759e-05,0.0931989923119545,0,0,0
14362,499657.5098760182,2010-11-07 09:11:57,5432.751089803009,2,44,0.550297200679779,4.173265933990479,43.03380442318355,42.270342415373975,171.8029904298121,154.18156836743836,0.0001295089750783,0.0931989923119545,0,0,0
14363,499687.52537150274,2010-11-07 09:12:27,5462.766585267456,2,44,0.550297200679779,4.176665306091309,43.03839130349798,42.270342415373975,171.82214008036806,154.18156836743836,0.0001295089750783,0.0931989923119545,0,0,0
14364,499717.5407611381,2010-11-07 09:12:57,5492.781974932813,2,44,0.5501165986061096,4.180226802825928,43.0429781477005,42.270342415373975,171.84130609448613,154.18156836743836,9.70840483205393e-05,0.0931989923119545,0,0,0
14365,499747.55594614753,2010-11-07 09:13:27,5522.797159957355,2,44,0.5499359965324402,4.183788299560547,43.047564257592455,42.270342415373975,171.86048551294382,154.18156836743836,6.47544875391759e-05,0.0931989923119545,0,0,0
14366,499777.5714683237,2010-11-07 09:13:57,5552.812682118442,2,44,0.5501165986061096,4.187673568725586,43.052150313275305,42.270342415373975,171.87968142347952,154.18156836743836,9.70840483205393e-05,0.0931989923119545,0,0,0
14367,499807.5867139896,2010-11-07 09:14:27,5582.827927774329,2,44,0.5499359965324402,4.191235065460205,43.05673638882008,42.270342415373975,171.89889440589064,154.18156836743836,6.47544875391759e-05,0.0931989923119545,0,0,0
14368,499837.60222579486,2010-11-07 09:14:57,5612.843439579566,2,44,0.5499359965324402,4.194796562194824,43.06132238181196,42.270342415373975,171.91812400720002,154.18156836743836,6.47544875391759e-05,0.0931989923119545,0,0,0
14369,499867.6177146829,2010-11-07 09:15:27,5642.858928467598,2,44,0.5499359965324402,4.198681831359863,43.06590832779719,42.270342415373975,171.93737031663534,154.18156836743836,9.71794142969884e-05,0.0931989923119545,0,0,0
14370,499878.2579926888,2010-11-07 09:15:38,5653.499206483491,2,44,0.550297200679779,4.200138568878174,43.06753399845191,42.270342415373975,171.9441970598784,154.18156836743836,9.70840483205393e-05,0.0931989923119545,0,0,0
14371,499908.26603493147,2010-11-07 09:16:08,30.015363474981783,3,44,0.0,4.118386268615723,43.06753399845191,42.270342415373975,171.9441970598784,154.18156836743836,-0.0003561973571777,0.0931989923119545,0,0,0
14372,499938.2814214591,2010-11-07 09:16:38,60.03075000250626,3,44,0.0,4.108835220336914,43.06753399845191,42.270342415373975,171.9441970598784,154.18156836743836,-0.0001619339018361,0.0931989923119545,0,0,0
14373,499968.29680268327,2010-11-07 09:17:08,90.04613123681804,3,44,0.0,4.103007316589356,43.06753399845191,42.270342415373975,171.9441970598784,154.18156836743836,-0.0001619339018361,0.0931989923119545,0,0,0
14374,499998.2653024794,2010-11-07 09:17:38,120.01463102282236,3,44,0.0,4.0992841720581055,43.06753399845191,42.270342415373975,171.9441970598784,154.18156836743836,-6.47544875391759e-05,0.0931989923119545,0,0,0
14375,499998.27459514193,2010-11-07 09:17:38,2.626556289e-06,4,44,0.9794248938560486,4.199653148651123,43.06753399916649,42.270342415373975,171.94419706287945,154.18156836743836,0.0,0.0931989923119545,0,0,0
14376,499999.1183341192,2010-11-07 09:17:39,0.843741618887145,4,44,0.9290348887443542,4.199814796447754,43.067755929429325,42.270342415373975,171.9451290925971,154.18156836743836,3.23295607813634e-05,0.0931989923119545,0,0,0
14377,500001.21211263246,2010-11-07 09:17:41,2.937520162251158,4,44,0.8784642815589905,4.199653148651123,43.06828033155525,42.270342415373975,171.94733138274444,154.18156836743836,0.0,0.0931989923119545,0,0,0
14378,500004.43083465286,2010-11-07 09:17:44,6.156242157539396,4,44,0.828435480594635,4.199491024017334,43.06904223342374,42.270342415373975,171.95053109602125,154.18156836743836,-3.24249267578125e-05,0.0931989923119545,0,0,0
14379,500008.91513243504,2010-11-07 09:17:49,10.640539934683114,4,44,0.7784067392349243,4.199653148651123,43.07004176197172,42.270342415373975,171.9547287631918,154.18156836743836,0.0,0.0931989923119545,0,0,0
14380,500014.83695568686,2010-11-07 09:17:55,16.562363186569552,4,44,0.7283779978752136,4.199814796447754,43.07127944488566,42.270342415373975,171.95992661592737,154.18156836743836,3.23295607813634e-05,0.0931989923119545,0,0,0
14381,500022.5868941907,2010-11-07 09:18:03,24.31230169037328,4,44,0.6779879927635193,4.199491024017334,43.07279144686298,42.270342415373975,171.96627651363005,154.18156836743836,-3.24249267578125e-05,0.0931989923119545,0,0,0
14382,500033.2118040103,2010-11-07 09:18:13,34.93721150988429,4,44,0.6277785897254944,4.199653148651123,43.07471543604985,42.270342415373975,171.97435660733078,154.18156836743836,0.0,0.0931989923119545,0,0,0
14383,500048.2117026649,2010-11-07 09:18:28,49.93711016460318,4,44,0.5777498483657837,4.199653148651123,43.0772207477476,42.270342415373975,171.9848780686545,154.18156836743836,3.24249267578125e-05,0.0931989923119545,0,0,0
14384,500071.6020996994,2010-11-07 09:18:52,73.32750720413648,4,44,0.5277210474014282,4.199491024017334,43.08079932844973,42.270342415373975,171.999906937192,154.18156836743836,-3.24249267578125e-05,0.0931989923119545,0,0,0
14385,500112.1487558362,2010-11-07 09:19:32,113.87416333578818,4,44,0.4776923060417175,4.199653148651123,43.08643552892293,42.270342415373975,172.02357710274373,154.18156836743836,3.24249267578125e-05,0.0931989923119545,0,0,0
14386,500181.42936824827,2010-11-07 09:20:41,183.15477575293716,4,44,0.4276635348796844,4.199653148651123,43.09511461354107,42.270342415373975,172.06002637025193,154.18156836743836,3.24249267578125e-05,0.0931989923119545,0,0,0
14387,500280.0222273827,2010-11-07 09:22:20,281.74763488245657,4,44,0.3776347637176513,4.199491024017334,43.10612290670582,42.270342415373975,172.10625753671184,154.18156836743836,-6.47544875391759e-05,0.0931989923119545,0,0,0
14388,500400.63059399097,2010-11-07 09:24:21,402.356001490644,4,44,0.3276059925556183,4.199491024017334,43.11792150907234,42.270342415373975,172.15580781143709,154.18156836743836,0.0,0.0931989923119545,0,0,0
14389,500542.8325152737,2010-11-07 09:26:43,544.5579227733843,4,44,0.2775772213935852,4.199653148651123,43.12985931536877,42.270342415373975,172.20594268683757,154.18156836743836,0.0,0.0931989923119545,0,0,0
14390,500714.56557369296,2010-11-07 09:29:35,716.2909811976818,4,44,0.2275484502315521,4.199653148651123,43.14188122574194,42.270342415373975,172.25643076729963,154.18156836743836,0.0,0.0931989923119545,0,0,0
14391,500930.2981408553,2010-11-07 09:33:10,932.023548354932,4,44,0.177519679069519,4.199653148651123,43.15397256895079,42.270342415373975,172.30721041763297,154.18156836743836,0.0,0.0931989923119545,0,0,0
14392,501233.2174538986,2010-11-07 09:38:13,1234.942861408285,4,44,0.1273102909326553,4.199491024017334,43.16670718887355,42.270342415373975,172.3606916359704,154.18156836743836,-6.47544875391759e-05,0.0931989923119545,0,0,0
14393,501726.5412627264,2010-11-07 09:46:27,1728.266670231077,4,44,0.0772815272212028,4.199653148651123,43.18045336107003,42.270342415373975,172.41842103678334,154.18156836743836,0.0,0.0931989923119545,0,0,0
14394,502208.8184348595,2010-11-07 09:54:29,2210.5438423591963,4,44,0.0498289167881011,4.199491024017334,43.18888213358957,42.270342415373975,172.45381920750668,154.18156836743836,-6.47544875391759e-05,0.0931989923119545,0,0,0
14395,502238.83048535575,2010-11-07 09:54:59,30.01532967060085,5,44,0.0,4.192044734954834,43.18888213358957,42.270342415373975,172.45381920750668,154.18156836743836,-6.47544875391759e-05,0.0931989923119545,0,0,0
14396,502268.83035649447,2010-11-07 09:55:29,60.01520081434041,5,44,0.0,4.191073417663574,43.18888213358957,42.270342415373975,172.45381920750668,154.18156836743836,-3.23295607813634e-05,0.0931989923119545,0,0,0
14397,502269.030554877,2010-11-07 09:55:29,0.187490695620992,6,44,-1.9243103452026844e-05,4.191073417663574,43.18888213358957,42.27034241637617,172.45381920750668,154.18156837163863,0.0,0.0923885703086853,0,0,0
14398,502273.85866813554,2010-11-07 09:55:34,5.015603954100813,6,44,0.0008838032954372,4.191235065460205,43.18888298865937,42.270342416627,172.45382279123228,154.18156837268987,0.0,0.0923885703086853,0,0,0
14399,502303.88688845554,2010-11-07 09:56:04,30.01535517426191,7,44,-1.099929690361023,4.023036003112793,43.18888298865937,42.2795121247241,172.45382279123228,154.21864388130624,-0.0008741378551349,0.0923885703086853,0,0,0
14400,502333.9023625366,2010-11-07 09:56:34,60.03082926535853,7,44,-1.0997490882873535,3.9984290599823,43.18888298865937,42.288681874798144,172.45382279123228,154.25541272345305,-0.0005504131549969,0.0923885703086853,0,0,0
14401,502363.91762890416,2010-11-07 09:57:04,90.04609562292029,7,44,-1.099929690361023,3.981107473373413,43.18888298865937,42.29785156796489,172.45382279123228,154.29199415961372,-0.0004209041653666,0.0923885703086853,0,0,0
14402,502393.93310871953,2010-11-07 09:57:34,120.06157544833064,7,44,-1.0997490882873535,3.9676709175109854,43.18888298865937,42.30702121289951,172.45382279123228,154.32843547595652,-0.0003237724304199,0.0923885703086853,0,0,0
14403,502423.94835994433,2010-11-07 09:58:04,150.07682666309364,7,44,-1.0997490882873535,3.955853223800659,43.18888298865937,42.31619073563278,172.45382279123228,154.36476184577162,-0.0002913951757363,0.0923885703086853,0,0,0
14404,502453.963720066,2010-11-07 09:58:34,180.0921867847049,7,44,-1.099929690361023,3.9451687335968018,43.18888298865937,42.325360258251074,172.45382279123228,154.4009863100603,-0.0002913951757363,0.0923885703086853,0,0,0
14405,502483.97909274895,2010-11-07 09:59:04,210.1075594676712,7,44,-1.099929690361023,3.935455560684204,43.18888298865937,42.33452984636702,172.45382279123228,154.43711714594403,-0.0002590179501567,0.0923885703086853,0,0,0
14406,502513.9944617076,2010-11-07 09:59:34,240.12292842634116,7,44,-1.0997490882873535,3.925904273986816,43.18888298865937,42.34369933056427,172.45382279123228,154.47315928275574,-0.0002590179501567,0.0923885703086853,0,0,0
14407,502544.00984708726,2010-11-07 10:00:04,270.1383138060003,7,44,-1.0997490882873535,3.9168386459350586,43.18888298865937,42.35286892765968,172.45382279123228,154.5091170574265,-0.0002266406954731,0.0923885703086853,0,0,0
14408,502574.0099298141,2010-11-07 10:00:34,300.138396532884,7,44,-1.1001102924346924,3.9080970287323,43.18888298865937,42.36203377295934,172.45382279123228,154.54497544609185,-0.0002590179501567,0.0923885703086853,0,0,0
14409,502604.0250803526,2010-11-07 10:01:04,330.15354707134344,7,44,-1.099568486213684,3.899840831756592,43.18888298865937,42.37120327745504,172.45382279123228,154.58077344309237,-0.0002266406954731,0.0923885703086853,0,0,0
14410,502634.0403307453,2010-11-07 10:01:34,360.1687974640545,7,44,-1.099929690361023,3.891422748565674,43.18888298865937,42.38037280862899,172.45382279123228,154.61649394012656,-0.0002266406954731,0.0923885703086853,0,0,0
14411,502664.0556924108,2010-11-07 10:02:04,390.1841591395445,7,44,-1.0997490882873535,3.883166551589966,43.18888298865937,42.38954233950281,172.45382279123228,154.65213926136096,-0.0002590179501567,0.0923885703086853,0,0,0
14412,502694.0710768481,2010-11-07 10:02:34,420.1995435668264,7,44,-1.0997490882873535,3.875072240829468,43.18888298865937,42.39871199091569,172.45382279123228,154.68771042774665,-0.0002590179501567,0.0923885703086853,0,0,0
14413,502724.08651556086,2010-11-07 10:03:04,450.21498228462593,7,44,-1.1001102924346924,3.8669779300689697,43.18888298865937,42.40788162076274,172.45382279123228,154.7232071003783,-0.0002266406954731,0.0923885703086853,0,0,0
14414,502754.1018404996,2010-11-07 10:03:34,480.23030721840286,7,44,-1.0997490882873535,3.8593692779541016,43.18888298865937,42.41705117749468,172.45382279123228,154.75863080362703,-0.0001942634553415,0.0923885703086853,0,0,0
14415,502784.117193278,2010-11-07 10:04:04,510.2456599966841,7,44,-1.099929690361023,3.8514368534088135,43.18888298865937,42.42622074201318,172.45382279123228,154.79398298909086,-0.0002266406954731,0.0923885703086853,0,0,0
14416,502814.1325884069,2010-11-07 10:04:34,540.2610551256791,7,44,-1.099929690361023,3.843828201293945,43.18888298865937,42.43539034633747,172.45382279123228,154.82926505063008,-0.0002266406954731,0.0923885703086853,0,0,0
14417,502844.1480818413,2010-11-07 10:05:04,570.2765485600595,7,44,-1.1001102924346924,3.836219549179077,43.18888298865937,42.44455996267011,172.45382279123228,154.86447776840237,-0.0002266406954731,0.0923885703086853,0,0,0
14418,502874.16330965766,2010-11-07 10:05:34,600.291776381429,7,44,-1.0997490882873535,3.828934907913208,43.18888298865937,42.45372947813856,172.45382279123228,154.89962115043804,-0.0001942634553415,0.0923885703086853,0,0,0
14419,502904.1788094479,2010-11-07 10:06:04,630.3072761716747,7,44,-1.0997490882873535,3.82165002822876,43.18888298865937,42.46289908482205,172.45382279123228,154.9346976265614,-0.0001618862152099,0.0923885703086853,0,0,0
14420,502934.1940780761,2010-11-07 10:06:35,660.3225447999043,7,44,-1.099929690361023,3.814365148544312,43.18888298865937,42.47206868980719,172.45382279123228,154.96970770164262,-0.0002266406954731,0.0923885703086853,0,0,0
14421,502964.2095530143,2010-11-07 10:07:05,690.338019733103,7,44,-1.0997490882873535,3.807404041290283,43.18888298865937,42.481238251793165,172.45382279123228,155.00465175418532,-0.0001618862152099,0.0923885703086853,0,0,0
14422,502994.2247993619,2010-11-07 10:07:35,720.3532660807168,7,44,-1.0997490882873535,3.800442934036255,43.18888298865937,42.49040777579159,172.45382279123228,155.0395318766178,-0.0001942634553415,0.0923885703086853,0,0,0
14423,503024.24017249607,2010-11-07 10:08:05,750.3686392148093,7,44,-1.0997490882873535,3.793643712997437,43.18888298865937,42.49957734306562,172.45382279123228,155.0743499166375,-0.0001942634553415,0.0923885703086853,0,0,0
14424,503054.2555485525,2010-11-07 10:08:35,780.3840152711962,7,44,-1.099929690361023,3.787168264389038,43.18888298865937,42.50874696557797,172.45382279123228,155.1091069942862,-0.0001942634553415,0.0923885703086853,0,0,0
14425,503084.27091749606,2010-11-07 10:09:05,810.3993842148286,7,44,-1.0997490882873535,3.78069281578064,43.18888298865937,42.51791659137151,172.45382279123228,155.14380373148435,-0.0001618862152099,0.0923885703086853,0,0,0
14426,503114.2864733362,2010-11-07 10:09:35,840.4149401051086,7,44,-1.0997490882873535,3.774379253387451,43.18888298865937,42.52708627963768,172.45382279123228,155.1784417151569,-0.0001295089750783,0.0923885703086853,0,0,0
14427,503144.3016710926,2010-11-07 10:10:05,870.4301378113059,7,44,-1.0997490882873535,3.768065690994263,43.18888298865937,42.53625577088141,172.45382279123228,155.2130211796795,-0.0001618862152099,0.0923885703086853,0,0,0
14428,503174.31703862274,2010-11-07 10:10:35,900.4455053414099,7,44,-1.099929690361023,3.761914014816284,43.18888298865937,42.54542539716637,172.45382279123228,155.24754444725096,-0.0001618862152099,0.0923885703086853,0,0,0
14429,503204.33239906514,2010-11-07 10:11:05,930.460865783822,7,44,-1.0997490882873535,3.7560861110687256,43.18888298865937,42.55459500628296,172.45382279123228,155.28201209472653,-0.0001295089750783,0.0923885703086853,0,0,0
14430,503234.34778016905,2010-11-07 10:11:35,960.4762468878084,7,44,-1.0997490882873535,3.750096559524536,43.18888298865937,42.563764722405615,172.45382279123228,155.31642643456422,-0.0001618862152099,0.0923885703086853,0,0,0
14431,503264.363284636,2010-11-07 10:12:05,990.4917513647528,7,44,-1.1001102924346924,3.744430541992188,43.18888298865937,42.57293439978351,172.45382279123228,155.35078765543045,-0.0001295089750783,0.0923885703086853,0,0,0
14432,503294.37857088825,2010-11-07 10:12:35,1020.5070376069496,7,44,-1.0997490882873535,3.738602638244629,43.18888298865937,42.58210400797908,172.45382279123228,155.38509632631025,-0.0001618862152099,0.0923885703086853,0,0,0
14433,503324.393902273,2010-11-07 10:13:05,1050.5223689918296,7,44,-1.0997490882873535,3.7332603931427,43.18888298865937,42.5912736131131,172.45382279123228,155.41935406148588,-0.0001295089750783,0.0923885703086853,0,0,0
14434,503354.4092943043,2010-11-07 10:13:35,1080.5377610230923,7,44,-1.0997490882873535,3.727918148040772,43.18888298865937,42.60044324650228,172.45382279123228,155.45356169649816,-0.0001618862152099,0.0923885703086853,0,0,0
14435,503384.4246378847,2010-11-07 10:14:05,1110.553104603414,7,44,-1.099929690361023,3.722252130508423,43.18888298865937,42.609612816997895,172.45382279123228,155.48771954394334,-0.0001942634553415,0.0923885703086853,0,0,0
14436,503414.42840427154,2010-11-07 10:14:35,1140.5568711005549,7,44,-1.099929690361023,3.716909885406494,43.18888298865937,42.61877888494459,172.45382279123228,155.52181472279543,-0.0001618862152099,0.0923885703086853,0,0,0
14437,503444.43989114993,2010-11-07 10:15:05,1170.56835786868,7,44,-1.0997490882873535,3.711891412734986,43.18888298865937,42.627947287414194,172.45382279123228,155.55587009875072,-0.0001295089750783,0.0923885703086853,0,0,0
14438,503474.4551445502,2010-11-07 10:15:35,1200.5836112688985,7,44,-1.099929690361023,3.7067110538482666,43.18888298865937,42.63711689292102,172.45382279123228,155.58988246230413,-0.0001295089750783,0.0923885703086853,0,0,0
14439,503504.4705300201,2010-11-07 10:16:05,1230.5989967387827,7,44,-1.0997490882873535,3.701692581176758,43.18888298865937,42.64628650358792,172.45382279123228,155.623848450558,-0.0001295089750783,0.0923885703086853,0,0,0
14440,503534.48587993614,2010-11-07 10:16:35,1260.6143466549197,7,44,-1.099929690361023,3.696674108505249,43.18888298865937,42.65545611690547,172.45382279123228,155.65776871536883,-9.713172767078504e-05,0.0923885703086853,0,0,0
14441,503564.5016266077,2010-11-07 10:17:05,1290.6300933264188,7,44,-1.0997490882873535,3.69165563583374,43.18888298865937,42.66462590004899,172.45382279123228,155.69164374442107,-0.0001295089750783,0.0923885703086853,0,0,0
14442,503594.5166339236,2010-11-07 10:17:35,1320.6451006423729,7,44,-1.0997490882873535,3.6867990493774414,43.18888298865937,42.6737954603181,172.45382279123228,155.72547261336325,-0.0001618862152099,0.0923885703086853,0,0,0
14443,503624.532020376,2010-11-07 10:18:05,1350.6604870947094,7,44,-1.0997490882873535,3.682104349136353,43.18888298865937,42.68296505762589,172.45382279123228,155.75925734634865,-6.47544875391759e-05,0.0923885703086853,0,0,0
14444,503654.5473961968,2010-11-07 10:18:35,1380.675862915508,7,44,-1.099929690361023,3.6772477626800537,43.18888298865937,42.6921346712701,172.45382279123228,155.79299835734992,-0.0001295089750783,0.0923885703086853,0,0,0
14445,503684.5627554612,2010-11-07 10:19:05,1410.6912221849927,7,44,-1.099568486213684,3.672714948654175,43.18888298865937,42.701304307583854,172.45382279123228,155.82669654170945,-0.0001295089750783,0.0923885703086853,0,0,0
14446,503714.578140495,2010-11-07 10:19:35,1440.706607213776,7,44,-1.0997490882873535,3.668182373046875,43.18888298865937,42.71047401840005,172.45382279123228,155.8603525078785,-9.713172767078504e-05,0.0923885703086853,0,0,0
14447,503744.5936099245,2010-11-07 10:20:05,1470.7220766432365,7,44,-1.0997490882873535,3.663649559020996,43.18888298865937,42.71964373577215,172.45382279123228,155.89396662859215,-9.713172767078504e-05,0.0923885703086853,0,0,0
14448,503774.6088629838,2010-11-07 10:20:35,1500.7373297026038,7,44,-1.099929690361023,3.6589548587799072,43.18888298865937,42.72881328586999,172.45382279123228,155.92753892420245,-0.0001295089750783,0.0923885703086853,0,0,0
14449,503804.6241512962,2010-11-07 10:21:05,1530.7526180149682,7,44,-1.0997490882873535,3.6545839309692383,43.18888298865937,42.73798289347316,172.45382279123228,155.96107065190523,-0.0001295089750783,0.0923885703086853,0,0,0
14450,503834.63970466016,2010-11-07 10:21:35,1560.7681713839545,7,44,-1.099568486213684,3.6503748893737793,43.18888298865937,42.747152247071405,172.45382279123228,155.9945614985933,-9.713172767078504e-05,0.0923885703086853,0,0,0
14451,503864.655070867,2010-11-07 10:22:05,1590.7835375907557,7,44,-1.099568486213684,3.64616584777832,43.18888298865937,42.75632154561068,172.45382279123228,156.02801261760015,-3.237724376958795e-05,0.0923885703086853,0,0,0
14452,503894.67032238754,2010-11-07 10:22:35,1620.7987891062692,7,44,-1.099568486213684,3.641956806182861,43.18888298865937,42.76549073760059,172.45382279123228,156.06142501298703,-0.0001295089750783,0.0923885703086853,0,0,0
14453,503924.6857825288,2010-11-07 10:23:05,1650.8142492475447,7,44,-1.0997490882873535,3.637909650802612,43.18888298865937,42.77465995830528,172.45382279123228,156.09479973173592,-9.713172767078504e-05,0.0923885703086853,0,0,0
14454,503954.7010686758,2010-11-07 10:23:35,1680.829535394504,7,44,-1.0997490882873535,3.6338624954223633,43.18888298865937,42.78382951270961,172.45382279123228,156.12813868745585,-9.713172767078504e-05,0.0923885703086853,0,0,0
14455,503984.71643924847,2010-11-07 10:24:05,1710.8449059672027,7,44,-1.099929690361023,3.629815340042114,43.18888298865937,42.79299913432851,172.45382279123228,156.16144155162408,-0.0001295089750783,0.0923885703086853,0,0,0
14456,504014.73467965965,2010-11-07 10:24:35,1740.8631464636728,7,44,-1.099568486213684,3.626253843307495,43.18888298865937,42.80216964557726,172.45382279123228,156.1947122237276,-6.47544875391759e-05,0.0923885703086853,0,0,0
14457,504044.74743812217,2010-11-07 10:25:05,1770.8759048659924,7,44,-1.099929690361023,3.622368574142456,43.18888298865937,42.811338521302666,172.45382279123228,156.22794248556914,-9.713172767078504e-05,0.0923885703086853,0,0,0
14458,504074.76256846025,2010-11-07 10:25:35,1800.891035178966,7,44,-1.1001102924346924,3.618807077407837,43.18888298865937,42.82050805520145,172.45382279123228,156.26114167957755,-9.713172767078504e-05,0.0923885703086853,0,0,0
14459,504104.77806346846,2010-11-07 10:26:05,1830.9065301872752,7,44,-1.0997490882873535,3.615407466888428,43.18888298865937,42.82967773669992,172.45382279123228,156.29430871106342,-6.47544875391759e-05,0.0923885703086853,0,0,0
14460,504134.7933363273,2010-11-07 10:26:35,1860.921803046065,7,44,-1.0997490882873535,3.6118459701538086,43.18888298865937,42.838847325997854,172.45382279123228,156.32744355817704,-9.713172767078504e-05,0.0923885703086853,0,0,0
14461,504164.8086895768,2010-11-07 10:27:05,1890.9371562955223,7,44,-1.099929690361023,3.6082844734191895,43.18888298865937,42.84801691135044,172.45382279123228,156.36054723054409,-0.0001618862152099,0.0923885703086853,0,0,0
14462,504194.8240484352,2010-11-07 10:27:35,1920.9525151539808,7,44,-1.0997490882873535,3.60537052154541,43.18888298865937,42.857186550095086,172.45382279123228,156.3936206885062,-3.237724376958795e-05,0.0923885703086853,0,0,0
14463,504224.8394292184,2010-11-07 10:28:05,1950.967895937166,7,44,-1.0997490882873535,3.601970911026001,43.18888298865937,42.866356089628376,172.45382279123228,156.4266643583751,-9.713172767078504e-05,0.0923885703086853,0,0,0
14464,504254.8548463773,2010-11-07 10:28:35,1980.9833130961515,7,44,-1.099929690361023,3.5990569591522217,43.18888298865937,42.87552578929751,172.45382279123228,156.45967983265572,-6.47544875391759e-05,0.0923885703086853,0,0,0
14465,504284.8701982584,2010-11-07 10:29:05,2010.998664977193,7,44,-1.099929690361023,3.5958192348480225,43.18888298865937,42.88469541681352,172.45382279123228,156.4926669285729,-6.47544875391759e-05,0.0923885703086853,0,0,0
14466,504314.8855649064,2010-11-07 10:29:35,2041.014031625095,7,44,-1.0997490882873535,3.592905282974243,43.18888298865937,42.89386504241901,172.45382279123228,156.5256263018311,-9.713172767078504e-05,0.0923885703086853,0,0,0
14467,504344.90093304793,2010-11-07 10:30:05,2071.0293997667254,7,44,-1.0997490882873535,3.589829683303833,43.18888298865937,42.90303470581211,172.45382279123228,156.55855850718063,-9.713172767078504e-05,0.0923885703086853,0,0,0
14468,504374.91641659767,2010-11-07 10:30:35,2101.0448833164323,7,44,-1.099929690361023,3.5869157314300537,43.18888298865937,42.91220442448508,172.45382279123228,156.5914639863923,-9.713172767078504e-05,0.0923885703086853,0,0,0
14469,504404.9316683187,2010-11-07 10:31:05,2131.060135037459,7,44,-1.099929690361023,3.5840017795562744,43.18888298865937,42.92137399879836,172.45382279123228,156.6243421948046,-9.713172767078504e-05,0.0923885703086853,0,0,0
14470,504434.9471570263,2010-11-07 10:31:35,2161.0756237450405,7,44,-1.099568486213684,3.581411600112915,43.18888298865937,42.93054366710104,172.45382279123228,156.65719437303324,-3.237724376958795e-05,0.0923885703086853,0,0,0
14471,504464.9624026019,2010-11-07 10:32:05,2191.0908693207275,7,44,-1.099929690361023,3.578335762023926,43.18888298865937,42.93971333764064,172.45382279123228,156.6900201631067,-6.47544875391759e-05,0.0923885703086853,0,0,0
14472,504494.9777741872,2010-11-07 10:32:35,2221.1062409059537,7,44,-1.099929690361023,3.5754218101501465,43.18888298865937,42.948883063317474,172.45382279123228,156.72281991388783,-6.47544875391759e-05,0.0923885703086853,0,0,0
14473,504524.9931650305,2010-11-07 10:33:05,2251.121631749251,7,44,-1.099929690361023,3.572507858276367,43.18888298865937,42.95805267433708,172.45382279123228,156.75559248604105,-6.47544875391759e-05,0.0923885703086853,0,0,0
14474,504555.0086646002,2010-11-07 10:33:35,2281.1371313189466,7,44,-1.0997490882873535,3.569755792617798,43.18888298865937,42.967222378531176,172.45382279123228,156.7883383728241,-6.47544875391759e-05,0.0923885703086853,0,0,0
14475,504585.0238989428,2010-11-07 10:34:05,2311.1523656615936,7,44,-1.0997490882873535,3.5666799545288086,43.18888298865937,42.97639190204898,172.45382279123228,156.8210563483202,0.0,0.0923885703086853,0,0,0
14476,504615.0392619216,2010-11-07 10:34:35,2341.167728640337,7,44,-1.0997490882873535,3.5634422302246094,43.18888298865937,42.985561483613786,172.45382279123228,156.8537468573178,-0.0001295089750783,0.0923885703086853,0,0,0
14477,504645.05487124034,2010-11-07 10:35:05,2371.183337989057,7,44,-1.0997490882873535,3.56052827835083,43.18888298865937,42.99473109671752,172.45382279123228,156.8864100563204,-6.47544875391759e-05,0.0923885703086853,0,0,0
14478,504675.0700694377,2010-11-07 10:35:35,2401.198536186481,7,44,-1.0997490882873535,3.557452440261841,43.18888298865937,43.0039006579041,172.45382279123228,156.91904451398003,-6.47544875391759e-05,0.0923885703086853,0,0,0
14479,504705.08538220107,2010-11-07 10:36:05,2431.213848944866,7,44,-1.099929690361023,3.5542147159576416,43.18888298865937,43.01307018262554,172.45382279123228,156.95164942484342,-6.47544875391759e-05,0.0923885703086853,0,0,0
14480,504735.1008998609,2010-11-07 10:36:35,2461.2293665796547,7,44,-1.0997490882873535,3.5509769916534424,43.18888298865937,43.022239837530186,172.45382279123228,156.98422457237533,-3.237724376958795e-05,0.0923885703086853,0,0,0
14481,504765.1161629603,2010-11-07 10:37:05,2491.244629679084,7,44,-1.099568486213684,3.5474154949188232,43.18888298865937,43.03140941862855,172.45382279123228,157.01676852710278,-6.47544875391759e-05,0.0923885703086853,0,0,0
14482,504795.1316505602,2010-11-07 10:37:35,2521.260117288926,7,44,-1.099929690361023,3.543692111968994,43.18888298865937,43.04057905218488,172.45382279123228,157.04928069746117,-0.0001295089750783,0.0923885703086853,0,0,0
14483,504825.1468872486,2010-11-07 10:38:05,2551.275353967403,7,44,-1.099568486213684,3.540292501449585,43.18888298865937,43.0497486372263,172.45382279123228,157.08175931493065,-6.47544875391759e-05,0.0923885703086853,0,0,0
14484,504855.1622478565,2010-11-07 10:38:35,2581.2907145752283,7,44,-1.0997490882873535,3.536569118499756,43.18888298865937,43.05891834203712,172.45382279123228,157.11420418104626,-6.47544875391759e-05,0.0923885703086853,0,0,0
14485,504885.1776371559,2010-11-07 10:39:06,2611.306103874672,7,44,-1.099568486213684,3.532360076904297,43.18888298865937,43.06808800402987,172.45382279123228,157.14661321958044,-0.0001295089750783,0.0923885703086853,0,0,0
14486,504915.19299876125,2010-11-07 10:39:36,2641.3214654799867,7,44,-1.0997490882873535,3.528312921524048,43.18888298865937,43.07725762024277,172.45382279123228,157.17898489792992,-0.0001295089750783,0.0923885703086853,0,0,0
14487,504945.20849161415,2010-11-07 10:40:06,2671.336958332916,7,44,-1.099929690361023,3.523941993713379,43.18888298865937,43.08642727998276,172.45382279123228,157.21131793219996,-0.0001295089750783,0.0923885703086853,0,0,0
14488,504975.22375678376,2010-11-07 10:40:36,2701.352223502512,7,44,-1.0997490882873535,3.51957106590271,43.18888298865937,43.09559683321562,172.45382279123228,157.24361018682168,-9.713172767078504e-05,0.0923885703086853,0,0,0
14489,505005.2392521079,2010-11-07 10:41:06,2731.3677188266097,7,44,-1.0997490882873535,3.514714479446411,43.18888298865937,43.10476656417836,172.45382279123228,157.27586099022022,-0.0001295089750783,0.0923885703086853,0,0,0
14490,505035.2545164654,2010-11-07 10:41:36,2761.382983184179,7,44,-1.0997490882873535,3.5098581314086914,43.18888298865937,43.113936197405785,172.45382279123228,157.30806712374925,-9.713172767078504e-05,0.0923885703086853,0,0,0
14491,505065.26986513846,2010-11-07 10:42:06,2791.3983318572127,7,44,-1.099929690361023,3.5041921138763428,43.18888298865937,43.12310589313487,172.45382279123228,157.34022572521042,-0.0001618862152099,0.0923885703086853,0,0,0
14492,505095.2852293051,2010-11-07 10:42:36,2821.4136960239216,7,44,-1.099929690361023,3.498364210128784,43.18888298865937,43.13227554371235,172.45382279123228,157.37233187171822,-0.0001618862152099,0.0923885703086853,0,0,0
14493,505125.3006129906,2010-11-07 10:43:06,2851.429079714364,7,44,-1.0997490882873535,3.491564989089966,43.18888298865937,43.14144527100111,172.45382279123228,157.40438028689775,-0.0001618862152099,0.0923885703086853,0,0,0
14494,505155.3159709017,2010-11-07 10:43:36,2881.4444376204447,7,44,-1.0997490882873535,3.4839563369750977,43.18888298865937,43.15061492344166,172.45382279123228,157.4363628874188,-0.0001942634553415,0.0923885703086853,0,0,0
14495,505185.3313599255,2010-11-07 10:44:06,2911.4598266442003,7,44,-1.0997490882873535,3.47489070892334,43.18888298865937,43.15978456500813,172.45382279123228,157.4682692398102,-0.0002590179501567,0.0923885703086853,0,0,0
14496,505215.3468460015,2010-11-07 10:44:36,2941.475312720213,7,44,-1.099929690361023,3.4642062187194824,43.18888298865937,43.16895430140925,172.45382279123228,157.5000862779103,-0.0003237724304199,0.0923885703086853,0,0,0
14497,505245.3621285896,2010-11-07 10:45:06,2971.490595308289,7,44,-1.0997490882873535,3.4514172077178955,43.18888298865937,43.17812397208528,172.45382279123228,157.53179536320633,-0.0003561496851034,0.0923885703086853,0,0,0
14498,505275.3774711173,2010-11-07 10:45:36,3001.505937840996,7,44,-1.099568486213684,3.4353904724121094,43.18888298865937,43.187293658975165,172.45382279123228,157.5633720894441,-0.0004209041653666,0.0923885703086853,0,0,0
14499,505305.3928582763,2010-11-07 10:46:06,3031.521324995084,7,44,-1.0997490882873535,3.4143455028533936,43.18888298865937,43.196463386144345,172.45382279123228,157.59478128011494,-0.0006475448608398,0.0923885703086853,0,0,0
14500,505335.40820261854,2010-11-07 10:46:36,3061.536669337308,7,44,-1.099929690361023,3.3868248462677,43.18888298865937,43.20563305799048,172.45382279123228,157.62597080143345,-0.0008418083307333,0.0923885703086853,0,0,0
14501,505365.42359103577,2010-11-07 10:47:06,3091.5520577545485,7,44,-1.0997490882873535,3.3489437103271484,43.18888298865937,43.21480276502968,172.45382279123228,157.65686324579138,-0.0011979102855548,0.0923885703086853,0,0,0
14502,505395.43896212976,2010-11-07 10:47:36,3121.567428848549,7,44,-1.099929690361023,3.296006917953491,43.18888298865937,43.2239724439859,172.45382279123228,157.68734318656357,-0.0016188621520996,0.0923885703086853,0,0,0
14503,505425.4544487372,2010-11-07 10:48:06,3151.582915455888,7,44,-1.0997490882873535,3.2210538387298584,43.18888298865937,43.23314212237377,172.45382279123228,157.71724237430058,-0.0022987842094153,0.0923885703086853,0,0,0
14504,505455.4696972401,2010-11-07 10:48:36,3181.598163958882,7,44,-1.099929690361023,3.1085433959960938,43.18888298865937,43.2423117312142,172.45382279123228,157.74629878278208,-0.003593826200813,0.0923885703086853,0,0,0
14505,505484.2194468482,2010-11-07 10:49:05,3210.347913566942,7,44,-1.0997490882873535,2.9082906246185303,43.18888298865937,43.25109476823256,172.45382279123228,157.7728489287237,-0.0081266881898045,0.0923885703086853,0,0,0
14506,505499.0318277999,2010-11-07 10:49:19,3225.160294518625,7,44,-1.099568486213684,2.7081997394561768,43.18888298865937,43.255619962995695,172.45382279123228,157.78558120535325,-0.0118824485689401,0.0923885703086853,0,0,0
14507,505499.6101036103,2010-11-07 10:49:20,3225.7385704743765,7,44,-1.0997490882873535,2.699458122253418,43.18888298865937,43.25579663261647,172.45382279123228,157.78605891456564,-0.0119795324280858,0.0923885703086853,0,0,0
14508,505559.63148094725,2010-11-07 10:50:20,60.01271749559477,8,44,0.0,3.283865451812744,43.18888298865937,43.25579663261647,172.45382279123228,157.78605891456564,0.0011332035064697,0.0923885703086853,0,0,0
14509,505559.8280732715,2010-11-07 10:50:20,0.187517131609286,9,44,-1.9243103452026844e-05,3.284351110458374,43.18888298865937,43.2557966336188,172.45382279123228,157.78605891785767,0.0,0.0938397273421287,0,0,0
14510,505564.6405750414,2010-11-07 10:50:25,5.0000189014116,9,44,0.0007031940040178,3.291797876358032,43.18888384286558,43.25579663395414,172.45382560043248,157.78605891896024,0.0010684489971026,0.0938397273421287,0,0,0
