Data_Point,Test_Time(s),Date_Time,Step_Time(s),Step_Index,Cycle_Index,Current(A),Voltage(V),Charge_Capacity(Ah),Discharge_Capacity(Ah),Charge_Energy(Wh),Discharge_Energy(Wh),dV/dt(V/s),Internal_Resistance(Ohm),Is_FC_Data,AC_Impedance(Ohm),ACI_Phase_Angle(Deg)
8231,287503.8977880066,2010-11-04 22:15:42,30.01534035226392,1,26,0.0,3.34246826171875,24.52552716188005,24.58698680827325,97.97579777597056,89.62486151203322,0.0007122993702068,0.0944781526923179,0,0,0
8232,287533.91309259465,2010-11-04 22:16:12,60.03064494025472,1,26,0.0,3.3654558658599854,24.52552716188005,24.58698680827325,97.97579777597056,89.62486151203322,0.0005504131549969,0.0944781526923179,0,0,0
8233,287563.92853636504,2010-11-04 22:16:42,90.04608868560368,1,26,0.0,3.383263349533081,24.52552716188005,24.58698680827325,97.97579777597056,89.62486151203322,0.0004209041653666,0.0944781526923179,0,0,0
8234,287593.89688470296,2010-11-04 22:17:12,120.01443704863291,1,26,0.0,3.3971855640411377,24.52552716188005,24.58698680827325,97.97579777597056,89.62486151203322,0.0003561496851034,0.0944781526923179,0,0,0
8235,287623.9077135828,2010-11-04 22:17:42,30.015311610520104,2,26,0.5501165986061096,3.56020450592041,24.53011394277583,24.58698680827325,97.99194981224088,89.62486151203322,0.0017807483673095,0.0944781526923179,0,0,0
8236,287653.92303725844,2010-11-04 22:18:12,60.03063526109404,2,26,0.5501165986061096,3.613302946090698,24.53470066175512,24.58698680827325,98.00840842297389,89.62486151203322,0.0011979580158367,0.0944781526923179,0,0,0
8237,287683.9383814503,2010-11-04 22:18:42,90.04597945294215,2,26,0.5501165986061096,3.652641296386719,24.539287439945717,24.58698680827325,98.0250760461908,89.62486151203322,0.0009389400365762,0.0944781526923179,0,0,0
8238,287713.9536968052,2010-11-04 22:19:12,120.06129483287128,2,26,0.550297200679779,3.683723211288452,24.54387414847892,24.58698680827325,98.04190297260388,89.62486151203322,0.0008094310760498,0.0944781526923179,0,0,0
8239,287743.969024967,2010-11-04 22:19:42,150.076622994706,2,26,0.5501165986061096,3.708977460861206,24.548460829157587,24.58698680827325,98.05885826607128,89.62486151203322,0.0006475448608398,0.0944781526923179,0,0,0
8240,287773.9844631885,2010-11-04 22:20:12,180.09206120122923,2,26,0.5501165986061096,3.730346441268921,24.55304752383969,24.58698680827325,98.07592051147036,89.62486151203322,0.0005504131549969,0.0944781526923179,0,0,0
8241,287803.999798814,2010-11-04 22:20:42,210.10739682168185,2,26,0.550297200679779,3.7481539249420166,24.55763412743084,24.58698680827325,98.09307181938192,89.62486151203322,0.0004209041653666,0.0944781526923179,0,0,0
8242,287834.014978776,2010-11-04 22:21:12,240.12257680864928,2,26,0.5501165986061096,3.7614283561706543,24.56222079557512,24.58698680827325,98.11029542912354,89.62486151203322,0.0002590179501567,0.0944781526923179,0,0,0
8243,287864.03030551923,2010-11-04 22:21:43,270.13790352186805,2,26,0.5501165986061096,3.7696845531463614,24.566807416756596,24.58698680827325,98.12756837517227,89.62486151203322,0.0001942634553415,0.0944781526923179,0,0,0
8244,287894.0456791696,2010-11-04 22:22:13,300.1532771722492,2,26,0.5501165986061096,3.774864912033081,24.57139416209408,24.58698680827325,98.1448714126341,89.62486151203322,0.0001295089750783,0.0944781526923179,0,0,0
8245,287924.06096111104,2010-11-04 22:22:43,330.1685591137108,2,26,0.5501165986061096,3.77875018119812,24.57598086342808,24.58698680827325,98.1621946669554,89.62486151203322,9.713172767078504e-05,0.0944781526923179,0,0,0
8246,287954.0763003305,2010-11-04 22:23:13,360.18389835820955,2,26,0.550297200679779,3.782635450363159,24.580567598296987,24.58698680827325,98.17953555485616,89.62486151203322,0.0001295089750783,0.0944781526923179,0,0,0
8247,287984.09174804576,2010-11-04 22:23:43,390.199346053418,2,26,0.5501165986061096,3.7861969470977774,24.585154251627458,24.58698680827325,98.19689271338194,89.62486151203322,9.713172767078504e-05,0.0944781526923179,0,0,0
8248,288014.1069183787,2010-11-04 22:24:13,420.2145164063374,2,26,0.5501165986061096,3.7894346714019775,24.589740885102653,24.58698680827325,98.21426589319542,89.62486151203322,6.47544875391759e-05,0.0944781526923179,0,0,0
8249,288044.1226074012,2010-11-04 22:24:43,450.2302054088861,2,26,0.5501165986061096,3.7928342819213863,24.59432764240612,24.58698680827325,98.23165515941804,89.62486151203322,6.47544875391759e-05,0.0944781526923179,0,0,0
8250,288074.1375723464,2010-11-04 22:25:13,480.2451703741261,2,26,0.5501165986061096,3.796233892440796,24.598914287546453,24.58698680827325,98.24905921955155,89.62486151203322,9.713172767078504e-05,0.0944781526923179,0,0,0
8251,288104.1528960471,2010-11-04 22:25:43,510.2604940597877,2,26,0.5501165986061096,3.799309730529785,24.603500973596795,24.58698680827325,98.2664782987132,89.62486151203322,3.237724376958795e-05,0.0944781526923179,0,0,0
8252,288134.16821502603,2010-11-04 22:26:13,540.2758130537379,2,26,0.5501165986061096,3.802547454833984,24.60808768847592,24.58698680827325,98.28391207564069,89.62486151203322,6.47544875391759e-05,0.0944781526923179,0,0,0
8253,288164.1835939044,2010-11-04 22:26:43,570.2911919371817,2,26,0.5501165986061096,3.8056232929229736,24.612674342811875,24.58698680827325,98.30135992643598,89.62486151203322,9.713172767078504e-05,0.0944781526923179,0,0,0
8254,288194.1988779411,2010-11-04 22:27:13,600.3064759688608,2,26,0.5501165986061096,3.808537244796753,24.617261096073364,24.58698680827325,98.31882224121952,89.62486151203322,6.47544875391759e-05,0.0944781526923179,0,0,0
8255,288224.214186474,2010-11-04 22:27:43,630.321784496686,2,26,0.5501165986061096,3.811613082885742,24.621847866566505,24.58698680827325,98.33629858823087,89.62486151203322,9.713172767078504e-05,0.0944781526923179,0,0,0
8256,288254.2304753539,2010-11-04 22:28:13,660.3380734668461,2,26,0.5499359965324402,3.814850807189941,24.62643474797927,24.58698680827325,98.35378937896188,89.62486151203322,6.47544875391759e-05,0.0944781526923179,0,0,0
8257,288284.24496697256,2010-11-04 22:28:43,690.352565120628,2,26,0.5501165986061096,3.8177647590637207,24.6310212458458,24.58698680827325,98.37129287450522,89.62486151203322,6.47544875391759e-05,0.0944781526923179,0,0,0
8258,288314.2601819419,2010-11-04 22:29:13,720.3677799696164,2,26,0.5499359965324402,3.82084059715271,24.635607920229376,24.58698680827325,98.388811212809,89.62486151203322,3.237724376958795e-05,0.0944781526923179,0,0,0
8259,288344.2755070711,2010-11-04 22:29:43,750.3831050738188,2,26,0.550297200679779,3.824240207672119,24.640194606328468,24.58698680827325,98.40634400649806,89.62486151203322,9.713172767078504e-05,0.0944781526923179,0,0,0
8260,288374.2908519748,2010-11-04 22:30:13,780.3984500075187,2,26,0.550297200679779,3.8274779319763184,24.64478131210605,24.58698680827325,98.42389175932766,89.62486151203322,6.47544875391759e-05,0.0944781526923179,0,0,0
8261,288404.3061739161,2010-11-04 22:30:43,810.4137719438136,2,26,0.5501165986061096,3.830553770065308,24.649367989384743,24.58698680827325,98.44145457221452,89.62486151203322,6.47544875391759e-05,0.0944781526923179,0,0,0
8262,288434.3215278172,2010-11-04 22:31:13,840.429125879985,2,26,0.5501165986061096,3.834115028381348,24.653954736341884,24.58698680827325,98.45903315258556,89.62486151203322,9.713172767078504e-05,0.0944781526923179,0,0,0
8263,288464.3368372924,2010-11-04 22:31:43,870.4444354053002,2,26,0.5499359965324402,3.837676525115967,24.6585414055368,24.58698680827325,98.47662716585224,89.62486151203322,9.713172767078504e-05,0.0944781526923179,0,0,0
8264,288494.352129314,2010-11-04 22:32:13,900.4597273166481,2,26,0.5501165986061096,3.841076135635376,24.663128112001573,24.58698680827325,98.49423706305062,89.62486151203322,0.0001295089750783,0.0944781526923179,0,0,0
8265,288524.36747298954,2010-11-04 22:32:43,930.4750709922076,2,26,0.5499359965324402,3.844313859939575,24.66771478832093,24.58698680827325,98.51186248191752,89.62486151203322,9.713172767078504e-05,0.0944781526923179,0,0,0
8266,288554.38278121164,2010-11-04 22:33:13,960.490379239332,2,26,0.5501165986061096,3.847713470458984,24.672301455805577,24.58698680827325,98.5295033230762,89.62486151203322,9.713172767078504e-05,0.0944781526923179,0,0,0
8267,288584.3981371528,2010-11-04 22:33:43,990.5057351855208,2,26,0.5501165986061096,3.850951194763184,24.67688813181798,24.58698680827325,98.54715943456527,89.62486151203322,6.47544875391759e-05,0.0944781526923179,0,0,0
8268,288614.41342945007,2010-11-04 22:34:13,1020.5210274778196,2,26,0.5501165986061096,3.8543508052825928,24.68147487924444,24.58698680827325,98.5648308584247,89.62486151203322,9.713172767078504e-05,0.0944781526923179,0,0,0
8269,288644.42877295025,2010-11-04 22:34:43,1050.536370957891,2,26,0.5501165986061096,3.857426643371582,24.68606157741793,24.58698680827325,98.58251686147196,89.62486151203322,9.713172767078504e-05,0.0944781526923179,0,0,0
8270,288674.44408105704,2010-11-04 22:35:13,1080.5516790847153,2,26,0.5501165986061096,3.8605024814605713,24.69064828272723,24.58698680827325,98.60021732076204,89.62486151203322,3.237724376958795e-05,0.0944781526923179,0,0,0
8271,288704.4595260104,2010-11-04 22:35:43,1110.5671240130173,2,26,0.5501165986061096,3.8637402057647705,24.695235022971364,24.58698680827325,98.61793203590396,89.62486151203322,9.713172767078504e-05,0.0944781526923179,0,0,0
8272,288734.4748570243,2010-11-04 22:36:13,1140.5824550470213,2,26,0.5501165986061096,3.86665415763855,24.699821755314737,24.58698680827325,98.63566024105718,89.62486151203322,9.713172767078504e-05,0.0944781526923179,0,0,0
8273,288764.4900400188,2010-11-04 22:36:43,1170.5976380214458,2,26,0.550297200679779,3.869406223297119,24.704408444175137,24.58698680827325,98.6534015045991,89.62486151203322,6.47544875391759e-05,0.0944781526923179,0,0,0
8274,288794.5053771781,2010-11-04 22:37:13,1200.612975205802,2,26,0.5499359965324402,3.8719964027404794,24.708995079357123,24.58698680827325,98.67115518341627,89.62486151203322,3.237724376958795e-05,0.0944781526923179,0,0,0
8275,288824.52068080363,2010-11-04 22:37:43,1230.6282788113406,2,26,0.5501165986061096,3.874586582183838,24.71358181984503,24.58698680827325,98.68892132816804,89.62486151203322,6.47544875391759e-05,0.0944781526923179,0,0,0
8276,288854.536007151,2010-11-04 22:38:13,1260.6436051536334,2,26,0.5501165986061096,3.8770148754119873,24.71816854387505,24.58698680827325,98.7066988734972,89.62486151203322,3.237724376958795e-05,0.0944781526923179,0,0,0
8277,288884.55134642555,2010-11-04 22:38:43,1290.6589444282074,2,26,0.5501165986061096,3.879119396209717,24.722755493860124,24.58698680827325,98.72448812241176,89.62486151203322,0.0,0.0944781526923179,0,0,0
8278,288914.56665231683,2010-11-04 22:39:13,1320.6742503194514,2,26,0.550297200679779,3.881547689437866,24.72734300819901,24.58698680827325,98.74228978955036,89.62486151203322,6.47544875391759e-05,0.0944781526923179,0,0,0
8279,288944.58241807594,2010-11-04 22:39:43,1350.6900160836087,2,26,0.5501165986061096,3.8834903240203857,24.731930326303743,24.58698680827325,98.7601002217185,89.62486151203322,6.47544875391759e-05,0.0944781526923179,0,0,0
8280,288974.59735287086,2010-11-04 22:40:13,1380.7049508735265,2,26,0.5501165986061096,3.885432958602905,24.736517050629665,24.58698680827325,98.77791719555172,89.62486151203322,6.47544875391759e-05,0.0944781526923179,0,0,0
8281,289004.61301247,2010-11-04 22:40:43,1410.72061047268,2,26,0.5501165986061096,3.887051820755005,24.741103854272083,24.58698680827325,98.79574278008543,89.62486151203322,6.47544875391759e-05,0.0944781526923179,0,0,0
8282,289034.62799003674,2010-11-04 22:41:13,1440.7355880393752,2,26,0.550297200679779,3.888670682907105,24.745690532337413,24.58698680827325,98.81357566065816,89.62486151203322,0.0,0.0944781526923179,0,0,0
8283,289064.6434372608,2010-11-04 22:41:43,1470.7510352634074,2,26,0.5501165986061096,3.890289545059204,24.750277403552072,24.58698680827325,98.83141660664852,89.62486151203322,0.0,0.0944781526923179,0,0,0
8284,289094.65863691183,2010-11-04 22:42:13,1500.7662349144596,2,26,0.5501165986061096,3.8917465209960938,24.75486413083833,24.58698680827325,98.84926391967107,89.62486151203322,3.237724376958795e-05,0.0944781526923179,0,0,0
8285,289124.674009279,2010-11-04 22:42:43,1530.7816073668505,2,26,0.5499359965324402,3.893203496932984,24.75945088877804,24.58698680827325,98.86711798189424,89.62486151203322,0.0,0.0944781526923179,0,0,0
8286,289154.6893617615,2010-11-04 22:43:13,1560.7969597942556,2,26,0.5501165986061096,3.894660472869873,24.764037731514424,24.58698680827325,98.88497877802736,89.62486151203322,6.47544875391759e-05,0.0944781526923179,0,0,0
8287,289184.7047410259,2010-11-04 22:43:43,1590.8123390586502,2,26,0.5499359965324402,3.895793676376343,24.768624531274423,24.58698680827325,98.90284512331168,89.62486151203322,0.0,0.0944781526923179,0,0,0
8288,289214.7199780903,2010-11-04 22:44:13,1620.827576098029,2,26,0.5501165986061096,3.897250652313232,24.773211287970465,24.58698680827325,98.92071758156978,89.62486151203322,3.237724376958795e-05,0.0944781526923179,0,0,0
8289,289244.73531539,2010-11-04 22:44:43,1650.8429133926609,2,26,0.5501165986061096,3.898383855819702,24.777798069150737,24.58698680827325,98.93859612693524,89.62486151203322,3.237724376958795e-05,0.0944781526923179,0,0,0
8290,289274.7506000232,2010-11-04 22:45:13,1680.8581980258416,2,26,0.5501165986061096,3.899840831756592,24.78238477978949,24.58698680827325,98.95648042415088,89.62486151203322,3.237724376958795e-05,0.0944781526923179,0,0,0
8291,289304.7659303855,2010-11-04 22:45:43,1710.8735284132315,2,26,0.5501165986061096,3.9009740352630615,24.786971545410108,24.58698680827325,98.9743708343008,89.62486151203322,-3.237724376958795e-05,0.0944781526923179,0,0,0
8292,289334.78125214134,2010-11-04 22:46:13,1740.8888501440133,2,26,0.5501165986061096,3.902431011199951,24.79155823099377,24.58698680827325,98.99226696403416,89.62486151203322,6.47544875391759e-05,0.0944781526923179,0,0,0
8293,289364.79662707495,2010-11-04 22:46:43,1770.9042251076726,2,26,0.5501165986061096,3.903726100921631,24.796145003102787,24.58698680827325,99.0101694118274,89.62486151203322,6.47544875391759e-05,0.0944781526923179,0,0,0
8294,289394.8119175227,2010-11-04 22:47:13,1800.9195155303046,2,26,0.5501165986061096,3.905183076858521,24.8007317882198,24.58698680827325,99.02807797445736,89.62486151203322,6.47544875391759e-05,0.0944781526923179,0,0,0
8295,289424.8272588624,2010-11-04 22:47:43,1830.9348568650207,2,26,0.550297200679779,3.9064781665802,24.80531860722744,24.58698680827325,99.0459925844093,89.62486151203322,6.47544875391759e-05,0.0944781526923179,0,0,0
8296,289454.8426856955,2010-11-04 22:48:13,1860.950283723217,2,26,0.5501165986061096,3.90777325630188,24.80990539380136,24.58698680827325,99.06391315478083,89.62486151203322,9.713172767078504e-05,0.0944781526923179,0,0,0
8297,289484.857904344,2010-11-04 22:48:43,1890.9655023466264,2,26,0.5501165986061096,3.90906834602356,24.81449206118534,24.58698680827325,99.08183927743208,89.62486151203322,3.237724376958795e-05,0.0944781526923179,0,0,0
8298,289514.87318921275,2010-11-04 22:49:13,1920.9807872153951,2,26,0.550297200679779,3.9103634357452393,24.819078753904787,24.58698680827325,99.0997716278652,89.62486151203322,3.237724376958795e-05,0.0944781526923179,0,0,0
8299,289544.8889182653,2010-11-04 22:49:43,1950.99651629799,2,26,0.5499359965324402,3.911496639251709,24.82366551270567,24.58698680827325,99.11771029229398,89.62486151203322,3.237724376958795e-05,0.0944781526923179,0,0,0
8300,289574.9039081477,2010-11-04 22:50:13,1981.011506175415,2,26,0.5501165986061096,3.912953615188599,24.828252107949137,24.58698680827325,99.13565455178366,89.62486151203322,3.237724376958795e-05,0.0944781526923179,0,0,0
8301,289604.9193677226,2010-11-04 22:50:43,2011.0269657352392,2,26,0.5501165986061096,3.914410352706909,24.83283885442828,24.58698680827325,99.15360563110389,89.62486151203322,6.47544875391759e-05,0.0944781526923179,0,0,0
8302,289634.93460527324,2010-11-04 22:51:13,2041.0422032758693,2,26,0.5501165986061096,3.915867328643799,24.837425623164417,24.58698680827325,99.171563108497,89.62486151203322,6.47544875391759e-05,0.0944781526923179,0,0,0
8303,289664.95000007143,2010-11-04 22:51:43,2071.057598079052,2,26,0.5501165986061096,3.9171624183654794,24.84201233509842,24.58698680827325,99.18952653136397,89.62486151203322,6.47544875391759e-05,0.0944781526923179,0,0,0
8304,289694.9653267846,2010-11-04 22:52:13,2101.0729247872573,2,26,0.550297200679779,3.918619394302368,24.846599072141185,24.58698680827325,99.20749646999909,89.62486151203322,6.47544875391759e-05,0.0944781526923179,0,0,0
8305,289724.9806716782,2010-11-04 22:52:43,2131.08826968587,2,26,0.5501165986061096,3.919914484024048,24.8511857803366,24.58698680827325,99.22547268996304,89.62486151203322,3.237724376958795e-05,0.0944781526923179,0,0,0
8306,289754.9958336301,2010-11-04 22:53:13,2161.1034316328064,2,26,0.550297200679779,3.921209573745728,24.85577246604642,24.58698680827325,99.24345520227916,89.62486151203322,3.237724376958795e-05,0.0944781526923179,0,0,0
8307,289785.0111628346,2010-11-04 22:53:44,2191.118760837244,2,26,0.5499359965324402,3.922666549682617,24.860359187165702,24.58698680827325,99.26144438524588,89.62486151203322,3.237724376958795e-05,0.0944781526923179,0,0,0
8308,289815.0266616073,2010-11-04 22:54:14,2221.13425960995,2,26,0.550297200679779,3.924285411834717,24.86494600367974,24.58698680827325,99.27944053134073,89.62486151203322,6.47544875391759e-05,0.0944781526923179,0,0,0
8309,289845.04189193994,2010-11-04 22:54:44,2251.1494899476,2,26,0.5501165986061096,3.925580501556397,24.869532661431943,24.58698680827325,99.29744268313942,89.62486151203322,3.237724376958795e-05,0.0944781526923179,0,0,0
8310,289875.0573161465,2010-11-04 22:55:14,2281.164914174227,2,26,0.5501165986061096,3.927037477493286,24.87411935950581,24.58698680827325,99.31545153281624,89.62486151203322,3.237724376958795e-05,0.0944781526923179,0,0,0
8311,289905.07263975195,2010-11-04 22:55:44,2311.1802377796885,2,26,0.5499359965324402,3.928494453430176,24.87870601343866,24.58698680827325,99.33346698334918,89.62486151203322,0.0,0.0944781526923179,0,0,0
8312,289935.087853388,2010-11-04 22:56:14,2341.1954514006115,2,26,0.5501165986061096,3.9301133155822754,24.88329274477661,24.58698680827325,99.35148946405548,89.62486151203322,6.47544875391759e-05,0.0944781526923179,0,0,0
8313,289965.10336269694,2010-11-04 22:56:44,2371.2109607096177,2,26,0.5501165986061096,3.931570291519165,24.887879551566844,24.58698680827325,99.36951906195286,89.62486151203322,6.47544875391759e-05,0.0944781526923179,0,0,0
8314,289995.11850174674,2010-11-04 22:57:14,2401.226099774437,2,26,0.5501165986061096,3.933027267456055,24.892466192769536,24.58698680827325,99.38755481645424,89.62486151203322,3.237724376958795e-05,0.0944781526923179,0,0,0
8315,290025.1340102236,2010-11-04 22:57:44,2431.241608256378,2,26,0.5501165986061096,3.934484243392944,24.897052970011625,24.58698680827325,99.40559799387168,89.62486151203322,6.47544875391759e-05,0.0944781526923179,0,0,0
8316,290055.1491741305,2010-11-04 22:58:14,2461.2567721331325,2,26,0.5501165986061096,3.935941219329834,24.901639680731137,24.58698680827325,99.42364790692068,89.62486151203322,3.237724376958795e-05,0.0944781526923179,0,0,0
8317,290085.16452952527,2010-11-04 22:58:44,2491.27212753797,2,26,0.5499359965324402,3.9375600814819336,24.90622639991752,24.58698680827325,99.4417047628594,89.62486151203322,6.47544875391759e-05,0.0944781526923179,0,0,0
8318,290115.1798257925,2010-11-04 22:59:14,2521.287423795165,2,26,0.5499359965324402,3.9390170574188232,24.91081308373463,24.58698680827325,99.459768656459,89.62486151203322,3.237724376958795e-05,0.0944781526923179,0,0,0
8319,290145.1951531273,2010-11-04 22:59:44,2551.3027511349483,2,26,0.5501165986061096,3.940635919570923,24.915399803353957,24.58698680827325,99.47783979385312,89.62486151203322,3.237724376958795e-05,0.0944781526923179,0,0,0
8320,290175.2106548874,2010-11-04 23:00:14,2581.3182529101487,2,26,0.5501165986061096,3.9422547817230233,24.91998658541705,24.58698680827325,99.49591837020093,89.62486151203322,3.237724376958795e-05,0.0944781526923179,0,0,0
8321,290205.2258252654,2010-11-04 23:00:44,2611.333423268081,2,26,0.550297200679779,3.944035530090332,24.92457326277765,24.58698680827325,99.51400375973344,89.62486151203322,9.713172767078504e-05,0.0944781526923179,0,0,0
8322,290235.2411299637,2010-11-04 23:01:14,2641.348727966347,2,26,0.5501165986061096,3.9454925060272217,24.92915999082334,24.58698680827325,99.53209662219572,89.62486151203322,6.47544875391759e-05,0.0944781526923179,0,0,0
8323,290265.25648312795,2010-11-04 23:01:44,2671.364081140616,2,26,0.5501165986061096,3.9469494819641113,24.933746724977187,24.58698680827325,99.550196833668,89.62486151203322,6.47544875391759e-05,0.0944781526923179,0,0,0
8324,290295.27179276856,2010-11-04 23:02:14,2701.3793907711943,2,26,0.5501165986061096,3.948730230331421,24.93833339832467,24.58698680827325,99.56830418731784,89.62486151203322,6.47544875391759e-05,0.0944781526923179,0,0,0
8325,290325.2871326847,2010-11-04 23:02:44,2731.394730712432,2,26,0.5499359965324402,3.950187206268311,24.94292010816212,24.58698680827325,99.58641913584812,89.62486151203322,0.0,0.0944781526923179,0,0,0
8326,290355.3024551022,2010-11-04 23:03:14,2761.4100531048657,2,26,0.5501165986061096,3.95180606842041,24.94750679571881,24.58698680827325,99.60454161342685,89.62486151203322,3.237724376958795e-05,0.0944781526923179,0,0,0
8327,290385.30479751964,2010-11-04 23:03:44,2791.41239563256,2,26,0.5501165986061096,3.9537487030029297,24.952091539533985,24.58698680827325,99.62266393469194,89.62486151203322,9.713172767078504e-05,0.0944781526923179,0,0,0
8328,290415.31768531,2010-11-04 23:04:14,2821.4252834228514,2,26,0.5499359965324402,3.9552056789398193,24.956677952018115,24.58698680827325,99.64080062540792,89.62486151203322,6.47544875391759e-05,0.0944781526923179,0,0,0
8329,290445.3328101241,2010-11-04 23:04:44,2851.440408131837,2,26,0.5501165986061096,3.956986427307129,24.96126466976,24.58698680827325,99.65894636188924,89.62486151203322,0.0,0.0944781526923179,0,0,0
8330,290475.3482826514,2010-11-04 23:05:14,2881.455880664042,2,26,0.5499359965324402,3.958605289459229,24.965851406270723,24.58698680827325,99.67709988951108,89.62486151203322,0.0,0.0944781526923179,0,0,0
8331,290505.3634731095,2010-11-04 23:05:44,2911.471071122148,2,26,0.5501165986061096,3.960386037826538,24.970438121881703,24.58698680827325,99.6952612634882,89.62486151203322,3.237724376958795e-05,0.0944781526923179,0,0,0
8332,290535.3789403234,2010-11-04 23:06:14,2941.4865383260526,2,26,0.5501165986061096,3.962166786193848,24.975024821667176,24.58698680827325,99.7134305612072,89.62486151203322,6.47544875391759e-05,0.0944781526923179,0,0,0
8333,290565.39411972894,2010-11-04 23:06:44,2971.5017177365808,2,26,0.5501165986061096,3.963947534561157,24.979611509394392,24.58698680827325,99.73160771708308,89.62486151203322,6.47544875391759e-05,0.0944781526923179,0,0,0
8334,290595.40945995087,2010-11-04 23:07:14,3001.517057953507,2,26,0.550297200679779,3.965566396713257,24.98419821414997,24.58698680827325,99.7497929911126,89.62486151203322,0.0,0.0944781526923179,0,0,0
8335,290625.4249271097,2010-11-04 23:07:44,3031.532525127337,2,26,0.5499359965324402,3.9673471450805664,24.988784946865312,24.58698680827325,99.76798652366205,89.62486151203322,3.237724376958795e-05,0.0944781526923179,0,0,0
8336,290655.44023657485,2010-11-04 23:08:14,3061.54783458749,2,26,0.5501165986061096,3.969127893447876,24.9933716642963,24.58698680827325,99.78618808772258,89.62486151203322,3.237724376958795e-05,0.0944781526923179,0,0,0
8337,290685.4555799496,2010-11-04 23:08:44,3091.563177962298,2,26,0.5501165986061096,3.971070528030396,24.99795836417183,24.58698680827325,99.804397861949,89.62486151203322,6.47544875391759e-05,0.0944781526923179,0,0,0
8338,290715.4709210287,2010-11-04 23:09:14,3121.578519041376,2,26,0.5499359965324402,3.972689390182495,25.002545071456098,24.58698680827325,99.82261598594916,89.62486151203322,3.237724376958795e-05,0.0944781526923179,0,0,0
8339,290745.4861080432,2010-11-04 23:09:44,3151.593706060898,2,26,0.5501165986061096,3.9747939109802246,25.007131818403327,24.58698680827325,99.84084270326882,89.62486151203322,6.47544875391759e-05,0.0944781526923179,0,0,0
8340,290775.501551192,2010-11-04 23:10:14,3181.609149204746,2,26,0.5501165986061096,3.976574659347534,25.01171852732543,24.58698680827325,99.85907771603904,89.62486151203322,3.237724376958795e-05,0.0944781526923179,0,0,0
8341,290805.5167520311,2010-11-04 23:10:44,3211.6243500588007,2,26,0.5499359965324402,3.978031635284424,25.01630528569207,24.58698680827325,99.8773212071817,89.62486151203322,3.237724376958795e-05,0.0944781526923179,0,0,0
8342,290835.5322355708,2010-11-04 23:11:14,3241.6398335784324,2,26,0.5501165986061096,3.980459928512573,25.020891971218425,24.58698680827325,99.89557352078164,89.62486151203322,6.47544875391759e-05,0.0944781526923179,0,0,0
8343,290865.5474108159,2010-11-04 23:11:44,3271.655008818551,2,26,0.5499359965324402,3.982240676879883,25.02547857950331,24.58698680827325,99.9138343948496,89.62486151203322,3.237724376958795e-05,0.0944781526923179,0,0,0
8344,290895.5632300485,2010-11-04 23:12:14,3301.6708281013,2,26,0.5501165986061096,3.984345197677612,25.030065262082832,24.58698680827325,99.9321043956235,89.62486151203322,6.47544875391759e-05,0.0944781526923179,0,0,0
8345,290925.5780756408,2010-11-04 23:12:44,3331.685673643441,2,26,0.5501165986061096,3.986125946044922,25.034651867752338,24.58698680827325,99.9503830976056,89.62486151203322,3.237724376958795e-05,0.0944781526923179,0,0,0
8346,290955.5936295662,2010-11-04 23:13:14,3361.701227588866,2,26,0.5499359965324402,3.9880685806274414,25.039238539844103,24.58698680827325,99.9686711020364,89.62486151203322,3.237724376958795e-05,0.0944781526923179,0,0,0
8347,290985.6087304807,2010-11-04 23:13:44,3391.7163284834064,2,26,0.5501165986061096,3.990334987640381,25.043825079942955,24.58698680827325,99.98696766560666,89.62486151203322,9.713172767078504e-05,0.0944781526923179,0,0,0
8348,291015.62405697844,2010-11-04 23:14:14,3421.7316549861,2,26,0.5501165986061096,3.992277622222901,25.048411578861543,24.58698680827325,100.0052733157464,89.62486151203322,3.237724376958795e-05,0.0944781526923179,0,0,0
8349,291045.639418689,2010-11-04 23:14:44,3451.74701670169,2,26,0.5499359965324402,3.994220018386841,25.052998202816585,24.58698680827325,100.02358887585108,89.62486151203322,3.237724376958795e-05,0.0944781526923179,0,0,0
8350,291075.6547591816,2010-11-04 23:15:14,3481.7623571943045,2,26,0.5501165986061096,3.9963245391845694,25.057584831168217,24.58698680827325,100.04191390946656,89.62486151203322,3.237724376958795e-05,0.0944781526923179,0,0,0
8351,291105.6700590128,2010-11-04 23:15:44,3511.777657025421,2,26,0.5499359965324402,3.99826717376709,25.062171478488576,24.58698680827325,100.06024862767984,89.62486151203322,3.237724376958795e-05,0.0944781526923179,0,0,0
8352,291135.6853885931,2010-11-04 23:16:14,3541.792986615821,2,26,0.5501165986061096,4.000533580780029,25.066758105090884,24.58698680827325,100.0785927585935,89.62486151203322,3.23295607813634e-05,0.0944781526923179,0,0,0
8353,291165.7007039229,2010-11-04 23:16:44,3571.8083019356004,2,26,0.5501165986061096,4.002799987792969,25.0713447002429,24.58698680827325,100.096946619279,89.62486151203322,6.47544875391759e-05,0.0944781526923179,0,0,0
8354,291195.71604990924,2010-11-04 23:17:14,3601.823647911903,2,26,0.5501165986061096,4.004742622375488,25.07593135033444,24.58698680827325,100.11531060341532,89.62486151203322,0.0,0.0944781526923179,0,0,0
8355,291225.7313564672,2010-11-04 23:17:44,3631.838954469811,2,26,0.550297200679779,4.007171154022217,25.08051801989225,24.58698680827325,100.13368469327078,89.62486151203322,9.71794142969884e-05,0.0944781526923179,0,0,0
8356,291255.74671461387,2010-11-04 23:18:14,3661.854312621505,2,26,0.5501165986061096,4.009275436401367,25.085104722371863,24.58698680827325,100.15206899638702,89.62486151203322,6.47544875391759e-05,0.0944781526923179,0,0,0
8357,291285.7620182896,2010-11-04 23:18:44,3691.869616317269,2,26,0.550297200679779,4.011541843414307,25.089691340375747,24.58698680827325,100.17046303155864,89.62486151203322,6.47544875391759e-05,0.0944781526923179,0,0,0
8358,291315.7773778197,2010-11-04 23:19:14,3721.8849758323663,2,26,0.5499359965324402,4.013808250427246,25.094278041048305,24.58698680827325,100.1888676796372,89.62486151203322,9.70840483205393e-05,0.0944781526923179,0,0,0
8359,291345.79262140044,2010-11-04 23:19:44,3751.900219408061,2,26,0.5499359965324402,4.0160746574401855,25.09886471073207,24.58698680827325,100.2072825787353,89.62486151203322,9.70840483205393e-05,0.0944781526923179,0,0,0
8360,291375.8081015567,2010-11-04 23:20:14,3781.915699559284,2,26,0.5501165986061096,4.018179416656494,25.10345139014358,24.58698680827325,100.2257080110902,89.62486151203322,6.47544875391759e-05,0.0944781526923179,0,0,0
8361,291405.82342053554,2010-11-04 23:20:44,3811.931018538197,2,26,0.550297200679779,4.0207695960998535,25.10803801068138,24.58698680827325,100.2441437005074,89.62486151203322,9.71794142969884e-05,0.0944781526923179,0,0,0
8362,291435.83877287776,2010-11-04 23:21:14,3841.946370880391,2,26,0.5499359965324402,4.022873878479004,25.112624623918816,24.58698680827325,100.26259013089457,89.62486151203322,3.23295607813634e-05,0.0944781526923179,0,0,0
8363,291465.8539773257,2010-11-04 23:21:44,3871.961575353479,2,26,0.5501165986061096,4.025140285491943,25.11721120256143,24.58698680827325,100.2810471494692,89.62486151203322,0.0,0.0944781526923179,0,0,0
8364,291495.8693127858,2010-11-04 23:22:14,3901.9769107984935,2,26,0.5501165986061096,4.027568817138672,25.121797817825904,24.58698680827325,100.299515086347,89.62486151203322,3.24249267578125e-05,0.0944781526923179,0,0,0
8365,291525.8846771781,2010-11-04 23:22:44,3931.992275185752,2,26,0.5501165986061096,4.029996871948242,25.126384481724912,24.58698680827325,100.31799416311031,89.62486151203322,6.47544875391759e-05,0.0944781526923179,0,0,0
8366,291555.8999678513,2010-11-04 23:23:14,3962.00756587906,2,26,0.550297200679779,4.032587051391602,25.1309711087352,24.58698680827325,100.3364840683263,89.62486151203322,9.70840483205393e-05,0.0944781526923179,0,0,0
8367,291585.9152956573,2010-11-04 23:23:44,3992.0228936599433,2,26,0.5501165986061096,4.035015106201172,25.13555776417284,24.58698680827325,100.35498525622197,89.62486151203322,9.70840483205393e-05,0.0944781526923179,0,0,0
8368,291615.930604937,2010-11-04 23:24:14,4022.0382029396455,2,26,0.5501165986061096,4.037281513214111,25.14014443034914,24.58698680827325,100.37349759674076,89.62486151203322,6.47544875391759e-05,0.0944781526923179,0,0,0
8369,291645.9460639605,2010-11-04 23:24:44,4052.0536619881937,2,26,0.550297200679779,4.039871692657471,25.14473107765652,24.58698680827325,100.3920211311258,89.62486151203322,9.70840483205393e-05,0.0944781526923179,0,0,0
8370,291675.9613051953,2010-11-04 23:25:14,4082.068903208008,2,26,0.5501165986061096,4.042300224304199,25.149317674953863,24.58698680827325,100.41055576558809,89.62486151203322,3.24249267578125e-05,0.0944781526923179,0,0,0
8371,291705.97659325704,2010-11-04 23:25:44,4112.0841912847845,2,26,0.550297200679779,4.044890403747559,25.15390432121625,24.58698680827325,100.4291022371788,89.62486151203322,6.47544875391759e-05,0.0944781526923179,0,0,0
8372,291735.9919248475,2010-11-04 23:26:15,4142.099522880189,2,26,0.550297200679779,4.047480583190918,25.158490999746547,24.58698680827325,100.44766052315154,89.62486151203322,6.47544875391759e-05,0.0944781526923179,0,0,0
8373,291766.00724861835,2010-11-04 23:26:45,4172.114846620989,2,26,0.5501165986061096,4.049908638000488,25.16307764757435,24.58698680827325,100.46623048690832,89.62486151203322,3.23295607813634e-05,0.0944781526923179,0,0,0
8374,291796.0225985596,2010-11-04 23:27:15,4202.130196562188,2,26,0.5499359965324402,4.052498817443848,25.167664349472066,24.58698680827325,100.48481241536923,89.62486151203322,3.23295607813634e-05,0.0944781526923179,0,0,0
8375,291826.0379006012,2010-11-04 23:27:45,4232.145498603823,2,26,0.5501165986061096,4.055251121520996,25.172251036236787,24.58698680827325,100.50340626853004,89.62486151203322,6.47544875391759e-05,0.0944781526923179,0,0,0
8376,291856.0532306728,2010-11-04 23:28:15,4262.160828675424,2,26,0.5499359965324402,4.057841300964356,25.176837729378956,24.58698680827325,100.52201214300314,89.62486151203322,6.47544875391759e-05,0.0944781526923179,0,0,0
8377,291886.06858335587,2010-11-04 23:28:45,4292.1761813684925,2,26,0.5501165986061096,4.060431480407715,25.181424485902784,24.58698680827325,100.54063052990163,89.62486151203322,3.24249267578125e-05,0.0944781526923179,0,0,0
8378,291916.08414783754,2010-11-04 23:29:15,4322.191745870269,2,26,0.550297200679779,4.063183307647705,25.18601121907844,24.58698680827325,100.5592606679469,89.62486151203322,6.47544875391759e-05,0.0944781526923179,0,0,0
8379,291946.0992169277,2010-11-04 23:29:45,4352.206814930345,2,26,0.5501165986061096,4.0659356117248535,25.190597799014085,24.58698680827325,100.57790271802531,89.62486151203322,9.71794142969884e-05,0.0944781526923179,0,0,0
8380,291976.11455070856,2010-11-04 23:30:15,4382.222148711207,2,26,0.5501165986061096,4.068525791168213,25.195184409547192,24.58698680827325,100.59655734332594,89.62486151203322,9.71794142969884e-05,0.0944781526923179,0,0,0
8381,292006.1299312411,2010-11-04 23:30:45,4412.237529243766,2,26,0.550297200679779,4.071277618408203,25.199771071427133,24.58698680827325,100.61522469325632,89.62486151203322,6.47544875391759e-05,0.0944781526923179,0,0,0
8382,292036.14521461114,2010-11-04 23:31:15,4442.252812613794,2,26,0.5501165986061096,4.074029922485352,25.204357658200276,24.58698680827325,100.63390434320776,89.62486151203322,6.47544875391759e-05,0.0944781526923179,0,0,0
8383,292066.1605979708,2010-11-04 23:31:45,4472.268196008497,2,26,0.5501165986061096,4.076943874359131,25.208944306059312,24.58698680827325,100.65259708208772,89.62486151203322,9.71794142969884e-05,0.0944781526923179,0,0,0
8384,292096.1758872004,2010-11-04 23:32:15,4502.283485203065,2,26,0.5499359965324402,4.079695701599121,25.213530986285317,24.58698680827325,100.67130288981046,89.62486151203322,9.70840483205393e-05,0.0944781526923179,0,0,0
8385,292126.19123016414,2010-11-04 23:32:45,4532.298828176872,2,26,0.5501165986061096,4.0824480056762695,25.21811763384466,24.58698680827325,100.69002154729628,89.62486151203322,6.47544875391759e-05,0.0944781526923179,0,0,0
8386,292156.2065395492,2010-11-04 23:33:15,4562.314137551813,2,26,0.550297200679779,4.08552360534668,25.22270423329731,24.58698680827325,100.7087530860628,89.62486151203322,6.47544875391759e-05,0.0944781526923179,0,0,0
8387,292186.22197329457,2010-11-04 23:33:45,4592.329571297199,2,26,0.5501165986061096,4.088275909423828,25.227290928115305,24.58698680827325,100.72749820133495,89.62486151203322,9.71794142969884e-05,0.0944781526923179,0,0,0
8388,292216.2372065946,2010-11-04 23:34:15,4622.344804602257,2,26,0.550297200679779,4.091189861297607,25.23187758077067,24.58698680827325,100.7462565307694,89.62486151203322,6.47544875391759e-05,0.0944781526923179,0,0,0
8389,292246.25263250544,2010-11-04 23:34:45,4652.360230513088,2,26,0.550297200679779,4.094265460968018,25.23646424680173,24.58698680827325,100.76502839481338,89.62486151203322,6.47544875391759e-05,0.0944781526923179,0,0,0
8390,292276.2678583068,2010-11-04 23:35:15,4682.375456314416,2,26,0.5501165986061096,4.097179412841797,25.241050862907557,24.58698680827325,100.78381374689208,89.62486151203322,3.23295607813634e-05,0.0944781526923179,0,0,0
8391,292306.2831814962,2010-11-04 23:35:45,4712.390779498825,2,26,0.5499359965324402,4.100093364715576,25.24563753243331,24.58698680827325,100.80261305336828,89.62486151203322,6.47544875391759e-05,0.0944781526923179,0,0,0
8392,292336.2985496979,2010-11-04 23:36:15,4742.40614778582,2,26,0.550297200679779,4.103331089019775,25.250224188309783,24.58698680827325,100.82142615535292,89.62486151203322,9.70840483205393e-05,0.0944781526923179,0,0,0
8393,292366.3139559798,2010-11-04 23:36:45,4772.421553987454,2,26,0.5501165986061096,4.106245040893555,25.25481079690034,24.58698680827325,100.840253110045,89.62486151203322,6.47544875391759e-05,0.0944781526923179,0,0,0
8394,292396.3291655656,2010-11-04 23:37:15,4802.4367635783165,2,26,0.550297200679779,4.109321117401123,25.259397413900608,24.58698680827325,100.85909413295036,89.62486151203322,9.71794142969884e-05,0.0944781526923179,0,0,0
8395,292426.34460556664,2010-11-04 23:37:45,4832.452203579319,2,26,0.5501165986061096,4.112396717071533,25.26398404959404,24.58698680827325,100.87794945512567,89.62486151203322,3.23295607813634e-05,0.0944781526923179,0,0,0
8396,292456.3598054884,2010-11-04 23:38:15,4862.467403501047,2,26,0.5501165986061096,4.115472316741943,25.268570745363608,24.58698680827325,100.89681926952387,89.62486151203322,6.47544875391759e-05,0.0944781526923179,0,0,0
8397,292486.3752715845,2010-11-04 23:38:45,4892.482869587162,2,26,0.5499359965324402,4.118710041046143,25.27315743454893,24.58698680827325,100.91570353485528,89.62486151203322,6.47544875391759e-05,0.0944781526923179,0,0,0
8398,292516.3905132104,2010-11-04 23:39:15,4922.498111212989,2,26,0.5501165986061096,4.121947765350342,25.277744083865567,24.58698680827325,100.93460223443692,89.62486151203322,6.47544875391759e-05,0.0944781526923179,0,0,0
8399,292546.4058026054,2010-11-04 23:39:45,4952.513400608056,2,26,0.5501165986061096,4.125185489654541,25.282330786269387,24.58698680827325,100.95351572826888,89.62486151203322,0.0001295089750783,0.0944781526923179,0,0,0
8400,292576.4211242259,2010-11-04 23:40:15,4982.528722228562,2,26,0.5499359965324402,4.12842321395874,25.286917483857504,24.58698680827325,100.97244403804592,89.62486151203322,9.70840483205393e-05,0.0944781526923179,0,0,0
8401,292606.4365812895,2010-11-04 23:40:45,5012.544179302181,2,26,0.5501165986061096,4.13166093826294,25.291504173372108,24.58698680827325,100.9913872677782,89.62486151203322,6.47544875391759e-05,0.0944781526923179,0,0,0
8402,292636.4520723429,2010-11-04 23:41:15,5042.559670460881,2,26,0.5499359965324402,4.134898662567139,25.296090902008512,24.58698680827325,101.01034575527244,89.62486151203322,6.47544875391759e-05,0.0944781526923179,0,0,0
8403,292666.46711202967,2010-11-04 23:41:45,5072.574710032351,2,26,0.5499359965324402,4.138460159301758,25.30067748164731,24.58698680827325,101.02931882387006,89.62486151203322,9.70840483205393e-05,0.0944781526923179,0,0,0
8404,292696.4824381715,2010-11-04 23:42:15,5102.590036179156,2,26,0.5501165986061096,4.141697883605957,25.305264129663687,24.58698680827325,101.0483073831324,89.62486151203322,0.0001295089750783,0.0944781526923179,0,0,0
8405,292726.4977897317,2010-11-04 23:42:45,5132.605387734383,2,26,0.5501165986061096,4.145097732543945,25.309850835405275,24.58698680827325,101.0673116652797,89.62486151203322,9.71794142969884e-05,0.0944781526923179,0,0,0
8406,292756.5132456575,2010-11-04 23:43:15,5162.620843660136,2,26,0.5501165986061096,4.148497104644775,25.314437542129767,24.58698680827325,101.0863317400614,89.62486151203322,9.70840483205393e-05,0.0944781526923179,0,0,0
8407,292786.52842652664,2010-11-04 23:43:45,5192.636024544343,2,26,0.5501165986061096,4.151896953582764,25.31902413936718,24.58698680827325,101.1053668874828,89.62486151203322,9.71794142969884e-05,0.0944781526923179,0,0,0
8408,292816.54398583045,2010-11-04 23:44:15,5222.651583843131,2,26,0.5501165986061096,4.155296325683594,25.32361083357349,24.58698680827325,101.1244181179688,89.62486151203322,9.70840483205393e-05,0.0944781526923179,0,0,0
8409,292846.55908613856,2010-11-04 23:44:45,5252.666684146196,2,26,0.5501165986061096,4.158696174621582,25.32819732985324,24.58698680827325,101.14348424349612,89.62486151203322,9.71794142969884e-05,0.0944781526923179,0,0,0
8410,292876.5745578938,2010-11-04 23:45:15,5282.682155906474,2,26,0.550297200679779,4.162257671356201,25.332783962731902,24.58698680827325,101.16256675644335,89.62486151203322,9.71794142969884e-05,0.0944781526923179,0,0,0
8411,292906.5897522717,2010-11-04 23:45:45,5312.6973502743385,2,26,0.550297200679779,4.16581916809082,25.337370637397388,24.58698680827325,101.18166533873756,89.62486151203322,0.0001295089750783,0.0944781526923179,0,0,0
8412,292936.60506784206,2010-11-04 23:46:15,5342.712665854768,2,26,0.5501165986061096,4.16938066482544,25.34195726810078,24.58698680827325,101.20077982261743,89.62486151203322,0.0001295089750783,0.0944781526923179,0,0,0
8413,292966.620380009,2010-11-04 23:46:45,5372.727978011652,2,26,0.5501165986061096,4.1727800369262695,25.346543920780064,24.58698680827325,101.21991064422976,89.62486151203322,9.70840483205393e-05,0.0944781526923179,0,0,0
8414,292996.6358469723,2010-11-04 23:47:15,5402.743444995007,2,26,0.5501165986061096,4.176341533660889,25.351130606508683,24.58698680827325,101.23905796393866,89.62486151203322,0.0001295089750783,0.0944781526923179,0,0,0
8415,293026.6510692448,2010-11-04 23:47:45,5432.758667332689,2,26,0.550297200679779,4.180065155029297,25.35571728768404,24.58698680827325,101.25822176883656,89.62486151203322,0.0001295089750783,0.0944781526923179,0,0,0
8416,293056.6663784794,2010-11-04 23:48:15,5462.773976482064,2,26,0.5501165986061096,4.183464527130127,25.360304055516515,24.58698680827325,101.27740239717905,89.62486151203322,6.47544875391759e-05,0.0944781526923179,0,0,0
8417,293086.6816986513,2010-11-04 23:48:45,5492.789296663981,2,26,0.5499359965324402,4.187349796295166,25.36489084156728,24.58698680827325,101.29659970358937,89.62486151203322,0.0001295089750783,0.0944781526923179,0,0,0
8418,293116.69706038694,2010-11-04 23:49:15,5522.804658389596,2,26,0.5501165986061096,4.190911293029785,25.36947763928818,24.58698680827325,101.31581390850414,89.62486151203322,9.70840483205393e-05,0.0944781526923179,0,0,0
8419,293146.712369,2010-11-04 23:49:45,5552.819967012659,2,26,0.5499359965324402,4.194472789764404,25.37406354017921,24.58698680827325,101.33504104065874,89.62486151203322,9.70840483205393e-05,0.0944781526923179,0,0,0
8420,293176.7276853724,2010-11-04 23:50:15,5582.83528337504,2,26,0.5499359965324402,4.198195934295654,25.378649299750105,24.58698680827325,101.35428442473729,89.62486151203322,9.70840483205393e-05,0.0944781526923179,0,0,0
8421,293190.9619278515,2010-11-04 23:50:29,5597.069525859164,2,26,0.5501165986061096,4.200138568878174,25.38082397855561,24.58698680827325,101.36341604859732,89.62486151203322,0.0001295089750783,0.0944781526923179,0,0,0
8422,293220.9815926398,2010-11-04 23:51:00,30.01553487281715,3,26,0.0,4.115796089172363,25.38082397855561,24.58698680827325,101.36341604859732,89.62486151203322,-0.0003885269106831,0.0944781526923179,0,0,0
8423,293250.99671325355,2010-11-04 23:51:30,60.030655496604986,3,26,0.0,4.105921268463135,25.38082397855561,24.58698680827325,101.36341604859732,89.62486151203322,-0.0001619339018361,0.0944781526923179,0,0,0
8424,293281.01216318936,2010-11-04 23:52:00,90.04610543240628,3,26,0.0,4.099607944488525,25.38082397855561,24.58698680827325,101.36341604859732,89.62486151203322,-0.0001618385285837,0.0944781526923179,0,0,0
8425,293310.9807152458,2010-11-04 23:52:30,120.01465751394828,3,26,0.0,4.095884323120117,25.38082397855561,24.58698680827325,101.36341604859732,89.62486151203322,-9.71794142969884e-05,0.0944781526923179,0,0,0
8426,293310.98583069525,2010-11-04 23:52:30,0.015643368253834,4,26,0.9776187539100648,4.199653148651123,25.380828252976208,24.58698680827325,101.36343400002576,89.62486151203322,-3.23295607813634e-05,0.0944781526923179,0,0,0
8427,293312.0014906537,2010-11-04 23:52:31,1.031303336790681,4,26,0.9274094104766846,4.199653148651123,25.38109548004314,24.58698680827325,101.36455626901008,89.62486151203322,-3.23295607813634e-05,0.0944781526923179,0,0,0
8428,293314.25140028435,2010-11-04 23:52:33,3.281212957343523,4,26,0.8773806095123291,4.199653148651123,25.38165832640759,24.58698680827325,101.36692004093344,89.62486151203322,-3.23295607813634e-05,0.0944781526923179,0,0,0
8429,293317.67338018265,2010-11-04 23:52:36,6.703192855628087,4,26,0.827171266078949,4.199653148651123,25.38246704665265,24.58698680827325,101.37031641997712,89.62486151203322,0.0,0.0944781526923179,0,0,0
8430,293322.31383671105,2010-11-04 23:52:41,11.343649394064414,4,26,0.7771424651145935,4.199653148651123,25.383499509619,24.58698680827325,101.37465245564348,89.62486151203322,3.24249267578125e-05,0.0944781526923179,0,0,0
8431,293328.3920372397,2010-11-04 23:52:47,17.421849922691642,4,26,0.7271137237548828,4.199653148651123,25.38476788513329,24.58698680827325,101.37997925246422,89.62486151203322,0.0,0.0944781526923179,0,0,0
8432,293336.45443180186,2010-11-04 23:52:55,25.48424447486225,4,26,0.6770849227905273,4.199653148651123,25.3863380834604,24.58698680827325,101.38657362405743,89.62486151203322,-3.23295607813634e-05,0.0944781526923179,0,0,0
8433,293347.4229788528,2010-11-04 23:53:06,36.45279155083266,4,26,0.6268755793571472,4.199653148651123,25.388320910984103,24.58698680827325,101.39490091973474,89.62486151203322,3.24249267578125e-05,0.0944781526923179,0,0,0
8434,293363.11044860573,2010-11-04 23:53:22,52.14026128374288,4,26,0.5768467783927917,4.199814796447754,25.39093673048627,24.58698680827325,101.40588662312784,89.62486151203322,0.0,0.0944781526923179,0,0,0
8435,293387.5007126722,2010-11-04 23:53:46,76.53052535521358,4,26,0.526818037033081,4.199653148651123,25.39466134372512,24.58698680827325,101.42152895330952,89.62486151203322,0.0,0.0944781526923179,0,0,0
8436,293430.40650799323,2010-11-04 23:54:29,119.43632068123894,4,26,0.4766086339950561,4.199653148651123,25.400613462332693,24.58698680827325,101.4465261590886,89.62486151203322,-3.23295607813634e-05,0.0944781526923179,0,0,0
8437,293505.6714086996,2010-11-04 23:55:44,194.70122137258,4,26,0.426579862833023,4.199653148651123,25.41002295593068,24.58698680827325,101.48604341218544,89.62486151203322,0.0,0.0944781526923179,0,0,0
8438,293611.4985044617,2010-11-04 23:57:30,300.5283171447189,4,26,0.37655109167099,4.199814796447754,25.421807064625625,24.58698680827325,101.53553333436982,89.62486151203322,3.23295607813634e-05,0.0944781526923179,0,0,0
8439,293738.6536208846,2010-11-04 23:59:37,427.6834335576111,4,26,0.3265223205089569,4.199491024017334,25.434208945929846,24.58698680827325,101.58761776381624,89.62486151203322,-6.47544875391759e-05,0.0944781526923179,0,0,0
8440,293891.6832146387,2010-11-05 00:02:10,580.7130273116355,4,26,0.2764935493469238,4.199653148651123,25.447016984452706,24.58698680827325,101.64140795788782,89.62486151203322,-3.23295607813634e-05,0.0944781526923179,0,0,0
8441,294075.5876448094,2010-11-05 00:05:14,764.6174574773185,4,26,0.2262841761112213,4.199814796447754,25.45984019368376,24.58698680827325,101.69526190115404,89.62486151203322,0.0,0.0944781526923179,0,0,0
8442,294305.5697813841,2010-11-05 00:09:04,994.5995940871636,4,26,0.1760748028755188,4.199491024017334,25.472650302177183,24.58698680827325,101.74906072284952,89.62486151203322,-3.24249267578125e-05,0.0944781526923179,0,0,0
8443,294623.0822694624,2010-11-05 00:14:22,1312.1120821354073,4,26,0.1260460317134857,4.199653148651123,25.48587677452647,24.58698680827325,101.80460810927607,89.62486151203322,-3.23295607813634e-05,0.0944781526923179,0,0,0
8444,295143.6866381246,2010-11-05 00:23:03,1832.716450797568,4,26,0.0760172605514526,4.199491024017334,25.50017908765157,24.58698680827325,101.8646736239878,89.62486151203322,-3.24249267578125e-05,0.0944781526923179,0,0,0
8445,295621.9630983804,2010-11-05 00:31:01,2310.99291105336,4,26,0.0498289167881011,4.199491024017334,25.50844285640981,24.58698680827325,101.89937900262542,89.62486151203322,-6.47544875391759e-05,0.0944781526923179,0,0,0
8446,295651.99085313024,2010-11-05 00:31:31,30.015350081549716,5,26,0.0,4.192044734954834,25.50844285640981,24.58698680827325,101.89937900262542,89.62486151203322,0.0,0.0944781526923179,0,0,0
8447,295681.9905032272,2010-11-05 00:32:01,60.01500017852254,5,26,0.0,4.190749645233154,25.50844285640981,24.58698680827325,101.89937900262542,89.62486151203322,-3.23295607813634e-05,0.0944781526923179,0,0,0
8448,295682.1911684344,2010-11-05 00:32:01,0.187628785314111,6,26,-1.9243103452026844e-05,4.190749645233154,25.50844285640981,24.586986809276183,101.89937900262542,89.62486151623627,0.0,0.0947341993451118,0,0,0
8449,295687.0193392415,2010-11-05 00:32:06,5.015799592444217,6,26,0.0005225847125984,4.190749645233154,25.508443953634504,24.58698680935933,101.89938360094357,89.62486151658473,-3.23295607813634e-05,0.0947341993451118,0,0,0
8450,295717.0475694903,2010-11-05 00:32:36,30.01535446749772,7,26,-1.099568486213684,4.016884326934815,25.508443953634504,24.59615518698518,101.89938360094357,89.66188193039737,-0.0009065627818927,0.0947341993451118,0,0,0
8451,295747.062919211,2010-11-05 00:33:06,60.030704188146565,7,26,-1.099568486213684,3.9908206462860103,25.508443953634504,24.60532365379895,101.89938360094357,89.69858204066016,-0.0005504131549969,0.0947341993451118,0,0,0
8452,295777.0783621744,2010-11-05 00:33:36,90.04614715154365,7,26,-1.0993878841400146,3.972689390182495,25.508443953634504,24.61449195267279,101.89938360094357,89.73508418755756,-0.0004532813909463,0.0947341993451118,0,0,0
8453,295807.0935512089,2010-11-05 00:34:06,120.06133618609528,7,26,-1.0997490882873535,3.9587671756744394,25.508443953634504,24.623660140207505,101.89938360094357,89.77144065236855,-0.0003237724304199,0.0947341993451118,0,0,0
8454,295837.1089284984,2010-11-05 00:34:36,150.07671350062273,7,26,-1.099568486213684,3.9469494819641113,25.508443953634504,24.632828309546365,101.89938360094357,89.80767910027599,-0.0002913951757363,0.0947341993451118,0,0,0
8455,295867.12422572303,2010-11-05 00:35:06,180.09201070017082,7,26,-1.099568486213684,3.936103105545044,25.508443953634504,24.64199697275133,101.89938360094357,89.84381622417139,-0.0002590179501567,0.0947341993451118,0,0,0
8456,295897.1395521756,2010-11-05 00:35:36,210.10733715273892,7,26,-1.0997490882873535,3.9260661602020255,25.508443953634504,24.651165782592187,101.89938360094357,89.8798597369811,-0.0002913951757363,0.0947341993451118,0,0,0
8457,295927.1548808837,2010-11-05 00:36:06,240.1226658609375,7,26,-1.0997490882873535,3.9168386459350586,25.508443953634504,24.660334647354127,101.89938360094357,89.91581529731631,-0.0002266406954731,0.0947341993451118,0,0,0
8458,295957.1703684886,2010-11-05 00:36:36,270.1381534757915,7,26,-1.099568486213684,3.90777325630188,25.508443953634504,24.669503596508825,101.89938360094357,89.95168700481972,-0.0002590179501567,0.0947341993451118,0,0,0
8459,295987.18561073096,2010-11-05 00:37:06,300.1533957933457,7,26,-1.099929690361023,3.899193286895752,25.508443953634504,24.678672416944053,101.89938360094357,89.9874772198888,-0.0001942634553415,0.0947341993451118,0,0,0
8460,296017.2008805722,2010-11-05 00:37:36,330.1686655493906,7,26,-1.0997490882873535,3.890451431274414,25.508443953634504,24.68784124289873,101.89938360094357,90.02318877248851,-0.0002590179501567,0.0947341993451118,0,0,0
8461,296047.2163262123,2010-11-05 00:38:06,360.18411121453164,7,26,-1.0997490882873535,3.882357120513916,25.508443953634504,24.697010122266327,101.89938360094357,90.05882294907327,-0.0001942634553415,0.0947341993451118,0,0,0
8462,296077.2316744192,2010-11-05 00:38:36,390.1994593963393,7,26,-1.099568486213684,3.874100923538208,25.508443953634504,24.706178962942243,101.89938360094357,90.09438071780887,-0.0002266406954731,0.0947341993451118,0,0,0
8463,296107.24686743366,2010-11-05 00:39:06,420.2146524108255,7,26,-1.0997490882873535,3.86600661277771,25.508443953634504,24.715347807883926,101.89938360094357,90.1298640927594,-0.0002266406954731,0.0947341993451118,0,0,0
8464,296137.26231957495,2010-11-05 00:39:36,450.2301045521321,7,26,-1.0997490882873535,3.857912302017212,25.508443953634504,24.724516655491858,101.89938360094357,90.16527400532784,-0.0002266406954731,0.0947341993451118,0,0,0
8465,296167.27754480485,2010-11-05 00:40:06,480.2453297820328,7,26,-1.0997490882873535,3.850303649902344,25.508443953634504,24.73368552063262,101.89938360094357,90.200611919896,-0.0001942634553415,0.0947341993451118,0,0,0
8466,296197.29280069633,2010-11-05 00:40:36,510.2605856784821,7,26,-1.0997490882873535,3.8425331115722656,25.508443953634504,24.74285435710454,101.89938360094357,90.23587859573183,-0.0002266406954731,0.0947341993451118,0,0,0
8467,296227.30832652154,2010-11-05 00:41:06,540.2761114987026,7,26,-1.0997490882873535,3.8349244594573975,25.508443953634504,24.752023286132268,101.89938360094357,90.27107552330614,-0.0002266406954731,0.0947341993451118,0,0,0
8468,296257.32350211253,2010-11-05 00:41:36,570.291287089697,7,26,-1.099568486213684,3.8274779319763184,25.508443953634504,24.761192115649912,101.89938360094357,90.30620340094625,-0.0001618862152099,0.0947341993451118,0,0,0
8469,296287.3389623992,2010-11-05 00:42:06,600.3067473763356,7,26,-1.099568486213684,3.82019305229187,25.508443953634504,24.770361020725726,101.89938360094357,90.34126368429776,-0.0002266406954731,0.0947341993451118,0,0,0
8470,296317.3541313085,2010-11-05 00:42:36,630.3219162856515,7,26,-1.099929690361023,3.812746286392212,25.508443953634504,24.77952987909073,101.89938360094357,90.37625649021592,-0.0002266406954731,0.0947341993451118,0,0,0
8471,296347.3694874351,2010-11-05 00:43:06,660.3372724122906,7,26,-1.099568486213684,3.8056232929229736,25.508443953634504,24.788698711728667,101.89938360094357,90.41118282441192,-0.0001942634553415,0.0947341993451118,0,0,0
8472,296377.38484027854,2010-11-05 00:43:37,690.352625260747,7,26,-1.0997490882873535,3.798662185668945,25.508443953634504,24.797867583509323,101.89938360094357,90.44604465901185,-0.0001942634553415,0.0947341993451118,0,0,0
8473,296407.4002312472,2010-11-05 00:44:07,720.3680162544197,7,26,-1.0997490882873535,3.791862964630127,25.508443953634504,24.80703643762755,101.89938360094357,90.48084322723184,-0.0001942634553415,0.0947341993451118,0,0,0
8474,296437.4154912739,2010-11-05 00:44:37,750.3832762511039,7,26,-1.099568486213684,3.785387516021729,25.508443953634504,24.816205202203665,101.89938360094357,90.51557948277052,-0.0001295089750783,0.0947341993451118,0,0,0
8475,296467.4308248142,2010-11-05 00:45:07,780.3986097913638,7,26,-1.0997490882873535,3.77875018119812,25.508443953634504,24.825374081453283,101.89938360094357,90.55025557059932,-0.0001295089750783,0.0947341993451118,0,0,0
8476,296497.4462873565,2010-11-05 00:45:37,810.4140723336328,7,26,-1.099568486213684,3.772436618804932,25.508443953634504,24.834542975922357,101.89938360094357,90.5848729126044,-0.0001618862152099,0.0947341993451118,0,0,0
8477,296527.4614727569,2010-11-05 00:46:07,840.4292577341133,7,26,-1.0997490882873535,3.766123056411743,25.508443953634504,24.84371178052488,101.89938360094357,90.61943220360644,-0.0001618862152099,0.0947341993451118,0,0,0
8478,296557.4770175044,2010-11-05 00:46:37,870.444802481579,7,26,-1.0997490882873535,3.7599713802337646,25.508443953634504,24.85288074901037,101.89938360094357,90.65393581798187,-0.0001942634553415,0.0947341993451118,0,0,0
8479,296587.49215192767,2010-11-05 00:47:07,900.4599369098249,7,26,-1.099568486213684,3.754143476486206,25.508443953634504,24.86204942459996,101.89938360094357,90.68838329382012,-0.0001618862152099,0.0947341993451118,0,0,0
8480,296617.5074797687,2010-11-05 00:47:37,930.4752647658964,7,26,-1.099568486213684,3.748477697372437,25.508443953634504,24.87121804382782,101.89938360094357,90.7227757837669,-6.47544875391759e-05,0.0947341993451118,0,0,0
8481,296647.522802502,2010-11-05 00:48:07,960.4905874791306,7,26,-1.099568486213684,3.742326021194458,25.508443953634504,24.880386658374423,101.89938360094357,90.7571143668767,-0.0001618862152099,0.0947341993451118,0,0,0
8482,296677.5381634657,2010-11-05 00:48:37,990.505948452869,7,26,-1.099568486213684,3.7368218898773193,25.508443953634504,24.889555304672704,101.89938360094357,90.79140050861622,-0.0001295089750783,0.0947341993451118,0,0,0
8483,296707.55347149225,2010-11-05 00:49:07,1020.521256469418,7,26,-1.0997490882873535,3.7311558723449703,25.508443953634504,24.898724174464277,101.89938360094357,90.82563606480592,-0.0001295089750783,0.0947341993451118,0,0,0
8484,296737.56879402004,2010-11-05 00:49:37,1050.5365789921766,7,26,-1.0997490882873535,3.725489854812622,25.508443953634504,24.90789310648317,101.89938360094357,90.85982090436632,-0.0001942634553415,0.0947341993451118,0,0,0
8485,296767.58421275794,2010-11-05 00:50:07,1080.5519977351155,7,26,-1.0997490882873535,3.7199857234954834,25.508443953634504,24.917062033764005,101.89938360094357,90.89395560935743,-0.0001295089750783,0.0947341993451118,0,0,0
8486,296797.59960385185,2010-11-05 00:50:37,1110.567388824026,7,26,-1.099568486213684,3.7148053646087646,25.508443953634504,24.92623094309861,101.89938360094357,90.92804097375466,-0.0001618862152099,0.0947341993451118,0,0,0
8487,296827.6148096984,2010-11-05 00:51:07,1140.582594670543,7,26,-1.0997490882873535,3.709786891937256,25.508443953634504,24.935399773154536,101.89938360094357,90.96207757396324,-6.47544875391759e-05,0.0947341993451118,0,0,0
8488,296857.6301253891,2010-11-05 00:51:37,1170.5979103662603,7,26,-1.0997490882873535,3.704444646835327,25.508443953634504,24.944568725290186,101.89938360094357,90.99606639094776,-0.0001295089750783,0.0947341993451118,0,0,0
8489,296887.6454576762,2010-11-05 00:52:07,1200.61324264838,7,26,-1.099568486213684,3.6994261741638175,25.508443953634504,24.95373762775307,101.89938360094357,91.0300078684891,-9.713172767078504e-05,0.0947341993451118,0,0,0
8490,296917.6609299478,2010-11-05 00:52:37,1230.6287149299596,7,26,-1.0997490882873535,3.6942458152771,25.508443953634504,24.9629065457654,101.89938360094357,91.06390298060518,-0.0001295089750783,0.0947341993451118,0,0,0
8491,296947.676114842,2010-11-05 00:53:07,1260.643899819164,7,26,-1.0997490882873535,3.689227342605591,25.508443953634504,24.97207548567323,101.89938360094357,91.09775226922292,-0.0001295089750783,0.0947341993451118,0,0,0
8492,296977.6785109785,2010-11-05 00:53:37,1290.6462960358742,7,26,-1.0997490882873535,3.684208869934082,25.508443953634504,24.98124049998001,101.89938360094357,91.13154118351366,-0.0001295089750783,0.0947341993451118,0,0,0
8493,297007.6912380326,2010-11-05 00:54:07,1320.6590230097436,7,26,-1.099929690361023,3.679352283477783,25.508443953634504,24.990408647859404,101.89938360094357,91.1652971169282,-0.0001618862152099,0.0947341993451118,0,0,0
8494,297037.706495127,2010-11-05 00:54:37,1350.6742801091957,7,26,-1.0997490882873535,3.6746575832366943,25.508443953634504,24.99957760715801,101.89938360094357,91.19901161417204,-0.0001618862152099,0.0947341993451118,0,0,0
8495,297067.7218589479,2010-11-05 00:55:07,1380.6896439200157,7,26,-1.0997490882873535,3.669801235198975,25.508443953634504,25.008746609800184,101.89938360094357,91.23268251644272,-0.0001618862152099,0.0947341993451118,0,0,0
8496,297097.7371512953,2010-11-05 00:55:37,1410.7049362674522,7,26,-1.099568486213684,3.6654303073883057,25.508443953634504,25.017915522768007,101.89938360094357,91.2663103205456,-9.713172767078504e-05,0.0947341993451118,0,0,0
8497,297127.7525087252,2010-11-05 00:56:07,1440.720293702357,7,26,-1.0997490882873535,3.660735607147217,25.508443953634504,25.02708443673649,101.89938360094357,91.29989623800888,-9.713172767078504e-05,0.0947341993451118,0,0,0
8498,297157.7679534981,2010-11-05 00:56:37,1470.735738465246,7,26,-1.0997490882873535,3.656202793121338,25.508443953634504,25.036253421737683,101.89938360094357,91.33344104715988,-0.0001618862152099,0.0947341993451118,0,0,0
8499,297187.78314915416,2010-11-05 00:57:07,1500.7509341363634,7,26,-1.099568486213684,3.651993751525879,25.508443953634504,25.045422309806256,101.89938360094357,91.36694473447096,-6.47544875391759e-05,0.0947341993451118,0,0,0
8500,297217.7985980474,2010-11-05 00:57:37,1530.76638302455,7,26,-1.0997490882873535,3.64762282371521,25.508443953634504,25.054591315126,101.89938360094357,91.40040841372186,-6.47544875391759e-05,0.0947341993451118,0,0,0
8501,297247.81379753805,2010-11-05 00:58:07,1560.7815825101889,7,26,-1.099568486213684,3.643251895904541,25.508443953634504,25.06376016333903,101.89938360094357,91.4338312227357,-6.47544875391759e-05,0.0947341993451118,0,0,0
8502,297277.82938072144,2010-11-05 00:58:37,1590.7971656986092,7,26,-1.099568486213684,3.639042854309082,25.508443953634504,25.072929124012617,101.89938360094357,91.46721539666596,-9.713172767078504e-05,0.0947341993451118,0,0,0
8503,297307.8444720672,2010-11-05 00:59:07,1620.8122570342894,7,26,-1.099568486213684,3.634833812713623,25.508443953634504,25.082097902901697,101.89938360094357,91.50056046297604,-9.713172767078504e-05,0.0947341993451118,0,0,0
8504,297337.85992741643,2010-11-05 00:59:37,1650.8277123936286,7,26,-1.099568486213684,3.630624771118164,25.508443953634504,25.091266808182247,101.89938360094357,91.53386861607474,-0.0001295089750783,0.0947341993451118,0,0,0
8505,297367.87523992924,2010-11-05 01:00:07,1680.8430249064013,7,26,-1.099568486213684,3.626739501953125,25.508443953634504,25.10043575601609,101.89938360094357,91.5671399020802,-9.713172767078504e-05,0.0947341993451118,0,0,0
8506,297397.8903523676,2010-11-05 01:00:37,1710.8581373447566,7,26,-1.0997490882873535,3.622854232788086,25.508443953634504,25.109604613806724,101.89938360094357,91.60037480062152,-6.47544875391759e-05,0.0947341993451118,0,0,0
8507,297427.90577975207,2010-11-05 01:01:07,1740.8735647292665,7,26,-1.0997490882873535,3.618968963623047,25.508443953634504,25.118773586233026,101.89938360094357,91.6335751754459,-0.0001295089750783,0.0947341993451118,0,0,0
8508,297457.9211051721,2010-11-05 01:01:37,1770.8888901492571,7,26,-1.0997490882873535,3.6152455806732178,25.508443953634504,25.12794252210024,101.89938360094357,91.6667408313764,-0.0001295089750783,0.0947341993451118,0,0,0
8509,297487.93671426014,2010-11-05 01:02:07,1800.9044992373267,7,26,-1.0997490882873535,3.611684083938599,25.508443953634504,25.13711150433286,101.89938360094357,91.69987321987342,-9.713172767078504e-05,0.0947341993451118,0,0,0
8510,297517.9518104229,2010-11-05 01:02:37,1830.9195954000563,7,26,-1.099929690361023,3.60812258720398,25.508443953634504,25.14628036460399,101.89938360094357,91.73297257090812,-0.0001618862152099,0.0947341993451118,0,0,0
8511,297547.9671641886,2010-11-05 01:03:07,1860.934949170815,7,26,-1.099929690361023,3.6047229766845694,25.508443953634504,25.15544928252932,101.89938360094357,91.76603988464952,-9.713172767078504e-05,0.0947341993451118,0,0,0
8512,297577.9824907615,2010-11-05 01:03:37,1890.9502757386708,7,26,-1.0997490882873535,3.601485252380371,25.508443953634504,25.16461818232296,101.89938360094357,91.79907639380804,-9.713172767078504e-05,0.0947341993451118,0,0,0
8513,297607.99805105274,2010-11-05 01:04:07,1920.965836145224,7,26,-1.099568486213684,3.598247528076172,25.508443953634504,25.17378713661069,101.89938360094357,91.83208269079066,-6.47544875391759e-05,0.0947341993451118,0,0,0
8514,297638.0131332807,2010-11-05 01:04:37,1950.9809182578824,7,26,-1.099929690361023,3.5946860313415527,25.508443953634504,25.182956072561662,101.89938360094357,91.86505911093106,-0.0001295089750783,0.0947341993451118,0,0,0
8515,297668.0286746748,2010-11-05 01:05:07,1980.9964596519776,7,26,-1.0997490882873535,3.5917723178863525,25.508443953634504,25.19212507270337,101.89938360094357,91.8980067439372,-9.70840483205393e-05,0.0947341993451118,0,0,0
8516,297698.04380200035,2010-11-05 01:05:37,2011.0115869825063,7,26,-1.099568486213684,3.588858366012573,25.508443953634504,25.20129400657224,101.89938360094357,91.93092586747292,-6.47544875391759e-05,0.0947341993451118,0,0,0
8517,297728.059259901,2010-11-05 01:06:07,2041.027044888201,7,26,-1.0997490882873535,3.585782527923584,25.508443953634504,25.2104629956414,101.89938360094357,91.96381758617876,-9.713172767078504e-05,0.0947341993451118,0,0,0
8518,297758.0744541235,2010-11-05 01:06:37,2071.042239100678,7,26,-1.099568486213684,3.583030462265014,25.508443953634504,25.2196319089701,101.89938360094357,91.99668215588026,-6.47544875391759e-05,0.0947341993451118,0,0,0
8519,297788.08995203406,2010-11-05 01:07:07,2101.057737016244,7,26,-1.099568486213684,3.580116510391236,25.508443953634504,25.22880088899155,101.89938360094357,92.02952052248612,-6.47544875391759e-05,0.0947341993451118,0,0,0
8520,297818.1051382516,2010-11-05 01:07:37,2131.072923228752,7,26,-1.0997490882873535,3.577202558517456,25.508443953634504,25.237969792086545,101.89938360094357,92.0623320203323,-3.237724376958795e-05,0.0947341993451118,0,0,0
8521,297848.1205861924,2010-11-05 01:08:07,2161.0883711695733,7,26,-1.0997490882873535,3.5742886066436768,25.508443953634504,25.24713883650824,101.89938360094357,92.09511764405175,-6.47544875391759e-05,0.0947341993451118,0,0,0
8522,297878.13578852016,2010-11-05 01:08:37,2191.1035734973066,7,26,-1.099568486213684,3.5715365409851074,25.508443953634504,25.25630769286263,101.89938360094357,92.12787627145312,-3.237724376958795e-05,0.0947341993451118,0,0,0
8523,297908.1511299401,2010-11-05 01:09:07,2221.118914922248,7,26,-1.099568486213684,3.568460702896118,25.508443953634504,25.26547665410568,101.89938360094357,92.1606086445678,-6.47544875391759e-05,0.0947341993451118,0,0,0
8524,297938.1664626783,2010-11-05 01:09:37,2251.1342476605064,7,26,-1.0997490882873535,3.565546751022339,25.508443953634504,25.274645653985186,101.89938360094357,92.19331450822963,-6.47544875391759e-05,0.0947341993451118,0,0,0
8525,297968.18180179753,2010-11-05 01:10:07,2281.14958677468,7,26,-1.0997490882873535,3.56263279914856,25.508443953634504,25.283814606581423,101.89938360094357,92.22599327817082,-9.713172767078504e-05,0.0947341993451118,0,0,0
8526,297998.1972533875,2010-11-05 01:10:37,2311.1650383646106,7,26,-1.099568486213684,3.5597188472747803,25.508443953634504,25.292983641934544,101.89938360094357,92.25864531207368,-6.47544875391759e-05,0.0947341993451118,0,0,0
8527,298028.2124670335,2010-11-05 01:11:07,2341.180252010596,7,26,-1.099568486213684,3.556643009185791,25.508443953634504,25.302152551496302,101.89938360094357,92.29126885640088,-3.237724376958795e-05,0.0947341993451118,0,0,0
8528,298058.2277936865,2010-11-05 01:11:37,2371.1955786636645,7,26,-1.0997490882873535,3.553405284881592,25.508443953634504,25.31132149992673,101.89938360094357,92.32386429309612,-9.713172767078504e-05,0.0947341993451118,0,0,0
8529,298088.243105698,2010-11-05 01:12:07,2401.210890675185,7,26,-1.099568486213684,3.5503294467926025,25.508443953634504,25.32049047142128,101.89938360094357,92.35643119882305,-3.237724376958795e-05,0.0947341993451118,0,0,0
8530,298118.25843761925,2010-11-05 01:12:37,2431.226222596404,7,26,-1.099568486213684,3.5470917224884038,25.508443953634504,25.32965945483853,101.89938360094357,92.38896891582873,-6.47544875391759e-05,0.0947341993451118,0,0,0
8531,298148.273902342,2010-11-05 01:13:07,2461.241687319116,7,26,-1.0997490882873535,3.543853998184204,25.508443953634504,25.338828519854285,101.89938360094357,92.421477100916,-6.47544875391759e-05,0.0947341993451118,0,0,0
8532,298178.2891060381,2010-11-05 01:13:37,2491.2568910202776,7,26,-1.0997490882873535,3.540454387664795,25.508443953634504,25.34799747347417,101.89938360094357,92.45395423667672,-9.713172767078504e-05,0.0947341993451118,0,0,0
8533,298208.30461703136,2010-11-05 01:14:07,2521.2724020185,7,26,-1.0997490882873535,3.536892890930176,25.508443953634504,25.357166510849577,101.89938360094357,92.48640001785688,-9.713172767078504e-05,0.0947341993451118,0,0,0
8534,298238.3198939001,2010-11-05 01:14:37,2551.287678872262,7,26,-1.0997490882873535,3.5333313941955566,25.508443953634504,25.366335551258206,101.89938360094357,92.51881309615318,-6.47544875391759e-05,0.0947341993451118,0,0,0
8535,298268.335245706,2010-11-05 01:15:07,2581.303030693153,7,26,-1.0997490882873535,3.5294461250305176,25.508443953634504,25.37550458828596,101.89938360094357,92.55119222358732,-9.713172767078504e-05,0.0947341993451118,0,0,0
8536,298298.35042227944,2010-11-05 01:15:37,2611.3182072816376,7,26,-1.0997490882873535,3.5255608558654785,25.508443953634504,25.384673612203866,101.89938360094357,92.58353613651532,-9.713172767078504e-05,0.0947341993451118,0,0,0
8537,298328.36576074694,2010-11-05 01:16:08,2641.33354575421,7,26,-1.099568486213684,3.521513700485229,25.508443953634504,25.39384264980085,101.89938360094357,92.61584350752037,-0.0001295089750783,0.0947341993451118,0,0,0
8538,298358.38108027226,2010-11-05 01:16:38,2671.348865249411,7,26,-1.099929690361023,3.5173046588897705,25.508443953634504,25.403011667046407,101.89938360094357,92.64811283644512,-9.713172767078504e-05,0.0947341993451118,0,0,0
8539,298388.39655773673,2010-11-05 01:17:08,2701.364342713928,7,26,-1.0997490882873535,3.512771844863892,25.508443953634504,25.412180761571737,101.89938360094357,92.68034223203468,-0.0001295089750783,0.0947341993451118,0,0,0
8540,298418.4117671722,2010-11-05 01:17:38,2731.379552149404,7,26,-1.099568486213684,3.508077383041382,25.508443953634504,25.42134972755793,101.89938360094357,92.71252879322948,-0.0001295089750783,0.0947341993451118,0,0,0
8541,298448.4272069226,2010-11-05 01:18:08,2761.394991904793,7,26,-1.0997490882873535,3.502897024154663,25.508443953634504,25.43051882542633,101.89938360094357,92.74467084946392,-0.0001618862152099,0.0947341993451118,0,0,0
8542,298478.4424130047,2010-11-05 01:18:38,2791.4101979818856,7,26,-1.0997490882873535,3.4972310066223145,25.508443953634504,25.439687802533623,101.89938360094357,92.77676361566483,-0.0001618862152099,0.0947341993451118,0,0,0
8543,298508.4579667497,2010-11-05 01:19:08,2821.425751751873,7,26,-1.099929690361023,3.490917444229126,25.508443953634504,25.448856884867464,101.89938360094357,92.80880299582562,-0.0002266406954731,0.0947341993451118,0,0,0
8544,298538.4730780201,2010-11-05 01:19:38,2851.4408629972504,7,26,-1.099929690361023,3.4842801094055176,25.508443953634504,25.458025780017376,101.89938360094357,92.84078170541706,-0.0001942634553415,0.0947341993451118,0,0,0
8545,298568.48840966565,2010-11-05 01:20:08,2881.456194642781,7,26,-1.0997490882873535,3.4760239124298096,25.508443953634504,25.467194733443005,101.89938360094357,92.87269219289932,-0.0002266406954731,0.0947341993451118,0,0,0
8546,298598.5037338425,2010-11-05 01:20:38,2911.471518819669,7,26,-1.099929690361023,3.466796398162842,25.508443953634504,25.476363623180447,101.89938360094357,92.90452358950763,-0.0002913951757363,0.0947341993451118,0,0,0
8547,298628.5191126006,2010-11-05 01:21:08,2941.4868975778,7,26,-1.0997490882873535,3.4559500217437744,25.508443953634504,25.485532619081088,101.89938360094357,92.93626275229332,-0.0002913951757363,0.0947341993451118,0,0,0
8548,298658.5344215144,2010-11-05 01:21:38,2971.502206491589,7,26,-1.0997490882873535,3.4423515796661377,25.508443953634504,25.49470164486015,101.89938360094357,92.96789022511405,-0.0003885269106831,0.0947341993451118,0,0,0
8549,298688.5497377114,2010-11-05 01:22:08,3001.5175226885576,7,26,-1.0997490882873535,3.425515651702881,25.508443953634504,25.503870658665708,101.89938360094357,92.9993797362294,-0.0005180359003134,0.0947341993451118,0,0,0
8550,298718.56518661964,2010-11-05 01:22:38,3031.5329715967937,7,26,-1.099568486213684,3.403984785079956,25.508443953634504,25.51303969127925,101.89938360094357,93.03069475673132,-0.0006475448608398,0.0947341993451118,0,0,0
8551,298748.5804186465,2010-11-05 01:23:08,3061.5482036236604,7,26,-1.0997490882873535,3.375169038772583,25.508443953634504,25.52220865886473,101.89938360094357,93.0617805176586,-0.0008418083307333,0.0947341993451118,0,0,0
8552,298778.595752673,2010-11-05 01:23:38,3091.5635376501345,7,26,-1.099929690361023,3.3355071544647217,25.508443953634504,25.53137772162814,101.89938360094357,93.09255656631612,-0.0012627125252038,0.0947341993451118,0,0,0
8553,298808.6110705942,2010-11-05 01:24:08,3121.578855571407,7,26,-1.0997490882873535,3.280465841293335,25.508443953634504,25.54054670586389,101.89938360094357,93.1229029738366,-0.0017159938579425,0.0947341993451118,0,0,0
8554,298838.6265598031,2010-11-05 01:24:38,3151.5943447852524,7,26,-1.0997490882873535,3.201627492904663,25.508443953634504,25.549715748381477,101.89938360094357,93.15264322639848,-0.0024606704246252,0.0947341993451118,0,0,0
8555,298868.6417559354,2010-11-05 01:25:08,3181.6095409125087,7,26,-1.0997490882873535,3.08167028427124,25.508443953634504,25.55888475456642,101.89938360094357,93.18149305206776,-0.0039500235579907,0.0947341993451118,0,0,0
8556,298895.1102318032,2010-11-05 01:25:34,3208.078016780348,7,26,-1.0997490882873535,2.881255626678467,25.508443953634504,25.566970287033765,101.89938360094357,93.20571523185396,-0.0085799694061279,0.0947341993451118,0,0,0
8557,298908.4540582068,2010-11-05 01:25:48,3221.42184318896,7,26,-1.099929690361023,2.699943780899048,25.508443953634504,25.571046499102835,101.89938360094357,93.21710675243996,-0.0117852687835693,0.0947341993451118,0,0,0
8558,298968.482500376,2010-11-05 01:26:48,60.01530576130418,8,26,0.0,3.296816349029541,25.508443953634504,25.571046499102835,101.89938360094357,93.21710675243996,0.0012303352123126,0.0947341993451118,0,0,0
8559,298968.66802461306,2010-11-05 01:26:48,0.187481883624894,9,26,-1.9243103452026844e-05,3.296978235244751,25.508443953634504,25.571046500104984,101.89938360094357,93.217106755744,0.0,0.0932833403348922,0,0,0
8560,298973.4960900472,2010-11-05 01:26:53,5.015547317727712,9,26,0.0005225847125984,3.304425001144409,25.50844477330355,25.57104650027317,101.89938630694678,93.2171067562985,0.0010360718006268,0.0932833403348922,0,0,0
