Data_Point,Test_Time(s),Date_Time,Step_Time(s),Step_Index,Cycle_Index,Current(A),Voltage(V),Charge_Capacity(Ah),Discharge_Capacity(Ah),Charge_Energy(Wh),Discharge_Energy(Wh),dV/dt(V/s),Internal_Resistance(Ohm),Is_FC_Data,AC_Impedance(Ohm),ACI_Phase_Angle(Deg)
9872,344952.5003783106,2010-11-05 14:13:17,30.015263710955423,1,31,0.0,3.362703800201416,29.421956464374567,29.479685086259103,117.5347243829415,107.44764993777648,0.0007446765666827,0.0939245000481605,0,0,0
9873,344982.5156571594,2010-11-05 14:13:47,60.03054255969709,1,31,0.0,3.3855297565460205,29.421956464374567,29.479685086259103,117.5347243829415,107.44764993777648,0.0005504131549969,0.0939245000481605,0,0,0
9874,345012.5309450156,2010-11-05 14:14:17,90.04583041592282,1,31,0.0,3.4026896953582764,29.421956464374567,29.479685086259103,117.5347243829415,107.44764993777648,0.0004532813909463,0.0939245000481605,0,0,0
9875,345042.4993648771,2010-11-05 14:14:47,120.01425027742326,1,31,0.0,3.416288137435913,29.421956464374567,29.479685086259103,117.5347243829415,107.44764993777648,0.0003561496851034,0.0939245000481605,0,0,0
9876,345072.5218669311,2010-11-05 14:15:17,30.015342668044465,2,31,0.5501165986061096,3.5789833068847656,29.426543251252888,29.479685086259103,117.55096957955344,107.44764993777648,0.0016512393485754,0.0939245000481605,0,0,0
9877,345102.53702123906,2010-11-05 14:15:47,60.03049697591295,2,31,0.5501165986061096,3.630300998687744,29.43113000127485,29.479685086259103,117.56751061654248,107.44764993777648,0.0011008263099938,0.0939245000481605,0,0,0
9878,345132.55232733075,2010-11-05 14:16:17,90.04580306765735,2,31,0.550297200679779,3.667858600616455,29.43571678672409,29.479685086259103,117.58425181563896,107.44764993777648,0.0009065627818927,0.0939245000481605,0,0,0
9879,345162.56765179336,2010-11-05 14:16:47,120.06112753025822,2,31,0.550297200679779,3.697159767150879,29.44030346176474,29.479685086259103,117.60114446992272,107.44764993777648,0.0006799221155233,0.0939245000481605,0,0,0
9880,345192.5831169572,2010-11-05 14:17:17,150.07659269908348,2,31,0.550297200679779,3.721442699432373,29.444890179187738,29.479685086259103,117.61815955352284,107.44764993777648,0.0005827903514727,0.0939245000481605,0,0,0
9881,345222.5981979821,2010-11-05 14:17:47,180.091673719014,2,31,0.5499359965324402,3.741516590118408,29.449476894064727,29.479685086259103,117.63527612747278,107.44764993777648,0.0004856586456298,0.0939245000481605,0,0,0
9882,345252.61366843415,2010-11-05 14:18:17,210.1071441710269,2,31,0.5501165986061096,3.757866859436035,29.45406364657173,29.479685086259103,117.65247691604112,107.44764993777648,0.0003561496851034,0.0939245000481605,0,0,0
9883,345282.62873704307,2010-11-05 14:18:47,240.1222127799777,2,31,0.5501165986061096,3.7693607807159424,29.45865031316832,29.479685086259103,117.66974170534948,107.44764993777648,0.0001942634553415,0.0939245000481605,0,0,0
9884,345312.64402484416,2010-11-05 14:19:17,270.1375005810658,2,31,0.5501165986061096,3.7761600017547607,29.463236965912568,29.479685086259103,117.6870476642654,107.44764993777648,0.0001295089750783,0.0939245000481605,0,0,0
9885,345342.659308931,2010-11-05 14:19:47,300.15278466788254,2,31,0.5501165986061096,3.7808547019958496,29.46782361194269,29.479685086259103,117.70437911152383,107.44764993777648,9.713172767078504e-05,0.0939245000481605,0,0,0
9886,345372.674621544,2010-11-05 14:20:17,330.168097280905,2,31,0.550297200679779,3.7847399711608887,29.47241032955447,29.479685086259103,117.721729951728,107.44764993777648,0.0001295089750783,0.0939245000481605,0,0,0
9887,345402.6898956409,2010-11-05 14:20:47,360.18337137778536,2,31,0.5501165986061096,3.788625240325928,29.476997032179373,29.479685086259103,117.73909820451158,107.44764993777648,0.0001618862152099,0.0939245000481605,0,0,0
9888,345432.705160214,2010-11-05 14:21:17,390.1986359508928,2,31,0.5501165986061096,3.792186737060547,29.481583763776303,29.479685086259103,117.75648336191496,107.44764993777648,0.0001295089750783,0.0939245000481605,0,0,0
9889,345462.72057065123,2010-11-05 14:21:47,420.214046393112,2,31,0.550297200679779,3.795586347579956,29.48617048104765,29.479685086259103,117.77388469069834,107.44764993777648,9.713172767078504e-05,0.0939245000481605,0,0,0
9890,345492.73587132443,2010-11-05 14:22:17,450.2293470613184,2,31,0.550297200679779,3.799147844314575,29.49075732032317,29.479685086259103,117.7913023923746,107.44764993777648,0.0001295089750783,0.0939245000481605,0,0,0
9891,345522.7511540679,2010-11-05 14:22:47,480.24462980478194,2,31,0.5501165986061096,3.8023855686187744,29.495344102892684,29.479685086259103,117.80873542280888,107.44764993777648,9.713172767078504e-05,0.0939245000481605,0,0,0
9892,345552.766406992,2010-11-05 14:23:17,510.25988284409925,2,31,0.5501165986061096,3.8056232929229736,29.49993082533396,29.479685086259103,117.82618326499008,107.44764993777648,9.713172767078504e-05,0.0939245000481605,0,0,0
9893,345582.78160360537,2010-11-05 14:23:47,540.2750793472939,2,31,0.550297200679779,3.808861017227173,29.504517633164877,29.479685086259103,117.84364623489004,107.44764993777648,6.47544875391759e-05,0.0939245000481605,0,0,0
9894,345612.79689100053,2010-11-05 14:24:17,570.290366737356,2,31,0.5499359965324402,3.811774969100952,29.509104414408785,29.479685086259103,117.86112351676172,107.44764993777648,6.47544875391759e-05,0.0939245000481605,0,0,0
9895,345642.8121707665,2010-11-05 14:24:47,600.3056465033873,2,31,0.5499359965324402,3.815174579620361,29.51369115401216,29.479685086259103,117.87861510693656,107.44764993777648,0.0001295089750783,0.0939245000481605,0,0,0
9896,345672.8274438859,2010-11-05 14:25:17,630.3209196228278,2,31,0.5499359965324402,3.81792664527893,29.51827791749418,29.479685086259103,117.89612103158022,107.44764993777648,6.47544875391759e-05,0.0939245000481605,0,0,0
9897,345702.84298217733,2010-11-05 14:25:47,660.336457914178,2,31,0.550297200679779,3.82116436958313,29.52286470829497,29.479685086259103,117.9136411109628,107.44764993777648,6.47544875391759e-05,0.0939245000481605,0,0,0
9898,345732.8580347311,2010-11-05 14:26:17,690.3515104680529,2,31,0.550297200679779,3.824240207672119,29.527451418461737,29.479685086259103,117.93117492728112,107.44764993777648,6.47544875391759e-05,0.0939245000481605,0,0,0
9899,345762.8735388021,2010-11-05 14:26:47,720.3670146793341,2,31,0.5501165986061096,3.8274779319763184,29.53203814629192,29.479685086259103,117.94872306924673,107.44764993777648,9.713172767078504e-05,0.0939245000481605,0,0,0
9900,345792.88861484965,2010-11-05 14:27:17,750.3820905865025,2,31,0.5501165986061096,3.8307156562805176,29.536624813826123,29.479685086259103,117.96628546626492,107.44764993777648,9.713172767078504e-05,0.0939245000481605,0,0,0
9901,345822.904441962,2010-11-05 14:27:47,780.3979177288694,2,31,0.550297200679779,3.8339531421661377,29.541211630155715,29.479685086259103,117.98386326977148,107.44764993777648,0.0001295089750783,0.0939245000481605,0,0,0
9902,345852.9192615643,2010-11-05 14:28:17,810.4127374164741,2,31,0.550297200679779,3.837352752685547,29.54579830615038,29.479685086259103,118.0014557635803,107.44764993777648,6.47544875391759e-05,0.0939245000481605,0,0,0
9903,345882.9344763832,2010-11-05 14:28:47,840.4279521200998,2,31,0.5499359965324402,3.840590476989746,29.550384932176737,29.479685086259103,118.01906345457829,107.44764993777648,6.47544875391759e-05,0.0939245000481605,0,0,0
9904,345912.94975176326,2010-11-05 14:29:17,870.4432275001832,2,31,0.550297200679779,3.844151973724365,29.554971660828297,29.479685086259103,118.03668715322722,107.44764993777648,0.0001295089750783,0.0939245000481605,0,0,0
9905,345942.96516715287,2010-11-05 14:29:47,900.4586428947641,2,31,0.550297200679779,3.847389698028565,29.55955839435896,29.479685086259103,118.05432640913058,107.44764993777648,9.713172767078504e-05,0.0939245000481605,0,0,0
9906,345972.9803338316,2010-11-05 14:30:17,930.4738095684996,2,31,0.5501165986061096,3.850627422332764,29.564145163235864,29.479685086259103,118.0719812675845,107.44764993777648,3.237724376958795e-05,0.0939245000481605,0,0,0
9907,346002.99563790334,2010-11-05 14:30:47,960.4891136502268,2,31,0.5501165986061096,3.853865146636963,29.56873192525613,29.479685086259103,118.0896512392782,107.44764993777648,9.713172767078504e-05,0.0939245000481605,0,0,0
9908,346033.01089633605,2010-11-05 14:31:18,990.504372072982,2,31,0.5501165986061096,3.857264757156372,29.573318662250696,29.479685086259103,118.10733613961904,107.44764993777648,9.713172767078504e-05,0.0939245000481605,0,0,0
9909,346063.0261709994,2010-11-05 14:31:48,1020.5196467362764,2,31,0.5501165986061096,3.860340595245361,29.577905344425982,29.479685086259103,118.12503554137471,107.44764993777648,6.47544875391759e-05,0.0939245000481605,0,0,0
9910,346093.041545933,2010-11-05 14:32:18,1050.5350216698605,2,31,0.550297200679779,3.8637402057647705,29.58249203161139,29.479685086259103,118.1427493878178,107.44764993777648,0.0001295089750783,0.0939245000481605,0,0,0
9911,346123.0567391128,2010-11-05 14:32:48,1080.5502148497596,2,31,0.5497553944587708,3.86649227142334,29.58707873385309,29.479685086259103,118.1604772897209,107.44764993777648,6.47544875391759e-05,0.0939245000481605,0,0,0
9912,346153.0720357259,2010-11-05 14:33:18,1110.5655114628437,2,31,0.5499359965324402,3.869568109512329,29.59166546429525,29.479685086259103,118.17821906345854,107.44764993777648,6.47544875391759e-05,0.0939245000481605,0,0,0
9913,346183.08731545194,2010-11-05 14:33:48,1140.580791188775,2,31,0.5501165986061096,3.872482061386109,29.5962521640482,29.479685086259103,118.1959739110692,107.44764993777648,9.713172767078504e-05,0.0939245000481605,0,0,0
9914,346213.102957011,2010-11-05 14:34:18,1170.5964327478978,2,31,0.5501165986061096,3.875072240829468,29.60083891721014,29.479685086259103,118.21374159585538,107.44764993777648,6.47544875391759e-05,0.0939245000481605,0,0,0
9915,346243.11789145006,2010-11-05 14:34:48,1200.6113671869398,2,31,0.5501165986061096,3.877662420272827,29.605425597721883,29.479685086259103,118.23152113739587,107.44764993777648,9.713172767078504e-05,0.0939245000481605,0,0,0
9916,346273.1333004988,2010-11-05 14:35:18,1230.6267762356806,2,31,0.5501165986061096,3.879928827285767,29.61001229335676,29.479685086259103,118.2493122691492,107.44764993777648,3.237724376958795e-05,0.0939245000481605,0,0,0
9917,346303.1484588467,2010-11-05 14:35:48,1260.6419345836337,2,31,0.5501165986061096,3.882357120513916,29.61459898436731,29.479685086259103,118.2671142750502,107.44764993777648,6.47544875391759e-05,0.0939245000481605,0,0,0
9918,346333.16376543976,2010-11-05 14:36:18,1290.6572411766294,2,31,0.5501165986061096,3.8844616413116455,29.619185750804725,29.479685086259103,118.28492684635228,107.44764993777648,6.47544875391759e-05,0.0939245000481605,0,0,0
9919,346363.1791820123,2010-11-05 14:36:48,1320.6726577491509,2,31,0.5501165986061096,3.886728048324585,29.623772502903627,29.479685086259103,118.30274887303764,107.44764993777648,6.47544875391759e-05,0.0939245000481605,0,0,0
9920,346393.1943188215,2010-11-05 14:37:18,1350.6877945583396,2,31,0.5501165986061096,3.888346910476685,29.62835916806189,29.479685086259103,118.32057951721254,107.44764993777648,3.237724376958795e-05,0.0939245000481605,0,0,0
9921,346423.2096214245,2010-11-05 14:37:48,1380.7030971613758,2,31,0.550297200679779,3.890289545059204,29.632945926053345,29.479685086259103,118.3384188692965,107.44764993777648,9.713172767078504e-05,0.0939245000481605,0,0,0
9922,346453.22490472934,2010-11-05 14:38:18,1410.718380466241,2,31,0.550297200679779,3.8917465209960938,29.637532719406597,29.479685086259103,118.35626619063784,107.44764993777648,3.237724376958795e-05,0.0939245000481605,0,0,0
9923,346483.2401183202,2010-11-05 14:38:48,1440.7335940570888,2,31,0.5501165986061096,3.893365383148194,29.642119465556306,29.479685086259103,118.37412063032876,107.44764993777648,3.237724376958795e-05,0.0939245000481605,0,0,0
9924,346513.2554651436,2010-11-05 14:39:18,1470.7489409105806,2,31,0.5501165986061096,3.894822359085083,29.6467062340344,29.479685086259103,118.3919820905438,107.44764993777648,3.237724376958795e-05,0.0939245000481605,0,0,0
9925,346543.2707582279,2010-11-05 14:39:48,1500.764233989844,2,31,0.550297200679779,3.8961174488067623,29.65129292342793,29.479685086259103,118.4098492649338,107.44764993777648,3.237724376958795e-05,0.0939245000481605,0,0,0
9926,346573.28603692126,2010-11-05 14:40:18,1530.7795126831977,2,31,0.550297200679779,3.897574424743652,29.655879603294743,29.479685086259103,118.42772291235032,107.44764993777648,6.47544875391759e-05,0.0939245000481605,0,0,0
9927,346603.3018697578,2010-11-05 14:40:48,1560.7953454947158,2,31,0.5501165986061096,3.898869514465332,29.66046634456655,29.479685086259103,118.44560289793372,107.44764993777648,3.237724376958795e-05,0.0939245000481605,0,0,0
9928,346633.3019259685,2010-11-05 14:41:18,1590.7954017054108,2,31,0.550297200679779,3.9003264904022217,29.665050798948663,29.479685086259103,118.46348010002566,107.44764993777648,6.47544875391759e-05,0.0939245000481605,0,0,0
9929,346663.31630594854,2010-11-05 14:41:48,1620.8097817706505,2,31,0.550297200679779,3.9014596939086914,29.66963743387589,29.479685086259103,118.4813716573586,107.44764993777648,6.47544875391759e-05,0.0939245000481605,0,0,0
9930,346693.33154972974,2010-11-05 14:42:18,1650.8250254666457,2,31,0.550297200679779,3.902754783630371,29.67422412945567,29.479685086259103,118.49926941693002,107.44764993777648,3.237724376958795e-05,0.0939245000481605,0,0,0
9931,346723.3469999513,2010-11-05 14:42:48,1680.8404756981852,2,31,0.5501165986061096,3.904049873352051,29.67881085139003,29.479685086259103,118.51717317158798,107.44764993777648,3.237724376958795e-05,0.0939245000481605,0,0,0
9932,346753.36211622925,2010-11-05 14:43:18,1710.8555919661,2,31,0.5501165986061096,3.9053449630737305,29.683397595560017,29.479685086259103,118.53508292200314,107.44764993777648,6.47544875391759e-05,0.0939245000481605,0,0,0
9933,346783.3775514032,2010-11-05 14:43:48,1740.871027145066,2,31,0.5501165986061096,3.90664005279541,29.68798431661669,29.479685086259103,118.55299833067548,107.44764993777648,3.237724376958795e-05,0.0939245000481605,0,0,0
9934,346813.3926872299,2010-11-05 14:44:18,1770.8861629667902,2,31,0.5501165986061096,3.90793514251709,29.69257099360472,29.479685086259103,118.57091953889332,107.44764993777648,3.237724376958795e-05,0.0939245000481605,0,0,0
9935,346843.4079887953,2010-11-05 14:44:48,1800.9014645322363,2,31,0.5501165986061096,3.90906834602356,29.69715763696811,29.479685086259103,118.58884652382228,107.44764993777648,0.0,0.0939245000481605,0,0,0
9936,346873.4232600602,2010-11-05 14:45:18,1830.9167357970475,2,31,0.5499359965324402,3.9103634357452393,29.70174433240208,29.479685086259103,118.60677974164624,107.44764993777648,0.0,0.0939245000481605,0,0,0
9937,346903.4385452497,2010-11-05 14:45:48,1860.9320209866169,2,31,0.550297200679779,3.911820411682129,29.706331069571,29.479685086259103,118.6247190864214,107.44764993777648,3.237724376958795e-05,0.0939245000481605,0,0,0
9938,346933.4539688348,2010-11-05 14:46:18,1890.947444571642,2,31,0.5501165986061096,3.9132773876190186,29.710917756119613,29.479685086259103,118.64266433568638,107.44764993777648,9.713172767078504e-05,0.0939245000481605,0,0,0
9939,346963.46925455064,2010-11-05 14:46:48,1920.962730287525,2,31,0.5499359965324402,3.914410352706909,29.715504450686065,29.479685086259103,118.66061573875604,107.44764993777648,0.0,0.0939245000481605,0,0,0
9940,346993.4844132294,2010-11-05 14:47:18,1950.9778889663044,2,31,0.5501165986061096,3.915705442428589,29.720091085129877,29.479685086259103,118.6785729707698,107.44764993777648,0.0,0.0939245000481605,0,0,0
9941,347023.49984362145,2010-11-05 14:47:48,1980.9933193533088,2,31,0.5501165986061096,3.917000532150269,29.7246777699873,29.479685086259103,118.69653652891984,107.44764993777648,0.0,0.0939245000481605,0,0,0
9942,347053.51497660606,2010-11-05 14:48:18,2011.008452342964,2,31,0.5501165986061096,3.918457508087158,29.7292644007444,29.479685086259103,118.71450616457793,107.44764993777648,0.0,0.0939245000481605,0,0,0
9943,347083.5304108778,2010-11-05 14:48:48,2041.023886614665,2,31,0.5501165986061096,3.919914484024048,29.73385105017271,29.479685086259103,118.73248215874492,107.44764993777648,3.237724376958795e-05,0.0939245000481605,0,0,0
9944,347113.5455603787,2010-11-05 14:49:18,2071.0390361155346,2,31,0.5501165986061096,3.921209573745728,29.73843773190891,29.479685086259103,118.750464566888,107.44764993777648,3.237724376958795e-05,0.0939245000481605,0,0,0
9945,347143.5612351507,2010-11-05 14:49:48,2101.054710912624,2,31,0.5501165986061096,3.922828435897827,29.74302453627766,29.479685086259103,118.76845388167888,107.44764993777648,6.47544875391759e-05,0.0939245000481605,0,0,0
9946,347173.57612023153,2010-11-05 14:50:18,2131.069595968398,2,31,0.5501165986061096,3.924123525619507,29.74761113777394,29.479685086259103,118.786448819724,107.44764993777648,3.237724376958795e-05,0.0939245000481605,0,0,0
9947,347203.5916708436,2010-11-05 14:50:48,2161.085146580503,2,31,0.5501165986061096,3.925580501556397,29.75219786302221,29.479685086259103,118.80445074387896,107.44764993777648,6.47544875391759e-05,0.0939245000481605,0,0,0
9948,347233.6066691972,2010-11-05 14:51:18,2191.100144929073,2,31,0.5501165986061096,3.926875591278076,29.756784465851908,29.479685086259103,118.8224585650556,107.44764993777648,3.237724376958795e-05,0.0939245000481605,0,0,0
9949,347263.6218966727,2010-11-05 14:51:48,2221.115372409592,2,31,0.5499359965324402,3.928170680999756,29.76137107814401,29.479685086259103,118.84047306944365,107.44764993777648,0.0,0.0939245000481605,0,0,0
9950,347293.6372835812,2010-11-05 14:52:18,2251.1307593180672,2,31,0.5501165986061096,3.929789543151856,29.7659577559194,29.479685086259103,118.85849450405254,107.44764993777648,3.237724376958795e-05,0.0939245000481605,0,0,0
9951,347323.65259486594,2010-11-05 14:52:48,2281.1460706027738,2,31,0.5501165986061096,3.931246519088745,29.770544493800937,29.479685086259103,118.8765229536076,107.44764993777648,0.0,0.0939245000481605,0,0,0
9952,347353.6678658049,2010-11-05 14:53:18,2311.161341541772,2,31,0.5499359965324402,3.932541608810425,29.77513118296924,29.479685086259103,118.89455796274176,107.44764993777648,0.0,0.0939245000481605,0,0,0
9953,347383.6831380923,2010-11-05 14:53:48,2341.176613829135,2,31,0.5501165986061096,3.934484243392944,29.779717974079286,29.479685086259103,118.9126002270774,107.44764993777648,9.713172767078504e-05,0.0939245000481605,0,0,0
9954,347413.6984431514,2010-11-05 14:54:18,2371.191918888302,2,31,0.5501165986061096,3.935779333114624,29.78430466799268,29.479685086259103,118.93064896070594,107.44764993777648,3.237724376958795e-05,0.0939245000481605,0,0,0
9955,347443.7140020091,2010-11-05 14:54:48,2401.207477861277,2,31,0.5501165986061096,3.9372363090515137,29.788891382698303,29.479685086259103,118.9487045765076,107.44764993777648,3.237724376958795e-05,0.0939245000481605,0,0,0
9956,347473.7289951948,2010-11-05 14:55:18,2431.2224709316715,2,31,0.5499359965324402,3.938855171203613,29.79347799812125,29.479685086259103,118.9667669005984,107.44764993777648,3.237724376958795e-05,0.0939245000481605,0,0,0
9957,347503.7442910259,2010-11-05 14:55:48,2461.2377667628043,2,31,0.5501165986061096,3.940312147140503,29.79806463701375,29.479685086259103,118.9848362895098,107.44764993777648,6.47544875391759e-05,0.0939245000481605,0,0,0
9958,347533.7595684561,2010-11-05 14:56:18,2491.253044193005,2,31,0.5501165986061096,3.9419310092926025,29.802651359107152,29.479685086259103,119.00291311756568,107.44764993777648,3.237724376958795e-05,0.0939245000481605,0,0,0
9959,347563.7748700466,2010-11-05 14:56:48,2521.2683457835137,2,31,0.5501165986061096,3.943387985229492,29.80723807990036,29.479685086259103,119.0209971033156,107.44764993777648,3.237724376958795e-05,0.0939245000481605,0,0,0
9960,347593.790142715,2010-11-05 14:57:18,2551.283618451828,2,31,0.5501165986061096,3.945006847381592,29.811824790107657,29.479685086259103,119.03908822197222,107.44764993777648,6.47544875391759e-05,0.0939245000481605,0,0,0
9961,347623.8054457591,2010-11-05 14:57:48,2581.298921495965,2,31,0.5499359965324402,3.9464638233184814,29.81641146919076,29.479685086259103,119.05718645655108,107.44764993777648,3.237724376958795e-05,0.0939245000481605,0,0,0
9962,347653.8208378455,2010-11-05 14:58:18,2611.314313582365,2,31,0.5501165986061096,3.948244571685791,29.820998177643528,29.479685086259103,119.0752919859788,107.44764993777648,6.47544875391759e-05,0.0939245000481605,0,0,0
9963,347683.83601408807,2010-11-05 14:58:48,2641.329489824986,2,31,0.5499359965324402,3.949539661407471,29.82558485857583,29.479685086259103,119.09340482566382,107.44764993777648,0.0,0.0939245000481605,0,0,0
9964,347713.8513131122,2010-11-05 14:59:18,2671.3447888490887,2,31,0.5501165986061096,3.95132040977478,29.830171533207512,29.479685086259103,119.11152511261368,107.44764993777648,0.0,0.0939245000481605,0,0,0
9965,347743.866574352,2010-11-05 14:59:48,2701.360050088876,2,31,0.5501165986061096,3.9532630443573,29.83475826831168,29.479685086259103,119.12965314872204,107.44764993777648,6.47544875391759e-05,0.0939245000481605,0,0,0
9966,347773.8818911254,2010-11-05 15:00:18,2731.375366862283,2,31,0.5499359965324402,3.9547200202941895,29.83934496673616,29.479685086259103,119.14778863177948,107.44764993777648,6.47544875391759e-05,0.0939245000481605,0,0,0
9967,347803.89713036525,2010-11-05 15:00:48,2761.3906060971426,2,31,0.550297200679779,3.956500768661499,29.84393162384137,29.479685086259103,119.16593161511037,107.44764993777648,6.47544875391759e-05,0.0939245000481605,0,0,0
9968,347833.91259515315,2010-11-05 15:01:18,2791.406070890029,2,31,0.5501165986061096,3.958119630813599,29.848518306715693,29.479685086259103,119.1840823198101,107.44764993777648,3.237724376958795e-05,0.0939245000481605,0,0,0
9969,347863.9276963836,2010-11-05 15:01:48,2821.4211721204083,2,31,0.5501165986061096,3.959900379180908,29.853104904313607,29.479685086259103,119.20224052549268,107.44764993777648,9.713172767078504e-05,0.0939245000481605,0,0,0
9970,347893.94303875585,2010-11-05 15:02:18,2851.436514492714,2,31,0.550297200679779,3.9616811275482178,29.85769155802772,29.479685086259103,119.2204068230302,107.44764993777648,9.713172767078504e-05,0.0939245000481605,0,0,0
9971,347923.9582882964,2010-11-05 15:02:48,2881.4517640332983,2,31,0.550297200679779,3.963299989700317,29.86227828583384,29.479685086259103,119.23858132842489,107.44764993777648,3.237724376958795e-05,0.0939245000481605,0,0,0
9972,347953.9735576214,2010-11-05 15:03:18,2911.46703336328,2,31,0.5499359965324402,3.965080738067627,29.86686503239889,29.479685086259103,119.25676387209558,107.44764993777648,6.47544875391759e-05,0.0939245000481605,0,0,0
9973,347983.9887484404,2010-11-05 15:03:49,2941.4822241772736,2,31,0.5499359965324402,3.966699600219727,29.87145170191508,29.479685086259103,119.27495416733338,107.44764993777648,3.237724376958795e-05,0.0939245000481605,0,0,0
9974,348014.0042127471,2010-11-05 15:04:19,2971.4976885090086,2,31,0.5501165986061096,3.968480348587036,29.876037674362,29.479685086259103,119.29314965010698,107.44764993777648,6.47544875391759e-05,0.0939245000481605,0,0,0
9975,348044.0193347894,2010-11-05 15:04:49,3001.512810526275,2,31,0.5501165986061096,3.970422983169556,29.880623644752237,29.479685086259103,119.31135334527694,107.44764993777648,9.713172767078504e-05,0.0939245000481605,0,0,0
9976,348074.03468640475,2010-11-05 15:05:19,3031.528162141654,2,31,0.5501165986061096,3.972203731536865,29.88520971604065,29.479685086259103,119.32956571798844,107.44764993777648,6.47544875391759e-05,0.0939245000481605,0,0,0
9977,348104.04998325347,2010-11-05 15:05:49,3061.5434589953384,2,31,0.5501165986061096,3.9741463661193848,29.889795694516064,29.479685086259103,119.3477859798434,107.44764993777648,6.47544875391759e-05,0.0939245000481605,0,0,0
9978,348134.0652423729,2010-11-05 15:06:19,3091.558718114833,2,31,0.5501165986061096,3.975765228271485,29.89438170881629,29.479685086259103,119.36601477905344,107.44764993777648,6.47544875391759e-05,0.0939245000481605,0,0,0
9979,348164.0807446694,2010-11-05 15:06:49,3121.5742204313847,2,31,0.5501165986061096,3.977707862854004,29.8989677024948,29.479685086259103,119.3842519213962,107.44764993777648,6.47544875391759e-05,0.0939245000481605,0,0,0
9980,348194.0958200804,2010-11-05 15:07:19,3151.5892958172512,2,31,0.5499359965324402,3.9794886112213135,29.903554370929225,29.479685086259103,119.40249996967955,107.44764993777648,3.237724376958795e-05,0.0939245000481605,0,0,0
9981,348224.1112480363,2010-11-05 15:07:49,3181.6047237731877,2,31,0.5501165986061096,3.981593132019043,29.90814113007708,29.479685086259103,119.42075745393775,107.44764993777648,9.713172767078504e-05,0.0939245000481605,0,0,0
9982,348254.1264083692,2010-11-05 15:08:19,3211.6198841060955,2,31,0.5501165986061096,3.983211994171143,29.912727868264675,29.479685086259103,119.43902353890252,107.44764993777648,0.0,0.0939245000481605,0,0,0
9983,348284.1416950575,2010-11-05 15:08:49,3241.635170794406,2,31,0.5499359965324402,3.985154628753662,29.91731461154647,29.479685086259103,119.45729843352252,107.44764993777648,3.237724376958795e-05,0.0939245000481605,0,0,0
9984,348314.15700778086,2010-11-05 15:09:19,3271.6504835177034,2,31,0.5501165986061096,3.9870972633361816,29.92190134787076,29.479685086259103,119.4755821125343,107.44764993777648,0.0,0.0939245000481605,0,0,0
9985,348344.1722541585,2010-11-05 15:09:49,3301.665729895393,2,31,0.5501165986061096,3.989201784133911,29.926488129311107,29.479685086259103,119.4938748750737,107.44764993777648,3.237724376958795e-05,0.0939245000481605,0,0,0
9986,348374.1876108516,2010-11-05 15:10:19,3331.6810865884454,2,31,0.550297200679779,3.9913063049316406,29.93107490201791,29.479685086259103,119.5121766488554,107.44764993777648,9.713172767078504e-05,0.0939245000481605,0,0,0
9987,348404.20283133467,2010-11-05 15:10:49,3361.696307071498,2,31,0.550297200679779,3.99292516708374,29.935661643312763,29.479685086259103,119.53048747904646,107.44764993777648,3.237724376958795e-05,0.0939245000481605,0,0,0
9988,348434.2181037623,2010-11-05 15:11:19,3391.711579499211,2,31,0.5501165986061096,3.9951913356781006,29.940248394577672,29.479685086259103,119.54880743791124,107.44764993777648,3.237724376958795e-05,0.0939245000481605,0,0,0
9989,348464.2334039443,2010-11-05 15:11:49,3421.7268796812045,2,31,0.5501165986061096,3.99729585647583,29.944835184277316,29.479685086259103,119.5671369397354,107.44764993777648,9.713172767078504e-05,0.0939245000481605,0,0,0
9990,348494.2486793345,2010-11-05 15:12:19,3451.7421550713125,2,31,0.5501165986061096,3.9992384910583496,29.94942202412937,29.479685086259103,119.58547617236412,107.44764993777648,6.47544875391759e-05,0.0939245000481605,0,0,0
9991,348524.2639763435,2010-11-05 15:12:49,3481.7574520853977,2,31,0.550297200679779,4.001504898071289,29.954008769561497,29.479685086259103,119.60382465055706,107.44764993777648,6.47544875391759e-05,0.0939245000481605,0,0,0
9992,348554.27925508696,2010-11-05 15:13:19,3511.772730823864,2,31,0.5497553944587708,4.003447532653809,29.95859555458088,29.479685086259103,119.6221830466269,107.44764993777648,6.47544875391759e-05,0.0939245000481605,0,0,0
9993,348584.29458053707,2010-11-05 15:13:49,3541.7880563591425,2,31,0.5504778623580933,4.005876064300537,29.963182286997885,29.479685086259103,119.64055095609976,107.44764993777648,9.71794142969884e-05,0.0939245000481605,0,0,0
9994,348614.30982543604,2010-11-05 15:14:19,3571.803301172928,2,31,0.550297200679779,4.007818698883057,29.96776905117745,29.479685086259103,119.6589289523288,107.44764993777648,6.47544875391759e-05,0.0939245000481605,0,0,0
9995,348644.3251292371,2010-11-05 15:14:49,3601.8186049789665,2,31,0.550297200679779,4.010085105895996,29.97235586730605,29.479685086259103,119.6773171220658,107.44764993777648,6.47544875391759e-05,0.0939245000481605,0,0,0
9996,348674.34042844165,2010-11-05 15:15:19,3631.833904178507,2,31,0.5501165986061096,4.0121893882751465,29.976942642115265,29.479685086259103,119.69571522420338,107.44764993777648,3.23295607813634e-05,0.0939245000481605,0,0,0
9997,348704.3556923682,2010-11-05 15:15:49,3661.849168105,2,31,0.5501165986061096,4.014455795288086,29.981529344430697,29.479685086259103,119.7141232242802,107.44764993777648,3.23295607813634e-05,0.0939245000481605,0,0,0
9998,348734.3709623397,2010-11-05 15:16:19,3691.864438076584,2,31,0.5501165986061096,4.016722202301025,29.986116062846087,29.479685086259103,119.73254156264056,107.44764993777648,6.47544875391759e-05,0.0939245000481605,0,0,0
9999,348764.3863926515,2010-11-05 15:16:49,3721.8798683884006,2,31,0.550297200679779,4.018988609313965,29.99070285768192,29.479685086259103,119.75097072005202,107.44764993777648,3.23295607813634e-05,0.0939245000481605,0,0,0
10000,348794.4015921572,2010-11-05 15:17:19,3751.895067919152,2,31,0.5499359965324402,4.021255016326904,29.99528963916345,29.479685086259103,119.76941026925176,107.44764993777648,6.47544875391759e-05,0.0939245000481605,0,0,0
10001,348824.41694514605,2010-11-05 15:17:49,3781.910420887909,2,31,0.550297200679779,4.023683547973633,29.999876431476977,29.479685086259103,119.78786060358664,107.44764993777648,6.47544875391759e-05,0.0939245000481605,0,0,0
10002,348854.4322343406,2010-11-05 15:18:19,3811.9257100824752,2,31,0.5501165986061096,4.025949954986572,30.004463191425767,29.479685086259103,119.80632154849576,107.44764993777648,6.47544875391759e-05,0.0939245000481605,0,0,0
10003,348884.4474360017,2010-11-05 15:18:49,3841.940911738532,2,31,0.550297200679779,4.028378009796143,30.009049981359897,29.479685086259103,119.82479345302256,107.44764993777648,3.23295607813634e-05,0.0939245000481605,0,0,0
10004,348914.46268853475,2010-11-05 15:19:19,3871.9561642715857,2,31,0.5499359965324402,4.030644416809082,30.01363680830684,29.479685086259103,119.84327638123088,107.44764993777648,6.47544875391759e-05,0.0939245000481605,0,0,0
10005,348944.47796511283,2010-11-05 15:19:49,3901.9714408496593,2,31,0.5501165986061096,4.0330729484558105,30.0182235883262,29.479685086259103,119.8617701650268,107.44764993777648,6.47544875391759e-05,0.0939245000481605,0,0,0
10006,348974.493272964,2010-11-05 15:20:19,3931.986748700795,2,31,0.550297200679779,4.035662651062012,30.022810320717305,29.479685086259103,119.88027492368457,107.44764993777648,6.47544875391759e-05,0.0939245000481605,0,0,0
10007,349004.50856734643,2010-11-05 15:20:49,3962.002043083312,2,31,0.5499359965324402,4.037929058074951,30.027397073374377,29.479685086259103,119.89879095935189,107.44764993777648,3.23295607813634e-05,0.0939245000481605,0,0,0
10008,349034.52382235567,2010-11-05 15:21:19,3992.017298097559,2,31,0.5501165986061096,4.040519237518311,30.03198383688555,29.479685086259103,119.91731821398795,107.44764993777648,9.70840483205393e-05,0.0939245000481605,0,0,0
10009,349064.53934413585,2010-11-05 15:21:49,4022.032819897745,2,31,0.550297200679779,4.042947769165039,30.03657061285828,29.479685086259103,119.93585686820126,107.44764993777648,6.47544875391759e-05,0.0939245000481605,0,0,0
10010,349094.5544317121,2010-11-05 15:22:19,4052.0479074489785,2,31,0.550297200679779,4.045537948608398,30.041158007338822,29.479685086259103,119.95440955864534,107.44764993777648,6.47544875391759e-05,0.0939245000481605,0,0,0
10011,349124.56991442974,2010-11-05 15:22:49,4082.063390171621,2,31,0.550297200679779,4.048128128051758,30.045745382241407,29.479685086259103,119.97297372920514,107.44764993777648,9.71794142969884e-05,0.0939245000481605,0,0,0
10012,349154.5849626227,2010-11-05 15:23:19,4112.0784383646105,2,31,0.5501165986061096,4.050556182861328,30.050332773372716,29.479685086259103,119.99154969239416,107.44764993777648,6.47544875391759e-05,0.0939245000481605,0,0,0
10013,349184.60025489,2010-11-05 15:23:49,4142.093730651896,2,31,0.5501165986061096,4.053146362304688,30.054920139343057,29.479685086259103,120.0101372115894,107.44764993777648,6.47544875391759e-05,0.0939245000481605,0,0,0
10014,349214.6155453427,2010-11-05 15:24:19,4172.109021104604,2,31,0.5499359965324402,4.055736541748047,30.05950698379853,29.479685086259103,120.02873443973624,107.44764993777648,6.47544875391759e-05,0.0939245000481605,0,0,0
10015,349244.6309124868,2010-11-05 15:24:49,4202.124388243731,2,31,0.5501165986061096,4.058326721191406,30.064093766746705,29.479685086259103,120.0473433102639,107.44764993777648,3.23295607813634e-05,0.0939245000481605,0,0,0
10016,349274.6462528641,2010-11-05 15:25:19,4232.139728611032,2,31,0.5501165986061096,4.060755252838135,30.06868057212644,29.479685086259103,120.06596430285698,107.44764993777648,0.0,0.0939245000481605,0,0,0
10017,349304.6614190366,2010-11-05 15:25:49,4262.154894798555,2,31,0.5501165986061096,4.063507080078125,30.0732673241528,29.479685086259103,120.08459701288018,107.44764993777648,3.23295607813634e-05,0.0939245000481605,0,0,0
10018,349334.67668986536,2010-11-05 15:26:19,4292.17016563229,2,31,0.550297200679779,4.066421031951904,30.07785409995687,29.479685086259103,120.1032422451576,107.44764993777648,9.70840483205393e-05,0.0939245000481605,0,0,0
10019,349364.6919934608,2010-11-05 15:26:49,4322.185469197728,2,31,0.5501165986061096,4.069011211395264,30.082440829314347,29.479685086259103,120.12189971309571,107.44764993777648,6.47544875391759e-05,0.0939245000481605,0,0,0
10020,349394.70729408896,2010-11-05 15:27:19,4352.20076993611,2,31,0.5501165986061096,4.071763515472412,30.087027539852063,29.479685086259103,120.14056964403672,107.44764993777648,3.24249267578125e-05,0.0939245000481605,0,0,0
10021,349424.72255441145,2010-11-05 15:27:49,4382.216030173394,2,31,0.5501165986061096,4.074515342712402,30.09161421600773,29.479685086259103,120.15925216539787,107.44764993777648,3.23295607813634e-05,0.0939245000481605,0,0,0
10022,349454.73783443816,2010-11-05 15:28:19,4412.231310200076,2,31,0.5501165986061096,4.077429294586182,30.096200909307925,29.479685086259103,120.1779476590862,107.44764993777648,6.47544875391759e-05,0.0939245000481605,0,0,0
10023,349484.75314441463,2010-11-05 15:28:49,4442.24662018153,2,31,0.5501165986061096,4.08018159866333,30.10078761117108,29.479685086259103,120.19665613781324,107.44764993777648,3.24249267578125e-05,0.0939245000481605,0,0,0
10024,349514.768422326,2010-11-05 15:29:19,4472.261898062857,2,31,0.5499359965324402,4.083095550537109,30.10537437663039,29.479685086259103,120.2153778035082,107.44764993777648,9.71794142969884e-05,0.0939245000481605,0,0,0
10025,349544.7838200264,2010-11-05 15:29:49,4502.277295763271,2,31,0.550297200679779,4.086009502410889,30.10996103912741,29.479685086259103,120.23411219494176,107.44764993777648,6.47544875391759e-05,0.0939245000481605,0,0,0
10026,349574.79909843905,2010-11-05 15:30:19,4532.292574175924,2,31,0.5501165986061096,4.088761329650879,30.11454776761549,29.479685086259103,120.25286009090514,107.44764993777648,6.47544875391759e-05,0.0939245000481605,0,0,0
10027,349604.81441227515,2010-11-05 15:30:49,4562.307888037061,2,31,0.5499359965324402,4.091675281524658,30.11913452125892,29.479685086259103,120.27162141616068,107.44764993777648,6.47544875391759e-05,0.0939245000481605,0,0,0
10028,349634.8295459816,2010-11-05 15:31:19,4592.323021743507,2,31,0.5499359965324402,4.0945892333984375,30.123721188345502,29.479685086259103,120.29039578600754,107.44764993777648,6.47544875391759e-05,0.0939245000481605,0,0,0
10029,349664.844971752,2010-11-05 15:31:49,4622.338447493937,2,31,0.5501165986061096,4.097665309906006,30.128307925402844,29.479685086259103,120.30918408853864,107.44764993777648,6.47544875391759e-05,0.0939245000481605,0,0,0
10030,349694.8601295035,2010-11-05 15:32:19,4652.353605235377,2,31,0.5501165986061096,4.100740909576416,30.13289459874765,29.479685086259103,120.3279858861298,107.44764993777648,6.47544875391759e-05,0.0939245000481605,0,0,0
10031,349724.87546266284,2010-11-05 15:32:49,4682.368938429773,2,31,0.5501165986061096,4.103654861450195,30.13748138093879,29.479685086259103,120.34680194682736,107.44764993777648,6.47544875391759e-05,0.0939245000481605,0,0,0
10032,349754.89070578234,2010-11-05 15:33:19,4712.384181544316,2,31,0.5501165986061096,4.106730937957764,30.14206805521722,29.479685086259103,120.36563155858109,107.44764993777648,9.71794142969884e-05,0.0939245000481605,0,0,0
10033,349784.90602899186,2010-11-05 15:33:49,4742.399504844015,2,31,0.550297200679779,4.109806537628174,30.14665470133753,29.479685086259103,120.38447505622597,107.44764993777648,9.70840483205393e-05,0.0939245000481605,0,0,0
10034,349814.9214016698,2010-11-05 15:34:19,4772.414877406681,2,31,0.5501165986061096,4.113044261932373,30.15124141649509,29.479685086259103,120.40333294734516,107.44764993777648,9.70840483205393e-05,0.0939245000481605,0,0,0
10035,349844.93657856405,2010-11-05 15:34:49,4802.430054305941,2,31,0.5501165986061096,4.116119861602783,30.15582808148736,29.479685086259103,120.42220480659972,107.44764993777648,6.47544875391759e-05,0.0939245000481605,0,0,0
10036,349874.95184884645,2010-11-05 15:35:19,4832.445324608349,2,31,0.5501165986061096,4.119195938110352,30.160414712006983,29.479685086259103,120.4410908652566,107.44764993777648,9.71794142969884e-05,0.0939245000481605,0,0,0
10037,349904.96714851714,2010-11-05 15:35:50,4862.460624279066,2,31,0.5501165986061096,4.122433662414551,30.16500142008248,29.479685086259103,120.45999177700448,107.44764993777648,9.71794142969884e-05,0.0939245000481605,0,0,0
10038,349934.9824731852,2010-11-05 15:36:20,4892.47594892713,2,31,0.5501165986061096,4.12534761428833,30.16958808874824,29.479685086259103,120.47890695745592,107.44764993777648,6.47544875391759e-05,0.0939245000481605,0,0,0
10039,349964.99786854483,2010-11-05 15:36:50,4922.491344286701,2,31,0.5499359965324402,4.12874698638916,30.174174742825898,29.479685086259103,120.49783682384744,107.44764993777648,6.47544875391759e-05,0.0939245000481605,0,0,0
10040,349995.01301085774,2010-11-05 15:37:20,4952.506486619677,2,31,0.5499359965324402,4.131984710693359,30.178761362584098,29.479685086259103,120.51678129421256,107.44764993777648,6.47544875391759e-05,0.0939245000481605,0,0,0
10041,350025.0283035911,2010-11-05 15:37:50,4982.521779353077,2,31,0.5501165986061096,4.135222434997559,30.183348110042346,29.479685086259103,120.53574105209668,107.44764993777648,6.47544875391759e-05,0.0939245000481605,0,0,0
10042,350055.0436067155,2010-11-05 15:38:20,5012.537082477415,2,31,0.5501165986061096,4.138460159301758,30.18793483814344,29.479685086259103,120.55471567189691,107.44764993777648,6.47544875391759e-05,0.0939245000481605,0,0,0
10043,350085.0590957188,2010-11-05 15:38:50,5042.5525714556725,2,31,0.5501165986061096,4.141860008239746,30.192521649556102,29.479685086259103,120.57370583027374,107.44764993777648,9.71794142969884e-05,0.0939245000481605,0,0,0
10044,350115.0742215957,2010-11-05 15:39:20,5072.567697382698,2,31,0.5501165986061096,4.145097732543945,30.19710838051151,29.479685086259103,120.5927109941342,107.44764993777648,6.47544875391759e-05,0.0939245000481605,0,0,0
10045,350145.0895124344,2010-11-05 15:39:50,5102.582988171243,2,31,0.5501165986061096,4.1486592292785645,30.201695082536443,29.479685086259103,120.61173172731344,107.44764993777648,6.47544875391759e-05,0.0939245000481605,0,0,0
10046,350175.10490920744,2010-11-05 15:40:20,5132.598384944342,2,31,0.5501165986061096,4.151896953582764,30.206281806508883,29.479685086259103,120.63076800566849,107.44764993777648,6.47544875391759e-05,0.0939245000481605,0,0,0
10047,350205.1200982771,2010-11-05 15:40:50,5162.613574039044,2,31,0.5499359965324402,4.155458450317383,30.21086845647196,29.479685086259103,120.64981944216532,107.44764993777648,9.71794142969884e-05,0.0939245000481605,0,0,0
10048,350235.13553871925,2010-11-05 15:41:20,5192.62901446611,2,31,0.550297200679779,4.159019947052002,30.215455124149457,29.479685086259103,120.66888661095383,107.44764993777648,9.71794142969884e-05,0.0939245000481605,0,0,0
10049,350265.1507744503,2010-11-05 15:41:50,5222.644250332562,2,31,0.550297200679779,4.162419319152832,30.22004177143787,29.479685086259103,120.68796960909296,107.44764993777648,0.0001295089750783,0.0939245000481605,0,0,0
10050,350295.16595258267,2010-11-05 15:42:20,5252.659428349612,2,31,0.5501165986061096,4.16581916809082,30.224628398585157,29.479685086259103,120.70706850453928,107.44764993777648,0.0001295089750783,0.0939245000481605,0,0,0
10051,350325.1812282084,2010-11-05 15:42:50,5282.674703945233,2,31,0.5499359965324402,4.16938066482544,30.229215094755087,29.479685086259103,120.7261838036688,107.44764993777648,0.0001295089750783,0.0939245000481605,0,0,0
10052,350355.1965274831,2010-11-05 15:43:20,5312.69000321996,2,31,0.5501165986061096,4.172942161560059,30.23380176220324,29.479685086259103,120.74531511011668,107.44764993777648,0.0001295089750783,0.0939245000481605,0,0,0
10053,350385.21180539444,2010-11-05 15:43:50,5342.705281161438,2,31,0.5501165986061096,4.176503658294678,30.238388410387376,29.479685086259103,120.76446255268056,107.44764993777648,0.0001295089750783,0.0939245000481605,0,0,0
10054,350415.2270950502,2010-11-05 15:44:20,5372.720570782068,2,31,0.5501165986061096,4.179903030395508,30.24297491808308,29.479685086259103,120.78362562014296,107.44764993777648,9.70840483205393e-05,0.0939245000481605,0,0,0
10055,350445.24240388884,2010-11-05 15:44:50,5402.735879625681,2,31,0.5501165986061096,4.183626651763916,30.24756158040737,29.479685086259103,120.80280578682148,107.44764993777648,0.0001295089750783,0.0939245000481605,0,0,0
10056,350475.2578218047,2010-11-05 15:45:20,5432.751297546568,2,31,0.5499359965324402,4.187188148498535,30.25214826907189,29.479685086259103,120.82200262175309,107.44764993777648,9.71794142969884e-05,0.0939245000481605,0,0,0
10057,350505.2730068693,2010-11-05 15:45:50,5462.766482716473,2,31,0.5501165986061096,4.190749645233154,30.25673487778074,29.479685086259103,120.84121588091662,107.44764993777648,9.71794142969884e-05,0.0939245000481605,0,0,0
10058,350535.28828287096,2010-11-05 15:46:20,5492.781758632896,2,31,0.550297200679779,4.194634914398193,30.261321507960893,29.479685086259103,120.8604460545902,107.44764993777648,9.71794142969884e-05,0.0939245000481605,0,0,0
10059,350565.30360257166,2010-11-05 15:46:50,5522.797078298522,2,31,0.550297200679779,4.198034286499023,30.26590815653476,29.479685086259103,120.8796931553052,107.44764993777648,9.71794142969884e-05,0.0939245000481605,0,0,0
10060,350579.8971746578,2010-11-05 15:47:04,5537.390650419702,2,31,0.5501165986061096,4.200138568878174,30.268138201525417,29.479685086259103,120.88905728820674,107.44764993777648,0.0001295089750783,0.0939245000481605,0,0,0
10061,350609.903933015,2010-11-05 15:47:35,30.01531436238919,3,31,0.0,4.114339351654053,30.268138201525417,29.479685086259103,120.88905728820674,107.44764993777648,-0.0004208564641885,0.0939245000481605,0,0,0
10062,350639.9194177326,2010-11-05 15:48:05,60.03079908001126,3,31,0.0,4.104140758514404,30.268138201525417,29.479685086259103,120.88905728820674,107.44764993777648,-0.0002265930233988,0.0939245000481605,0,0,0
10063,350669.9345023315,2010-11-05 15:48:35,90.04588367386283,3,31,0.0,4.097826957702637,30.268138201525417,29.479685086259103,120.88905728820674,107.44764993777648,-0.0001295089750783,0.0939245000481605,0,0,0
10064,350699.90292004764,2010-11-05 15:49:05,120.01430140003316,3,31,0.0,4.093617916107178,30.268138201525417,29.479685086259103,120.88905728820674,107.44764993777648,-9.71794142969884e-05,0.0939245000481605,0,0,0
10065,350699.91132903186,2010-11-05 15:49:05,2.601493729e-06,4,31,0.982675850391388,4.199814796447754,30.26813820223553,29.479685086259103,120.8890572911891,107.44764993777648,0.0,0.0939245000481605,0,0,0
10066,350700.8331918333,2010-11-05 15:49:06,0.921865422921061,4,31,0.9322858452796936,4.199653148651123,30.268381733280705,29.479685086259103,120.89008005557356,107.44764993777648,-3.23295607813634e-05,0.0939245000481605,0,0,0
10067,350703.0050452034,2010-11-05 15:49:08,3.093718793064226,4,31,0.8820764422416687,4.199653148651123,30.268927934244303,29.479685086259103,120.892373931862,107.44764993777648,-3.23295607813634e-05,0.0939245000481605,0,0,0
10068,350706.333134767,2010-11-05 15:49:11,6.421808356628661,4,31,0.832047700881958,4.199653148651123,30.269719222804767,29.479685086259103,120.895697123708,107.44764993777648,-3.23295607813634e-05,0.0939245000481605,0,0,0
10069,350710.9424301022,2010-11-05 15:49:16,11.031103716970438,4,31,0.7818382978439331,4.199653148651123,30.270751110228453,29.479685086259103,120.90003077039424,107.44764993777648,0.0,0.0939245000481605,0,0,0
10070,350716.98928931315,2010-11-05 15:49:22,17.077962987996962,4,31,0.731628954410553,4.199653148651123,30.272020582389057,29.479685086259103,120.90536218239404,107.44764993777648,0.0,0.0939245000481605,0,0,0
10071,350724.9266659914,2010-11-05 15:49:30,25.015339606170787,4,31,0.6814195513725281,4.199814796447754,30.27357633614588,29.479685086259103,120.91189592192778,107.44764993777648,3.23295607813634e-05,0.0939245000481605,0,0,0
10072,350735.58281040733,2010-11-05 15:49:40,35.671484001989576,4,31,0.6313908100128174,4.199491024017334,30.275516398579256,29.479685086259103,120.92004364958368,107.44764993777648,-3.24249267578125e-05,0.0939245000481605,0,0,0
10073,350750.8169985145,2010-11-05 15:49:56,50.905672109226494,4,31,0.5813620090484619,4.199653148651123,30.278076484264712,29.479685086259103,120.93079531136476,107.44764993777648,0.0,0.0939245000481605,0,0,0
10074,350774.5043512863,2010-11-05 15:50:19,74.59302488095283,4,31,0.5313332676887512,4.199653148651123,30.28172497939167,29.479685086259103,120.9461180309904,107.44764993777648,0.0,0.0939245000481605,0,0,0
10075,350816.6756455045,2010-11-05 15:51:02,116.76431909420052,4,31,0.4813044667243957,4.199653148651123,30.28762858466617,29.479685086259103,120.97091162992022,107.44764993777648,-3.23295607813634e-05,0.0939245000481605,0,0,0
10076,350891.14358850184,2010-11-05 15:52:16,191.23226209152847,4,31,0.4312756955623626,4.199814796447754,30.29702811360624,29.479685086259103,121.01038711902484,107.44764993777648,3.23295607813634e-05,0.0939245000481605,0,0,0
10077,350997.1892752206,2010-11-05 15:54:02,297.2779488102996,4,31,0.381246954202652,4.199653148651123,30.308975562344383,29.479685086259103,121.06056317183368,107.44764993777648,0.0,0.0939245000481605,0,0,0
10078,351127.6878490426,2010-11-05 15:56:13,427.77652263226287,4,31,0.3312181830406189,4.199491024017334,30.32187663029821,29.479685086259103,121.11474422123683,107.44764993777648,-3.24249267578125e-05,0.0939245000481605,0,0,0
10079,351282.3111498697,2010-11-05 15:58:47,582.3998234843899,4,31,0.2811894118785858,4.199653148651123,30.335008724940277,29.479685086259103,121.1698954985455,107.44764993777648,-3.23295607813634e-05,0.0939245000481605,0,0,0
10080,351466.40291362884,2010-11-05 16:01:51,766.4915872134675,4,31,0.2311606258153915,4.199491024017334,30.34808378136651,29.479685086259103,121.22480726201955,107.44764993777648,-6.47544875391759e-05,0.0939245000481605,0,0,0
10081,351700.22865562903,2010-11-05 16:05:45,1000.3173292337412,4,31,0.1811318546533584,4.199814796447754,30.36142635463456,29.479685086259103,121.28084249081547,107.44764993777648,0.0,0.0939245000481605,0,0,0
10082,352011.63138957607,2010-11-05 16:10:56,1311.7200631557232,4,31,0.1311030983924865,4.199814796447754,30.374852211198093,29.479685086259103,121.33722745707692,107.44764993777648,0.0,0.0939245000481605,0,0,0
10083,352507.81331716804,2010-11-05 16:19:13,1807.9019907827617,4,31,0.0810743197798729,4.199653148651123,30.389230193252185,29.479685086259103,121.39761111036458,107.44764993777648,-3.23295607813634e-05,0.0939245000481605,0,0,0
10084,353068.40098454506,2010-11-05 16:28:33,2368.4896581447533,4,31,0.0498289167881011,4.199653148651123,30.39925472918648,29.479685086259103,121.43971149723508,107.44764993777648,0.0,0.0939245000481605,0,0,0
10085,353098.4037216711,2010-11-05 16:29:03,30.015261029261502,5,31,0.0,4.191882610321045,30.39925472918648,29.479685086259103,121.43971149723508,107.44764993777648,-3.24249267578125e-05,0.0939245000481605,0,0,0
10086,353128.4033919736,2010-11-05 16:29:33,60.01493135172025,5,31,0.0,4.190587520599365,30.39925472918648,29.479685086259103,121.43971149723508,107.44764993777648,-3.24249267578125e-05,0.0939245000481605,0,0,0
10087,353128.594671168,2010-11-05 16:29:34,0.187502625399555,6,31,-1.9243103452026844e-05,4.190587520599365,30.39925472918648,29.47968508726136,121.43971149723508,107.44764994197652,0.0,0.0948198437690734,0,0,0
10088,353133.4227459254,2010-11-05 16:29:39,5.015577377762184,6,31,0.0008838032954372,4.190749645233154,30.399255598202632,29.479685087345345,121.43971513907336,107.44764994232844,0.0,0.0948198437690734,0,0,0
10089,353163.4263572605,2010-11-05 16:30:09,30.01542213640973,7,31,-1.099568486213684,4.014132022857666,30.399255598202632,29.488853802936458,121.43971513907336,107.48464906674542,-0.0009065627818927,0.0948198437690734,0,0,0
10090,353193.4415268666,2010-11-05 16:30:39,60.03059174246484,7,31,-1.099929690361023,3.9874210357666016,30.399255598202632,29.498022405444125,121.43971513907336,107.52132175075684,-0.0006151676061563,0.0948198437690734,0,0,0
10091,353223.45682928915,2010-11-05 16:31:09,90.04589419011302,7,31,-1.0997490882873535,3.968966007232666,30.399255598202632,29.507190949952435,121.43971513907336,107.55779283809268,-0.0004532813909463,0.0948198437690734,0,0,0
10092,353253.4720913761,2010-11-05 16:31:39,120.06115626197702,7,31,-1.0997490882873535,3.9547200202941895,30.399255598202632,29.516359401199587,121.43971513907336,107.59411553913124,-0.0003561496851034,0.0948198437690734,0,0,0
10093,353283.4873956081,2010-11-05 16:32:09,150.07646048405442,7,31,-1.0997490882873535,3.9425785541534415,30.399255598202632,29.525527901180126,121.43971513907336,107.63031771520298,-0.0002913951757363,0.0948198437690734,0,0,0
10094,353313.5027118201,2010-11-05 16:32:39,180.09177668603553,7,31,-1.099568486213684,3.931732177734375,30.399255598202632,29.5346963666852,121.43971513907336,107.66641433550797,-0.0002913951757363,0.0948198437690734,0,0,0
10095,353343.51813094405,2010-11-05 16:33:09,210.10719581995056,7,31,-1.099568486213684,3.921695232391357,30.399255598202632,29.543864856231018,121.43971513907336,107.70241605729396,-0.0002913951757363,0.0948198437690734,0,0,0
10096,353373.5332776479,2010-11-05 16:33:39,240.12234255391343,7,31,-1.099568486213684,3.912144184112549,30.399255598202632,29.553033236956427,121.43971513907336,107.73832729650992,-0.0002590179501567,0.0948198437690734,0,0,0
10097,353403.5485798199,2010-11-05 16:34:09,270.1376446957983,7,31,-1.0997490882873535,3.902916669845581,30.399255598202632,29.562201617920717,121.43971513907336,107.77415294803556,-0.0002590179501567,0.0948198437690734,0,0,0
10098,353433.56386886904,2010-11-05 16:34:39,300.152933745002,7,31,-1.099568486213684,3.894498586654663,30.399255598202632,29.571370029989392,121.43971513907336,107.80989703863544,-0.0001618862152099,0.0948198437690734,0,0,0
10099,353463.5791715122,2010-11-05 16:35:09,330.1682363881381,7,31,-1.099568486213684,3.885756731033325,30.399255598202632,29.580538417856378,121.43971513907336,107.84556249677068,-0.0001942634553415,0.0948198437690734,0,0,0
10100,353493.59446449624,2010-11-05 16:35:39,360.1835293721636,7,31,-1.0993878841400146,3.8773386478424072,30.399255598202632,29.589706848007143,121.43971513907336,107.881150374114,-0.0002266406954731,0.0948198437690734,0,0,0
10101,353523.6097762923,2010-11-05 16:36:09,390.19884116814666,7,31,-1.099568486213684,3.869082450866699,30.399255598202632,29.59887525431179,121.43971513907336,107.91666143395788,-0.0001942634553415,0.0948198437690734,0,0,0
10102,353553.62520597246,2010-11-05 16:36:39,420.21427085339946,7,31,-1.099568486213684,3.860988140106201,30.399255598202632,29.608043726003235,121.43971513907336,107.952097286583,-0.0001618862152099,0.0948198437690734,0,0,0
10103,353583.64035935805,2010-11-05 16:37:09,450.2294242439782,7,31,-1.0997490882873535,3.852893829345703,30.399255598202632,29.617212099364497,121.43971513907336,107.98745878353998,-0.0002266406954731,0.0948198437690734,0,0,0
10104,353613.6556442469,2010-11-05 16:37:39,480.2447091277844,7,31,-1.099568486213684,3.844961404800415,30.399255598202632,29.62638051842424,121.43971513907336,108.0227473803898,-0.0002266406954731,0.0948198437690734,0,0,0
10105,353643.67114216246,2010-11-05 16:38:09,510.260207038338,7,31,-1.099929690361023,3.837190866470337,30.399255598202632,29.63554909641903,121.43971513907336,108.05796473969389,-0.0002266406954731,0.0948198437690734,0,0,0
10106,353673.6862564053,2010-11-05 16:38:39,540.2753213112732,7,31,-1.099568486213684,3.829582452774048,30.399255598202632,29.644717506867927,121.43971513907336,108.09311052573148,-0.0001295089750783,0.0948198437690734,0,0,0
10107,353703.70155176026,2010-11-05 16:39:09,570.2906166411543,7,31,-1.099568486213684,3.82197380065918,30.399255598202632,29.653885987088,121.43971513907336,108.12818688051296,-0.0001942634553415,0.0948198437690734,0,0,0
10108,353733.71724368504,2010-11-05 16:39:39,600.3063085710099,7,31,-1.099568486213684,3.814688920974731,30.399255598202632,29.66305457336538,121.43971513907336,108.16319550913286,-0.0001942634553415,0.0948198437690734,0,0,0
10109,353763.7321367208,2010-11-05 16:40:09,630.3212016217404,7,31,-1.099568486213684,3.807404041290283,30.399255598202632,29.672222868109277,121.43971513907336,108.19813567709826,-0.0001942634553415,0.0948198437690734,0,0,0
10110,353793.74744782003,2010-11-05 16:40:39,660.3365127209843,7,31,-1.099568486213684,3.800281047821045,30.399255598202632,29.68139133112203,121.43971513907336,108.23301083538728,-0.0001942634553415,0.0948198437690734,0,0,0
10111,353823.762740774,2010-11-05 16:41:09,690.3518056699222,7,31,-1.099568486213684,3.7933199405670166,30.399255598202632,29.690559773156306,121.43971513907336,108.26782099055616,-0.0001618862152099,0.0948198437690734,0,0,0
10112,353853.778137131,2010-11-05 16:41:39,720.3672020119452,7,31,-1.0997490882873535,3.7861969470977774,30.399255598202632,29.6997282711895,121.43971513907336,108.30256721006144,-0.0001942634553415,0.0948198437690734,0,0,0
10113,353883.79332632094,2010-11-05 16:42:09,750.3823911968723,7,31,-1.099568486213684,3.77972149848938,30.399255598202632,29.708896718202247,121.43971513907336,108.33725137865584,-0.0001942634553415,0.0948198437690734,0,0,0
10114,353913.80860127,2010-11-05 16:42:39,780.3976661709421,7,31,-1.0997490882873535,3.773407936096192,30.399255598202632,29.71806516453218,121.43971513907336,108.37187633624312,-0.0001618862152099,0.0948198437690734,0,0,0
10115,353943.82392316114,2010-11-05 16:43:09,810.4129880370617,7,31,-1.099568486213684,3.766770601272583,30.399255598202632,29.727233596010127,121.43971513907336,108.40644203603044,-0.0001942634553415,0.0948198437690734,0,0,0
10116,353973.8392081502,2010-11-05 16:43:39,840.4282730261307,7,31,-1.0992072820663452,3.7607808113098153,30.399255598202632,29.7364020903283,121.43971513907336,108.44094967306924,-0.0001295089750783,0.0948198437690734,0,0,0
10117,354003.85448467813,2010-11-05 16:44:09,870.4435495590917,7,31,-1.0997490882873535,3.754305362701416,30.399255598202632,29.745571057327183,121.43971513907336,108.47540140755736,-0.0001295089750783,0.0948198437690734,0,0,0
10118,354033.8724251207,2010-11-05 16:44:39,900.4614900918061,7,31,-1.0997490882873535,3.748477697372437,30.399255598202632,29.75474118269405,121.43971513907336,108.50980140054222,-0.0001618862152099,0.0948198437690734,0,0,0
10119,354063.8853347104,2010-11-05 16:45:09,930.47439961635,7,31,-1.0997490882873535,3.742487907409668,30.399255598202632,29.76390976297344,121.43971513907336,108.54414159099824,-0.0001618862152099,0.0948198437690734,0,0,0
10120,354093.90037524427,2010-11-05 16:45:39,960.4894401251584,7,31,-1.099568486213684,3.7368218898773193,30.399255598202632,29.773078979624568,121.43971513907336,108.57843036686792,-0.0001295089750783,0.0948198437690734,0,0,0
10121,354123.915800318,2010-11-05 16:46:09,990.504865193888,7,31,-1.099568486213684,3.7309939861297607,30.399255598202632,29.78224781310591,121.43971513907336,108.6126648170366,-0.0001618862152099,0.0948198437690734,0,0,0
10122,354153.93098810443,2010-11-05 16:46:39,1020.520052980324,7,31,-1.0997490882873535,3.725166082382202,30.399255598202632,29.79141622182238,121.43971513907336,108.64684573619984,-0.0001942634553415,0.0948198437690734,0,0,0
10123,354183.94627219124,2010-11-05 16:47:09,1050.5353370972157,7,31,-1.099568486213684,3.7198238372802734,30.399255598202632,29.80058473419529,121.43971513907336,108.6809755885428,-0.0001618862152099,0.0948198437690734,0,0,0
10124,354213.9616821974,2010-11-05 16:47:39,1080.5507470732714,7,31,-1.099568486213684,3.714319705963135,30.399255598202632,29.80975326277203,121.43971513907336,108.7150554376992,-0.0001295089750783,0.0948198437690734,0,0,0
10125,354243.97686813923,2010-11-05 16:48:09,1110.5659330151027,7,31,-1.0997490882873535,3.708977460861206,30.399255598202632,29.818921744282523,121.43971513907336,108.74908623326914,-0.0001618862152099,0.0948198437690734,0,0,0
10126,354273.992172667,2010-11-05 16:48:39,1140.581237542944,7,31,-1.0993878841400146,3.7037971019744873,30.399255598202632,29.828090262798987,121.43971513907336,108.7830683343049,-0.0001295089750783,0.0948198437690734,0,0,0
10127,354304.0074629142,2010-11-05 16:49:09,1170.5965277901378,7,31,-1.099568486213684,3.698616743087769,30.399255598202632,29.8372588386398,121.43971513907336,108.817001839712,-9.713172767078504e-05,0.0948198437690734,0,0,0
10128,354334.02273745724,2010-11-05 16:49:39,1200.6118023331314,7,31,-1.099568486213684,3.69327449798584,30.399255598202632,29.846427398277857,121.43971513907336,108.85088794160568,-0.0001295089750783,0.0948198437690734,0,0,0
10129,354364.0381801349,2010-11-05 16:50:09,1230.6272450108156,7,31,-1.0997490882873535,3.688256025314331,30.399255598202632,29.85559600798018,121.43971513907336,108.88472769061208,-0.0001295089750783,0.0948198437690734,0,0,0
10130,354394.0533385029,2010-11-05 16:50:39,1260.6424033788187,7,31,-1.0997490882873535,3.6832375526428223,30.399255598202632,29.864764486838016,121.43971513907336,108.918520474214,-9.713172767078504e-05,0.0948198437690734,0,0,0
10131,354424.0687585541,2010-11-05 16:51:09,1290.6578234300234,7,31,-1.099568486213684,3.678380966186523,30.399255598202632,29.87393310064361,121.43971513907336,108.95226821325046,-9.713172767078504e-05,0.0948198437690734,0,0,0
10132,354454.08398070635,2010-11-05 16:51:39,1320.6730456123169,7,31,-1.099568486213684,3.673362493515015,30.399255598202632,29.8831016488867,121.43971513907336,108.98597062908964,-0.0001295089750783,0.0948198437690734,0,0,0
10133,354484.0993756699,2010-11-05 16:52:09,1350.6884405558492,7,31,-1.099568486213684,3.668668031692505,30.399255598202632,29.892270287159945,121.43971513907336,109.01962905328318,-0.0001295089750783,0.0948198437690734,0,0,0
10134,354514.11450893525,2010-11-05 16:52:39,1380.703573841242,7,31,-1.0997490882873535,3.663973331451416,30.399255598202632,29.901438831276497,121.43971513907336,109.05324374843272,-0.0001295089750783,0.0948198437690734,0,0,0
10135,354544.1301663239,2010-11-05 16:53:09,1410.7192312198526,7,31,-1.099929690361023,3.659278631210327,30.399255598202632,29.910607522889293,121.43971513907336,109.08681663315346,-0.0001295089750783,0.0948198437690734,0,0,0
10136,354574.1452453388,2010-11-05 16:53:39,1440.7343102397908,7,31,-1.1001102924346924,3.6545839309692383,30.399255598202632,29.91977607434453,121.43971513907336,109.12034676675404,-0.0001942634553415,0.0948198437690734,0,0,0
10137,354604.16052290937,2010-11-05 16:54:09,1470.749587790292,7,31,-1.099568486213684,3.650213003158569,30.399255598202632,29.928944644056116,121.43971513907336,109.1538350025256,-0.0001295089750783,0.0948198437690734,0,0,0
10138,354634.17570353294,2010-11-05 16:54:39,1500.764768438911,7,31,-1.099568486213684,3.645842075347901,30.399255598202632,29.938113189306563,121.43971513907336,109.1872813550804,-6.47544875391759e-05,0.0948198437690734,0,0,0
10139,354664.1910235444,2010-11-05 16:55:09,1530.780088420326,7,31,-1.0997490882873535,3.641147375106812,30.399255598202632,29.94728173296514,121.43971513907336,109.22068639687798,-0.0001295089750783,0.0948198437690734,0,0,0
10140,354694.206280288,2010-11-05 16:55:39,1560.795345193965,7,31,-1.099568486213684,3.6366145610809326,30.399255598202632,29.956450275365373,121.43971513907336,109.25405064735348,-0.0001295089750783,0.0948198437690734,0,0,0
10141,354724.2215789712,2010-11-05 16:56:09,1590.8106438471414,7,31,-1.099568486213684,3.632567405700684,30.399255598202632,29.96561877365023,121.43971513907336,109.2873750101876,-0.0001295089750783,0.0948198437690734,0,0,0
10142,354754.236884672,2010-11-05 16:56:39,1620.8259495779853,7,31,-1.099568486213684,3.6283583641052246,30.399255598202632,29.974787353421046,121.43971513907336,109.32066132004188,-0.0001295089750783,0.0948198437690734,0,0,0
10143,354784.25218689407,2010-11-05 16:57:09,1650.841251769995,7,31,-1.099568486213684,3.6241493225097656,30.399255598202632,29.983955866080187,121.43971513907336,109.35390958847869,-0.0001618862152099,0.0948198437690734,0,0,0
10144,354814.26759211323,2010-11-05 16:57:39,1680.8566569891768,7,31,-1.0997490882873535,3.620264053344727,30.399255598202632,29.99312439988714,121.43971513907336,109.38712049741792,-9.713172767078504e-05,0.0948198437690734,0,0,0
10145,354844.2827695338,2010-11-05 16:58:09,1710.8718344197632,7,31,-1.099568486213684,3.616378784179688,30.399255598202632,30.00229296648541,121.43971513907336,109.42029517810444,-9.713172767078504e-05,0.0948198437690734,0,0,0
10146,354874.2980628687,2010-11-05 16:58:39,1740.8871277446394,7,31,-1.099568486213684,3.6126554012298575,30.399255598202632,30.011461460048096,121.43971513907336,109.45343431573748,-6.47544875391759e-05,0.0948198437690734,0,0,0
10147,354904.3133622287,2010-11-05 16:59:10,1770.9024271045805,7,31,-1.0997490882873535,3.6087701320648193,30.399255598202632,30.02062994577232,121.43971513907336,109.4865388788316,-9.713172767078504e-05,0.0948198437690734,0,0,0
10148,354934.32866789936,2010-11-05 16:59:40,1800.9177327752736,7,31,-1.099568486213684,3.6050467491149902,30.399255598202632,30.029798445716025,121.43971513907336,109.51960945099944,-0.0001295089750783,0.0948198437690734,0,0,0
10149,354964.34395228693,2010-11-05 17:00:10,1830.933017172866,7,31,-1.0997490882873535,3.601647138595581,30.399255598202632,30.03896700562721,121.43971513907336,109.55264717157928,-6.47544875391759e-05,0.0948198437690734,0,0,0
10150,354994.35926343134,2010-11-05 17:00:40,1860.9483283071977,7,31,-1.0997490882873535,3.598247528076172,30.399255598202632,30.04813560869529,121.43971513907336,109.58565311777562,-6.47544875391759e-05,0.0948198437690734,0,0,0
10151,355024.37467474065,2010-11-05 17:01:10,1890.9637396165813,7,31,-1.0997490882873535,3.5946860313415527,30.399255598202632,30.057304240455647,121.43971513907336,109.61862778467734,-9.713172767078504e-05,0.0948198437690734,0,0,0
10152,355054.38983413624,2010-11-05 17:01:40,1920.9788990121497,7,31,-1.0997490882873535,3.5916104316711426,30.399255598202632,30.066472776380188,121.43971513907336,109.6515719057555,-6.47544875391759e-05,0.0948198437690734,0,0,0
10153,355084.40512948623,2010-11-05 17:02:10,1950.9941943620809,7,31,-1.099568486213684,3.588372707366944,30.399255598202632,30.07564130214621,121.43971513907336,109.68448602614944,-9.713172767078504e-05,0.0948198437690734,0,0,0
10154,355114.4204179589,2010-11-05 17:02:40,1981.009482859908,7,31,-1.099568486213684,3.585134983062744,30.399255598202632,30.084809890886497,121.43971513907336,109.71737123923222,-6.47544875391759e-05,0.0948198437690734,0,0,0
10155,355144.43572703813,2010-11-05 17:03:10,2011.024791914047,7,31,-1.099568486213684,3.582059144973755,30.399255598202632,30.093978368000595,121.43971513907336,109.75022712267672,-6.47544875391759e-05,0.0948198437690734,0,0,0
10156,355174.4510134207,2010-11-05 17:03:40,2041.0400782965944,7,31,-1.0997490882873535,3.5789833068847656,30.399255598202632,30.10314687890855,121.43971513907336,109.7830544145893,-3.237724376958795e-05,0.0948198437690734,0,0,0
10157,355204.4663280437,2010-11-05 17:04:10,2071.055392919634,7,31,-1.0997490882873535,3.5759074687957764,30.399255598202632,30.112315447488378,121.43971513907336,109.8158539925265,-6.47544875391759e-05,0.0948198437690734,0,0,0
10158,355234.4816128373,2010-11-05 17:04:40,2101.070677718227,7,31,-1.099568486213684,3.572831630706787,30.399255598202632,30.121483955577347,121.43971513907336,109.84862549444216,-6.47544875391759e-05,0.0948198437690734,0,0,0
10159,355264.4969289441,2010-11-05 17:05:10,2131.0859938199583,7,31,-1.099929690361023,3.569593906402588,30.399255598202632,30.13065253422249,121.43971513907336,109.881369503166,-0.0001295089750783,0.0948198437690734,0,0,0
10160,355294.51219603844,2010-11-05 17:05:40,2161.101260944434,7,31,-1.0997490882873535,3.5668418407440186,30.399255598202632,30.1398211280684,121.43971513907336,109.91408637767108,-6.47544875391759e-05,0.0948198437690734,0,0,0
10161,355324.5274941703,2010-11-05 17:06:10,2191.1165590462347,7,31,-1.0997490882873535,3.56360411643982,30.399255598202632,30.14898968908704,121.43971513907336,109.9467757242728,-0.0001618862152099,0.0948198437690734,0,0,0
10162,355354.5427840917,2010-11-05 17:06:40,2221.13184899769,7,31,-1.099568486213684,3.56085205078125,30.399255598202632,30.15815822003957,121.43971513907336,109.97943778867324,-9.713172767078504e-05,0.0948198437690734,0,0,0
10163,355384.55809462955,2010-11-05 17:07:10,2251.147159505458,7,31,-1.0997490882873535,3.5579380989074707,30.399255598202632,30.1673267198,121.43971513907336,110.01207208936384,-9.713172767078504e-05,0.0948198437690734,0,0,0
10164,355414.57339455595,2010-11-05 17:07:40,2281.1624594318127,7,31,-1.099568486213684,3.5550241470336914,30.399255598202632,30.17649527727468,121.43971513907336,110.04467882070026,-6.47544875391759e-05,0.0948198437690734,0,0,0
10165,355444.5887963967,2010-11-05 17:08:10,2311.1778612725607,7,31,-1.099568486213684,3.551786422729492,30.399255598202632,30.18566387289497,121.43971513907336,110.07725735470842,-6.47544875391759e-05,0.0948198437690734,0,0,0
10166,355474.6040011906,2010-11-05 17:08:40,2341.1930660664502,7,31,-1.099568486213684,3.548710584640503,30.399255598202632,30.19483218177589,121.43971513907336,110.10980667167522,-3.237724376958795e-05,0.0948198437690734,0,0,0
10167,355504.61959910573,2010-11-05 17:09:10,2371.208664001681,7,31,-1.0997490882873535,3.545472860336304,30.399255598202632,30.204000505641915,121.43971513907336,110.14232755431128,-9.713172767078504e-05,0.0948198437690734,0,0,0
10168,355534.634556467,2010-11-05 17:09:40,2401.2236213428905,7,31,-1.099568486213684,3.5422351360321045,30.399255598202632,30.21316861147086,121.43971513907336,110.17481836396458,-9.713172767078504e-05,0.0948198437690734,0,0,0
10169,355564.6498504485,2010-11-05 17:10:10,2431.2389153494687,7,31,-1.0997490882873535,3.5389974117279053,30.399255598202632,30.22233681328693,121.43971513907336,110.20727990269356,-9.713172767078504e-05,0.0948198437690734,0,0,0
10170,355594.6651533122,2010-11-05 17:10:40,2461.2542181780677,7,31,-1.099568486213684,3.535597801208496,30.399255598202632,30.23150529219312,121.43971513907336,110.23971137423548,-9.713172767078504e-05,0.0948198437690734,0,0,0
10171,355624.68047784496,2010-11-05 17:11:10,2491.2695427208687,7,31,-1.099568486213684,3.532198190689087,30.399255598202632,30.24067391394341,121.43971513907336,110.27211184904937,-6.47544875391759e-05,0.0948198437690734,0,0,0
10172,355654.69576431275,2010-11-05 17:11:40,2521.284829178604,7,31,-1.0997490882873535,3.528474807739258,30.399255598202632,30.24984248247648,121.43971513907336,110.3044797942064,-9.713172767078504e-05,0.0948198437690734,0,0,0
10173,355684.7110316878,2010-11-05 17:12:10,2551.30009656373,7,31,-1.0997490882873535,3.5247514247894287,30.399255598202632,30.25901107793389,121.43971513907336,110.33681387457608,-9.713172767078504e-05,0.0948198437690734,0,0,0
10174,355714.72633132845,2010-11-05 17:12:40,2581.3153962093843,7,31,-1.0997490882873535,3.52070426940918,30.399255598202632,30.268179611245287,121.43971513907336,110.36911240177514,-0.0001295089750783,0.0948198437690734,0,0,0
10175,355744.7416289741,2010-11-05 17:13:10,2611.330693845021,7,31,-1.0997490882873535,3.5166571140289307,30.399255598202632,30.277348160598784,121.43971513907336,110.4013743752722,-0.0001295089750783,0.0948198437690734,0,0,0
10176,355774.75712094986,2010-11-05 17:13:40,2641.3461859210106,7,31,-1.099568486213684,3.5126099586486816,30.399255598202632,30.286516782064577,121.43971513907336,110.43359897269175,-9.713172767078504e-05,0.0948198437690734,0,0,0
10177,355804.77220673667,2010-11-05 17:14:10,2671.36127160759,7,31,-1.0997490882873535,3.508077383041382,30.399255598202632,30.29568526914329,121.43971513907336,110.4657834691978,-0.0001295089750783,0.0948198437690734,0,0,0
10178,355834.7875225577,2010-11-05 17:14:40,2701.376587423608,7,31,-1.099568486213684,3.503220796585083,30.399255598202632,30.304853874809737,121.43971513907336,110.49792613962136,-0.0001618862152099,0.0948198437690734,0,0,0
10179,355864.80280439893,2010-11-05 17:15:10,2731.3918692648185,7,31,-1.099568486213684,3.498364210128784,30.399255598202632,30.314022404093222,121.43971513907336,110.5300235925746,-0.0001295089750783,0.0948198437690734,0,0,0
10180,355894.8180984256,2010-11-05 17:15:40,2761.407163296459,7,31,-1.099568486213684,3.492860078811645,30.399255598202632,30.323190937350883,121.43971513907336,110.56207258257956,-0.0001295089750783,0.0948198437690734,0,0,0
10181,355924.8333820964,2010-11-05 17:16:10,2791.422446982275,7,31,-1.0997490882873535,3.486708402633667,30.399255598202632,30.33235943377803,121.43971513907336,110.59406808797148,-0.0001618862152099,0.0948198437690734,0,0,0
10182,355954.84921771486,2010-11-05 17:16:40,2821.438282590774,7,31,-1.099568486213684,3.4797472953796387,30.399255598202632,30.34152809813072,121.43971513907336,110.62600483804762,-0.0001942634553415,0.0948198437690734,0,0,0
10183,355984.8509768664,2010-11-05 17:17:10,2851.4400418475348,7,31,-1.0997490882873535,3.4718148708343506,30.399255598202632,30.35069245198194,121.43971513907336,110.65785915479216,-0.0001942634553415,0.0948198437690734,0,0,0
10184,356014.86391417525,2010-11-05 17:17:40,2881.4529791664577,7,31,-1.0997490882873535,3.4629111289978027,30.399255598202632,30.35986020271799,121.43971513907336,110.68964872281116,-0.0002590179501567,0.0948198437690734,0,0,0
10185,356044.87893309013,2010-11-05 17:18:10,2911.467997966077,7,31,-1.099568486213684,3.4522266387939453,30.399255598202632,30.369028653490226,121.43971513907336,110.72135131404778,-0.0003237724304199,0.0948198437690734,0,0,0
10186,356074.8943167054,2010-11-05 17:18:40,2941.4833816063942,7,31,-1.099568486213684,3.4394376277923584,30.399255598202632,30.378197251879413,121.43971513907336,110.75294739694216,-0.0003885269106831,0.0948198437690734,0,0,0
10187,356104.9095077099,2010-11-05 17:19:10,2971.498572590813,7,31,-1.0997490882873535,3.4235730171203613,30.399255598202632,30.38736574774629,121.43971513907336,110.78441242477004,-0.0004856586456298,0.0948198437690734,0,0,0
10188,356134.9248192653,2010-11-05 17:19:40,3001.513884131158,7,31,-1.099568486213684,3.403822898864746,30.399255598202632,30.396534336594616,121.43971513907336,110.81571574222306,-0.0006151676061563,0.0948198437690734,0,0,0
10189,356164.9402170309,2010-11-05 17:20:10,3031.5292819167844,7,31,-1.099929690361023,3.3780829906463623,30.399255598202632,30.405702860866658,121.43971513907336,110.84681097018505,-0.0007446765666827,0.0948198437690734,0,0,0
10190,356194.95544913295,2010-11-05 17:20:40,3061.544513998789,7,31,-1.099929690361023,3.34311580657959,30.399255598202632,30.414871346395483,121.43971513907336,110.87763081275791,-0.0011008263099938,0.0948198437690734,0,0,0
10191,356224.9707151196,2010-11-05 17:21:10,3091.5597800155,7,31,-1.0997490882873535,3.2955212593078613,30.399255598202632,30.42403993294573,121.43971513907336,110.90807690131108,-0.0014569759368896,0.0948198437690734,0,0,0
10192,356254.9862353508,2010-11-05 17:21:40,3121.5753002367446,7,31,-1.099568486213684,3.2278530597686768,30.399255598202632,30.433208495681185,121.43971513907336,110.93800043513528,-0.0021368979942053,0.0948198437690734,0,0,0
10193,356285.00126982457,2010-11-05 17:22:10,3151.5903347155013,7,31,-1.0997490882873535,3.12910270690918,30.399255598202632,30.442376999378503,121.43971513907336,110.96717464972876,-0.0031405924819409,0.0948198437690734,0,0,0
10194,356315.01656709926,2010-11-05 17:22:40,3181.605631965175,7,31,-1.099568486213684,2.9613890647888184,30.399255598202632,30.4515455840283,121.43971513907336,110.995186043133,-0.006119298748672,0.0948198437690734,0,0,0
10195,356333.31325243576,2010-11-05 17:22:59,3199.9023173116743,7,31,-1.099568486213684,2.761136531829834,30.399255598202632,30.457134533663787,121.43971513907336,111.01122650925008,-0.0105225564911961,0.0948198437690734,0,0,0
10196,356337.7350712308,2010-11-05 17:23:03,3204.324136101654,7,31,-1.0993878841400146,2.699943780899048,30.399255598202632,30.458485237565316,121.43971513907336,111.01491490764629,-0.0111053464934229,0.0948198437690734,0,0,0
10197,356397.7397575212,2010-11-05 17:24:03,60.012494854849216,8,31,0.0,3.313490629196167,30.399255598202632,30.458485237565316,121.43971513907336,111.01491490764629,0.0012627125252038,0.0948198437690734,0,0,0
10198,356397.92005869333,2010-11-05 17:24:03,0.187617181348828,9,31,-1.9243103452026844e-05,3.313652515411377,30.399255598202632,30.458485238568183,121.43971513907336,111.01491491096944,0.0,0.0947341993451118,0,0,0
10199,356402.7325817313,2010-11-05 17:24:08,5.000140274377195,9,31,0.0003419754502829,3.321099281311035,30.39925638863852,30.45848523873686,121.43971776176998,111.01491491152876,0.0010684489971026,0.0947341993451118,0,0,0
