Data_Point,Test_Time(s),Date_Time,Step_Time(s),Step_Index,Cycle_Index,Current(A),Voltage(V),Charge_Capacity(Ah),Discharge_Capacity(Ah),Charge_Energy(Wh),Discharge_Energy(Wh),dV/dt(V/s),Internal_Resistance(Ohm),Is_FC_Data,AC_Impedance(Ohm),ACI_Phase_Angle(Deg)
12181,425335.9076194231,2010-11-06 12:33:08,30.01535397627154,1,38,0.0,3.330650568008423,36.29261482125818,36.35719075759464,144.9583056665532,132.5565209509338,0.0007122993702068,0.0931989923119545,0,0,0
12182,425365.9228407582,2010-11-06 12:33:38,60.030575311450505,1,38,0.0,3.353638172149658,36.29261482125818,36.35719075759464,144.9583056665532,132.5565209509338,0.0005503654247149,0.0931989923119545,0,0,0
12183,425395.93822097,2010-11-06 12:34:09,90.04595552822238,1,38,0.0,3.371121883392334,36.29261482125818,36.35719075759464,144.9583056665532,132.5565209509338,0.0004209041653666,0.0931989923119545,0,0,0
12184,425425.9066888664,2010-11-06 12:34:38,120.0144234196128,1,38,0.0,3.38504409790039,36.29261482125818,36.35719075759464,144.9583056665532,132.5565209509338,0.0003237724304199,0.0931989923119545,0,0,0
12185,425455.9302424482,2010-11-06 12:35:09,30.015484817872306,2,38,0.5501165986061096,3.548548698425293,36.29720177891072,36.35719075759464,144.9744008169571,132.5565209509338,0.0018131255637854,0.0931989923119545,0,0,0
12186,425485.9454546405,2010-11-06 12:35:39,60.030697010229375,2,38,0.550297200679779,3.6029422283172607,36.3017887064852,36.35719075759464,144.99080882874583,132.5565209509338,0.0012950897216796,0.0931989923119545,0,0,0
12187,425515.96093651606,2010-11-06 12:36:09,90.04617888575713,2,38,0.5501165986061096,3.642928123474121,36.30637570787575,36.35719075759464,145.0074305470824,132.5565209509338,0.0009713172912597,0.0931989923119545,0,0,0
12188,425545.9763128682,2010-11-06 12:36:39,120.06155524289476,2,38,0.5501165986061096,3.6746575832366943,36.31096272021191,36.35719075759464,145.02421620667556,132.5565209509338,0.0007770061492919,0.0931989923119545,0,0,0
12189,425575.99155911553,2010-11-06 12:37:09,150.07680148524588,2,38,0.5501165986061096,3.700721263885498,36.3155495826045,36.35719075759464,145.04113360699563,132.5565209509338,0.0006151676061563,0.0931989923119545,0,0,0
12190,425606.0069955727,2010-11-06 12:37:39,180.09223794240236,2,38,0.5501165986061096,3.7230615615844727,36.32013647569661,36.35719075759464,145.05816138302453,132.5565209509338,0.0005504131549969,0.0931989923119545,0,0,0
12191,425636.0222258151,2010-11-06 12:38:09,210.1074681848152,2,38,0.5501165986061096,3.741516590118408,36.3247234326841,36.35719075759464,145.07528208614335,132.5565209509338,0.0004856586456298,0.0931989923119545,0,0,0
12192,425666.0375848941,2010-11-06 12:38:39,240.12282726382395,2,38,0.5499359965324402,3.7557623386383057,36.32931027693389,36.35719075759464,145.09247841945492,132.5565209509338,0.0002913951757363,0.0931989923119545,0,0,0
12193,425696.05310411286,2010-11-06 12:39:09,270.1383464825661,2,38,0.5501165986061096,3.765313625335693,36.33389724601744,36.35719075759464,145.10973042124644,132.5565209509338,0.0001618862152099,0.0931989923119545,0,0,0
12194,425726.0682933128,2010-11-06 12:39:39,300.1535356825306,2,38,0.5501165986061096,3.770979642868042,36.3384842013967,36.35719075759464,145.12701584966828,132.5565209509338,0.0001295089750783,0.0931989923119545,0,0,0
12195,425756.0836957801,2010-11-06 12:40:09,330.16893814984326,2,38,0.550297200679779,3.775188684463501,36.34307115062578,36.35719075759464,145.14432298467048,132.5565209509338,0.0001295089750783,0.0931989923119545,0,0,0
12196,425786.0990196963,2010-11-06 12:40:39,360.18426220141816,2,38,0.5501165986061096,3.77891206741333,36.34765801590298,36.35719075759464,145.16164753586574,132.5565209509338,0.0001295089750783,0.0931989923119545,0,0,0
12197,425816.11458192754,2010-11-06 12:41:09,390.199824297188,2,38,0.5499359965324402,3.782149791717529,36.3522449902218,36.35719075759464,145.17898912039843,132.5565209509338,3.237724376958795e-05,0.0931989923119545,0,0,0
12198,425846.12970448105,2010-11-06 12:41:39,420.2149468507929,2,38,0.550297200679779,3.7858731746673584,36.35683182454754,36.35719075759464,145.1963461697388,132.5565209509338,9.713172767078504e-05,0.0931989923119545,0,0,0
12199,425876.1450579511,2010-11-06 12:42:09,450.2303003208007,2,38,0.550297200679779,3.789272785186768,36.36141878349808,36.35719075759464,145.21371917157342,132.5565209509338,9.713172767078504e-05,0.0931989923119545,0,0,0
12200,425906.16040477954,2010-11-06 12:42:39,480.2456471492301,2,38,0.5499359965324402,3.792348623275757,36.366005685184206,36.35719075759464,145.2311070081329,132.5565209509338,9.713172767078504e-05,0.0931989923119545,0,0,0
12201,425936.1757622294,2010-11-06 12:43:09,510.26100460418513,2,38,0.5501165986061096,3.795586347579956,36.37059259450612,36.35719075759464,145.24850954623815,132.5565209509338,9.713172767078504e-05,0.0931989923119545,0,0,0
12202,425966.19112423074,2010-11-06 12:43:39,540.2763666004759,2,38,0.550297200679779,3.798662185668945,36.37517954731084,36.35719075759464,145.26592661977048,132.5565209509338,6.47544875391759e-05,0.0931989923119545,0,0,0
12203,425996.2064467083,2010-11-06 12:44:09,570.2916890781219,2,38,0.5501165986061096,3.8015761375427246,36.37976646541993,36.35719075759464,145.28335762735674,132.5565209509338,3.237724376958795e-05,0.0931989923119545,0,0,0
12204,426026.22180128616,2010-11-06 12:44:39,600.307043655895,2,38,0.5501165986061096,3.804651975631714,36.38435345457995,36.35719075759464,145.30080262834915,132.5565209509338,6.47544875391759e-05,0.0931989923119545,0,0,0
12205,426056.237157899,2010-11-06 12:45:09,630.3224002687477,2,38,0.5501165986061096,3.807727813720703,36.38894045434092,36.35719075759464,145.31826144371286,132.5565209509338,9.713172767078504e-05,0.0931989923119545,0,0,0
12206,426086.2526264362,2010-11-06 12:45:39,660.3378688059811,2,38,0.5501165986061096,3.810479879379273,36.3935274284871,36.35719075759464,145.33573378148523,132.5565209509338,3.237724376958795e-05,0.0931989923119545,0,0,0
12207,426116.26798719954,2010-11-06 12:46:09,690.3532295691939,2,38,0.550297200679779,3.8138794898986816,36.39811438567287,36.35719075759464,145.35321980910334,132.5565209509338,0.0001618862152099,0.0931989923119545,0,0,0
12208,426146.2831976876,2010-11-06 12:46:39,720.3684400572969,2,38,0.5501165986061096,3.816955327987671,36.40270126301164,36.35719075759464,145.370719735399,132.5565209509338,0.0001295089750783,0.0931989923119545,0,0,0
12209,426176.29858952336,2010-11-06 12:47:09,750.3838318930715,2,38,0.550297200679779,3.81986927986145,36.40728818754332,36.35719075759464,145.38823399094872,132.5565209509338,6.47544875391759e-05,0.0931989923119545,0,0,0
12210,426206.3140101159,2010-11-06 12:47:39,780.3992524856275,2,38,0.5499359965324402,3.8231070041656494,36.41187516417066,36.35719075759464,145.40576310224023,132.5565209509338,0.0001295089750783,0.0931989923119545,0,0,0
12211,426236.3292626189,2010-11-06 12:48:09,810.414504988606,2,38,0.550297200679779,3.8265066146850586,36.41646207866052,36.35719075759464,145.42330698805208,132.5565209509338,9.713172767078504e-05,0.0931989923119545,0,0,0
12212,426266.3452789836,2010-11-06 12:48:39,840.4305214385139,2,38,0.5501165986061096,3.829906225204468,36.42104919042512,36.35719075759464,145.44086700086126,132.5565209509338,0.0001295089750783,0.0931989923119545,0,0,0
12213,426296.3469755739,2010-11-06 12:49:09,870.432218028849,2,38,0.5501165986061096,3.833305597305298,36.42563404621313,36.35719075759464,145.4584340237464,132.5565209509338,0.0001294612884521,0.0931989923119545,0,0,0
12214,426326.3599211634,2010-11-06 12:49:39,900.4451636284417,2,38,0.550297200679779,3.836543321609497,36.43022057325954,36.35719075759464,145.47602323176224,132.5565209509338,6.47544875391759e-05,0.0931989923119545,0,0,0
12215,426356.37503975217,2010-11-06 12:50:09,930.460282121912,2,38,0.550297200679779,3.840104818344116,36.43480749070502,36.35719075759464,145.49362972199486,132.5565209509338,6.47544875391759e-05,0.0931989923119545,0,0,0
12216,426386.3905188558,2010-11-06 12:50:39,960.4757612355456,2,38,0.5501165986061096,3.843342542648315,36.43939449237432,36.35719075759464,145.5112521709866,132.5565209509338,6.47544875391759e-05,0.0931989923119545,0,0,0
12217,426416.40574931377,2010-11-06 12:51:09,990.4909916834716,2,38,0.5501165986061096,3.846904039382935,36.44398140761249,36.35719075759464,145.52888967093745,132.5565209509338,0.0001295089750783,0.0931989923119545,0,0,0
12218,426446.4211662823,2010-11-06 12:51:39,1020.5064086519812,2,38,0.5501165986061096,3.850141763687134,36.44856842858926,36.35719075759464,145.546542762075,132.5565209509338,0.0001295089750783,0.0931989923119545,0,0,0
12219,426476.43644297565,2010-11-06 12:52:09,1050.5216853503553,2,38,0.550297200679779,3.853379487991333,36.453155437331255,36.35719075759464,145.5642107393981,132.5565209509338,6.47544875391759e-05,0.0931989923119545,0,0,0
12220,426506.4518015182,2010-11-06 12:52:39,1080.5370438779876,2,38,0.550297200679779,3.856455326080322,36.45774234821806,36.35719075759464,145.5818927516218,132.5565209509338,6.47544875391759e-05,0.0931989923119545,0,0,0
12221,426536.4673121606,2010-11-06 12:53:09,1110.5525545353594,2,38,0.5501165986061096,3.859531164169312,36.46232926899551,36.35719075759464,145.59958903185378,132.5565209509338,6.47544875391759e-05,0.0931989923119545,0,0,0
12222,426566.4825450246,2010-11-06 12:53:39,1140.5677882414182,2,38,0.5501165986061096,3.862283229827881,36.46691613294493,36.35719075759464,145.61729882775575,132.5565209509338,3.237724376958795e-05,0.0931989923119545,0,0,0
12223,426596.49797686026,2010-11-06 12:54:09,1170.583219224911,2,38,0.5501165986061096,3.86519718170166,36.47150303650701,36.35719075759464,145.63502200910744,132.5565209509338,6.47544875391759e-05,0.0931989923119545,0,0,0
12224,426626.5132050676,2010-11-06 12:54:39,1200.5984474322445,2,38,0.550297200679779,3.86811113357544,36.47609001313797,36.35719075759464,145.65275820555098,132.5565209509338,9.713172767078504e-05,0.0931989923119545,0,0,0
12225,426656.5286818302,2010-11-06 12:55:09,1230.6139241950098,2,38,0.5499359965324402,3.870539426803589,36.48067693592397,36.35719075759464,145.67050637382687,132.5565209509338,9.713172767078504e-05,0.0931989923119545,0,0,0
12226,426686.5439240677,2010-11-06 12:55:39,1260.629166432364,2,38,0.550297200679779,3.8729677200317374,36.48526386989731,36.35719075759464,145.68826624919677,132.5565209509338,3.237724376958795e-05,0.0931989923119545,0,0,0
12227,426716.55927027954,2010-11-06 12:56:09,1290.6445126392418,2,38,0.5499359965324402,3.875396013259888,36.48985084172216,36.35719075759464,145.70603719894146,132.5565209509338,6.47544875391759e-05,0.0931989923119545,0,0,0
12228,426746.57464268187,2010-11-06 12:56:39,1320.65988504652,2,38,0.5501165986061096,3.877500534057617,36.49443779065712,36.35719075759464,145.72381846677197,132.5565209509338,3.237724376958795e-05,0.0931989923119545,0,0,0
12229,426776.5901398054,2010-11-06 12:57:09,1350.6753821751215,2,38,0.5501165986061096,3.8796050548553462,36.49902475448221,36.35719075759464,145.7416095531344,132.5565209509338,3.237724376958795e-05,0.0931989923119545,0,0,0
12230,426806.60552966624,2010-11-06 12:57:39,1380.6907720359666,2,38,0.5501165986061096,3.881547689437866,36.50361172058787,36.35719075759464,145.7594098181574,132.5565209509338,3.237724376958795e-05,0.0931989923119545,0,0,0
12231,426836.6208154072,2010-11-06 12:58:09,1410.7060577719,2,38,0.550297200679779,3.8834903240203857,36.508198634230496,36.35719075759464,145.777218401827,132.5565209509338,6.47544875391759e-05,0.0931989923119545,0,0,0
12232,426866.63602961454,2010-11-06 12:58:39,1440.7212719742745,2,38,0.5501165986061096,3.8847854137420654,36.512785573194094,36.35719075759464,145.79503509092788,132.5565209509338,0.0,0.0931989923119545,0,0,0
12233,426896.65138964594,2010-11-06 12:59:09,1470.7366320156852,2,38,0.5501165986061096,3.886566162109375,36.51737246796576,36.35719075759464,145.81285904323508,132.5565209509338,3.237724376958795e-05,0.0931989923119545,0,0,0
12234,426926.6667914516,2010-11-06 12:59:39,1500.7520338464087,2,38,0.550297200679779,3.8881850242614746,36.52195942688832,36.35719075759464,145.83069033045012,132.5565209509338,3.237724376958795e-05,0.0931989923119545,0,0,0
12235,426956.6821091373,2010-11-06 13:00:09,1530.7673515120434,2,38,0.5501165986061096,3.889642000198364,36.52654642111546,36.35719075759464,145.84852859897097,132.5565209509338,3.237724376958795e-05,0.0931989923119545,0,0,0
12236,426986.6974455146,2010-11-06 13:00:39,1560.7826878793603,2,38,0.5499359965324402,3.890937089920044,36.53113337737837,36.35719075759464,145.86637321202844,132.5565209509338,3.237724376958795e-05,0.0931989923119545,0,0,0
12237,427016.7128982825,2010-11-06 13:01:09,1590.798140677306,2,38,0.5501165986061096,3.8923940658569336,36.535720336004886,36.35719075759464,145.88422426855314,132.5565209509338,3.237724376958795e-05,0.0931989923119545,0,0,0
12238,427046.7131628784,2010-11-06 13:01:39,1620.7984052481002,2,38,0.5501165986061096,3.8938510417938232,36.54030493824215,36.35719075759464,145.9020723705883,132.5565209509338,6.47544875391759e-05,0.0931989923119545,0,0,0
12239,427076.7278804811,2010-11-06 13:02:09,1650.8131228458733,2,38,0.5501165986061096,3.894822359085083,36.54489179958825,36.35719075759464,145.9199353085641,132.5565209509338,0.0,0.0931989923119545,0,0,0
12240,427106.74345394026,2010-11-06 13:02:39,1680.8286963952328,2,38,0.5501165986061096,3.8961174488067623,36.54947879297811,36.35719075759464,145.93780434969014,132.5565209509338,0.0,0.0931989923119545,0,0,0
12241,427136.75862965663,2010-11-06 13:03:09,1710.8438720564022,2,38,0.5501165986061096,3.897574424743652,36.55406573672751,36.35719075759464,145.95567939788518,132.5565209509338,3.237724376958795e-05,0.0931989923119545,0,0,0
12242,427166.7739246056,2010-11-06 13:03:39,1740.8591669752575,2,38,0.5501165986061096,3.898869514465332,36.55865267329778,36.35719075759464,145.97356042182622,132.5565209509338,3.237724376958795e-05,0.0931989923119545,0,0,0
12243,427196.7892922208,2010-11-06 13:04:10,1770.8745345855616,2,38,0.5499359965324402,3.900164604187012,36.563239622141,36.35719075759464,145.99144750893996,132.5565209509338,3.237724376958795e-05,0.0931989923119545,0,0,0
12244,427226.8046264879,2010-11-06 13:04:40,1800.8898688576485,2,38,0.5501165986061096,3.9014596939086914,36.56782649442084,36.35719075759464,146.00934027983095,132.5565209509338,3.237724376958795e-05,0.0931989923119545,0,0,0
12245,427256.8200857219,2010-11-06 13:05:10,1830.90532809166,2,38,0.5501165986061096,3.902754783630371,36.5724134202316,36.35719075759464,146.02723939177022,132.5565209509338,3.237724376958795e-05,0.0931989923119545,0,0,0
12246,427286.83530705713,2010-11-06 13:05:40,1860.9205494268383,2,38,0.550297200679779,3.904373645782471,36.57700027807873,36.35719075759464,146.04514433653077,132.5565209509338,9.713172767078504e-05,0.0931989923119545,0,0,0
12247,427316.8507252437,2010-11-06 13:06:10,1890.9359676133888,2,38,0.5501165986061096,3.905506849288941,36.58158713814846,36.35719075759464,146.06305537486926,132.5565209509338,3.237724376958795e-05,0.0931989923119545,0,0,0
12248,427346.8660594857,2010-11-06 13:06:40,1920.9513018554007,2,38,0.550297200679779,3.90680193901062,36.58617403915751,36.35719075759464,146.08097267011578,132.5565209509338,3.237724376958795e-05,0.0931989923119545,0,0,0
12249,427376.8814129557,2010-11-06 13:07:10,1950.9666553254085,2,38,0.550297200679779,3.9082589149475098,36.5907609229884,36.35719075759464,146.09889606470523,132.5565209509338,9.713172767078504e-05,0.0931989923119545,0,0,0
12250,427406.8967680548,2010-11-06 13:07:40,1980.9820104244827,2,38,0.5504778623580933,3.9097158908844,36.59534783855791,36.35719075759464,146.11682583086315,132.5565209509338,6.47544875391759e-05,0.0931989923119545,0,0,0
12251,427436.9121257403,2010-11-06 13:08:10,2010.997368110013,2,38,0.5501165986061096,3.910849094390869,36.599934796857205,36.35719075759464,146.1347619646702,132.5565209509338,6.47544875391759e-05,0.0931989923119545,0,0,0
12252,427466.9274808894,2010-11-06 13:08:40,2041.0127232592124,2,38,0.5501165986061096,3.912144184112549,36.60452171728324,36.35719075759464,146.15270428049436,132.5565209509338,-3.237724376958795e-05,0.0931989923119545,0,0,0
12253,427496.9428420538,2010-11-06 13:09:10,2071.028084423426,2,38,0.550297200679779,3.913762807846069,36.60910865733792,36.35719075759464,146.17065297691724,132.5565209509338,6.470680091297254e-05,0.0931989923119545,0,0,0
12254,427526.958193614,2010-11-06 13:09:40,2101.043435983667,2,38,0.5501165986061096,3.915057897567749,36.61369557659635,36.35719075759464,146.18860795940444,132.5565209509338,3.237724376958795e-05,0.0931989923119545,0,0,0
12255,427556.97356670286,2010-11-06 13:10:10,2131.058809072647,2,38,0.5501165986061096,3.9163529872894287,36.618282549328754,36.35719075759464,146.20656942605578,132.5565209509338,3.237724376958795e-05,0.0931989923119545,0,0,0
12256,427586.9888810803,2010-11-06 13:10:40,2161.0741234500733,2,38,0.5501165986061096,3.917971849441528,36.62286947107528,36.35719075759464,146.22453723621652,132.5565209509338,6.47544875391759e-05,0.0931989923119545,0,0,0
12257,427617.00424154784,2010-11-06 13:11:10,2191.089483917548,2,38,0.5501165986061096,3.919266939163208,36.6274564029156,36.35719075759464,146.24251158208352,132.5565209509338,6.47544875391759e-05,0.0931989923119545,0,0,0
12258,427647.01970433065,2010-11-06 13:11:40,2221.1049467054304,2,38,0.5501165986061096,3.9207239151000977,36.632043343052665,36.35719075759464,146.26049258958562,132.5565209509338,3.237724376958795e-05,0.0931989923119545,0,0,0
12259,427677.0349505831,2010-11-06 13:12:10,2251.120192972844,2,38,0.550297200679779,3.9221808910369873,36.636630221145616,36.35719075759464,146.278479913502,132.5565209509338,3.237724376958795e-05,0.0931989923119545,0,0,0
12260,427707.0504560023,2010-11-06 13:12:40,2281.1356983720902,2,38,0.550297200679779,3.923637866973877,36.641217171887305,36.35719075759464,146.29647427631875,132.5565209509338,6.47544875391759e-05,0.0931989923119545,0,0,0
12261,427737.0656687362,2010-11-06 13:13:10,2311.1509111258483,2,38,0.5501165986061096,3.925094842910767,36.64580403693032,36.35719075759464,146.31447500720165,132.5565209509338,3.237724376958795e-05,0.0931989923119545,0,0,0
12262,427767.0809903415,2010-11-06 13:13:40,2341.166232711268,2,38,0.5501165986061096,3.926713705062866,36.650390956259024,36.35719075759464,146.33248263276383,132.5565209509338,6.47544875391759e-05,0.0931989923119545,0,0,0
12263,427797.09663392574,2010-11-06 13:14:10,2371.181876440808,2,38,0.5501165986061096,3.928170680999756,36.65497794933905,36.35719075759464,146.35049735937633,132.5565209509338,3.237724376958795e-05,0.0931989923119545,0,0,0
12264,427827.1117010861,2010-11-06 13:14:40,2401.19694345578,2,38,0.5501165986061096,3.9296276569366455,36.65956475866924,36.35719075759464,146.3685181922729,132.5565209509338,6.47544875391759e-05,0.0931989923119545,0,0,0
12265,427857.1270649821,2010-11-06 13:15:10,2431.212307356825,2,38,0.550297200679779,3.931084632873535,36.66415163044049,36.35719075759464,146.38654622482605,132.5565209509338,3.237724376958795e-05,0.0931989923119545,0,0,0
12266,427887.1423970386,2010-11-06 13:15:40,2461.227639418394,2,38,0.5501165986061096,3.9327034950256343,36.66873859010359,36.35719075759464,146.40458148290827,132.5565209509338,6.47544875391759e-05,0.0931989923119545,0,0,0
12267,427917.1577647041,2010-11-06 13:16:10,2491.243007073811,2,38,0.5501165986061096,3.9339985847473145,36.67332550303309,36.35719075759464,146.4226235537735,132.5565209509338,0.0,0.0931989923119545,0,0,0
12268,427947.1731216929,2010-11-06 13:16:40,2521.2583640626026,2,38,0.550297200679779,3.935779333114624,36.67791244900428,36.35719075759464,146.44067283327223,132.5565209509338,6.47544875391759e-05,0.0931989923119545,0,0,0
12269,427977.18846174935,2010-11-06 13:17:10,2551.273704119128,2,38,0.5501165986061096,3.9372363090515137,36.682499439925245,36.35719075759464,146.4587292455118,132.5565209509338,3.237724376958795e-05,0.0931989923119545,0,0,0
12270,428007.2038145026,2010-11-06 13:17:40,2581.289056877359,2,38,0.5499359965324402,3.938855171203613,36.68708634297134,36.35719075759464,146.4767925395434,132.5565209509338,3.237724376958795e-05,0.0931989923119545,0,0,0
12271,428037.219172955,2010-11-06 13:18:10,2611.3044153247915,2,38,0.5501165986061096,3.940474033355713,36.69167326085222,36.35719075759464,146.4948630836175,132.5565209509338,0.0001295089750783,0.0931989923119545,0,0,0
12272,428067.2346432066,2010-11-06 13:18:40,2641.319885596354,2,38,0.5501165986061096,3.9419310092926025,36.69626026678709,36.35719075759464,146.5129412528489,132.5565209509338,3.237724376958795e-05,0.0931989923119545,0,0,0
12273,428097.24994193495,2010-11-06 13:19:10,2671.335184419956,2,38,0.550297200679779,3.943549871444702,36.7008472057757,36.35719075759464,146.53102647257546,132.5565209509338,3.237724376958795e-05,0.0931989923119545,0,0,0
12274,428127.2652175456,2010-11-06 13:19:40,2701.350459915327,2,38,0.5501165986061096,3.9451687335968018,36.70543407022871,36.35719075759464,146.5491187186892,132.5565209509338,3.237724376958795e-05,0.0931989923119545,0,0,0
12275,428157.28058946674,2010-11-06 13:20:10,2731.365831836392,2,38,0.550297200679779,3.946787595748901,36.71002106281664,36.35719075759464,146.56721889200398,132.5565209509338,6.47544875391759e-05,0.0931989923119545,0,0,0
12276,428187.2959228967,2010-11-06 13:20:40,2761.381165266376,2,38,0.550297200679779,3.948244571685791,36.7146080185008,36.35719075759464,146.58532630827986,132.5565209509338,0.0,0.0931989923119545,0,0,0
12277,428217.31140030106,2010-11-06 13:21:10,2791.3966426807683,2,38,0.5499359965324402,3.9500253200531006,36.71919503853728,36.35719075759464,146.60344163763668,132.5565209509338,3.237724376958795e-05,0.0931989923119545,0,0,0
12278,428247.32928919984,2010-11-06 13:21:40,2821.414531659797,2,38,0.5501165986061096,3.95180606842041,36.7237823459006,36.35719075759464,146.62156580506343,132.5565209509338,3.237724376958795e-05,0.0931989923119545,0,0,0
12279,428277.3422651552,2010-11-06 13:22:10,2851.42750755,2,38,0.5501165986061096,3.95358681678772,36.72836897352912,36.35719075759464,146.6396949770413,132.5565209509338,6.47544875391759e-05,0.0931989923119545,0,0,0
12280,428307.357346105,2010-11-06 13:22:40,2881.442588474693,2,38,0.5501165986061096,3.95504379272461,36.73295588024722,36.35719075759464,146.65783308469204,132.5565209509338,0.0,0.0931989923119545,0,0,0
12281,428337.372687565,2010-11-06 13:23:10,2911.457929934721,2,38,0.550297200679779,3.956986427307129,36.73754290324744,36.35719075759464,146.67597954121777,132.5565209509338,6.47544875391759e-05,0.0931989923119545,0,0,0
12282,428367.38806508,2010-11-06 13:23:40,2941.47330744975,2,38,0.5501165986061096,3.958605289459229,36.742129894168166,36.35719075759464,146.69413364697584,132.5565209509338,6.47544875391759e-05,0.0931989923119545,0,0,0
12283,428397.40340833954,2010-11-06 13:24:10,2971.4886507092706,2,38,0.5501165986061096,3.960386037826538,36.746716970327405,36.35719075759464,146.71229615573947,132.5565209509338,6.47544875391759e-05,0.0931989923119545,0,0,0
12284,428427.4187414888,2010-11-06 13:24:40,3001.5039838585544,2,38,0.550297200679779,3.962166786193848,36.7513040005297,36.35719075759464,146.73046663090568,132.5565209509338,6.47544875391759e-05,0.0931989923119545,0,0,0
12285,428457.4341152496,2010-11-06 13:25:10,3031.519357619211,2,38,0.5501165986061096,3.963947534561157,36.75589107898679,36.35719075759464,146.74864544330728,132.5565209509338,3.237724376958795e-05,0.0931989923119545,0,0,0
12286,428487.4494862784,2010-11-06 13:25:40,3061.5347286480483,2,38,0.5501165986061096,3.9658901691436768,36.760478139074905,36.35719075759464,146.76683251107303,132.5565209509338,6.47544875391759e-05,0.0931989923119545,0,0,0
12287,428517.46481506166,2010-11-06 13:26:10,3091.5500574314347,2,38,0.550297200679779,3.9676709175109854,36.76506518497137,36.35719075759464,146.78502787495245,132.5565209509338,6.47544875391759e-05,0.0931989923119545,0,0,0
12288,428547.4801523264,2010-11-06 13:26:40,3121.565394695991,2,38,0.550297200679779,3.969451665878296,36.76965261140696,36.35719075759464,146.80323308922445,132.5565209509338,3.237724376958795e-05,0.0931989923119545,0,0,0
12289,428577.495521701,2010-11-06 13:27:10,3151.580764075712,2,38,0.550297200679779,3.9712324142456055,36.77424031041516,36.35719075759464,146.82144782042457,132.5565209509338,0.0,0.0931989923119545,0,0,0
12290,428607.5108580132,2010-11-06 13:27:40,3181.596100382879,2,38,0.550297200679779,3.973175048828125,36.77882801539763,36.35719075759464,146.83967106501208,132.5565209509338,6.47544875391759e-05,0.0931989923119545,0,0,0
12291,428637.5262217388,2010-11-06 13:28:10,3211.6114641084864,2,38,0.5501165986061096,3.9749557971954346,36.783415684926645,36.35719075759464,146.85790274331313,132.5565209509338,3.237724376958795e-05,0.0931989923119545,0,0,0
12292,428667.5416938248,2010-11-06 13:28:40,3241.6269362046028,2,38,0.5501165986061096,3.976736545562744,36.7880030631035,36.35719075759464,146.87614191503246,132.5565209509338,0.0,0.0931989923119545,0,0,0
12293,428697.5569289244,2010-11-06 13:29:10,3271.642171294115,2,38,0.5501165986061096,3.9788410663604736,36.79259009991838,36.35719075759464,146.89438810323423,132.5565209509338,3.237724376958795e-05,0.0931989923119545,0,0,0
12294,428727.5722709609,2010-11-06 13:29:40,3301.6575133556453,2,38,0.5501165986061096,3.980621814727783,36.79717699805877,36.35719075759464,146.9126430987483,132.5565209509338,3.237724376958795e-05,0.0931989923119545,0,0,0
12295,428757.5878363147,2010-11-06 13:30:10,3331.673078684485,2,38,0.5499359965324402,3.982564449310303,36.80176398412094,36.35719075759464,146.93090748417347,132.5565209509338,3.237724376958795e-05,0.0931989923119545,0,0,0
12296,428787.6031161409,2010-11-06 13:30:40,3361.688358510667,2,38,0.5501165986061096,3.984668970108032,36.80635090112852,36.35719075759464,146.94918062042174,132.5565209509338,0.0,0.0931989923119545,0,0,0
12297,428817.61833079945,2010-11-06 13:31:10,3391.7035731942424,2,38,0.550297200679779,3.986611604690552,36.81093783358647,36.35719075759464,146.9674630225282,132.5565209509338,0.0,0.0931989923119545,0,0,0
12298,428847.6336817081,2010-11-06 13:31:40,3421.718924102857,2,38,0.5501165986061096,3.988716125488281,36.81552472090696,36.35719075759464,146.9857544281394,132.5565209509338,6.47544875391759e-05,0.0931989923119545,0,0,0
12299,428877.64910302754,2010-11-06 13:32:10,3451.7343453971644,2,38,0.5501165986061096,3.990658760070801,36.82011157702512,36.35719075759464,147.00405505949595,132.5565209509338,3.237724376958795e-05,0.0931989923119545,0,0,0
12300,428907.6643859714,2010-11-06 13:32:40,3481.7496283712035,2,38,0.550297200679779,3.99292516708374,36.82469849709648,36.35719075759464,147.0223654630635,132.5565209509338,6.47544875391759e-05,0.0931989923119545,0,0,0
12301,428937.6797437522,2010-11-06 13:33:10,3511.764986146959,2,38,0.5501165986061096,3.9948675632476807,36.82928541856142,36.35719075759464,147.04068532623077,132.5565209509338,3.237724376958795e-05,0.0931989923119545,0,0,0
12302,428967.6951006808,2010-11-06 13:33:40,3541.7803430756003,2,38,0.5501165986061096,3.99697208404541,36.833872314916405,36.35719075759464,147.05901476476774,132.5565209509338,3.237724376958795e-05,0.0931989923119545,0,0,0
12303,428997.7104741808,2010-11-06 13:34:10,3571.795716575606,2,38,0.5501165986061096,3.99907660484314,36.83845922943573,36.35719075759464,147.0773539859326,132.5565209509338,0.0,0.0931989923119545,0,0,0
12304,429027.7259298559,2010-11-06 13:34:40,3601.811172230684,2,38,0.5501165986061096,4.001504898071289,36.84304607812443,36.35719075759464,147.0957028373707,132.5565209509338,9.70840483205393e-05,0.0931989923119545,0,0,0
12305,429057.7411549355,2010-11-06 13:35:10,3631.8263973051967,2,38,0.550297200679779,4.003609657287598,36.84763297578783,36.35719075759464,147.11406193930114,132.5565209509338,3.24249267578125e-05,0.0931989923119545,0,0,0
12306,429087.7565121348,2010-11-06 13:35:40,3661.8417545045127,2,38,0.550297200679779,4.005876064300537,36.85221989635801,36.35719075759464,147.13243108442094,132.5565209509338,9.71794142969884e-05,0.0931989923119545,0,0,0
12307,429117.77186775015,2010-11-06 13:36:11,3691.857110149951,2,38,0.550297200679779,4.008142471313477,36.85680677339224,36.35719075759464,147.15081028272286,132.5565209509338,9.71794142969884e-05,0.0931989923119545,0,0,0
12308,429147.7872119621,2010-11-06 13:36:41,3721.872454356837,2,38,0.5501165986061096,4.010408878326416,36.861393665200026,36.35719075759464,147.16919980290064,132.5565209509338,9.71794142969884e-05,0.0931989923119545,0,0,0
12309,429177.8025617077,2010-11-06 13:37:11,3751.8878040774857,2,38,0.5501165986061096,4.012513160705566,36.86598053035175,36.35719075759464,147.1875995924137,132.5565209509338,3.23295607813634e-05,0.0931989923119545,0,0,0
12310,429207.8179356739,2010-11-06 13:37:41,3781.90317805368,2,38,0.5499359965324402,4.014941692352295,36.87056743369621,36.35719075759464,147.20600999850834,132.5565209509338,9.71794142969884e-05,0.0931989923119545,0,0,0
12311,429237.8332740864,2010-11-06 13:38:11,3811.9185164811392,2,38,0.5501165986061096,4.017208099365234,36.8751543618878,36.35719075759464,147.22443112957387,132.5565209509338,6.47544875391759e-05,0.0931989923119545,0,0,0
12312,429267.8486198421,2010-11-06 13:38:41,3841.9338622368914,2,38,0.550297200679779,4.019474506378174,36.87974134470518,36.35719075759464,147.24286318072353,132.5565209509338,6.47544875391759e-05,0.0931989923119545,0,0,0
12313,429297.8639818234,2010-11-06 13:39:11,3871.949224218145,2,38,0.550297200679779,4.021740913391113,36.88432821129608,36.35719075759464,147.26130554111026,132.5565209509338,6.47544875391759e-05,0.0931989923119545,0,0,0
12314,429327.87932377466,2010-11-06 13:39:41,3901.9645661694,2,38,0.550297200679779,4.024331092834473,36.88891503117192,36.35719075759464,147.27975861987542,132.5565209509338,6.47544875391759e-05,0.0931989923119545,0,0,0
12315,429357.8946841168,2010-11-06 13:40:11,3931.9799265115616,2,38,0.550297200679779,4.026597499847412,36.89350189018262,36.35719075759464,147.29822276685292,132.5565209509338,3.24249267578125e-05,0.0931989923119545,0,0,0
12316,429387.9100283588,2010-11-06 13:40:41,3961.995270753536,2,38,0.5499359965324402,4.029025554656982,36.89808873998351,36.35719075759464,147.31669792602145,132.5565209509338,9.70840483205393e-05,0.0931989923119545,0,0,0
12317,429417.9253954328,2010-11-06 13:41:11,3992.0106378325127,2,38,0.5504778623580933,4.031615734100342,36.90267560935801,36.35719075759464,147.33518420509324,132.5565209509338,9.70840483205393e-05,0.0931989923119545,0,0,0
12318,429447.9407501158,2010-11-06 13:41:41,4022.025992500511,2,38,0.550297200679779,4.033882141113281,36.90726248763349,36.35719075759464,147.35368169725143,132.5565209509338,6.47544875391759e-05,0.0931989923119545,0,0,0
12319,429477.95623311406,2010-11-06 13:42:11,4052.041475493829,2,38,0.5504778623580933,4.036472320556641,36.91184940626529,36.35719075759464,147.37219061427237,132.5565209509338,9.71794142969884e-05,0.0931989923119545,0,0,0
12320,429507.971443923,2010-11-06 13:42:41,4082.0566863227823,2,38,0.5501165986061096,4.03873872756958,36.91643627286587,36.35719075759464,147.39071067546513,132.5565209509338,3.24249267578125e-05,0.0931989923119545,0,0,0
12321,429537.986797784,2010-11-06 13:43:11,4112.072040178754,2,38,0.5501165986061096,4.04132890701294,36.92102316161336,36.35719075759464,147.40924225393832,132.5565209509338,6.47544875391759e-05,0.0931989923119545,0,0,0
12322,429568.00230879226,2010-11-06 13:43:41,4142.087551176976,2,38,0.5501165986061096,4.043919086456299,36.92561002764415,36.35719075759464,147.42778538330995,132.5565209509338,6.47544875391759e-05,0.0931989923119545,0,0,0
12323,429598.0175094057,2010-11-06 13:44:11,4172.102751775394,2,38,0.5501165986061096,4.046509265899658,36.9301969693484,36.35719075759464,147.44634058130293,132.5565209509338,9.71794142969884e-05,0.0931989923119545,0,0,0
12324,429628.0328796476,2010-11-06 13:44:41,4202.118122027291,2,38,0.5501165986061096,4.049099445343018,36.9347839146372,36.35719075759464,147.46490759760673,132.5565209509338,3.24249267578125e-05,0.0931989923119545,0,0,0
12325,429658.0483403452,2010-11-06 13:45:11,4232.133582719944,2,38,0.550297200679779,4.051689624786377,36.93937088336264,36.35719075759464,147.48348662390777,132.5565209509338,6.47544875391759e-05,0.0931989923119545,0,0,0
12326,429688.06356747984,2010-11-06 13:45:41,4262.148809879662,2,38,0.5501165986061096,4.054279804229736,36.94395785179008,36.35719075759464,147.50207766233322,132.5565209509338,6.47544875391759e-05,0.0931989923119545,0,0,0
12327,429718.0791283626,2010-11-06 13:46:11,4292.164370727315,2,38,0.5501165986061096,4.057031631469727,36.94854488697816,36.35719075759464,147.52068104103392,132.5565209509338,6.47544875391759e-05,0.0931989923119545,0,0,0
12328,429748.0942445854,2010-11-06 13:46:41,4322.179486960143,2,38,0.5501165986061096,4.059460163116455,36.95313173619252,36.35719075759464,147.53929596597715,132.5565209509338,0.0,0.0931989923119545,0,0,0
12329,429778.1096054388,2010-11-06 13:47:11,4352.194847808569,2,38,0.5501165986061096,4.062050342559815,36.95771871467297,36.35719075759464,147.55792351347202,132.5565209509338,3.24249267578125e-05,0.0931989923119545,0,0,0
12330,429808.1251191288,2010-11-06 13:47:41,4382.210361593748,2,38,0.5501165986061096,4.065125942230225,36.962305639488136,36.35719075759464,147.57656336468878,132.5565209509338,6.47544875391759e-05,0.0931989923119545,0,0,0
12331,429838.140367321,2010-11-06 13:48:11,4412.225609690728,2,38,0.5499359965324402,4.067716121673584,36.96689252318125,36.35719075759464,147.5952156497933,132.5565209509338,6.47544875391759e-05,0.0931989923119545,0,0,0
12332,429868.1558159285,2010-11-06 13:48:41,4442.241058308239,2,38,0.550297200679779,4.070630073547363,36.97147938119176,36.35719075759464,147.61388049739523,132.5565209509338,9.70840483205393e-05,0.0931989923119545,0,0,0
12333,429898.1710432887,2010-11-06 13:49:11,4472.256285683495,2,38,0.5501165986061096,4.073382377624512,36.97606624085898,36.35719075759464,147.63255812282222,132.5565209509338,6.47544875391759e-05,0.0931989923119545,0,0,0
12334,429928.1864022274,2010-11-06 13:49:41,4502.271644622153,2,38,0.5499359965324402,4.076134204864502,36.98065302795235,36.35719075759464,147.6512484142254,132.5565209509338,3.23295607813634e-05,0.0931989923119545,0,0,0
12335,429958.2017736823,2010-11-06 13:50:11,4532.2870160770535,2,38,0.550297200679779,4.07921028137207,36.98523995967802,36.35719075759464,147.66995228472535,132.5565209509338,9.71794142969884e-05,0.0931989923119545,0,0,0
12336,429988.2172282947,2010-11-06 13:50:41,4562.302470699555,2,38,0.550297200679779,4.0819621086120605,36.98982650713818,36.35719075759464,147.6886676865002,132.5565209509338,9.70840483205393e-05,0.0931989923119545,0,0,0
12337,430018.23245267256,2010-11-06 13:51:11,4592.31769506229,2,38,0.5501165986061096,4.085038185119629,36.99441242800137,36.35719075759464,147.7073937341713,132.5565209509338,0.0001295089750783,0.0931989923119545,0,0,0
12338,430048.2479544428,2010-11-06 13:51:41,4622.333196812428,2,38,0.5501165986061096,4.087628364562988,36.998998390103374,36.35719075759464,147.72613327718898,132.5565209509338,6.47544875391759e-05,0.0931989923119545,0,0,0
12339,430078.2631725498,2010-11-06 13:52:11,4652.348414939599,2,38,0.5501165986061096,4.090703964233398,37.00358436004677,36.35719075759464,147.74488634573942,132.5565209509338,9.70840483205393e-05,0.0931989923119545,0,0,0
12340,430108.2785130173,2010-11-06 13:52:41,4682.363755417176,2,38,0.5501165986061096,4.093617916107178,37.00817065219233,36.35719075759464,147.76365433978535,132.5565209509338,6.47544875391759e-05,0.0931989923119545,0,0,0
12341,430138.29400090285,2010-11-06 13:53:11,4712.379243277643,2,38,0.5501165986061096,4.096855640411377,37.012757568759184,36.35719075759464,147.78243871880008,132.5565209509338,0.0001295089750783,0.0931989923119545,0,0,0
12342,430168.31183667405,2010-11-06 13:53:41,4742.397079154119,2,38,0.5501165986061096,4.099769592285156,37.01734487268871,36.35719075759464,147.80123845986077,132.5565209509338,6.47544875391759e-05,0.0931989923119545,0,0,0
12343,430198.32499957614,2010-11-06 13:54:11,4772.41024195087,2,38,0.5501165986061096,4.102683544158936,37.02193138733983,36.35719075759464,147.82004888127324,132.5565209509338,6.47544875391759e-05,0.0931989923119545,0,0,0
12344,430228.34006212495,2010-11-06 13:54:41,4802.425304504705,2,38,0.550297200679779,4.105921268463135,37.02651816406237,36.35719075759464,147.83887455367076,132.5565209509338,9.70840483205393e-05,0.0931989923119545,0,0,0
12345,430258.3553037208,2010-11-06 13:55:11,4832.440546090434,2,38,0.5501165986061096,4.108997344970703,37.03110494872741,36.35719075759464,147.8577144487362,132.5565209509338,9.71794142969884e-05,0.0931989923119545,0,0,0
12346,430288.3706355667,2010-11-06 13:55:41,4862.455877931452,2,38,0.550297200679779,4.112235069274902,37.03569180206011,36.35719075759464,147.87656902716205,132.5565209509338,9.71794142969884e-05,0.0931989923119545,0,0,0
12347,430318.3860314025,2010-11-06 13:56:11,4892.471273772224,2,38,0.550297200679779,4.1153106689453125,37.04027856576232,36.35719075759464,147.8954374741682,132.5565209509338,9.71794142969884e-05,0.0931989923119545,0,0,0
12348,430348.4013352236,2010-11-06 13:56:41,4922.486577618362,2,38,0.5499359965324402,4.118386268615723,37.04486539711396,36.35719075759464,147.9143207323473,132.5565209509338,0.0001295089750783,0.0931989923119545,0,0,0
12349,430378.4166855507,2010-11-06 13:57:11,4952.501927950538,2,38,0.5501165986061096,4.121623992919922,37.04945227333091,36.35719075759464,147.9332188100612,132.5565209509338,6.47544875391759e-05,0.0931989923119545,0,0,0
12350,430408.43204918114,2010-11-06 13:57:41,4982.517291580908,2,38,0.5501165986061096,4.124861717224121,37.05403916194251,36.35719075759464,147.95213159125177,132.5565209509338,9.70840483205393e-05,0.0931989923119545,0,0,0
12351,430438.4475233925,2010-11-06 13:58:11,5012.5327657672415,2,38,0.5501165986061096,4.1279377937316895,37.05862605524247,36.35719075759464,147.97105922711847,132.5565209509338,6.47544875391759e-05,0.0931989923119545,0,0,0
12352,430468.46276193566,2010-11-06 13:58:41,5042.548004325412,2,38,0.5501165986061096,4.131499290466309,37.06321284564213,36.35719075759464,147.9900014496469,132.5565209509338,0.0001295089750783,0.0931989923119545,0,0,0
12353,430498.4780728995,2010-11-06 13:59:11,5072.563315284307,2,38,0.5501165986061096,4.134737014770508,37.06779966223434,36.35719075759464,148.0089588393997,132.5565209509338,9.71794142969884e-05,0.0931989923119545,0,0,0
12354,430528.49355612346,2010-11-06 13:59:41,5102.578798513212,2,38,0.550297200679779,4.138136386871338,37.07238653760967,36.35719075759464,148.0279316179127,132.5565209509338,9.70840483205393e-05,0.0931989923119545,0,0,0
12355,430558.5087957844,2010-11-06 14:00:11,5132.594038184159,2,38,0.5501165986061096,4.141374111175537,37.07697337386526,36.35719075759464,148.04691951735208,132.5565209509338,9.70840483205393e-05,0.0931989923119545,0,0,0
12356,430588.5241400363,2010-11-06 14:00:41,5162.609382431146,2,38,0.550297200679779,4.144773960113525,37.08156027557969,36.35719075759464,148.06592310333087,132.5565209509338,9.71794142969884e-05,0.0931989923119545,0,0,0
12357,430618.53961848834,2010-11-06 14:01:11,5192.624860858065,2,38,0.5501165986061096,4.148011684417725,37.08614713430017,36.35719075759464,148.0849422331168,132.5565209509338,9.71794142969884e-05,0.0931989923119545,0,0,0
12358,430648.554835999,2010-11-06 14:01:41,5222.64007839376,2,38,0.550297200679779,4.151573181152344,37.090733976109874,36.35719075759464,148.10397691183886,132.5565209509338,9.71794142969884e-05,0.0931989923119545,0,0,0
12359,430678.5702203711,2010-11-06 14:02:11,5252.655462765904,2,38,0.5499359965324402,4.154972553253174,37.09532080117717,36.35719075759464,148.1230272387093,132.5565209509338,9.70840483205393e-05,0.0931989923119545,0,0,0
12360,430708.5856817455,2010-11-06 14:02:41,5282.670924115195,2,38,0.5501165986061096,4.158372402191162,37.099907608264495,36.35719075759464,148.14209322740044,132.5565209509338,6.47544875391759e-05,0.0931989923119545,0,0,0
12361,430738.60090569215,2010-11-06 14:03:11,5312.686148061893,2,38,0.550297200679779,4.161933898925781,37.104494388853205,36.35719075759464,148.1611749629342,132.5565209509338,9.71794142969884e-05,0.0931989923119545,0,0,0
12362,430768.61626394914,2010-11-06 14:03:41,5342.701506308825,2,38,0.5501165986061096,4.165333271026611,37.10908124461217,36.35719075759464,148.1802729436872,132.5565209509338,9.70840483205393e-05,0.0931989923119545,0,0,0
12363,430798.6316439704,2010-11-06 14:04:11,5372.716886340134,2,38,0.5499359965324402,4.1687331199646,37.11366807559258,36.35719075759464,148.19938710238355,132.5565209509338,3.24249267578125e-05,0.0931989923119545,0,0,0
12364,430828.6469860821,2010-11-06 14:04:41,5402.7322284768525,2,38,0.5501165986061096,4.17245626449585,37.11825488885645,36.35719075759464,148.2185174511343,132.5565209509338,6.47544875391759e-05,0.0931989923119545,0,0,0
12365,430858.6624658423,2010-11-06 14:05:11,5432.747708217049,2,38,0.5501165986061096,4.176017761230469,37.122841727316136,36.35719075759464,148.23766415245478,132.5565209509338,9.70840483205393e-05,0.0931989923119545,0,0,0
12366,430888.6777147011,2010-11-06 14:05:41,5462.762957090969,2,38,0.5501165986061096,4.179579257965088,37.12742851652572,36.35719075759464,148.25682698176576,132.5565209509338,9.70840483205393e-05,0.0931989923119545,0,0,0
12367,430918.6931648576,2010-11-06 14:06:11,5492.778407227272,2,38,0.5501165986061096,4.183302879333496,37.132015356681805,36.35719075759464,148.2760065301453,132.5565209509338,9.71794142969884e-05,0.0931989923119545,0,0,0
12368,430948.7085111396,2010-11-06 14:06:41,5522.793753509337,2,38,0.550297200679779,4.187026023864746,37.13660220376807,36.35719075759464,148.29520273171954,132.5565209509338,0.0001618385285837,0.0931989923119545,0,0,0
12369,430978.7237370412,2010-11-06 14:07:11,5552.808979410914,2,38,0.5501165986061096,4.190587520599365,37.14118903361212,36.35719075759464,148.31441565431766,132.5565209509338,9.70840483205393e-05,0.0931989923119545,0,0,0
12370,431008.739138912,2010-11-06 14:07:41,5582.82438128675,2,38,0.5499359965324402,4.1939873695373535,37.145775859172375,36.35719075759464,148.33364539245468,132.5565209509338,6.47544875391759e-05,0.0931989923119545,0,0,0
12371,431038.7544485827,2010-11-06 14:08:12,5612.839690972466,2,38,0.5501165986061096,4.197872161865234,37.15036269801615,36.35719075759464,148.35289205892587,132.5565209509338,9.70840483205393e-05,0.0931989923119545,0,0,0
12372,431054.73868052976,2010-11-06 14:08:27,5628.823922899468,2,38,0.5501165986061096,4.200138568878174,37.15280532705631,36.35719075759464,148.36314842267393,132.5565209509338,0.0001618385285837,0.0931989923119545,0,0,0
12373,431084.7664293614,2010-11-06 14:08:58,30.0154628029196,3,38,0.0,4.117414951324463,37.15280532705631,36.35719075759464,148.36314842267393,132.5565209509338,-0.0003561973571777,0.0931989923119545,0,0,0
12374,431114.781683689,2010-11-06 14:09:28,60.03071714549009,3,38,0.0,4.107540130615234,37.15280532705631,36.35719075759464,148.36314842267393,132.5565209509338,-0.0001942634553415,0.0931989923119545,0,0,0
12375,431144.797124141,2010-11-06 14:09:58,90.04615757255611,3,38,0.0,4.101874351501465,37.15280532705631,36.35719075759464,148.36314842267393,132.5565209509338,-6.47544875391759e-05,0.0931989923119545,0,0,0
12376,431174.7655079025,2010-11-06 14:10:28,120.0145413640202,3,38,0.0,4.098150730133057,37.15280532705631,36.35719075759464,148.36314842267393,132.5565209509338,-3.24249267578125e-05,0.0931989923119545,0,0,0
12377,431174.77888087503,2010-11-06 14:10:28,2.611518753e-06,4,38,0.978702425956726,4.199814796447754,37.15280532776628,36.35719075759464,148.36314842565568,132.5565209509338,0.0,0.0931989923119545,0,0,0
12378,431175.73198105965,2010-11-06 14:10:29,0.953102816260589,4,38,0.9283124208450316,4.199653148651123,37.15305618069405,36.35719075759464,148.3642019245672,132.5565209509338,-3.23295607813634e-05,0.0931989923119545,0,0,0
12379,431177.8882389762,2010-11-06 14:10:31,3.109360752802187,4,38,0.878283679485321,4.199653148651123,37.15359604913411,36.35719075759464,148.3664691719792,132.5565209509338,-3.23295607813634e-05,0.0931989923119545,0,0,0
12380,431181.2163277678,2010-11-06 14:10:34,6.437449534414751,4,38,0.8278936743736267,4.199653148651123,37.15438345146875,36.35719075759464,148.3697759663902,132.5565209509338,0.0,0.0931989923119545,0,0,0
12381,431185.76327030594,2010-11-06 14:10:39,10.984392057481946,4,38,0.777864933013916,4.199653148651123,37.15539633596661,36.35719075759464,148.37402971477735,132.5565209509338,3.24249267578125e-05,0.0931989923119545,0,0,0
12382,431191.8104347186,2010-11-06 14:10:45,17.031556490239097,4,38,0.7278361320495605,4.199653148651123,37.15665946283472,36.35719075759464,148.37933443483877,132.5565209509338,0.0,0.0931989923119545,0,0,0
12383,431199.7475727313,2010-11-06 14:10:53,24.9686944827666,4,38,0.6778073906898499,4.199653148651123,37.15820634106877,36.35719075759464,148.38583081222882,132.5565209509338,0.0,0.0931989923119545,0,0,0
12384,431210.435016871,2010-11-06 14:11:03,35.65613865764929,4,38,0.627597987651825,4.199653148651123,37.16014006604856,36.35719075759464,148.3939518073496,132.5565209509338,0.0,0.0931989923119545,0,0,0
12385,431225.7004517701,2010-11-06 14:11:19,50.92157351658563,4,38,0.5775692462921143,4.199653148651123,37.162688676171776,36.35719075759464,148.40465513328246,132.5565209509338,3.24249267578125e-05,0.0931989923119545,0,0,0
12386,431249.4345264168,2010-11-06 14:11:42,74.65564819838751,4,38,0.5275404453277588,4.199491024017334,37.166318700233056,36.35719075759464,148.41990005014418,132.5565209509338,-3.24249267578125e-05,0.0931989923119545,0,0,0
12387,431290.5903846957,2010-11-06 14:12:24,115.81150646729722,4,38,0.4775116741657257,4.199491024017334,37.172039478886106,36.35719075759464,148.4439254394427,132.5565209509338,-3.24249267578125e-05,0.0931989923119545,0,0,0
12388,431363.10536268685,2010-11-06 14:13:36,188.32648445851376,4,38,0.4274829030036926,4.199653148651123,37.18112238013866,36.35719075759464,148.48207062894704,132.5565209509338,0.0,0.0931989923119545,0,0,0
12389,431463.96383369726,2010-11-06 14:15:17,289.1849554487933,4,38,0.3774541318416595,4.199491024017334,37.192381219109,36.35719075759464,148.52935405969106,132.5565209509338,-3.24249267578125e-05,0.0931989923119545,0,0,0
12390,431588.4159090337,2010-11-06 14:17:21,413.63703078029386,4,38,0.3274253904819488,4.199491024017334,37.20455441727567,36.35719075759464,148.5804775546023,132.5565209509338,-3.24249267578125e-05,0.0931989923119545,0,0,0
12391,431733.91452687327,2010-11-06 14:19:47,559.1356486448867,4,38,0.2772159874439239,4.199653148651123,37.21676352681066,36.35719075759464,148.63175181808947,132.5565209509338,3.24249267578125e-05,0.0931989923119545,0,0,0
12392,431911.2412556694,2010-11-06 14:22:44,736.4623774209468,4,38,0.227187231183052,4.199491024017334,37.229164155271526,36.35719075759464,148.6838304919745,132.5565209509338,0.0,0.0931989923119545,0,0,0
12393,432131.1455430672,2010-11-06 14:26:24,956.3666648187204,4,38,0.1771584600210189,4.199653148651123,37.24145781015039,36.35719075759464,148.7354597788041,132.5565209509338,-3.23295607813634e-05,0.0931989923119545,0,0,0
12394,432438.79910517455,2010-11-06 14:31:32,1264.0202269260578,4,38,0.1271296888589859,4.199491024017334,37.25435337640416,36.35719075759464,148.78961682404773,132.5565209509338,-6.47544875391759e-05,0.0931989923119545,0,0,0
12395,432942.6381308463,2010-11-06 14:39:56,1767.8592525878057,4,38,0.0771009176969528,4.199653148651123,37.26835925934844,36.35719075759464,148.84843703699934,132.5565209509338,-3.23295607813634e-05,0.0931989923119545,0,0,0
12396,433428.7744273426,2010-11-06 14:48:02,2253.9955490940847,4,38,0.0498289167881011,4.199653148651123,37.27683632827444,36.35719075759464,148.88403801141655,132.5565209509338,0.0,0.0931989923119545,0,0,0
12397,433458.7921620034,2010-11-06 14:48:32,30.01551707839954,5,38,0.0,4.192044734954834,37.27683632827444,36.35719075759464,148.88403801141655,132.5565209509338,-6.47544875391759e-05,0.0931989923119545,0,0,0
12398,433488.7918733081,2010-11-06 14:49:02,60.01522838315642,5,38,0.0,4.190911293029785,37.27683632827444,36.35719075759464,148.88403801141655,132.5565209509338,-6.47544875391759e-05,0.0931989923119545,0,0,0
12399,433488.9816819212,2010-11-06 14:49:02,0.187229523695687,6,38,-1.9243103452026844e-05,4.190911293029785,37.27683632827444,36.35719075859544,148.88403801141655,132.55652095512804,0.0,0.0946486890316009,0,0,0
12400,433493.80965503486,2010-11-06 14:49:07,5.015202632339956,6,38,0.0005225847125984,4.190911293029785,37.276837096644144,36.35719075876196,148.88404123167228,132.5565209558259,-6.47544875391759e-05,0.0946486890316009,0,0,0
12401,433523.82784504193,2010-11-06 14:49:37,30.01537785587871,7,38,-1.0997490882873535,4.020931243896484,37.276837096644144,36.36636047508689,148.88404123167228,132.5935792460302,-0.0008742332574911,0.0946486890316009,0,0,0
12402,433553.84323588014,2010-11-06 14:50:07,60.03076869917602,7,38,-1.099568486213684,3.9960007667541504,37.276837096644144,36.37553016133102,148.88404123167228,132.63032730466762,-0.0005180359003134,0.0946486890316009,0,0,0
12403,433583.8585407539,2010-11-06 14:50:37,90.0460735678675,7,38,-1.099929690361023,3.978679180145264,37.276837096644144,36.38469975032039,148.88404123167228,132.6668857073882,-0.0003885269106831,0.0946486890316009,0,0,0
12404,433613.8739021738,2010-11-06 14:51:07,120.06143498771937,7,38,-1.0997490882873535,3.965080738067627,37.276837096644144,36.39386932318346,148.88404123167228,132.70330416743963,-0.0003561496851034,0.0946486890316009,0,0,0
12405,433643.8892784106,2010-11-06 14:51:37,150.07681122455668,7,38,-1.0997490882873535,3.9532630443573,37.276837096644144,36.40303889959687,148.88404123167228,132.73960716064494,-0.0003237724304199,0.0946486890316009,0,0,0
12406,433673.9046656598,2010-11-06 14:52:07,180.092198513983,7,38,-1.0997490882873535,3.942740440368652,37.276837096644144,36.41220848547621,148.88404123167228,132.77580800063234,-0.0002590179501567,0.0946486890316009,0,0,0
12407,433703.9200161776,2010-11-06 14:52:37,210.10754900154612,7,38,-1.0997490882873535,3.9328653812408447,37.276837096644144,36.42137802640246,148.88404123167228,132.81191466573813,-0.0002266406954731,0.0946486890316009,0,0,0
12408,433733.9353392116,2010-11-06 14:53:07,240.1228720255561,7,38,-1.099929690361023,3.923314094543457,37.276837096644144,36.43054762228723,148.88404123167228,132.84793303405706,-0.0002590179501567,0.0946486890316009,0,0,0
12409,433763.950686075,2010-11-06 14:53:37,270.1382188890732,7,38,-1.0997490882873535,3.914248466491699,37.276837096644144,36.43971721543954,148.88404123167228,132.88386618843222,-0.0001942634553415,0.0946486890316009,0,0,0
12410,433793.9662869377,2010-11-06 14:54:07,300.15381975161074,7,38,-1.0997490882873535,3.905506849288941,37.276837096644144,36.44888686221389,148.88404123167228,132.91971797790163,-0.0002266406954731,0.0946486890316009,0,0,0
12411,433823.9816811544,2010-11-06 14:54:37,330.16921397835364,7,38,-1.1001102924346924,3.896926879882813,37.276837096644144,36.45805654953267,148.88404123167228,132.9554916496617,-0.0002590179501567,0.0946486890316009,0,0,0
12412,433853.9968872515,2010-11-06 14:55:07,360.1844201807589,7,38,-1.0997490882873535,3.888994455337525,37.276837096644144,36.46722605458218,148.88404123167228,132.99118792328116,-0.0001618862152099,0.0946486890316009,0,0,0
12413,433884.0121208924,2010-11-06 14:55:37,390.1996537314296,7,38,-1.0997490882873535,3.880738258361816,37.276837096644144,36.47639552893356,148.88404123167228,133.0268090187513,-0.0001942634553415,0.0946486890316009,0,0,0
12414,433914.0274907985,2010-11-06 14:56:07,420.21502361240175,7,38,-1.0997490882873535,3.872482061386109,37.276837096644144,36.48556505079531,148.88404123167228,133.06235535986622,-0.0002266406954731,0.0946486890316009,0,0,0
12415,433944.04296628304,2010-11-06 14:56:37,450.23049912705176,7,38,-1.099929690361023,3.8643877506256095,37.276837096644144,36.494734682574006,148.88404123167228,133.09782771286197,-0.0002590179501567,0.0946486890316009,0,0,0
12416,433974.0581986608,2010-11-06 14:57:07,480.2457314747196,7,38,-1.099929690361023,3.856617212295532,37.276837096644144,36.50390424353368,148.88404123167228,133.13322681061524,-0.0002266406954731,0.0946486890316009,0,0,0
12417,434004.0735691282,2010-11-06 14:57:37,510.2611019421556,7,38,-1.0997490882873535,3.849008560180664,37.276837096644144,36.51307380166677,148.88404123167228,133.16855561837014,-0.0001618862152099,0.0946486890316009,0,0,0
12418,434034.08892741526,2010-11-06 14:58:07,540.2764602291875,7,38,-1.099929690361023,3.841399908065796,37.276837096644144,36.52224336870408,148.88404123167228,133.20381484982792,-0.0002590179501567,0.0946486890316009,0,0,0
12419,434064.1043375818,2010-11-06 14:58:37,570.2918704057436,7,38,-1.0997490882873535,3.8339531421661377,37.276837096644144,36.53141304092148,148.88404123167228,133.23900541385407,-0.0001618862152099,0.0946486890316009,0,0,0
12420,434094.1196135934,2010-11-06 14:59:07,600.3071464073784,7,38,-1.099929690361023,3.8265066146850586,37.276837096644144,36.54058261912841,148.88404123167228,133.27412659758429,-0.0001942634553415,0.0946486890316009,0,0,0
12421,434124.13504303806,2010-11-06 14:59:37,630.3225758720807,7,38,-1.0997490882873535,3.81938362121582,37.276837096644144,36.5497522288356,148.88404123167228,133.30918098885266,-0.0001618862152099,0.0946486890316009,0,0,0
12422,434154.15038560086,2010-11-06 15:00:08,660.3379184148123,7,38,-1.0997490882873535,3.811936855316162,37.276837096644144,36.5589218688306,148.88404123167228,133.34416965637809,-0.0002266406954731,0.0946486890316009,0,0,0
12423,434184.16585566686,2010-11-06 15:00:38,690.3533884808618,7,38,-1.0997490882873535,3.805137634277344,37.276837096644144,36.568091482841794,148.88404123167228,133.3790934170067,-0.0001942634553415,0.0946486890316009,0,0,0
12424,434214.18109000457,2010-11-06 15:01:08,720.3686228184969,7,38,-1.099929690361023,3.798176527023315,37.276837096644144,36.57726112336277,148.88404123167228,133.41395322739027,-0.0001942634553415,0.0946486890316009,0,0,0
12425,434244.1964463818,2010-11-06 15:01:38,750.3839791957618,7,38,-1.0997490882873535,3.791539192199707,37.276837096644144,36.586430739873926,148.88404123167228,133.4487501197224,-0.0001618862152099,0.0946486890316009,0,0,0
12426,434274.211964192,2010-11-06 15:02:08,780.399497016013,7,38,-1.099929690361023,3.784901857376098,37.276837096644144,36.59560044829471,148.88404123167228,133.48348648817736,-0.0001618862152099,0.0946486890316009,0,0,0
12427,434304.2272928802,2010-11-06 15:02:38,810.4148257041616,7,38,-1.0997490882873535,3.7784264087677,37.276837096644144,36.60477013783548,148.88404123167228,133.51816327044378,-0.0001618862152099,0.0946486890316009,0,0,0
12428,434334.2425228068,2010-11-06 15:03:08,840.430055620761,7,38,-1.099929690361023,3.772112846374512,37.276837096644144,36.61393979014084,148.88404123167228,133.55278207335974,-0.0001942634553415,0.0946486890316009,0,0,0
12429,434364.2580054292,2010-11-06 15:03:38,870.4455382632032,7,38,-1.099929690361023,3.766123056411743,37.276837096644144,36.62310953666828,148.88404123167228,133.58734457839992,-0.0001295089750783,0.0946486890316009,0,0,0
12430,434394.2732461829,2010-11-06 15:04:08,900.4607789968035,7,38,-1.099929690361023,3.7598094940185542,37.276837096644144,36.632279172209714,148.88404123167228,133.6218501858731,-0.0001942634553415,0.0946486890316009,0,0,0
12431,434424.2887221687,2010-11-06 15:04:38,930.4762549826296,7,38,-1.0997490882873535,3.753981590270996,37.276837096644144,36.64144885599921,148.88404123167228,133.65630059379936,-0.0001618862152099,0.0946486890316009,0,0,0
12432,434454.3039921052,2010-11-06 15:05:08,960.4915249191248,7,38,-1.099929690361023,3.7481539249420166,37.276837096644144,36.65061856012349,148.88404123167228,133.69069652850962,-0.0001618862152099,0.0946486890316009,0,0,0
12433,434484.3193353847,2010-11-06 15:05:38,990.506868198696,7,38,-1.0997490882873535,3.742487907409668,37.276837096644144,36.65978826063234,148.88404123167228,133.72503926146263,-0.0001295089750783,0.0946486890316009,0,0,0
12434,434514.3348627438,2010-11-06 15:06:08,1020.5223955878326,7,38,-1.099929690361023,3.736660003662109,37.276837096644144,36.668958029509575,148.88404123167228,133.75932992693924,-0.0001618862152099,0.0946486890316009,0,0,0
12435,434544.350051623,2010-11-06 15:06:38,1050.5375844369214,7,38,-1.0997490882873535,3.7311558723449703,37.276837096644144,36.67812764521373,148.88404123167228,133.79356860057746,-0.0001295089750783,0.0946486890316009,0,0,0
12436,434574.365542907,2010-11-06 15:07:08,1080.5530757209342,7,38,-1.0997490882873535,3.725651741027832,37.276837096644144,36.68729743519235,148.88404123167228,133.82775764260683,-0.0001295089750783,0.0946486890316009,0,0,0
12437,434604.38088064775,2010-11-06 15:07:38,1110.5684134717044,7,38,-1.099929690361023,3.720471382141113,37.276837096644144,36.69646720033296,148.88404123167228,133.8618973659921,-9.713172767078504e-05,0.0946486890316009,0,0,0
12438,434634.3961290956,2010-11-06 15:08:08,1140.5836619095355,7,38,-1.0997490882873535,3.715129137039185,37.276837096644144,36.70563685097205,148.88404123167228,133.89598780664963,-0.0001295089750783,0.0946486890316009,0,0,0
12439,434664.411604104,2010-11-06 15:08:38,1170.599136917922,7,38,-1.0997490882873535,3.709786891937256,37.276837096644144,36.7148066064992,148.88404123167228,133.93003057562643,-0.0001618862152099,0.0946486890316009,0,0,0
12440,434694.4268753036,2010-11-06 15:09:08,1200.6144081175703,7,38,-1.099929690361023,3.704930305480957,37.276837096644144,36.723976278351046,148.88404123167228,133.9640258481212,-9.713172767078504e-05,0.0946486890316009,0,0,0
12441,434724.4421832399,2010-11-06 15:09:38,1230.6297160639442,7,38,-1.0997490882873535,3.699911832809448,37.276837096644144,36.73314596651407,148.88404123167228,133.99797496079754,-9.713172767078504e-05,0.0946486890316009,0,0,0
12442,434754.45788987656,2010-11-06 15:10:08,1260.6454226904852,7,38,-1.099929690361023,3.6947314739227295,37.276837096644144,36.7423157903304,148.88404123167228,134.03187865084666,-0.0001618862152099,0.0946486890316009,0,0,0
12443,434784.47290849575,2010-11-06 15:10:38,1290.6604413146663,7,38,-1.0997490882873535,3.689874887466431,37.276837096644144,36.751485454336304,148.88404123167228,134.0657361141971,-0.0001295089750783,0.0946486890316009,0,0,0
12444,434814.4883959451,2010-11-06 15:11:08,1320.6759287590949,7,38,-1.099929690361023,3.685180187225342,37.276837096644144,36.76065525513104,148.88404123167228,134.099549202911,-0.0001295089750783,0.0946486890316009,0,0,0
12445,434844.50375297904,2010-11-06 15:11:38,1350.6912857980112,7,38,-1.0997490882873535,3.680161714553833,37.276837096644144,36.76982505053786,148.88404123167228,134.13331836084186,-0.0001295089750783,0.0946486890316009,0,0,0
12446,434874.5189935422,2010-11-06 15:12:08,1380.7065263611862,7,38,-1.099929690361023,3.675628900527954,37.276837096644144,36.77899486889193,148.88404123167228,134.167044468227,-0.0001295089750783,0.0946486890316009,0,0,0
12447,434904.5344982348,2010-11-06 15:12:38,1410.722031048656,7,38,-1.099568486213684,3.670934438705444,37.276837096644144,36.788164669871904,148.88404123167228,134.2007276274584,-0.0001295089750783,0.0946486890316009,0,0,0
12448,434934.5497093594,2010-11-06 15:13:08,1440.737242173348,7,38,-1.099929690361023,3.666401624679565,37.276837096644144,36.79733434708002,148.88404123167228,134.23436786777992,-0.0001295089750783,0.0946486890316009,0,0,0
12449,434964.5650991752,2010-11-06 15:13:38,1470.752632014143,7,38,-1.099568486213684,3.6618688106536874,37.276837096644144,36.8065040818188,148.88404123167228,134.26796652943284,-9.713172767078504e-05,0.0946486890316009,0,0,0
12450,434994.5804402241,2010-11-06 15:14:08,1500.767973043096,7,38,-1.0997490882873535,3.657335996627808,37.276837096644144,36.81567391367849,148.88404123167228,134.30152456912896,-0.0001295089750783,0.0946486890316009,0,0,0
12451,435024.59590766864,2010-11-06 15:14:38,1530.783440492614,7,38,-1.099929690361023,3.6529650688171382,37.276837096644144,36.82484367535245,148.88404123167228,134.33504233547328,-9.713172767078504e-05,0.0946486890316009,0,0,0
12452,435054.6112638002,2010-11-06 15:15:08,1560.7987966242658,7,38,-1.0997490882873535,3.6489179134368896,37.276837096644144,36.83401346589162,148.88404123167228,134.36852077763874,-0.0001295089750783,0.0946486890316009,0,0,0
12453,435084.6265038171,2010-11-06 15:15:38,1590.814036641077,7,38,-1.0997490882873535,3.6445469856262207,37.276837096644144,36.84318316645406,148.88404123167228,134.40195960268355,-0.0001295089750783,0.0946486890316009,0,0,0
12454,435114.6420050911,2010-11-06 15:16:08,1620.8295379150263,7,38,-1.0997490882873535,3.640499830245972,37.276837096644144,36.85235284708084,148.88404123167228,134.43536011241108,-9.713172767078504e-05,0.0946486890316009,0,0,0
12455,435144.65721331845,2010-11-06 15:16:38,1650.8447461324613,7,38,-1.099568486213684,3.636452674865722,37.276837096644144,36.86152248522743,148.88404123167228,134.4687227196557,-9.713172767078504e-05,0.0946486890316009,0,0,0
12456,435174.6725811193,2010-11-06 15:17:08,1680.8601139332409,7,38,-1.0997490882873535,3.6324055194854736,37.276837096644144,36.87069215798779,148.88404123167228,134.5020484586894,-9.713172767078504e-05,0.0946486890316009,0,0,0
12457,435204.6913231778,2010-11-06 15:17:38,1710.8788560768996,7,38,-1.099929690361023,3.6283583641052246,37.276837096644144,36.87986291580071,148.88404123167228,134.53534193870908,-0.0001295089750783,0.0946486890316009,0,0,0
12458,435234.703756278,2010-11-06 15:18:08,1740.891289182228,7,38,-1.0997490882873535,3.6247968673706055,37.276837096644144,36.88903174310619,148.88404123167228,134.5685931106816,-6.47544875391759e-05,0.0946486890316009,0,0,0
12459,435264.7186570079,2010-11-06 15:18:38,1770.9061898269142,7,38,-1.0997490882873535,3.621073484420776,37.276837096644144,36.89820135975628,148.88404123167228,134.60181277563197,-6.47544875391759e-05,0.0946486890316009,0,0,0
12460,435294.7340169691,2010-11-06 15:19:08,1800.9215497680748,7,38,-1.0997490882873535,3.6173501014709473,37.276837096644144,36.907371094928166,148.88404123167228,134.6349989173181,-9.713172767078504e-05,0.0946486890316009,0,0,0
12461,435324.7493847649,2010-11-06 15:19:38,1830.9369175889044,7,38,-1.0997490882873535,3.613950490951538,37.276837096644144,36.91654079950221,148.88404123167228,134.66815233193395,-6.47544875391759e-05,0.0946486890316009,0,0,0
12462,435354.7647341146,2010-11-06 15:20:08,1860.9522669286025,7,38,-1.099929690361023,3.610550880432129,37.276837096644144,36.92571049592424,148.88404123167228,134.70127415253387,-9.713172767078504e-05,0.0946486890316009,0,0,0
12463,435384.7800811536,2010-11-06 15:20:38,1890.967613967557,7,38,-1.0997490882873535,3.60715126991272,37.276837096644144,36.9348802358825,148.88404123167228,134.7343652722718,-6.47544875391759e-05,0.0946486890316009,0,0,0
12464,435414.79557659297,2010-11-06 15:21:08,1920.9831094119552,7,38,-1.0997490882873535,3.603913545608521,37.276837096644144,36.94404997414075,148.88404123167228,134.76742638108462,-6.47544875391759e-05,0.0946486890316009,0,0,0
12465,435444.8108125546,2010-11-06 15:21:38,1950.998345368632,7,38,-1.099929690361023,3.6006758213043213,37.276837096644144,36.95321960478328,148.88404123167228,134.80045772650797,-6.47544875391759e-05,0.0946486890316009,0,0,0
12466,435474.82619806967,2010-11-06 15:22:08,1981.013730893654,7,38,-1.099929690361023,3.597599983215332,37.276837096644144,36.96238932293191,148.88404123167228,134.83346037815764,-6.47544875391759e-05,0.0946486890316009,0,0,0
12467,435504.8415311387,2010-11-06 15:22:38,2011.0290639527127,7,38,-1.0997490882873535,3.5946860313415527,37.276837096644144,36.97155908832139,148.88404123167228,134.8664347449444,-6.47544875391759e-05,0.0946486890316009,0,0,0
12468,435534.8569016563,2010-11-06 15:23:08,2041.0444344802995,7,38,-1.0997490882873535,3.5914485454559326,37.276837096644144,36.9807288350827,148.88404123167228,134.89938164040814,-6.47544875391759e-05,0.0946486890316009,0,0,0
12469,435564.8722406552,2010-11-06 15:23:38,2071.05977346916,7,38,-1.0997490882873535,3.5886964797973637,37.276837096644144,36.98989861749767,148.88404123167228,134.93230131952788,-3.237724376958795e-05,0.0946486890316009,0,0,0
12470,435594.8876143908,2010-11-06 15:24:08,2101.0751472047536,7,38,-1.099929690361023,3.585782527923584,37.276837096644144,36.99906835018754,148.88404123167228,134.96519397064426,-3.237724376958795e-05,0.0946486890316009,0,0,0
12471,435624.9029654247,2010-11-06 15:24:38,2131.090498248705,7,38,-1.0997490882873535,3.5827066898345947,37.276837096644144,37.00823805737855,148.88404123167228,134.99805980118688,-6.47544875391759e-05,0.0946486890316009,0,0,0
12472,435654.9183356616,2010-11-06 15:25:08,2161.1058684855657,7,38,-1.099568486213684,3.5799546241760254,37.276837096644144,37.01740783619113,148.88404123167228,135.03089941772066,-3.237724376958795e-05,0.0946486890316009,0,0,0
12473,435684.93373672536,2010-11-06 15:25:38,2191.12126953935,7,38,-1.0997490882873535,3.577040672302246,37.276837096644144,37.02657762102094,148.88404123167228,135.06371261233522,-6.47544875391759e-05,0.0946486890316009,0,0,0
12474,435714.9490532783,2010-11-06 15:26:08,2221.13658609722,7,38,-1.099568486213684,3.5742886066436768,37.276837096644144,37.03574738065492,148.88404123167228,135.09649917396706,-3.237724376958795e-05,0.0946486890316009,0,0,0
12475,435744.96453562,2010-11-06 15:26:38,2251.152068443924,7,38,-1.0997490882873535,3.5712127685546875,37.276837096644144,37.04491714672351,148.88404123167228,135.12925917334047,-9.713172767078504e-05,0.0946486890316009,0,0,0
12476,435774.9797545491,2010-11-06 15:27:08,2281.167287368084,7,38,-1.099929690361023,3.568298816680908,37.276837096644144,37.054086827980704,148.88404123167228,135.16199211449864,-6.47544875391759e-05,0.0946486890316009,0,0,0
12477,435804.9951125203,2010-11-06 15:27:38,2311.182645334316,7,38,-1.099929690361023,3.565222978591919,37.276837096644144,37.063256586697975,148.88404123167228,135.19469810617883,-9.713172767078504e-05,0.0946486890316009,0,0,0
12478,435835.0104851833,2010-11-06 15:28:08,2341.1980179972315,7,38,-1.099929690361023,3.5621471405029297,37.276837096644144,37.07242637183166,148.88404123167228,135.22737672618177,-0.0001295089750783,0.0946486890316009,0,0,0
12479,435865.0258350944,2010-11-06 15:28:38,2371.213367908356,7,38,-1.099929690361023,3.5592331886291504,37.276837096644144,37.08159619157723,148.88404123167228,135.26002782033672,-6.47544875391759e-05,0.0946486890316009,0,0,0
12480,435895.0413814659,2010-11-06 15:29:08,2401.2289143300004,7,38,-1.0997490882873535,3.555995464324951,37.276837096644144,37.09076603876993,148.88404123167228,135.29265024516027,-6.47544875391759e-05,0.0946486890316009,0,0,0
12481,435925.0565973826,2010-11-06 15:29:38,2431.244130196529,7,38,-1.099929690361023,3.552757740020752,37.276837096644144,37.09993576325666,148.88404123167228,135.3252428530546,-6.47544875391759e-05,0.0946486890316009,0,0,0
12482,435955.0719448376,2010-11-06 15:30:08,2461.2594776515225,7,38,-1.099929690361023,3.5493581295013428,37.276837096644144,37.10910563177465,148.88404123167228,135.3578061649071,-9.713172767078504e-05,0.0946486890316009,0,0,0
12483,435985.08740991616,2010-11-06 15:30:38,2491.2749427251097,7,38,-1.099929690361023,3.5459585189819336,37.276837096644144,37.11827547112192,148.88404123167228,135.39033853449305,-0.0001295089750783,0.0946486890316009,0,0,0
12484,436015.10263844434,2010-11-06 15:31:08,2521.290171258256,7,38,-1.099929690361023,3.5425589084625244,37.276837096644144,37.12744525597966,148.88404123167228,135.42283870928864,-6.47544875391759e-05,0.0946486890316009,0,0,0
12485,436045.118002641,2010-11-06 15:31:38,2551.30553545504,7,38,-1.099929690361023,3.5388355255126958,37.276837096644144,37.13661507451117,148.88404123167228,135.45530594934954,-6.47544875391759e-05,0.0946486890316009,0,0,0
12486,436075.1333736098,2010-11-06 15:32:09,2581.320906423727,7,38,-1.099929690361023,3.535112142562866,37.276837096644144,37.14578487020143,148.88404123167228,135.48773885276051,-6.47544875391759e-05,0.0946486890316009,0,0,0
12487,436105.1487210948,2010-11-06 15:32:39,2611.3362539087952,7,38,-1.0997490882873535,3.531064987182617,37.276837096644144,37.15495469057768,148.88404123167228,135.52013624128173,-9.713172767078504e-05,0.0946486890316009,0,0,0
12488,436135.1640765147,2010-11-06 15:33:09,2641.3516093286703,7,38,-1.0997490882873535,3.526855945587158,37.276837096644144,37.16412451549916,148.88404123167228,135.55249653235765,-0.0001295089750783,0.0946486890316009,0,0,0
12489,436165.1796086908,2010-11-06 15:33:39,2671.367141514781,7,38,-1.0997490882873535,3.522646903991699,37.276837096644144,37.17329439385939,148.88404123167228,135.58481830483962,-0.0001295089750783,0.0946486890316009,0,0,0
12490,436195.1948123218,2010-11-06 15:34:09,2701.382345145767,7,38,-1.1001102924346924,3.5179522037506104,37.276837096644144,37.18246408353759,148.88404123167228,135.61709906362526,-0.0001295089750783,0.0946486890316009,0,0,0
12491,436225.2102854304,2010-11-06 15:34:39,2731.397818244387,7,38,-1.099929690361023,3.5134193897247314,37.276837096644144,37.19163396271017,148.88404123167228,135.6493384336113,-0.0001295089750783,0.0946486890316009,0,0,0
12492,436255.2255232066,2010-11-06 15:35:09,2761.4130560206054,7,38,-1.0997490882873535,3.5084011554718018,37.276837096644144,37.200803729988095,148.88404123167228,135.6815329040317,-0.0001618862152099,0.0946486890316009,0,0,0
12493,436285.2410692222,2010-11-06 15:35:39,2791.428602026212,7,38,-1.099929690361023,3.502897024154663,37.276837096644144,37.2099735493811,148.88404123167228,135.71367956767747,-0.0001618862152099,0.0946486890316009,0,0,0
12494,436315.25624794606,2010-11-06 15:36:09,2821.443780760051,7,38,-1.0997490882873535,3.4969072341918945,37.276837096644144,37.21914332168873,148.88404123167228,135.74577320783,-0.0001618862152099,0.0946486890316009,0,0,0
12495,436345.2716086692,2010-11-06 15:36:39,2851.459141498201,7,38,-1.0997490882873535,3.490269899368286,37.276837096644144,37.22831308037164,148.88404123167228,135.7778083481676,-0.0001942634553415,0.0946486890316009,0,0,0
12496,436375.2870023095,2010-11-06 15:37:09,2881.474535123443,7,38,-1.0997490882873535,3.482337474822998,37.276837096644144,37.23748287811795,148.88404123167228,135.80977776083253,-0.0002590179501567,0.0946486890316009,0,0,0
12497,436405.3023365215,2010-11-06 15:37:39,2911.489869420592,7,38,-1.0997490882873535,3.47343373298645,37.276837096644144,37.24665259696695,148.88404123167228,135.84167008680856,-0.0002266406954731,0.0946486890316009,0,0,0
12498,436435.3177235953,2010-11-06 15:38:09,2941.505256409268,7,38,-1.0997490882873535,3.4627492427825928,37.276837096644144,37.25582237056786,148.88404123167228,135.8734726280138,-0.0003237724304199,0.0946486890316009,0,0,0
12499,436465.3330707896,2010-11-06 15:38:39,2971.5206036036107,7,38,-1.0997490882873535,3.449798345565796,37.276837096644144,37.26499206675399,148.88404123167228,135.90516667185577,-0.0003561496851034,0.0946486890316009,0,0,0
12500,436495.3484098186,2010-11-06 15:39:09,3001.5359426325717,7,38,-1.099929690361023,3.43344783782959,37.276837096644144,37.27416180244633,148.88404123167228,135.93672795087576,-0.0004856586456298,0.0946486890316009,0,0,0
12501,436525.363762632,2010-11-06 15:39:39,3031.55129544594,7,38,-1.099568486213684,3.412726640701294,37.276837096644144,37.28333161756064,148.88404123167228,135.96812127127728,-0.0006151676061563,0.0946486890316009,0,0,0
12502,436555.3791306584,2010-11-06 15:40:09,3061.566663472283,7,38,-1.0997490882873535,3.3848822116851807,37.276837096644144,37.29250132365433,148.88404123167228,135.9992932595146,-0.0008418083307333,0.0946486890316009,0,0,0
12503,436585.3945065192,2010-11-06 15:40:39,3091.582039338194,7,38,-1.0997490882873535,3.346677303314209,37.276837096644144,37.3016710789956,148.88404123167228,136.0301658421892,-0.0011331557761877,0.0946486890316009,0,0,0
12504,436615.4098472675,2010-11-06 15:41:09,3121.5973800814345,7,38,-1.0997490882873535,3.293254852294922,37.276837096644144,37.31084085782256,148.88404123167228,136.06062218724432,-0.0016188621520996,0.0946486890316009,0,0,0
12505,436645.42529258673,2010-11-06 15:41:39,3151.6128255159992,7,38,-1.099929690361023,3.2173304557800293,37.276837096644144,37.32001073011457,148.88404123167228,136.09049262664908,-0.0023311614058911,0.0946486890316009,0,0,0
12506,436675.44079973537,2010-11-06 15:42:09,3181.6283325393,7,38,-1.0997490882873535,3.103363037109375,37.276837096644144,37.32918053118012,148.88404123167228,136.1195102979926,-0.0036262036301195,0.0946486890316009,0,0,0
12507,436703.706075041,2010-11-06 15:42:37,3209.8936078600045,7,38,-1.099929690361023,2.9029483795166016,37.276837096644144,37.33781561707038,148.88404123167228,136.14556858996832,-0.0082238195464015,0.0946486890316009,0,0,0
12508,436718.424698264,2010-11-06 15:42:52,3224.61223107796,7,38,-1.099929690361023,2.702857732772827,37.276837096644144,37.3423121554795,148.88404123167228,136.1581959929715,-0.0119147775694727,0.0946486890316009,0,0,0
12509,436718.6434476612,2010-11-06 15:42:52,3224.830980480121,7,38,-1.0997490882873535,2.699620008468628,37.276837096644144,37.34237898307634,148.88404123167228,136.15837652105418,-0.0119147775694727,0.0946486890316009,0,0,0
12510,436778.6584901048,2010-11-06 15:43:52,60.0150752158272,8,38,0.0,3.285322427749634,37.276837096644144,37.34237905814748,148.88404123167228,136.15837672371774,0.0011655807029455,0.0946486890316009,0,0,0
12511,436778.8467462416,2010-11-06 15:43:52,0.187644960690339,9,38,-1.9243103452026844e-05,3.285808086395264,37.276837096644144,37.342379059150495,148.88404123167228,136.1583767270135,0.0,0.0931148082017898,0,0,0
12512,436783.6746781524,2010-11-06 15:43:57,5.015576861473447,9,38,0.0005225847125984,3.293092966079712,37.27683782232281,37.342379059233465,148.88404361913746,136.1583767272861,0.0010360718006268,0.0931148082017898,0,0,0
