Data_Point,Test_Time(s),Date_Time,Step_Time(s),Step_Index,Cycle_Index,Current(A),Voltage(V),Charge_Capacity(Ah),Discharge_Capacity(Ah),Charge_Energy(Wh),Discharge_Energy(Wh),dV/dt(V/s),Internal_Resistance(Ohm),Is_FC_Data,AC_Impedance(Ohm),ACI_Phase_Angle(Deg)
978,34196.42483704611,2010-11-01 23:53:28,30.01529666320932,1,4,0.0,3.363189458847046,2.892058254424186,2.954295657443265,11.573864610299372,10.77580048285306,0.0007770538213662,0.0914128422737121,0,0,0
979,34226.440140957406,2010-11-01 23:53:58,60.03060057451099,1,4,0.0,3.38714861869812,2.892058254424186,2.954295657443265,11.573864610299372,10.77580048285306,0.0005180359003134,0.0914128422737121,0,0,0
980,34256.455450192,2010-11-01 23:54:28,90.04590980910042,1,4,0.0,3.405603647232056,2.892058254424186,2.954295657443265,11.573864610299372,10.77580048285306,0.0004209041653666,0.0914128422737121,0,0,0
981,34286.42387254973,2010-11-01 23:54:58,120.01433216683182,1,4,0.0,3.420335292816162,2.892058254424186,2.954295657443265,11.573864610299372,10.77580048285306,0.0003561496851034,0.0914128422737121,0,0,0
982,34316.43823209423,2010-11-01 23:55:28,30.015308272187117,2,4,0.5499359965324402,3.5786595344543457,2.896644805470735,2.954295657443265,11.590107457259752,10.77580048285306,0.0016512393485754,0.0914128422737121,0,0,0
983,34346.45354315337,2010-11-01 23:55:58,60.0306193313309,2,4,0.550297200679779,3.629653453826904,2.901231370572649,2.954295657443265,11.60664494040672,10.77580048285306,0.0011979580158367,0.0914128422737121,0,0,0
984,34376.468830508355,2010-11-01 23:56:28,90.04590668630543,2,4,0.5499359965324402,3.6660778522491455,2.90581791281259,2.954295657443265,11.623379779714076,10.77580048285306,0.0008094310760498,0.0914128422737121,0,0,0
985,34406.484166239075,2010-11-01 23:56:58,120.0612424220458,2,4,0.5499359965324402,3.69489336013794,2.910404422888101,2.954295657443265,11.640263124050854,10.77580048285306,0.0006799221155233,0.0914128422737121,0,0,0
986,34436.4995569721,2010-11-01 23:57:28,150.07663317511793,2,4,0.5499359965324402,3.718204975128174,2.914990929023601,2.954295657443265,11.65726524535532,10.77580048285306,0.0005504131549969,0.0914128422737121,0,0,0
987,34466.51499173503,2010-11-01 23:57:58,180.0920679179953,2,4,0.5501165986061096,3.737631320953369,2.91957744050807,2.954295657443265,11.674364929294503,10.77580048285306,0.0004532813909463,0.0914128422737121,0,0,0
988,34496.530039121004,2010-11-01 23:58:28,210.1071152989578,2,4,0.5501165986061096,3.753334045410156,2.924163829955861,2.954295657443265,11.691544504618282,10.77580048285306,0.0003884792386088,0.0914128422737121,0,0,0
989,34526.54535249592,2010-11-01 23:58:58,240.1224286788946,2,4,0.5501165986061096,3.764504194259644,2.928750312071856,2.954295657443265,11.708786230416129,10.77580048285306,0.0002590179501567,0.0914128422737121,0,0,0
990,34556.56064754009,2010-11-01 23:59:29,270.13772374812515,2,4,0.5504778623580933,3.770979642868042,2.933336791160591,2.954295657443265,11.726067575118106,10.77580048285306,0.0001618862152099,0.0914128422737121,0,0,0
991,34586.575956905006,2010-11-01 23:59:59,300.1530330829648,2,4,0.5501165986061096,3.775188684463501,2.937923267075393,2.954295657443265,11.743372954811624,10.77580048285306,0.0001295089750783,0.0914128422737121,0,0,0
992,34616.59126072107,2010-11-02 00:00:29,330.1683368990288,2,4,0.5499359965324402,3.77891206741333,2.942509710477079,2.954295657443265,11.760696015714238,10.77580048285306,9.713172767078504e-05,0.0914128422737121,0,0,0
993,34646.60915732914,2010-11-02 00:00:59,360.1862335923132,2,4,0.550297200679779,3.7823116779327393,2.94709650229117,2.954295657443265,11.77803652972845,10.77580048285306,0.0001618862152099,0.0914128422737121,0,0,0
994,34676.62186077929,2010-11-02 00:01:29,390.19893695725096,2,4,0.5499359965324402,3.7855494022369385,2.951682502863172,2.954295657443265,11.795389770027404,10.77580048285306,3.237724376958795e-05,0.0914128422737121,0,0,0
995,34706.63717523692,2010-11-02 00:01:59,420.21425144495294,2,4,0.5501165986061096,3.788949012756348,2.956268892652286,2.954295657443265,11.812759856672212,10.77580048285306,6.47544875391759e-05,0.0914128422737121,0,0,0
996,34736.65249137374,2010-11-02 00:02:29,450.2295675817713,2,4,0.550297200679779,3.792348623275757,2.960855361975273,2.954295657443265,11.830145312380669,10.77580048285306,0.0001295089750783,0.0914128422737121,0,0,0
997,34766.66785781613,2010-11-02 00:02:59,480.2449339940852,2,4,0.5501165986061096,3.795424461364746,2.965441796384314,2.954295657443265,11.847545433252378,10.77580048285306,6.47544875391759e-05,0.0914128422737121,0,0,0
998,34796.68303089586,2010-11-02 00:03:29,510.2601070738112,2,4,0.5501165986061096,3.798500299453736,2.970028286183126,2.954295657443265,11.86496026714082,10.77580048285306,6.47544875391759e-05,0.0914128422737121,0,0,0
999,34826.69837664158,2010-11-02 00:03:59,540.2754528195379,2,4,0.5501165986061096,3.8015761375427246,2.974614731754022,2.954295657443265,11.882389163454905,10.77580048285306,6.47544875391759e-05,0.0914128422737121,0,0,0
1000,34856.71370694376,2010-11-02 00:04:29,570.2907831217154,2,4,0.550297200679779,3.804813861846924,2.979201303698694,2.954295657443265,11.899832562476137,10.77580048285306,0.0001295089750783,0.0914128422737121,0,0,0
1001,34886.72898054941,2010-11-02 00:04:59,600.3060567273694,2,4,0.550297200679779,3.807889699935913,2.983787797350347,2.954295657443265,11.917289569946622,10.77580048285306,0.0001295089750783,0.0914128422737121,0,0,0
1002,34916.74437510197,2010-11-02 00:05:29,630.3214512799257,2,4,0.5501165986061096,3.810803651809693,2.988374296326311,2.954295657443265,11.934760420544704,10.77580048285306,9.713172767078504e-05,0.0914128422737121,0,0,0
1003,34946.759567615205,2010-11-02 00:05:59,660.3366437981732,2,4,0.550297200679779,3.814041376113892,2.992960726430627,2.954295657443265,11.952244925863058,10.77580048285306,0.0001295089750783,0.0914128422737121,0,0,0
1004,34976.774854098,2010-11-02 00:06:29,690.351930275958,2,4,0.5501165986061096,3.816955327987671,2.997547194243861,2.954295657443265,11.969743729917814,10.77580048285306,9.713172767078504e-05,0.0914128422737121,0,0,0
1005,35006.79015433513,2010-11-02 00:06:59,720.3672305130884,2,4,0.5499359965324402,3.81970739364624,3.00213361825674,2.954295657443265,11.987256388330216,10.77580048285306,3.237724376958795e-05,0.0914128422737121,0,0,0
1006,35036.80547314362,2010-11-02 00:07:29,750.3825493466384,2,4,0.5501165986061096,3.8231070041656494,3.006720161886759,2.954295657443265,12.00478387181446,10.77580048285306,6.47544875391759e-05,0.0914128422737121,0,0,0
1007,35066.82076744593,2010-11-02 00:07:59,780.397843623892,2,4,0.5501165986061096,3.8263447284698486,3.011306623886747,2.954295657443265,12.022325727348,10.77580048285306,6.47544875391759e-05,0.0914128422737121,0,0,0
1008,35096.836210344176,2010-11-02 00:08:29,810.4132865221264,2,4,0.5501165986061096,3.829582452774048,3.015893138135163,2.954295657443265,12.039882933822726,10.77580048285306,3.237724376958795e-05,0.0914128422737121,0,0,0
1009,35126.85136120343,2010-11-02 00:08:59,840.4284373863991,2,4,0.550297200679779,3.833143949508667,3.020479593568512,2.954295657443265,12.057455403297883,10.77580048285306,0.0001295089750783,0.0914128422737121,0,0,0
1010,35156.86691517392,2010-11-02 00:09:29,870.4439913819496,2,4,0.5501165986061096,3.836543321609497,3.025066117797995,2.954295657443265,12.075043831027392,10.77580048285306,6.47544875391759e-05,0.0914128422737121,0,0,0
1011,35186.88198657985,2010-11-02 00:09:59,900.4590627628195,2,4,0.5501165986061096,3.839942932128906,3.029652583348555,2.954295657443265,12.092647870033453,10.77580048285306,6.47544875391759e-05,0.0914128422737121,0,0,0
1012,35216.897276957374,2010-11-02 00:10:29,930.4743531353264,2,4,0.5501165986061096,3.843342542648315,3.03423912215821,2.954295657443265,12.1102679833715,10.77580048285306,6.47544875391759e-05,0.0914128422737121,0,0,0
1013,35246.91259468817,2010-11-02 00:10:59,960.4896708661236,2,4,0.550297200679779,3.846904039382935,3.038825672266286,2.954295657443265,12.127903736169968,10.77580048285306,9.713172767078504e-05,0.0914128422737121,0,0,0
1014,35276.92788061959,2010-11-02 00:11:29,990.5049567975448,2,4,0.550297200679779,3.850141763687134,3.043412206459749,2.954295657443265,12.145554809529571,10.77580048285306,9.713172767078504e-05,0.0914128422737121,0,0,0
1015,35306.94319276645,2010-11-02 00:11:59,1020.5202689444036,2,4,0.5501165986061096,3.853217601776123,3.047998772603688,2.954295657443265,12.163221135866689,10.77580048285306,6.47544875391759e-05,0.0914128422737121,0,0,0
1016,35336.95848719909,2010-11-02 00:12:29,1050.535563377045,2,4,0.5501165986061096,3.856455326080322,3.052585323019708,2.954295657443265,12.180902102689632,10.77580048285306,6.47544875391759e-05,0.0914128422737121,0,0,0
1017,35366.973850463546,2010-11-02 00:12:59,1080.5509267567893,2,4,0.5497553944587708,3.859531164169312,3.057171852848666,2.954295657443265,12.198597501556112,10.77580048285306,6.47544875391759e-05,0.0914128422737121,0,0,0
1018,35396.9890866508,2010-11-02 00:13:29,1110.5661628538155,2,4,0.5501165986061096,3.862768888473511,3.061758437112347,2.954295657443265,12.216307241578052,10.77580048285306,9.713172767078504e-05,0.0914128422737121,0,0,0
1019,35427.00453897256,2010-11-02 00:13:59,1140.581615175573,2,4,0.550297200679779,3.86568284034729,3.066344949722267,2.954295657443265,12.234030365723989,10.77580048285306,0.0001295089750783,0.0914128422737121,0,0,0
1020,35457.01971323523,2010-11-02 00:14:29,1170.5967894131893,2,4,0.5501165986061096,3.868596792221069,3.070931373557091,2.954295657443265,12.251766330115156,10.77580048285306,0.0001295089750783,0.0914128422737121,0,0,0
1021,35487.03500657515,2010-11-02 00:14:59,1200.612082753103,2,4,0.5501165986061096,3.8711869716644287,3.075517916386009,2.954295657443265,12.269515506279513,10.77580048285306,6.47544875391759e-05,0.0914128422737121,0,0,0
1022,35517.050299930095,2010-11-02 00:15:29,1230.6273761080542,2,4,0.550297200679779,3.873777151107788,3.080104463481011,2.954295657443265,12.28727693047276,10.77580048285306,9.713172767078504e-05,0.0914128422737121,0,0,0
1023,35547.06561988144,2010-11-02 00:15:59,1260.6426960593944,2,4,0.5501165986061096,3.8762054443359375,3.084690976897434,2.954295657443265,12.305049722868192,10.77580048285306,3.237724376958795e-05,0.0914128422737121,0,0,0
1024,35577.080907727635,2010-11-02 00:16:29,1290.6579839055953,2,4,0.5499359965324402,3.878471851348877,3.089277487779708,2.954295657443265,12.322833526817195,10.77580048285306,3.237724376958795e-05,0.0914128422737121,0,0,0
1025,35607.096212400844,2010-11-02 00:16:59,1320.6732885787983,2,4,0.5501165986061096,3.880738258361816,3.093864054599492,2.954295657443265,12.340627930224342,10.77580048285306,3.237724376958795e-05,0.0914128422737121,0,0,0
1026,35637.111844200605,2010-11-02 00:17:29,1350.6889205239231,2,4,0.5501165986061096,3.882842779159546,3.098450630707008,2.954295657443265,12.358432128878007,10.77580048285306,3.237724376958795e-05,0.0914128422737121,0,0,0
1027,35667.12719831723,2010-11-02 00:17:59,1380.7042746355326,2,4,0.5499359965324402,3.884623527526856,3.103037214794704,2.954295657443265,12.376245500724174,10.77580048285306,3.237724376958795e-05,0.0914128422737121,0,0,0
1028,35697.14213142795,2010-11-02 00:18:29,1410.7192076359836,2,4,0.5499359965324402,3.886404275894165,3.107623203639525,2.954295657443265,12.394064992861765,10.77580048285306,3.237724376958795e-05,0.0914128422737121,0,0,0
1029,35727.157438532224,2010-11-02 00:18:59,1440.7345147101803,2,4,0.5499359965324402,3.888346910476685,3.112208773362443,2.954295657443265,12.411890806335172,10.77580048285306,9.713172767078504e-05,0.0914128422737121,0,0,0
1030,35757.172722062656,2010-11-02 00:19:29,1470.7497982406082,2,4,0.5499359965324402,3.889803886413574,3.116794413834839,2.954295657443265,12.429724445108455,10.77580048285306,3.237724376958795e-05,0.0914128422737121,0,0,0
1031,35787.188051242025,2010-11-02 00:19:59,1500.765127430008,2,4,0.5497553944587708,3.891422748565674,3.121380125748644,2.954295657443265,12.44756543902305,10.77580048285306,9.713172767078504e-05,0.0914128422737121,0,0,0
1032,35817.20333136896,2010-11-02 00:20:29,1530.7804075519275,2,4,0.5501165986061096,3.892879724502564,3.125966340764242,2.954295657443265,12.465415314776752,10.77580048285306,3.237724376958795e-05,0.0914128422737121,0,0,0
1033,35847.218651480696,2010-11-02 00:20:59,1560.7957276586558,2,4,0.550297200679779,3.894336700439453,3.130552971593375,2.954295657443265,12.483273404833907,10.77580048285306,6.47544875391759e-05,0.0914128422737121,0,0,0
1034,35877.23396853982,2010-11-02 00:21:29,1590.8110447428387,2,4,0.550297200679779,3.895469903945923,3.135139570588228,2.954295657443265,12.501137361085595,10.77580048285306,3.237724376958795e-05,0.0914128422737121,0,0,0
1035,35907.2492527319,2010-11-02 00:21:59,1620.8263289349184,2,4,0.550297200679779,3.896926879882813,3.139726092552854,2.954295657443265,12.519007214887775,10.77580048285306,6.47544875391759e-05,0.0914128422737121,0,0,0
1036,35937.26466867285,2010-11-02 00:22:29,1650.8417448508003,2,4,0.5501165986061096,3.898221969604492,3.144312616435897,2.954295657443265,12.53688314880584,10.77580048285306,3.237724376958795e-05,0.0914128422737121,0,0,0
1037,35967.27984220871,2010-11-02 00:22:59,1680.8569183866653,2,4,0.5501165986061096,3.899517059326172,3.148899086762258,2.954295657443265,12.554764955857529,10.77580048285306,6.47544875391759e-05,0.0914128422737121,0,0,0
1038,35997.29513974911,2010-11-02 00:23:29,1710.872215937089,2,4,0.5501165986061096,3.900812149047852,3.153485637650606,2.954295657443265,12.572653035363391,10.77580048285306,3.237724376958795e-05,0.0914128422737121,0,0,0
1039,36027.31045501876,2010-11-02 00:23:59,1740.887531196718,2,4,0.5501165986061096,3.901945352554321,3.158072201641659,2.954295657443265,12.59054717983972,10.77580048285306,0.0,0.0914128422737121,0,0,0
1040,36057.32574960679,2010-11-02 00:24:29,1770.9028257847472,2,4,0.5501165986061096,3.903402328491211,3.162658705225446,2.954295657443265,12.608446991417525,10.77580048285306,3.237724376958795e-05,0.0914128422737121,0,0,0
1041,36087.34106355815,2010-11-02 00:24:59,1800.9181397361106,2,4,0.5501165986061096,3.9045355319976807,3.167245259417823,2.954295657443265,12.626352994658957,10.77580048285306,3.237724376958795e-05,0.0914128422737121,0,0,0
1042,36117.35648455171,2010-11-02 00:25:29,1830.93356073468,2,4,0.5501165986061096,3.9059925079345694,3.171831840871223,2.954295657443265,12.644264982636546,10.77580048285306,3.237724376958795e-05,0.0914128422737121,0,0,0
1043,36147.37191441742,2010-11-02 00:25:59,1860.948990655521,2,4,0.5501165986061096,3.90744948387146,3.176418273046875,2.954295657443265,12.662182367230695,10.77580048285306,6.47544875391759e-05,0.0914128422737121,0,0,0
1044,36177.38709585801,2010-11-02 00:26:29,1890.9641720309544,2,4,0.5501165986061096,3.9085826873779297,3.181004759651621,2.954295657443265,12.680106010499678,10.77580048285306,0.0,0.0914128422737121,0,0,0
1045,36207.40226869212,2010-11-02 00:26:59,1920.97934487008,2,4,0.5501165986061096,3.9100396633148193,3.18559117556757,2.954295657443265,12.69803547063088,10.77580048285306,9.713172767078504e-05,0.0914128422737121,0,0,0
1046,36237.41760692911,2010-11-02 00:27:29,1950.9946831170885,2,4,0.5501165986061096,3.911172866821289,3.190177694725338,2.954295657443265,12.715971314520592,10.77580048285306,0.0,0.0914128422737121,0,0,0
1047,36267.43289698583,2010-11-02 00:27:59,1981.009973183832,2,4,0.5499359965324402,3.9124679565429688,3.194764183200743,2.954295657443265,12.733913211137356,10.77580048285306,3.237724376958795e-05,0.0914128422737121,0,0,0
1048,36297.44818644104,2010-11-02 00:28:29,2011.025262618999,2,4,0.5501165986061096,3.9139246940612793,3.199350693082348,2.954295657443265,12.751861309574434,10.77580048285306,3.237724376958795e-05,0.0914128422737121,0,0,0
1049,36327.46351357531,2010-11-02 00:28:59,2041.0405897532687,2,4,0.5501165986061096,3.915219783782959,3.203937238170502,2.954295657443265,12.769815779148018,10.77580048285306,3.237724376958795e-05,0.0914128422737121,0,0,0
1050,36357.47878000806,2010-11-02 00:29:29,2071.055856186018,2,4,0.5501165986061096,3.9166767597198486,3.208523762186695,2.954295657443265,12.787776210338922,10.77580048285306,3.237724376958795e-05,0.0914128422737121,0,0,0
1051,36387.49434396347,2010-11-02 00:29:59,2101.0714201464425,2,4,0.5501165986061096,3.917971849441528,3.213110308134467,2.954295657443265,12.805743086771654,10.77580048285306,6.47544875391759e-05,0.0914128422737121,0,0,0
1052,36417.50939298854,2010-11-02 00:30:29,2131.0864691715087,2,4,0.5501165986061096,3.919428825378418,3.217696763873934,2.954295657443265,12.823715887690431,10.77580048285306,3.237724376958795e-05,0.0914128422737121,0,0,0
1053,36447.52468999762,2010-11-02 00:30:59,2161.101766175569,2,4,0.5499359965324402,3.9207239151000977,3.222283278641925,2.954295657443265,12.84169530854412,10.77580048285306,3.237724376958795e-05,0.0914128422737121,0,0,0
1054,36477.53999541768,2010-11-02 00:31:30,2191.117071595637,2,4,0.5501165986061096,3.9221808910369873,3.226869764868946,2.954295657443265,12.85968091777603,10.77580048285306,3.237724376958795e-05,0.0914128422737121,0,0,0
1055,36507.55531935898,2010-11-02 00:32:00,2221.132395536936,2,4,0.5501165986061096,3.923637866973877,3.231456274417341,2.954295657443265,12.877673101822287,10.77580048285306,6.47544875391759e-05,0.0914128422737121,0,0,0
1056,36537.57061195203,2010-11-02 00:32:30,2251.1476881299864,2,4,0.5501165986061096,3.925094842910767,3.236042768043602,2.954295657443265,12.8956716835513,10.77580048285306,6.47544875391759e-05,0.0914128422737121,0,0,0
1057,36567.588499482445,2010-11-02 00:33:00,2281.165575665411,2,4,0.5501165986061096,3.9263899326324463,3.240629712196077,2.954295657443265,12.913678481137724,10.77580048285306,3.237724376958795e-05,0.0914128422737121,0,0,0
1058,36597.60121720823,2010-11-02 00:33:30,2311.178293386183,2,4,0.5499359965324402,3.927685022354126,3.245215779944902,2.954295657443265,12.931688427513826,10.77580048285306,0.0,0.0914128422737121,0,0,0
1059,36627.61652923479,2010-11-02 00:34:00,2341.193605412742,2,4,0.5501165986061096,3.929141998291016,3.249802300468921,2.954295657443265,12.949706764623231,10.77580048285306,3.237724376958795e-05,0.0914128422737121,0,0,0
1060,36657.63182474512,2010-11-02 00:34:30,2371.208900948136,2,4,0.5501165986061096,3.930922746658325,3.25438877587762,2.954295657443265,12.967731598204235,10.77580048285306,6.47544875391759e-05,0.0914128422737121,0,0,0
1061,36687.64712958373,2010-11-02 00:35:00,2401.224205761689,2,4,0.5499359965324402,3.932055950164795,3.258975275965547,2.954295657443265,12.9857631936121,10.77580048285306,3.237724376958795e-05,0.0914128422737121,0,0,0
1062,36717.66246960517,2010-11-02 00:35:30,2431.239545783128,2,4,0.5501165986061096,3.9336748123168954,3.263561747987081,2.954295657443265,13.003801421699263,10.77580048285306,6.47544875391759e-05,0.0914128422737121,0,0,0
1063,36747.67774154668,2010-11-02 00:36:00,2461.2548177296408,2,4,0.550297200679779,3.935293674468994,3.268148309857272,2.954295657443265,13.02184681709759,10.77580048285306,6.47544875391759e-05,0.0914128422737121,0,0,0
1064,36777.69315414929,2010-11-02 00:36:30,2491.27023032724,2,4,0.5499359965324402,3.936426877975464,3.272734856495989,2.954295657443265,13.039898965352569,10.77580048285306,0.0,0.0914128422737121,0,0,0
1065,36807.70831527417,2010-11-02 00:37:00,2521.2853914471125,2,4,0.5501165986061096,3.938207626342773,3.277321315300394,2.954295657443265,13.057957680317838,10.77580048285306,0.0,0.0914128422737121,0,0,0
1066,36837.72364089968,2010-11-02 00:37:30,2551.300717077628,2,4,0.550297200679779,3.939826488494873,3.281907690302622,2.954295657443265,13.076023017980408,10.77580048285306,6.47544875391759e-05,0.0914128422737121,0,0,0
1067,36867.73896959785,2010-11-02 00:38:00,2581.316045785827,2,4,0.5501165986061096,3.9412834644317623,3.286494115677034,2.954295657443265,13.094095581481646,10.77580048285306,6.47544875391759e-05,0.0914128422737121,0,0,0
1068,36897.75427119337,2010-11-02 00:38:30,2611.331347371323,2,4,0.5501165986061096,3.942740440368652,3.291080563082528,2.954295657443265,13.112175226451956,10.77580048285306,3.237724376958795e-05,0.0914128422737121,0,0,0
1069,36927.769607405295,2010-11-02 00:39:00,2641.3466835832523,2,4,0.5501165986061096,3.944359302520752,3.295666998683651,2.954295657443265,13.13026199638954,10.77580048285306,6.47544875391759e-05,0.0914128422737121,0,0,0
1070,36957.78499821852,2010-11-02 00:39:30,2671.362074421537,2,4,0.5501165986061096,3.945978164672852,3.300253513229475,2.954295657443265,13.148356295968812,10.77580048285306,6.47544875391759e-05,0.0914128422737121,0,0,0
1071,36987.80018753378,2010-11-02 00:40:00,2701.3772637117268,2,4,0.550297200679779,3.947435140609741,3.30484001333916,2.954295657443265,13.16645768748935,10.77580048285306,0.0,0.0914128422737121,0,0,0
1072,37017.81548449773,2010-11-02 00:40:30,2731.392560725812,2,4,0.550297200679779,3.949215888977051,3.309426451583305,2.954295657443265,13.184566111617537,10.77580048285306,6.47544875391759e-05,0.0914128422737121,0,0,0
1073,37047.8307625545,2010-11-02 00:41:00,2761.407838752501,2,4,0.5499359965324402,3.950672864913941,3.314013034001909,2.954295657443265,13.202682462031689,10.77580048285306,3.237724376958795e-05,0.0914128422737121,0,0,0
1074,37077.84618395407,2010-11-02 00:41:30,2791.423260132022,2,4,0.5501165986061096,3.95229172706604,3.3185997024768,2.954295657443265,13.220806604548144,10.77580048285306,6.47544875391759e-05,0.0914128422737121,0,0,0
1075,37107.8613748232,2010-11-02 00:42:00,2821.4384510011528,2,4,0.550297200679779,3.9540724754333496,3.323186258401802,2.954295657443265,13.2389377689559,10.77580048285306,6.47544875391759e-05,0.0914128422737121,0,0,0
1076,37137.8768114558,2010-11-02 00:42:30,2851.4538876437723,2,4,0.5501165986061096,3.9555294513702393,3.327772890904645,2.954295657443265,13.257076766539534,10.77580048285306,3.237724376958795e-05,0.0914128422737121,0,0,0
1077,37167.89197377866,2010-11-02 00:43:00,2881.4690499566227,2,4,0.5501165986061096,3.957148313522339,3.332359550220359,2.954295657443265,13.275223448671696,10.77580048285306,6.47544875391759e-05,0.0914128422737121,0,0,0
1078,37197.907282682434,2010-11-02 00:43:30,2911.484358870411,2,4,0.5499359965324402,3.9587671756744394,3.336946076047938,2.954295657443265,13.293377077225424,10.77580048285306,3.237724376958795e-05,0.0914128422737121,0,0,0
1079,37227.92259067392,2010-11-02 00:44:00,2941.499666856885,2,4,0.5499359965324402,3.960386037826538,3.341532630182689,2.954295657443265,13.311538558939846,10.77580048285306,3.237724376958795e-05,0.0914128422737121,0,0,0
1080,37257.93788462536,2010-11-02 00:44:30,2971.5149608083257,2,4,0.5501165986061096,3.962166786193848,3.346119169241097,2.954295657443265,13.329707700954197,10.77580048285306,0.0,0.0914128422737121,0,0,0
1081,37287.95319089756,2010-11-02 00:45:00,3001.5302670855326,2,4,0.5501165986061096,3.964109420776367,3.350705689710227,2.954295657443265,13.347884554289417,10.77580048285306,6.47544875391759e-05,0.0914128422737121,0,0,0
1082,37317.96863228702,2010-11-02 00:45:30,3031.545708475001,2,4,0.550297200679779,3.965728282928467,3.355292329805484,2.954295657443265,13.366069847106973,10.77580048285306,6.47544875391759e-05,0.0914128422737121,0,0,0
1083,37347.98395109551,2010-11-02 00:46:00,3061.5610272734634,2,4,0.550297200679779,3.9673471450805664,3.359878958125036,2.954295657443265,13.384263077844954,10.77580048285306,3.237724376958795e-05,0.0914128422737121,0,0,0
1084,37377.99923363848,2010-11-02 00:46:30,3091.576309821439,2,4,0.5501165986061096,3.969127893447876,3.364465657218542,2.954295657443265,13.402464573212164,10.77580048285306,0.0,0.0914128422737121,0,0,0
1085,37408.01440450268,2010-11-02 00:47:00,3121.591480680622,2,4,0.5501165986061096,3.9709086418151855,3.369052252612999,2.954295657443265,13.420673770590316,10.77580048285306,6.47544875391759e-05,0.0914128422737121,0,0,0
1086,37438.02986699481,2010-11-02 00:47:30,3151.6069431777782,2,4,0.550297200679779,3.972851276397705,3.373638912265817,2.954295657443265,13.43889145653711,10.77580048285306,6.47544875391759e-05,0.0914128422737121,0,0,0
1087,37468.045027939246,2010-11-02 00:48:00,3181.6221041172003,2,4,0.5501165986061096,3.974632024765015,3.378225545051747,2.954295657443265,13.45711737769524,10.77580048285306,6.47544875391759e-05,0.0914128422737121,0,0,0
1088,37498.06032274782,2010-11-02 00:48:30,3211.6373989257804,2,4,0.550297200679779,3.976574659347534,3.382812217617445,2.954295657443265,13.475351822315483,10.77580048285306,6.47544875391759e-05,0.0914128422737121,0,0,0
1089,37528.075805129614,2010-11-02 00:49:00,3241.6528813075715,2,4,0.5501165986061096,3.978193521499634,3.387398915542096,2.954295657443265,13.493594590369732,10.77580048285306,6.47544875391759e-05,0.0914128422737121,0,0,0
1090,37558.09135592217,2010-11-02 00:49:30,3271.66843210514,2,4,0.5501165986061096,3.980136156082153,3.391985511465379,2.954295657443265,13.511845711718156,10.77580048285306,3.237724376958795e-05,0.0914128422737121,0,0,0
1091,37588.1062480907,2010-11-02 00:50:00,3301.683324273668,2,4,0.5504778623580933,3.982240676879883,3.396572046373436,2.954295657443265,13.530105384002308,10.77580048285306,6.47544875391759e-05,0.0914128422737121,0,0,0
1092,37618.12153799203,2010-11-02 00:50:30,3331.6986141699854,2,4,0.5499359965324402,3.9838595390319824,3.401158611019411,2.954295657443265,13.548373911489398,10.77580048285306,0.0,0.0914128422737121,0,0,0
1093,37648.13683406878,2010-11-02 00:51:00,3361.7139102467318,2,4,0.5501165986061096,3.986125946044922,3.405745136475657,2.954295657443265,13.566651138601372,10.77580048285306,9.713172767078504e-05,0.0914128422737121,0,0,0
1094,37678.1521500903,2010-11-02 00:51:30,3391.7292262933247,2,4,0.5501165986061096,3.9877448081970215,3.410331739270899,2.954295657443265,13.584937603846107,10.77580048285306,3.237724376958795e-05,0.0914128422737121,0,0,0
1095,37708.167497139286,2010-11-02 00:52:00,3421.7445733222544,2,4,0.5501165986061096,3.990011215209961,3.414918347400355,2.954295657443265,13.603232985724723,10.77580048285306,6.47544875391759e-05,0.0914128422737121,0,0,0
1096,37738.18274835405,2010-11-02 00:52:30,3451.759824532005,2,4,0.550297200679779,3.991953849792481,3.419504838028315,2.954295657443265,13.621537102354004,10.77580048285306,6.47544875391759e-05,0.0914128422737121,0,0,0
1097,37768.1980794081,2010-11-02 00:53:00,3481.775155586059,2,4,0.550297200679779,3.993896484375,3.424091482346846,2.954295657443265,13.639851009816544,10.77580048285306,6.47544875391759e-05,0.0914128422737121,0,0,0
1098,37798.21336905881,2010-11-02 00:53:30,3511.790445236764,2,4,0.5501165986061096,3.9960007667541504,3.428678003477737,2.954295657443265,13.658173721554656,10.77580048285306,6.47544875391759e-05,0.0914128422737121,0,0,0
1099,37828.228728699214,2010-11-02 00:54:00,3541.805804877174,2,4,0.5501165986061096,3.99794340133667,3.433264617542356,2.954295657443265,13.676506264719812,10.77580048285306,3.237724376958795e-05,0.0914128422737121,0,0,0
1100,37858.24396421981,2010-11-02 00:54:30,3571.8210403977623,2,4,0.5501165986061096,4.0000481605529785,3.437851192671067,2.954295657443265,13.694848048064877,10.77580048285306,6.480216688942164e-05,0.0914128422737121,0,0,0
1101,37888.25926707848,2010-11-02 00:55:00,3601.8363432614487,2,4,0.550297200679779,4.002314567565918,3.442437746450347,2.954295657443265,13.71319943871678,10.77580048285306,6.47544875391759e-05,0.0914128422737121,0,0,0
1102,37918.274581892,2010-11-02 00:55:30,3631.851658069952,2,4,0.5499359965324402,4.0042572021484375,3.447024357351344,2.954295657443265,13.731560794326892,10.77580048285306,6.47544875391759e-05,0.0914128422737121,0,0,0
1103,37948.289884755686,2010-11-02 00:56:00,3661.8669609336384,2,4,0.5501165986061096,4.006361484527588,3.451610915860925,2.954295657443265,13.749931713529946,10.77580048285306,3.23295607813634e-05,0.0914128422737121,0,0,0
1104,37978.30520368949,2010-11-02 00:56:30,3691.8822798674382,2,4,0.5501165986061096,4.008627891540527,3.456197432564955,2.954295657443265,13.768312374897365,10.77580048285306,6.47544875391759e-05,0.0914128422737121,0,0,0
1105,38008.320483069554,2010-11-02 00:57:00,3721.897559247506,2,4,0.550297200679779,4.010894298553467,3.460783983954371,2.954295657443265,13.786703106198445,10.77580048285306,6.47544875391759e-05,0.0914128422737121,0,0,0
1106,38038.33578786807,2010-11-02 00:57:30,3751.912864046023,2,4,0.5501165986061096,4.013160705566406,3.465370515325649,2.954295657443265,13.805103974098875,10.77580048285306,6.47544875391759e-05,0.0914128422737121,0,0,0
1107,38068.35138693112,2010-11-02 00:58:00,3781.9284631190935,2,4,0.5501165986061096,4.015265464782715,3.469957127362314,2.954295657443265,13.823515427575686,10.77580048285306,3.24249267578125e-05,0.0914128422737121,0,0,0
1108,38098.36639873327,2010-11-02 00:58:30,3811.9434749162338,2,4,0.550297200679779,4.017693519592285,3.474543695833205,2.954295657443265,13.84193709996372,10.77580048285306,9.70840483205393e-05,0.0914128422737121,0,0,0
1109,38128.38169828368,2010-11-02 00:59:00,3841.958774461637,2,4,0.5501165986061096,4.019959926605225,3.479130290590186,2.954295657443265,13.86036929052552,10.77580048285306,9.70840483205393e-05,0.0914128422737121,0,0,0
1110,38158.397004606,2010-11-02 00:59:30,3871.97408078897,2,4,0.5501165986061096,4.022226333618164,3.483716820832337,2.954295657443265,13.878811888453187,10.77580048285306,6.47544875391759e-05,0.0914128422737121,0,0,0
1111,38188.412329168845,2010-11-02 01:00:00,3901.989405346808,2,4,0.5499359965324402,4.024492740631104,3.488303053789703,2.954295657443265,13.897263961516796,10.77580048285306,6.47544875391759e-05,0.0914128422737121,0,0,0
1112,38218.42760771685,2010-11-02 01:00:30,3932.004683894799,2,4,0.5499359965324402,4.026759147644043,3.492888755749779,2.954295657443265,13.915724549764708,10.77580048285306,3.23295607813634e-05,0.0914128422737121,0,0,0
1113,38248.44294272076,2010-11-02 01:01:00,3962.020018898712,2,4,0.5501165986061096,4.029349327087402,3.49747480341646,2.954295657443265,13.934197450807856,10.77580048285306,6.47544875391759e-05,0.0914128422737121,0,0,0
1114,38278.45835851133,2010-11-02 01:01:30,3992.035434699307,2,4,0.5501165986061096,4.031615734100342,3.502061374731543,2.954295657443265,13.95268344687392,10.77580048285306,3.23295607813634e-05,0.0914128422737121,0,0,0
1115,38308.4736826832,2010-11-02 01:02:00,4022.050758871183,2,4,0.550297200679779,4.034205913543701,3.506647962221587,2.954295657443265,13.971180565034114,10.77580048285306,9.70840483205393e-05,0.0914128422737121,0,0,0
1116,38338.48884606371,2010-11-02 01:02:30,4052.0659222466847,2,4,0.5501165986061096,4.036472320556641,3.511234458221179,2.954295657443265,13.989688475038744,10.77580048285306,6.47544875391759e-05,0.0914128422737121,0,0,0
1117,38368.50417429072,2010-11-02 01:03:00,4082.0812504736814,2,4,0.5501165986061096,4.0390625,3.515821024889203,2.954295657443265,14.008207978935008,10.77580048285306,9.71794142969884e-05,0.0914128422737121,0,0,0
1118,38398.519590903335,2010-11-02 01:03:31,4112.096667086304,2,4,0.5499359965324402,4.04149055480957,3.520407671988182,2.954295657443265,14.026739030994444,10.77580048285306,6.47544875391759e-05,0.0914128422737121,0,0,0
1119,38428.53476294547,2010-11-02 01:04:01,4142.11183912844,2,4,0.5501165986061096,4.043919086456299,3.524994242994218,2.954295657443265,14.045281227748315,10.77580048285306,3.24249267578125e-05,0.0914128422737121,0,0,0
1120,38458.55017850045,2010-11-02 01:04:31,4172.127254688434,2,4,0.5499359965324402,4.046347141265869,3.529580810162715,2.954295657443265,14.06383492768432,10.77580048285306,3.23295607813634e-05,0.0914128422737121,0,0,0
1121,38488.567949114025,2010-11-02 01:05:01,4202.145025377192,2,4,0.5501165986061096,4.0489373207092285,3.534167734799169,2.954295657443265,14.082401743445992,10.77580048285306,3.23295607813634e-05,0.0914128422737121,0,0,0
1122,38518.58068124577,2010-11-02 01:05:31,4232.157757428736,2,4,0.5501165986061096,4.051527500152588,3.538753909340168,2.954295657443265,14.10097721313568,10.77580048285306,3.23295607813634e-05,0.0914128422737121,0,0,0
1123,38548.59597990897,2010-11-02 01:06:01,4262.173056091937,2,4,0.550297200679779,4.054441452026367,3.543340466568598,2.954295657443265,14.119566121758565,10.77580048285306,0.0001618385285837,0.0914128422737121,0,0,0
1124,38578.61141372453,2010-11-02 01:06:31,4292.188489902487,2,4,0.5501165986061096,4.056707859039307,3.547927053658699,2.954295657443265,14.138167155124007,10.77580048285306,3.23295607813634e-05,0.0914128422737121,0,0,0
1125,38608.62658912505,2010-11-02 01:07:01,4322.20366530802,2,4,0.550297200679779,4.059621810913086,3.552513662246959,2.954295657443265,14.156780407130244,10.77580048285306,9.70840483205393e-05,0.0914128422737121,0,0,0
1126,38638.641876715614,2010-11-02 01:07:31,4352.218952898582,2,4,0.5497553944587708,4.062050342559815,3.557100263775642,2.954295657443265,14.175405506884564,10.77580048285306,6.47544875391759e-05,0.0914128422737121,0,0,0
1127,38668.65720022083,2010-11-02 01:08:01,4382.23427639878,2,4,0.5501165986061096,4.064802169799805,3.561686698207356,2.954295657443265,14.194042157161848,10.77580048285306,9.70840483205393e-05,0.0914128422737121,0,0,0
1128,38698.672505751165,2010-11-02 01:08:31,4412.249581934136,2,4,0.5501165986061096,4.067392349243164,3.566273279381856,2.954295657443265,14.212691783918451,10.77580048285306,6.47544875391759e-05,0.0914128422737121,0,0,0
1129,38728.687797477054,2010-11-02 01:09:01,4442.264873655008,2,4,0.5499359965324402,4.0701446533203125,3.570859871036982,2.954295657443265,14.231353904124983,10.77580048285306,6.47544875391759e-05,0.0914128422737121,0,0,0
1130,38758.703088887145,2010-11-02 01:09:31,4472.280165090167,2,4,0.5501165986061096,4.072896480560303,3.575446377965856,2.954295657443265,14.250028222915018,10.77580048285306,3.23295607813634e-05,0.0914128422737121,0,0,0
1131,38788.71842967049,2010-11-02 01:10:01,4502.295505848445,2,4,0.5499359965324402,4.075810432434082,3.580032949970799,2.954295657443265,14.268715551396442,10.77580048285306,6.47544875391759e-05,0.0914128422737121,0,0,0
1132,38818.73372376228,2010-11-02 01:10:31,4532.31079997031,2,4,0.550297200679779,4.078724384307861,3.584619446833184,2.954295657443265,14.287415388194129,10.77580048285306,0.0001295089750783,0.0914128422737121,0,0,0
1133,38848.74900588921,2010-11-02 01:11:01,4562.32608206716,2,4,0.550297200679779,4.081314563751221,3.589206020112563,2.954295657443265,14.306128612713437,10.77580048285306,3.23295607813634e-05,0.0914128422737121,0,0,0
1134,38878.764309204016,2010-11-02 01:11:31,4592.341385407035,2,4,0.5499359965324402,4.084066867828369,3.593792579494129,2.954295657443265,14.324854725300776,10.77580048285306,6.47544875391759e-05,0.0914128422737121,0,0,0
1135,38908.7796235614,2010-11-02 01:12:01,4622.356699739349,2,4,0.5501165986061096,4.087304592132568,3.598379143250308,2.954295657443265,14.34359416349859,10.77580048285306,9.71794142969884e-05,0.0914128422737121,0,0,0
1136,38938.794928149386,2010-11-02 01:12:31,4652.372004332353,2,4,0.550297200679779,4.090218544006348,3.602965710874867,2.954295657443265,14.362346959379778,10.77580048285306,9.71794142969884e-05,0.0914128422737121,0,0,0
1137,38968.81021653192,2010-11-02 01:13:01,4682.387292709879,2,4,0.5501165986061096,4.092970371246338,3.607552190252144,2.954295657443265,14.381112726656466,10.77580048285306,9.70840483205393e-05,0.0914128422737121,0,0,0
1138,38998.82564240766,2010-11-02 01:13:31,4712.402718595648,2,4,0.5501165986061096,4.096046447753906,3.61213875621164,2.954295657443265,14.399892347777785,10.77580048285306,9.71794142969884e-05,0.0914128422737121,0,0,0
1139,39028.84084175797,2010-11-02 01:14:01,4742.417917935924,2,4,0.550297200679779,4.099122047424316,3.616725329577985,2.954295657443265,14.418685661196175,10.77580048285306,9.70840483205393e-05,0.0914128422737121,0,0,0
1140,39058.85625470644,2010-11-02 01:14:31,4772.4333308844,2,4,0.5501165986061096,4.102035999298096,3.621312004917029,2.954295657443265,14.437493191532925,10.77580048285306,6.47544875391759e-05,0.0914128422737121,0,0,0
1141,39088.871430673375,2010-11-02 01:15:01,4802.448506856345,2,4,0.5501165986061096,4.104949951171875,3.625898566462739,2.954295657443265,14.45631398986352,10.77580048285306,6.47544875391759e-05,0.0914128422737121,0,0,0
1142,39118.88674362725,2010-11-02 01:15:31,4832.463819815232,2,4,0.5499359965324402,4.108026027679443,3.63048515258304,2.954295657443265,14.475149025523582,10.77580048285306,9.71794142969884e-05,0.0914128422737121,0,0,0
1143,39148.90204822527,2010-11-02 01:16:01,4862.479124403221,2,4,0.5501165986061096,4.1111016273498535,3.635071657506788,2.954295657443265,14.493997857588296,10.77580048285306,6.47544875391759e-05,0.0914128422737121,0,0,0
1144,39178.91746864239,2010-11-02 01:16:31,4892.494544825353,2,4,0.5499359965324402,4.114177703857422,3.639658269657802,2.954295657443265,14.512861367610816,10.77580048285306,3.24249267578125e-05,0.0914128422737121,0,0,0
1145,39208.93265921578,2010-11-02 01:17:01,4922.509735403758,2,4,0.5501165986061096,4.117414951324463,3.644244839416704,2.954295657443265,14.531739023178812,10.77580048285306,6.47544875391759e-05,0.0914128422737121,0,0,0
1146,39238.948096099,2010-11-02 01:17:31,4952.525172281966,2,4,0.5501165986061096,4.120491027832031,3.648831421364896,2.954295657443265,14.550631199354838,10.77580048285306,3.24249267578125e-05,0.0914128422737121,0,0,0
1147,39268.96340378472,2010-11-02 01:18:01,4982.540479962676,2,4,0.5501165986061096,4.123890399932861,3.653418036797786,2.954295657443265,14.569538135187198,10.77580048285306,0.0001295089750783,0.0914128422737121,0,0,0
1148,39298.97869133018,2010-11-02 01:18:31,5012.555767518151,2,4,0.5501165986061096,4.12696647644043,3.658004614768084,2.954295657443265,14.58845966223864,10.77580048285306,9.71794142969884e-05,0.0914128422737121,0,0,0
1149,39328.993881672985,2010-11-02 01:19:01,5042.570957881018,2,4,0.5501165986061096,4.13036584854126,3.662591219769732,2.954295657443265,14.60739613636662,10.77580048285306,0.0001295089750783,0.0914128422737121,0,0,0
1150,39359.00916792521,2010-11-02 01:19:31,5072.586244103165,2,4,0.5501165986061096,4.133603572845459,3.667177830699927,2.954295657443265,14.626347481923926,10.77580048285306,9.70840483205393e-05,0.0914128422737121,0,0,0
1151,39389.02448526502,2010-11-02 01:20:01,5102.601561442986,2,4,0.550297200679779,4.137003421783447,3.671764384197386,2.954295657443265,14.645313573744705,10.77580048285306,0.0001295089750783,0.0914128422737121,0,0,0
1152,39419.03977742199,2010-11-02 01:20:31,5132.61685360496,2,4,0.5497553944587708,4.140079021453857,3.676350980796791,2.954295657443265,14.664295089269606,10.77580048285306,3.23295607813634e-05,0.0914128422737121,0,0,0
1153,39449.05529330741,2010-11-02 01:21:01,5162.632369485369,2,4,0.550297200679779,4.143478870391846,3.68093760784661,2.954295657443265,14.683292090447068,10.77580048285306,9.71794142969884e-05,0.0914128422737121,0,0,0
1154,39479.07078816534,2010-11-02 01:21:31,5192.647864443554,2,4,0.5501165986061096,4.146878242492676,3.685524150907503,2.954295657443265,14.702304272686392,10.77580048285306,6.47544875391759e-05,0.0914128422737121,0,0,0
1155,39509.08570728114,2010-11-02 01:22:01,5222.662783489172,2,4,0.5501165986061096,4.150278091430664,3.690110647893661,2.954295657443265,14.721331883692836,10.77580048285306,9.71794142969884e-05,0.0914128422737121,0,0,0
1156,39539.10100368871,2010-11-02 01:22:31,5252.678079876692,2,4,0.5501165986061096,4.153677463531494,3.694697215370834,2.954295657443265,14.740375304667882,10.77580048285306,6.47544875391759e-05,0.0914128422737121,0,0,0
1157,39569.11629547475,2010-11-02 01:23:01,5282.693371682777,2,4,0.550297200679779,4.157238960266113,3.699283799171651,2.954295657443265,14.7594343912268,10.77580048285306,0.0001295089750783,0.0914128422737121,0,0,0
1158,39599.13160061411,2010-11-02 01:23:31,5312.708676817132,2,4,0.5499359965324402,4.1604766845703125,3.703870384130722,2.954295657443265,14.778509172898698,10.77580048285306,6.47544875391759e-05,0.0914128422737121,0,0,0
1159,39629.14693501152,2010-11-02 01:24:01,5342.724011194481,2,4,0.5501165986061096,4.164038181304932,3.708457020248367,2.954295657443265,14.797600090298095,10.77580048285306,6.47544875391759e-05,0.0914128422737121,0,0,0
1160,39659.16224606063,2010-11-02 01:24:31,5372.7393222436,2,4,0.5501165986061096,4.167599678039551,3.713043586059289,2.954295657443265,14.816706628406887,10.77580048285306,0.0001295089750783,0.0914128422737121,0,0,0
1161,39689.17754325016,2010-11-02 01:25:01,5402.754619428111,2,4,0.5501165986061096,4.170999526977539,3.717630134210046,2.954295657443265,14.83582925303895,10.77580048285306,6.47544875391759e-05,0.0914128422737121,0,0,0
1162,39719.192961005625,2010-11-02 01:25:31,5432.770037188598,2,4,0.5501165986061096,4.174561023712158,3.722216804461869,2.954295657443265,14.854968649368637,10.77580048285306,6.47544875391759e-05,0.0914128422737121,0,0,0
1163,39749.20815407024,2010-11-02 01:26:01,5462.785230248196,2,4,0.5499359965324402,4.178122520446777,3.726803351634011,2.954295657443265,14.874123748517222,10.77580048285306,6.47544875391759e-05,0.0914128422737121,0,0,0
1164,39779.22355430197,2010-11-02 01:26:31,5492.800630489954,2,4,0.550297200679779,4.1816840171813965,3.731389980896768,2.954295657443265,14.893295646894028,10.77580048285306,0.0001295089750783,0.0914128422737121,0,0,0
1165,39809.23872356718,2010-11-02 01:27:01,5522.8157997451335,2,4,0.5501165986061096,4.185407161712647,3.735976552921708,2.954295657443265,14.912483877106608,10.77580048285306,9.70840483205393e-05,0.0914128422737121,0,0,0
1166,39839.25424602401,2010-11-02 01:27:31,5552.831322196946,2,4,0.5501165986061096,4.189130783081055,3.740563117246563,2.954295657443265,14.93168882931881,10.77580048285306,9.71794142969884e-05,0.0914128422737121,0,0,0
1167,39869.26935402127,2010-11-02 01:28:01,5582.846430199228,2,4,0.5501165986061096,4.192853927612305,3.74514973150924,2.954295657443265,14.950910855174344,10.77580048285306,9.70840483205393e-05,0.0914128422737121,0,0,0
1168,39899.28460449418,2010-11-02 01:28:31,5612.861680672139,2,4,0.5501165986061096,4.196415424346924,3.74973648612659,2.954295657443265,14.970150377505266,10.77580048285306,9.71794142969884e-05,0.0914128422737121,0,0,0
1169,39927.37816642685,2010-11-02 01:28:59,5640.955242629872,2,4,0.550297200679779,4.200138568878174,3.754030166366261,2.954295657443265,14.988176046566688,10.77580048285306,0.0001618385285837,0.0914128422737121,0,0,0
1170,39957.39431715173,2010-11-02 01:29:30,30.01530094389457,3,4,0.0,4.116605758666992,3.754030166366261,2.954295657443265,14.988176046566688,10.77580048285306,-0.0003561019839253,0.0914128422737121,0,0,0
1171,39987.40957414592,2010-11-02 01:30:00,60.03055793307139,3,4,0.0,4.106568813323975,3.754030166366261,2.954295657443265,14.988176046566688,10.77580048285306,-0.0001295089750783,0.0914128422737121,0,0,0
1172,40017.42491495432,2010-11-02 01:30:30,90.0458987414739,3,4,0.0,4.100417137145996,3.754030166366261,2.954295657443265,14.988176046566688,10.77580048285306,-9.71794142969884e-05,0.0914128422737121,0,0,0
1173,40047.393355562606,2010-11-02 01:31:00,120.01433934976151,3,4,0.0,4.096531867980957,3.754030166366261,2.954295657443265,14.988176046566688,10.77580048285306,-6.47544875391759e-05,0.0914128422737121,0,0,0
1174,40047.3956134774,2010-11-02 01:31:00,2.601493729e-06,4,4,0.9852043390274048,4.199653148651123,3.754030167078207,2.954295657443265,14.988176049556612,10.77580048285306,0.0,0.0914128422737121,0,0,0
1175,40048.31748228878,2010-11-02 01:31:01,0.921871427910438,4,4,0.934272527694702,4.199814796447754,3.754274290362289,2.954295657443265,14.989201293616151,10.77580048285306,3.23295607813634e-05,0.0914128422737121,0,0,0
1176,40050.48933483186,2010-11-02 01:31:03,3.093723970989123,4,4,0.884063184261322,4.199653148651123,3.75482164241204,2.954295657443265,14.991500002350572,10.77580048285306,0.0,0.0914128422737121,0,0,0
1177,40053.75491130313,2010-11-02 01:31:06,6.35930044225779,4,4,0.8340343832969666,4.199653148651123,3.755599736224308,2.954295657443265,14.994767763931412,10.77580048285306,0.0,0.0914128422737121,0,0,0
1178,40058.20808478424,2010-11-02 01:31:10,10.81247392337026,4,4,0.7840056419372559,4.199814796447754,3.756599519162197,2.954295657443265,14.998966566790967,10.77580048285306,3.23295607813634e-05,0.0914128422737121,0,0,0
1179,40064.12979997138,2010-11-02 01:31:16,16.734189110510467,4,4,0.733796238899231,4.199653148651123,3.757846633450728,2.954295657443265,15.004204085470477,10.77580048285306,0.0,0.0914128422737121,0,0,0
1180,40071.87973148274,2010-11-02 01:31:24,24.48412062185995,4,4,0.6837674975395203,4.199653148651123,3.759370034817188,2.954295657443265,15.010601962003168,10.77580048285306,-3.23295607813634e-05,0.0914128422737121,0,0,0
1181,40082.02022901464,2010-11-02 01:31:34,34.6246181738262,4,4,0.6337386965751648,4.199653148651123,3.761221975181966,2.954295657443265,15.018379599637246,10.77580048285306,-3.23295607813634e-05,0.0914128422737121,0,0,0
1182,40096.47335084028,2010-11-02 01:31:49,49.07773998442265,4,4,0.5835293531417847,4.199653148651123,3.763660041021247,2.954295657443265,15.028618778811406,10.77580048285306,-3.23295607813634e-05,0.0914128422737121,0,0,0
1183,40118.97297176559,2010-11-02 01:32:11,71.57736090471985,4,4,0.5335005521774292,4.199653148651123,3.76713982103824,2.954295657443265,15.04323285900744,10.77580048285306,-3.23295607813634e-05,0.0914128422737121,0,0,0
1184,40158.144463385055,2010-11-02 01:32:50,110.7488525342104,4,4,0.4834717810153961,4.199491024017334,3.772646807212825,2.954295657443265,15.066360634345964,10.77580048285306,-6.47544875391759e-05,0.0914128422737121,0,0,0
1185,40227.33118764793,2010-11-02 01:34:00,179.93557678705693,4,4,0.4332624077796936,4.199653148651123,3.781421967070068,2.954295657443265,15.103213792381894,10.77580048285306,-3.23295607813634e-05,0.0914128422737121,0,0,0
1186,40329.34573388488,2010-11-02 01:35:42,281.95012302400994,4,4,0.3832336366176605,4.199653148651123,3.792968622890898,2.954295657443265,15.151706519530526,10.77580048285306,0.0,0.0914128422737121,0,0,0
1187,40454.50062870696,2010-11-02 01:37:47,407.1050178460849,4,4,0.333024263381958,4.199814796447754,3.805403183251626,2.954295657443265,15.203928261191248,10.77580048285306,0.0,0.0914128422737121,0,0,0
1188,40602.3429467628,2010-11-02 01:40:15,554.9473359119494,4,4,0.2829954922199249,4.199653148651123,3.818036150260637,2.954295657443265,15.25698320757,10.77580048285306,0.0,0.0914128422737121,0,0,0
1189,40780.59104496369,2010-11-02 01:43:13,733.1954341028181,4,4,0.2329667210578918,4.199653148651123,3.830785830527109,2.954295657443265,15.310528284633586,10.77580048285306,0.0,0.0914128422737121,0,0,0
1190,41004.26301825009,2010-11-02 01:46:57,956.8674074744264,4,4,0.1829379498958587,4.199653148651123,3.843658278935748,2.954295657443265,15.364588960383252,10.77580048285306,-3.23295607813634e-05,0.0914128422737121,0,0,0
1191,41303.88219883508,2010-11-02 01:51:56,1256.4865879742126,4,4,0.1329091787338256,4.199814796447754,3.856710377569813,2.954295657443265,15.419404175469635,10.77580048285306,3.23295607813634e-05,0.0914128422737121,0,0,0
1192,41771.11158790665,2010-11-02 01:59:43,1723.7159770507922,4,4,0.0826998054981231,4.199653148651123,3.870472429428752,2.954295657443265,15.477201010566455,10.77580048285306,0.0,0.0914128422737121,0,0,0
1193,42324.94952446714,2010-11-02 02:08:57,2277.553913606271,4,4,0.0496483072638511,4.199653148651123,3.880472100202076,2.954295657443265,15.519196863555573,10.77580048285306,-3.23295607813634e-05,0.0914128422737121,0,0,0
1194,42354.96405045595,2010-11-02 02:09:27,30.01540472795555,5,4,0.0,4.192044734954834,3.880472103583429,2.954295657443265,15.519196877756082,10.77580048285306,-3.23295607813634e-05,0.0914128422737121,0,0,0
1195,42384.96363765592,2010-11-02 02:09:57,60.0149919329403,5,4,0.0,4.190749645233154,3.880472103583429,2.954295657443265,15.519196877756082,10.77580048285306,-6.47544875391759e-05,0.0914128422737121,0,0,0
1196,42385.15115246376,2010-11-02 02:09:58,0.187657527057925,6,4,0.0001613661734154,4.191073417663574,3.880472111994978,2.954295657443265,15.519196913009502,10.77580048285306,0.0,0.0931148082017898,0,0,0
1197,42389.97906765284,2010-11-02 02:10:03,5.015572716126022,6,4,0.0007031940040178,4.190587520599365,3.880472986548369,2.954295657526646,15.519200578192136,10.7758004832025,-9.71794142969884e-05,0.0931148082017898,0,0,0
1198,42419.99429077274,2010-11-02 02:10:33,30.0153050090418,7,4,-1.0997490882873535,4.017369747161865,3.880472986548369,2.963464354247488,15.519200578192136,10.81282638249608,-0.0008742332574911,0.0931148082017898,0,0,0
1199,42450.00961241831,2010-11-02 02:11:03,60.03062666463596,7,4,-1.0997490882873535,3.9909825325012207,3.880472986548369,2.972633049330957,15.519200578192136,10.849530586475376,-0.000615119934082,0.0931148082017898,0,0,0
1200,42480.02491178827,2010-11-02 02:11:33,90.04592604963929,7,4,-1.099568486213684,3.973175048828125,3.880472986548369,2.981801718366777,15.519200578192136,10.886037231071402,-0.0004209041653666,0.0931148082017898,0,0,0
1201,42510.040245699456,2010-11-02 02:12:03,120.06125993576272,7,4,-1.099568486213684,3.959252834320069,3.880472986548369,2.99097030789933,15.519200578192136,10.922399120818106,-0.0003561496851034,0.0931148082017898,0,0,0
1202,42540.055645074055,2010-11-02 02:12:33,150.0766593203805,7,4,-1.0997490882873535,3.947435140609741,3.880472986548369,3.000138935754638,15.519200578192136,10.95864477093696,-0.0003561496851034,0.0931148082017898,0,0,0
1203,42570.070849326585,2010-11-02 02:13:03,180.09186356289354,7,4,-1.0997490882873535,3.9372363090515137,3.880472986548369,3.009307395333468,15.519200578192136,10.9947889735015,-0.0002590179501567,0.0931148082017898,0,0,0
1204,42600.08624830018,2010-11-02 02:13:33,210.10726254149785,7,4,-1.0997490882873535,3.927361249923706,3.880472986548369,3.018476022070353,15.519200578192136,11.030842046751378,-0.0002590179501567,0.0931148082017898,0,0,0
1205,42630.101419144325,2010-11-02 02:14:03,240.12243338063087,7,4,-1.0997490882873535,3.9181337356567374,3.880472986548369,3.02764452412374,15.519200578192136,11.066808605991245,-0.0002590179501567,0.0931148082017898,0,0,0
1206,42660.11672808819,2010-11-02 02:14:33,270.1377423244946,7,4,-1.0997490882873535,3.90939211845398,3.880472986548369,3.036813092241442,15.519200578192136,11.102692618587694,-0.0001942634553415,0.0931148082017898,0,0,0
1207,42690.13212470089,2010-11-02 02:15:03,300.153139052481,7,4,-1.099568486213684,3.9009740352630615,3.880472986548369,3.045981702343724,15.519200578192136,11.138497105215285,-0.0001942634553415,0.0931148082017898,0,0,0
1208,42720.14736605604,2010-11-02 02:15:33,330.16838029234515,7,4,-1.0997490882873535,3.8923940658569336,3.880472986548369,3.055150242722279,15.519200578192136,11.174224078976568,-0.0002590179501567,0.0931148082017898,0,0,0
1209,42750.16263556146,2010-11-02 02:16:03,360.1836497977644,7,4,-1.0997490882873535,3.884299755096436,3.880472986548369,3.064318819004483,15.519200578192136,11.209875177736446,-0.0001942634553415,0.0931148082017898,0,0,0
1210,42780.17806462516,2010-11-02 02:16:33,390.19907886146575,7,4,-1.0997490882873535,3.8758816719055176,3.880472986548369,3.073487442619195,15.519200578192136,11.245450379081888,-0.0002266406954731,0.0931148082017898,0,0,0
1211,42810.19327290275,2010-11-02 02:17:03,420.21428713905095,7,4,-1.0997490882873535,3.86778736114502,3.880472986548369,3.082656027720953,15.519200578192136,11.280950787036124,-0.0002266406954731,0.0931148082017898,0,0,0
1212,42840.208858457074,2010-11-02 02:17:33,450.2298728537773,7,4,-1.0997490882873535,3.860016822814941,3.880472986548369,3.091824764219047,15.519200578192136,11.316378550363098,-0.0002590179501567,0.0931148082017898,0,0,0
1213,42870.22385217408,2010-11-02 02:18:03,480.2448664103859,7,4,-1.099568486213684,3.852570056915283,3.880472986548369,3.100993308355497,15.519200578192136,11.351734408205758,-0.0001618862152099,0.0931148082017898,0,0,0
1214,42900.2392782804,2010-11-02 02:18:33,510.2602925167052,7,4,-1.099568486213684,3.844799518585205,3.880472986548369,3.110161971859385,15.519200578192136,11.387021026585238,-0.0001942634553415,0.0931148082017898,0,0,0
1215,42930.2544831595,2010-11-02 02:19:03,540.2754973958072,7,4,-1.0997490882873535,3.837190866470337,3.880472986548369,3.119330637546343,15.519200578192136,11.422238695934366,-0.0002266406954731,0.0931148082017898,0,0,0
1216,42960.26976850948,2010-11-02 02:19:33,570.2907827457769,7,4,-1.099568486213684,3.829906225204468,3.880472986548369,3.128499333438964,15.519200578192136,11.457388190815545,-0.0001942634553415,0.0931148082017898,0,0,0
1217,42990.285070325546,2010-11-02 02:20:03,600.3060845618487,7,4,-1.0997490882873535,3.82262134552002,3.880472986548369,3.137667955089587,15.519200578192136,11.492469796230129,-0.0001618862152099,0.0931148082017898,0,0,0
1218,43020.30037359023,2010-11-02 02:20:33,630.3213878315487,7,4,-1.0993878841400146,3.815660238265991,3.880472986548369,3.146836554662416,15.519200578192136,11.527485078122522,-0.0001618862152099,0.0931148082017898,0,0,0
1219,43050.31581895462,2010-11-02 02:21:03,660.3368331909265,7,4,-1.099929690361023,3.808375358581543,3.880472986548369,3.156005226993518,15.519200578192136,11.5624352885675,-0.0001942634553415,0.0931148082017898,0,0,0
1220,43080.33098509202,2010-11-02 02:21:33,690.3519993333359,7,4,-1.0997490882873535,3.801414251327514,3.880472986548369,3.165173841075355,15.519200578192136,11.597321042234164,-0.0001942634553415,0.0931148082017898,0,0,0
1221,43110.34628948452,2010-11-02 02:22:03,720.3673037258387,7,4,-1.0997490882873535,3.794776916503906,3.880472986548369,3.174342460790273,15.519200578192136,11.632144260157332,-0.0001618862152099,0.0931148082017898,0,0,0
1222,43140.361610518565,2010-11-02 02:22:33,750.3826247548687,7,4,-1.0997490882873535,3.788139581680298,3.880472986548369,3.183511118925039,15.519200578192136,11.666906809144251,-0.0001942634553415,0.0931148082017898,0,0,0
1223,43170.37691198877,2010-11-02 02:23:03,780.3979262250773,7,4,-1.0997490882873535,3.7816641330718994,3.880472986548369,3.192679828987934,15.519200578192136,11.701609704633803,-0.0001618862152099,0.0931148082017898,0,0,0
1224,43200.39220243145,2010-11-02 02:23:33,810.413216667759,7,4,-1.099568486213684,3.775350570678711,3.880472986548369,3.201848458106461,15.519200578192136,11.736253495991416,-0.0001618862152099,0.0931148082017898,0,0,0
1225,43230.40752789656,2010-11-02 02:24:03,840.4285421529124,7,4,-1.099929690361023,3.7690370082855225,3.880472986548369,3.211017120762862,15.519200578192136,11.77083944218219,-0.0001618862152099,0.0931148082017898,0,0,0
1226,43260.42303164168,2010-11-02 02:24:33,870.4440458829924,7,4,-1.0997490882873535,3.762723445892334,3.880472986548369,3.220185846438783,15.519200578192136,11.80536859305878,-0.0001942634553415,0.0931148082017898,0,0,0
1227,43290.43813417531,2010-11-02 02:25:03,900.459148411612,7,4,-1.0997490882873535,3.756895542144776,3.880472986548369,3.229354484375884,15.519200578192136,11.839841376629437,-0.0001618862152099,0.0931148082017898,0,0,0
1228,43320.45343121947,2010-11-02 02:25:33,930.4744454557724,7,4,-1.099568486213684,3.750905990600586,3.880472986548369,3.238523134213962,15.519200578192136,11.874259594605324,-0.0001942634553415,0.0931148082017898,0,0,0
1229,43350.46884189728,2010-11-02 02:26:03,960.4898561436046,7,4,-1.099568486213684,3.7450780868530273,3.880472986548369,3.247691845192584,15.519200578192136,11.908624128676834,-0.0001295089750783,0.0931148082017898,0,0,0
1230,43380.48402461105,2010-11-02 02:26:33,990.5050388473536,7,4,-1.0997490882873535,3.739412069320679,3.880472986548369,3.256860492874035,15.519200578192136,11.942935542407003,-0.0001295089750783,0.0931148082017898,0,0,0
1231,43410.49948836635,2010-11-02 02:27:03,1020.5205026126756,7,4,-1.0997490882873535,3.73358416557312,3.880472986548369,3.266029202736291,15.519200578192136,11.977195304420423,-0.0001618862152099,0.0931148082017898,0,0,0
1232,43440.51475738555,2010-11-02 02:27:33,1050.5357716268686,7,4,-1.0997490882873535,3.728403806686402,3.880472986548369,3.275197852086837,15.519200578192136,12.011403971229058,-0.0001295089750783,0.0931148082017898,0,0,0
1233,43470.52993992389,2010-11-02 02:28:03,1080.5509541601923,7,4,-1.0997490882873535,3.722899675369263,3.880472986548369,3.284366286136798,15.519200578192136,12.045562622286596,-0.0001295089750783,0.0931148082017898,0,0,0
1234,43500.54524950434,2010-11-02 02:28:33,1110.5662637406451,7,4,-1.0993878841400146,3.717881202697754,3.880472986548369,3.293534632490881,15.519200578192136,12.079671547735026,-6.47544875391759e-05,0.0931148082017898,0,0,0
1235,43530.5606049593,2010-11-02 02:29:03,1140.5816191956076,7,4,-1.099568486213684,3.7123770713806152,3.880472986548369,3.302703204966634,15.519200578192136,12.113732557352035,-0.0001295089750783,0.0931148082017898,0,0,0
1236,43560.57590832926,2010-11-02 02:29:33,1170.596922565558,7,4,-1.099929690361023,3.706872940063477,3.880472986548369,3.311871932587863,15.519200578192136,12.14774597646598,-0.0001618862152099,0.0931148082017898,0,0,0
1237,43590.591186416095,2010-11-02 02:30:03,1200.6122006574103,7,4,-1.0997490882873535,3.7020163536071777,3.880472986548369,3.321040675638095,15.519200578192136,12.181711872215356,-9.713172767078504e-05,0.0931148082017898,0,0,0
1238,43620.60649915944,2010-11-02 02:30:33,1230.6275133957456,7,4,-1.099568486213684,3.696835994720459,3.880472986548369,3.33020935683677,15.519200578192136,12.215630672971011,-0.0001618862152099,0.0931148082017898,0,0,0
1239,43650.62180392788,2010-11-02 02:31:03,1260.6428181691992,7,4,-1.099568486213684,3.69181752204895,3.880472986548369,3.339378069717655,15.519200578192136,12.249503202263591,-0.0001295089750783,0.0931148082017898,0,0,0
1240,43680.637101378044,2010-11-02 02:31:33,1290.6581156193731,7,4,-1.099568486213684,3.687122821807861,3.880472986548369,3.348546672269135,15.519200578192136,12.283329884108497,-9.713172767078504e-05,0.0931148082017898,0,0,0
1241,43710.65241048733,2010-11-02 02:32:03,1320.673424723637,7,4,-1.0997490882873535,3.6822662353515625,3.880472986548369,3.35771529645052,15.519200578192136,12.31711249517612,-9.713172767078504e-05,0.0931148082017898,0,0,0
1242,43740.66770649391,2010-11-02 02:32:33,1350.6887207302077,7,4,-1.099568486213684,3.677409648895264,3.880472986548369,3.366883940579275,15.519200578192136,12.35085125703206,-9.713172767078504e-05,0.0931148082017898,0,0,0
1243,43770.68318488573,2010-11-02 02:33:03,1380.7041991220392,7,4,-1.099568486213684,3.672714948654175,3.880472986548369,3.376052692237462,15.519200578192136,12.384546999083032,-0.0001295089750783,0.0931148082017898,0,0,0
1244,43800.69844111802,2010-11-02 02:33:33,1410.7194553543268,7,4,-1.0997490882873535,3.668020486831665,3.880472986548369,3.385221343831597,15.519200578192136,12.418199513836983,-0.0001295089750783,0.0931148082017898,0,0,0
1245,43830.71361678421,2010-11-02 02:34:03,1440.7346310205087,7,4,-1.099568486213684,3.663487672805786,3.880472986548369,3.394389984030338,15.519200578192136,12.451809767704743,-0.0001295089750783,0.0931148082017898,0,0,0
1246,43860.72904940679,2010-11-02 02:34:33,1470.7500636430937,7,4,-1.0997490882873535,3.6589548587799072,3.880472986548369,3.40355861534605,15.519200578192136,12.485378412397893,-0.0001618862152099,0.0931148082017898,0,0,0
1247,43890.74423825087,2010-11-02 02:35:03,1500.7652524871698,7,4,-1.0997490882873535,3.6545839309692383,3.880472986548369,3.412727271965561,15.519200578192136,12.518906051715645,-0.0001295089750783,0.0931148082017898,0,0,0
1248,43920.75966159529,2010-11-02 02:35:33,1530.7806758315949,7,4,-1.0997490882873535,3.65005111694336,3.880472986548369,3.421895956737577,15.519200578192136,12.552393396222334,-0.0001618862152099,0.0931148082017898,0,0,0
1249,43950.77484962734,2010-11-02 02:36:03,1560.7958638586315,7,4,-1.099568486213684,3.645842075347901,3.880472986548369,3.431064587052429,15.519200578192136,12.585840622250124,-6.47544875391759e-05,0.0931148082017898,0,0,0
1250,43980.79015979926,2010-11-02 02:36:33,1590.8111740355737,7,4,-1.0997490882873535,3.641471147537232,3.880472986548369,3.440233189361416,15.519200578192136,12.61924832373237,-0.0001618862152099,0.0931148082017898,0,0,0
1251,44010.80560928395,2010-11-02 02:37:03,1620.8266235202486,7,4,-1.0997490882873535,3.637585878372192,3.880472986548369,3.449401805216359,15.519200578192136,12.652617468946175,-6.47544875391759e-05,0.0931148082017898,0,0,0
1252,44040.82082600761,2010-11-02 02:37:33,1650.841840268979,7,4,-1.099568486213684,3.633376836776733,3.880472986548369,3.458570349273872,15.519200578192136,12.685948759316172,-9.713172767078504e-05,0.0931148082017898,0,0,0
1253,44070.83606999934,2010-11-02 02:38:03,1680.857084240662,7,4,-1.0997490882873535,3.629329681396485,3.880472986548369,3.467738918178318,15.519200578192136,12.719243039926983,-0.0001295089750783,0.0931148082017898,0,0,0
1254,44100.85150767956,2010-11-02 02:38:34,1710.8725219258845,7,4,-1.0997490882873535,3.6252825260162354,3.880472986548369,3.476907507980441,15.519200578192136,12.752500958527197,-0.0001295089750783,0.0931148082017898,0,0,0
1255,44130.86667475429,2010-11-02 02:39:04,1740.8876889905955,7,4,-1.0997490882873535,3.6215591430664062,3.880472986548369,3.486076030945773,15.519200578192136,12.78572329469084,-0.0001295089750783,0.0931148082017898,0,0,0
1256,44160.8820961689,2010-11-02 02:39:34,1770.9031104052035,7,4,-1.099568486213684,3.617997646331787,3.880472986548369,3.495244697461815,15.519200578192136,12.818911670568228,-6.47544875391759e-05,0.0931148082017898,0,0,0
1257,44190.897498410646,2010-11-02 02:40:04,1800.918512646953,7,4,-1.0997490882873535,3.614436149597168,3.880472986548369,3.504413357319145,15.519200578192136,12.852066513195489,-9.713172767078504e-05,0.0931148082017898,0,0,0
1258,44220.89942451388,2010-11-02 02:40:34,1830.9204388654755,7,4,-1.0997490882873535,3.610712766647339,3.880472986548369,3.513577909270781,15.519200578192136,12.885173888387053,-0.0001295089750783,0.0931148082017898,0,0,0
1259,44250.91239783268,2010-11-02 02:41:04,1860.9334120789968,7,4,-1.099568486213684,3.6073131561279297,3.880472986548369,3.52274573506241,15.519200578192136,12.918261132758492,-6.47544875391759e-05,0.0931148082017898,0,0,0
1260,44280.92758649629,2010-11-02 02:41:34,1890.948600732598,7,4,-1.0997490882873535,3.6040754318237305,3.880472986548369,3.531914253191926,15.519200578192136,12.951319643408388,-6.47544875391759e-05,0.0931148082017898,0,0,0
1261,44310.94299439216,2010-11-02 02:42:04,1920.964008628461,7,4,-1.0997490882873535,3.6006758213043213,3.880472986548369,3.54108291837156,15.519200578192136,12.984348315367958,-9.713172767078504e-05,0.0931148082017898,0,0,0
1262,44340.95819123119,2010-11-02 02:42:34,1950.979205467494,7,4,-1.099568486213684,3.597599983215332,3.880472986548369,3.550251498291632,15.519200578192136,13.01734695489983,-6.47544875391759e-05,0.0931148082017898,0,0,0
1263,44370.97360514708,2010-11-02 02:43:04,1980.9946193883964,7,4,-1.099929690361023,3.594362258911133,3.880472986548369,3.559420116231618,15.519200578192136,13.050316668958262,-9.713172767078504e-05,0.0931148082017898,0,0,0
1264,44400.98880441217,2010-11-02 02:43:34,2011.0098186484724,7,4,-1.099568486213684,3.5914485454559326,3.880472986548369,3.56858872421135,15.519200578192136,13.083258260383502,-3.237724376958795e-05,0.0931148082017898,0,0,0
1265,44431.00421291455,2010-11-02 02:44:04,2041.0252271508496,7,4,-1.0997490882873535,3.588372707366944,3.880472986548369,3.577757379975054,15.519200578192136,13.116172323189843,-6.47544875391759e-05,0.0931148082017898,0,0,0
1266,44461.01939676616,2010-11-02 02:44:34,2071.040411002464,7,4,-1.099929690361023,3.585296869277954,3.880472986548369,3.586925969444879,15.519200578192136,13.149059046006018,-0.0001295089750783,0.0931148082017898,0,0,0
1267,44491.03483359424,2010-11-02 02:45:04,2101.0558478405715,7,4,-1.099568486213684,3.5827066898345947,3.880472986548369,3.596094677335635,15.519200578192136,13.181919392855038,-6.47544875391759e-05,0.0931148082017898,0,0,0
1268,44521.050100087145,2010-11-02 02:45:34,2131.0711144086586,7,4,-1.099568486213684,3.579630851745605,3.880472986548369,3.605263331639795,15.519200578192136,13.214752926252029,-3.237724376958795e-05,0.0931148082017898,0,0,0
1269,44551.065498434175,2010-11-02 02:46:04,2161.086512670473,7,4,-1.099568486213684,3.576716899871826,3.880472986548369,3.614431970077299,15.519200578192136,13.24755977951728,-9.713172767078504e-05,0.0931148082017898,0,0,0
1270,44581.08061933866,2010-11-02 02:46:34,2191.1016335749623,7,4,-1.0997490882873535,3.573641061782837,3.880472986548369,3.623600611064088,15.519200578192136,13.280339760891518,-0.0001295089750783,0.0931148082017898,0,0,0
1271,44611.095920207365,2010-11-02 02:47:04,2221.116934443669,7,4,-1.0997490882873535,3.570888996124268,3.880472986548369,3.6327692325514,15.519200578192136,13.313093233378288,-6.47544875391759e-05,0.0931148082017898,0,0,0
1272,44641.111313927846,2010-11-02 02:47:34,2251.132328194223,7,4,-1.099568486213684,3.5679750442504883,3.880472986548369,3.641937958300869,15.519200578192136,13.345820448405377,-6.47544875391759e-05,0.0931148082017898,0,0,0
1273,44671.12652746858,2010-11-02 02:48:04,2281.147541709884,7,4,-1.099568486213684,3.565061092376709,3.880472986548369,3.651106604611074,15.519200578192136,13.378520478715576,-9.713172767078504e-05,0.0931148082017898,0,0,0
1274,44701.14182633728,2010-11-02 02:48:34,2311.1628405785978,7,4,-1.099568486213684,3.5621471405029297,3.880472986548369,3.660275240794064,15.519200578192136,13.411193414386764,-6.47544875391759e-05,0.0931148082017898,0,0,0
1275,44731.15712995285,2010-11-02 02:49:04,2341.1781441941616,7,4,-1.099568486213684,3.5590713024139404,3.880472986548369,3.669443822842528,15.519200578192136,13.443839106380732,-6.47544875391759e-05,0.0931148082017898,0,0,0
1276,44761.17249333259,2010-11-02 02:49:34,2371.193507568893,7,4,-1.0997490882873535,3.5556716918945312,3.880472986548369,3.67861249400659,15.519200578192136,13.476456984848918,-0.0001618862152099,0.0931148082017898,0,0,0
1277,44791.187892220965,2010-11-02 02:50:04,2401.2089064572724,7,4,-1.0997490882873535,3.552919626235962,3.880472986548369,3.687781195018622,15.519200578192136,13.509046473189988,-9.713172767078504e-05,0.0931148082017898,0,0,0
1278,44821.20311489449,2010-11-02 02:50:34,2431.224129130792,7,4,-1.099568486213684,3.5496819019317627,3.880472986548369,3.696949834191179,15.519200578192136,13.541606777791593,-9.713172767078504e-05,0.0931148082017898,0,0,0
1279,44851.21846526175,2010-11-02 02:51:04,2461.2394795030677,7,4,-1.0997490882873535,3.5464441776275635,3.880472986548369,3.706118509335972,15.519200578192136,13.574137743733353,-9.713172767078504e-05,0.0931148082017898,0,0,0
1280,44881.23367445663,2010-11-02 02:51:34,2491.25468869293,7,4,-1.0997490882873535,3.5428826808929443,3.880472986548369,3.715287179719216,15.519200578192136,13.606638401357412,-0.0001295089750783,0.0931148082017898,0,0,0
1281,44911.24917394612,2010-11-02 02:52:04,2521.2701882225247,7,4,-1.099929690361023,3.539483070373535,3.880472986548369,3.724455853123735,15.519200578192136,13.639108205744844,-9.713172767078504e-05,0.0931148082017898,0,0,0
1282,44941.26426033946,2010-11-02 02:52:34,2551.285274575768,7,4,-1.0997490882873535,3.536083459854126,3.880472986548369,3.733624485329206,15.519200578192136,13.671546065544003,-9.713172767078504e-05,0.0931148082017898,0,0,0
1283,44971.27957388983,2010-11-02 02:53:04,2581.3005881261306,7,4,-1.099568486213684,3.532521963119507,3.880472986548369,3.742793192915863,15.519200578192136,13.703951612190586,-0.0001618862152099,0.0931148082017898,0,0,0
1284,45001.29499701872,2010-11-02 02:53:34,2611.316011265042,7,4,-1.0997490882873535,3.528960466384888,3.880472986548369,3.751961961702851,15.519200578192136,13.736323898833064,-0.0001295089750783,0.0931148082017898,0,0,0
1285,45031.31013930157,2010-11-02 02:54:04,2641.331153552907,7,4,-1.0997490882873535,3.5250751972198486,3.880472986548369,3.761131343836936,15.519200578192136,13.76866334425074,-6.47544875391759e-05,0.0931148082017898,0,0,0
1286,45061.32538843614,2010-11-02 02:54:34,2671.3464026774527,7,4,-1.099568486213684,3.5210280418396,3.880472986548369,3.770300754797185,15.519200578192136,13.800966565521277,-9.713172767078504e-05,0.0931148082017898,0,0,0
1287,45091.340756532656,2010-11-02 02:55:04,2701.3617707689577,7,4,-1.0997490882873535,3.5166571140289307,3.880472986548369,3.779470085327796,15.519200578192136,13.833231799501265,-9.713172767078504e-05,0.0931148082017898,0,0,0
1288,45121.35610387737,2010-11-02 02:55:34,2731.3771181136763,7,4,-1.099929690361023,3.512124300003052,3.880472986548369,3.788639632154083,15.519200578192136,13.865457768783996,-0.0001295089750783,0.0931148082017898,0,0,0
1289,45151.3713665357,2010-11-02 02:56:04,2761.392380777016,7,4,-1.0997490882873535,3.507267951965332,3.880472986548369,3.797809104735195,15.519200578192136,13.89764067154451,-0.0001295089750783,0.0931148082017898,0,0,0
1290,45181.38692285205,2010-11-02 02:56:34,2791.407937103385,7,4,-1.099929690361023,3.5020875930786133,3.880472986548369,3.80697871516976,15.519200578192136,13.929777683283444,-0.0001618862152099,0.0931148082017898,0,0,0
1291,45211.402215891205,2010-11-02 02:57:04,2821.4232301575857,7,4,-1.0997490882873535,3.4960978031158447,3.880472986548369,3.816147430942123,15.519200578192136,13.961860988758614,-0.0001618862152099,0.0931148082017898,0,0,0
1292,45241.417324926064,2010-11-02 02:57:34,2851.438339182421,7,4,-1.099568486213684,3.4896223545074463,3.880472986548369,3.825316043263366,15.519200578192136,13.993887165811076,-0.0001942634553415,0.0931148082017898,0,0,0
1293,45271.432598937725,2010-11-02 02:58:04,2881.4536131740383,7,4,-1.0997490882873535,3.482175588607788,3.880472986548369,3.834484738744794,15.519200578192136,14.025848968632827,-0.0001942634553415,0.0931148082017898,0,0,0
1294,45301.44788951576,2010-11-02 02:58:34,2911.468903752058,7,4,-1.099568486213684,3.47327184677124,3.880472986548369,3.843653345793971,15.519200578192136,14.057735064388682,-0.0002266406954731,0.0931148082017898,0,0,0
1295,45331.46319676038,2010-11-02 02:59:04,2941.48421099668,7,4,-1.099568486213684,3.4629111289978027,3.880472986548369,3.852821978879763,15.519200578192136,14.089533660468533,-0.0003237724304199,0.0931148082017898,0,0,0
1296,45361.478521894656,2010-11-02 02:59:34,2971.499536130958,7,4,-1.0993878841400146,3.450445890426636,3.880472986548369,3.861990644988183,15.519200578192136,14.1212280805297,-0.0003561496851034,0.0931148082017898,0,0,0
1297,45391.49382934479,2010-11-02 03:00:04,3001.514843591118,7,4,-1.099568486213684,3.4349048137664795,3.880472986548369,3.871159241293828,15.519200578192136,14.15279547011484,-0.0004856586456298,0.0931148082017898,0,0,0
1298,45421.50912378244,2010-11-02 03:00:34,3031.5301380137344,7,4,-1.099568486213684,3.415640592575073,3.880472986548369,3.880327893681377,15.519200578192136,14.184205473041423,-0.0005827903514727,0.0931148082017898,0,0,0
1299,45451.52441578904,2010-11-02 03:01:04,3061.5454300253327,7,4,-1.099568486213684,3.391033887863159,3.880472986548369,3.88949651461845,15.519200578192136,14.215414751634286,-0.0007122993702068,0.0931148082017898,0,0,0
1300,45481.53981217116,2010-11-02 03:01:34,3091.560826407456,7,4,-1.0997490882873535,3.358009099960327,3.880472986548369,3.898665192040394,15.519200578192136,14.24636185568028,-0.0009713172912597,0.0931148082017898,0,0,0
1301,45511.55504689476,2010-11-02 03:02:04,3121.5760611310534,7,4,-1.099568486213684,3.313004970550537,3.880472986548369,3.907833791775635,15.519200578192136,14.276954900846496,-0.0013598442310467,0.0931148082017898,0,0,0
1302,45541.570330314906,2010-11-02 03:02:34,3151.5913445512065,7,4,-1.099568486213684,3.2493839263916016,3.880472986548369,3.917002394117291,15.519200578192136,14.307055603602093,-0.0019102573860436,0.0931148082017898,0,0,0
1303,45571.58580996488,2010-11-02 03:03:04,3181.606824286392,7,4,-1.099568486213684,3.155975818634033,3.880472986548369,3.92617104890211,15.519200578192136,14.336449668832335,-0.002978706266731,0.0931148082017898,0,0,0
1304,45601.60097866868,2010-11-02 03:03:34,3211.62199289997,7,4,-1.0997490882873535,3.0018606185913086,3.880472986548369,3.93533960216344,15.519200578192136,14.364754031300675,-0.0054717538878321,0.0931148082017898,0,0,0
1305,45620.94448099642,2010-11-02 03:03:54,3230.9654952327155,7,4,-1.099568486213684,2.801769733428955,3.880472986548369,3.941248425775921,15.519200578192136,14.381960134597373,-0.0102959629148244,0.0931148082017898,0,0,0
1306,45628.17879495702,2010-11-02 03:04:01,3238.199809193333,7,4,-1.0997490882873535,2.699943780899048,3.880472986548369,3.943458236913407,15.519200578192136,14.388040599089138,-0.0114291189238429,0.0931148082017898,0,0,0
1307,45688.19306081326,2010-11-02 03:05:01,60.0149147853681,8,4,0.0,3.3164045810699463,3.880472986548369,3.943458236913407,15.519200578192136,14.388040599089138,0.0013274669181555,0.0931148082017898,0,0,0
1308,45688.38042417113,2010-11-02 03:05:01,0.187474244556605,9,4,-1.9243103452026844e-05,3.316566467285156,3.880472986548369,3.943458237915515,15.519200578192136,14.388040602412694,0.0,0.0914128422737121,0,0,0
1309,45693.20861871752,2010-11-02 03:05:06,5.015668821018619,9,4,0.0008838032954372,3.3244988918304443,3.880474030246619,3.943458237999283,15.519204044424724,14.388040602690518,0.0011332035064697,0.0914128422737121,0,0,0
