Data_Point,Test_Time(s),Date_Time,Step_Time(s),Step_Index,Cycle_Index,Current(A),Voltage(V),Charge_Capacity(Ah),Discharge_Capacity(Ah),Charge_Energy(Wh),Discharge_Energy(Wh),dV/dt(V/s),Internal_Resistance(Ohm),Is_FC_Data,AC_Impedance(Ohm),ACI_Phase_Angle(Deg)
13179,459757.0066740342,2010-11-06 22:06:53,30.01522227251871,1,41,0.0,3.3248226642608643,39.24740201543628,39.31360443258012,156.74104492389827,143.36703943436467,0.0007770538213662,0.0916610211133956,0,0,0
13180,459787.022044246,2010-11-06 22:07:23,60.03059248431662,1,41,0.0,3.3476486206054688,39.24740201543628,39.31360443258012,156.74104492389827,143.36703943436467,0.0004856586456298,0.0916610211133956,0,0,0
13181,459817.037440999,2010-11-06 22:07:53,90.04598923736557,1,41,0.0,3.365132093429565,39.24740201543628,39.31360443258012,156.74104492389827,143.36703943436467,0.0003885269106831,0.0916610211133956,0,0,0
13182,459847.0059009356,2010-11-06 22:08:23,120.01444917389946,1,41,0.0,3.379216194152832,39.24740201543628,39.31360443258012,156.74104492389827,143.36703943436467,0.0003561496851034,0.0916610211133956,0,0,0
13183,459877.0190248504,2010-11-06 22:08:53,30.0155003967596,2,41,0.550297200679779,3.5427207946777344,39.25198896354466,39.31360443258012,156.7571117980795,143.36703943436467,0.0018131255637854,0.0916610211133956,0,0,0
13184,459907.0345301242,2010-11-06 22:09:23,60.03100579600618,2,41,0.550297200679779,3.597438097000122,39.256575945346746,39.31360443258012,156.77349469549037,143.36703943436467,0.0012626647949218,0.0916610211133956,0,0,0
13185,459937.0496196805,2010-11-06 22:09:53,90.04609521690682,2,41,0.5499359965324402,3.6380715370178223,39.26116281212944,39.31360443258012,156.7900928377115,143.36703943436467,0.0009389400365762,0.0916610211133956,0,0,0
13186,459967.06499738107,2010-11-06 22:10:23,120.06147291739764,2,41,0.5501165986061096,3.670286893844605,39.2657497612333,39.31360443258012,156.8068571775614,143.36703943436467,0.0007770538213662,0.0916610211133956,0,0,0
13187,459997.0805063943,2010-11-06 22:10:53,150.07698193066537,2,41,0.5501165986061096,3.696997880935669,39.27033665168455,39.31360443258012,156.82375540193664,143.36703943436467,0.0006475448608398,0.0916610211133956,0,0,0
13188,460027.09575657145,2010-11-06 22:11:23,180.0922321078384,2,41,0.5501165986061096,3.719338178634644,39.274923530906335,39.31360443258012,156.84076529626643,143.36703943436467,0.0005827903514727,0.0916610211133956,0,0,0
13189,460057.11122637184,2010-11-06 22:11:53,210.10770190822475,2,41,0.5501165986061096,3.737955093383789,39.27951040633609,39.31360443258012,156.8578692388027,143.36703943436467,0.0004532813909463,0.0916610211133956,0,0,0
13190,460087.1264699225,2010-11-06 22:12:23,240.1229454588569,2,41,0.5501165986061096,3.753010272979736,39.284097309178506,39.31360443258012,156.87505117117783,143.36703943436467,0.0003237247583456,0.0916610211133956,0,0,0
13191,460117.1419622391,2010-11-06 22:12:53,270.1384377754472,2,41,0.5501165986061096,3.763047218322754,39.288684219147015,39.31360443258012,156.8922910474054,143.36703943436467,0.0001942634553415,0.0916610211133956,0,0,0
13192,460147.157338877,2010-11-06 22:13:23,300.1538144132855,2,41,0.550297200679779,3.769198894500733,39.29327107701472,39.31360443258012,156.90956638243296,143.36703943436467,0.0001618862152099,0.0916610211133956,0,0,0
13193,460177.172566608,2010-11-06 22:13:53,330.16904214442974,2,41,0.5501165986061096,3.773084163665772,39.2978580296507,39.31360443258012,156.92686454205702,143.36703943436467,9.713172767078504e-05,0.0916610211133956,0,0,0
13194,460207.1879357421,2010-11-06 22:14:23,360.1844112785376,2,41,0.550297200679779,3.7769694328308105,39.302444991035095,39.31360443258012,156.94418066553953,143.36703943436467,0.0001295089750783,0.0916610211133956,0,0,0
13195,460237.2033225804,2010-11-06 22:14:53,390.1997981168378,2,41,0.5501165986061096,3.78036904335022,39.30703192992815,39.31360443258012,156.961513298257,143.36703943436467,6.47544875391759e-05,0.0916610211133956,0,0,0
13196,460267.2188798842,2010-11-06 22:15:23,420.21535542064606,2,41,0.550297200679779,3.783768653869629,39.31161900807604,39.31360443258012,156.97886228791404,143.36703943436467,6.47544875391759e-05,0.0916610211133956,0,0,0
13197,460297.23430048686,2010-11-06 22:15:53,450.2307760232272,2,41,0.5501165986061096,3.787168264389038,39.31620662592448,39.31360443258012,156.996228726391,143.36703943436467,9.713172767078504e-05,0.0916610211133956,0,0,0
13198,460327.2494119227,2010-11-06 22:16:23,480.245887464093,2,41,0.550297200679779,3.790405988693237,39.32079416964064,39.31360443258012,157.01360974954136,143.36703943436467,9.713172767078504e-05,0.0916610211133956,0,0,0
13199,460357.2647682348,2010-11-06 22:16:53,510.2612437761952,2,41,0.5501165986061096,3.7934818267822266,39.32538153406091,39.31360443258012,157.0310044737001,143.36703943436467,9.713172767078504e-05,0.0916610211133956,0,0,0
13200,460387.280281634,2010-11-06 22:17:23,540.2767571703984,2,41,0.550297200679779,3.796557664871216,39.32996823232234,39.31360443258012,157.04841072867134,143.36703943436467,9.713172767078504e-05,0.0916610211133956,0,0,0
13201,460417.2955045882,2010-11-06 22:17:53,570.2919801246187,2,41,0.5501165986061096,3.799471616744995,39.334554302204815,39.31360443258012,157.0658283772195,143.36703943436467,9.713172767078504e-05,0.0916610211133956,0,0,0
13202,460447.31107693457,2010-11-06 22:18:23,600.3075524960382,2,41,0.5501165986061096,3.802547454833984,39.3391404421835,39.31360443258012,157.08325999709402,143.36703943436467,0.0001295089750783,0.0916610211133956,0,0,0
13203,460477.3263951566,2010-11-06 22:18:53,630.3228707030241,2,41,0.5501165986061096,3.8052995204925537,39.3437267628328,39.31360443258012,157.10070586879712,143.36703943436467,6.47544875391759e-05,0.0916610211133956,0,0,0
13204,460507.3416369028,2010-11-06 22:19:23,660.3381124341144,2,41,0.5501165986061096,3.808213472366333,39.34831366043582,39.31360443258012,157.1181674849401,143.36703943436467,3.237724376958795e-05,0.0916610211133956,0,0,0
13205,460537.3571212143,2010-11-06 22:19:53,690.353596775798,2,41,0.5501165986061096,3.811451196670532,39.3529006231386,39.31360443258012,157.13564290537897,143.36703943436467,9.713172767078504e-05,0.0916610211133956,0,0,0
13206,460567.3723562287,2010-11-06 22:20:23,720.3688317901223,2,41,0.5501165986061096,3.814365148544312,39.35748751863802,39.31360443258012,157.15313190328965,143.36703943436467,9.713172767078504e-05,0.0916610211133956,0,0,0
13207,460597.38772650063,2010-11-06 22:20:53,750.3842020420203,2,41,0.5501165986061096,3.817440986633301,39.36207442261886,39.31360443258012,157.17063514336218,143.36703943436467,6.47544875391759e-05,0.0916610211133956,0,0,0
13208,460627.4031313639,2010-11-06 22:21:24,780.3996069303763,2,41,0.5501165986061096,3.8206787109375,39.3666612462592,39.31360443258012,157.1881525107357,143.36703943436467,9.713172767078504e-05,0.0916610211133956,0,0,0
13209,460657.4186337607,2010-11-06 22:21:54,810.4151093070781,2,41,0.550297200679779,3.823916435241699,39.37124808459587,39.31360443258012,157.20568481635138,143.36703943436467,9.713172767078504e-05,0.0916610211133956,0,0,0
13210,460687.4338516021,2010-11-06 22:22:24,840.4303271635738,2,41,0.5499359965324402,3.8271541595458975,39.37583492341203,39.31360443258012,157.22323237627643,143.36703943436467,6.47544875391759e-05,0.0916610211133956,0,0,0
13211,460717.4491971223,2010-11-06 22:22:54,870.4456726636873,2,41,0.550297200679779,3.830877542495728,39.38042182637332,39.31360443258012,157.24079571537757,143.36703943436467,0.0001295089750783,0.0916610211133956,0,0,0
13212,460747.4646080758,2010-11-06 22:23:24,900.4610836171829,2,41,0.5501165986061096,3.834115028381348,39.38500865798687,39.31360443258012,157.25837448899557,143.36703943436467,9.713172767078504e-05,0.0916610211133956,0,0,0
13213,460777.4799394306,2010-11-06 22:23:54,930.4764149920378,2,41,0.5501165986061096,3.837676525115967,39.389595503609456,39.31360443258012,157.27596912083305,143.36703943436467,0.0001295089750783,0.0916610211133956,0,0,0
13214,460807.4953017778,2010-11-06 22:24:24,960.4917773392044,2,41,0.5501165986061096,3.840914249420166,39.3941823296126,39.31360443258012,157.29357928477324,143.36703943436467,6.47544875391759e-05,0.0916610211133956,0,0,0
13215,460837.5106751374,2010-11-06 22:24:54,990.5071506988598,2,41,0.5501165986061096,3.844313859939575,39.398769229363694,39.31360443258012,157.31120516092344,143.36703943436467,0.0001295089750783,0.0916610211133956,0,0,0
13216,460867.5261835191,2010-11-06 22:25:24,1020.522659070526,2,41,0.550297200679779,3.847713470458984,39.40335602906414,39.31360443258012,157.32884582992895,143.36703943436467,9.713172767078504e-05,0.0916610211133956,0,0,0
13217,460897.5414109896,2010-11-06 22:25:54,1050.537886525982,2,41,0.5501165986061096,3.850951194763184,39.40794284816938,39.31360443258012,157.34650150024498,143.36703943436467,9.713172767078504e-05,0.0916610211133956,0,0,0
13218,460927.5567708305,2010-11-06 22:26:24,1080.5532463668926,2,41,0.5501165986061096,3.853865146636963,39.41252967383489,39.31360443258012,157.36417174028196,143.36703943436467,6.47544875391759e-05,0.0916610211133956,0,0,0
13219,460957.5722833024,2010-11-06 22:26:54,1110.5687588488188,2,41,0.5501165986061096,3.857102870941162,39.41711653696517,39.31360443258012,157.38185639741036,143.36703943436467,9.713172767078504e-05,0.0916610211133956,0,0,0
13220,460987.5875460911,2010-11-06 22:27:24,1140.5840216525094,2,41,0.5501165986061096,3.860016822814941,39.4217032570762,39.31360443258012,157.39955430790948,143.36703943436467,9.713172767078504e-05,0.0916610211133956,0,0,0
13221,461017.6028841626,2010-11-06 22:27:54,1170.5993597290933,2,41,0.550297200679779,3.8629307746887207,39.42629004506693,39.31360443258012,157.4172658093254,143.36703943436467,6.47544875391759e-05,0.0916610211133956,0,0,0
13222,461047.6182461088,2010-11-06 22:28:24,1200.6147216752586,2,41,0.5501165986061096,3.86568284034729,39.4308768777827,39.31360443258012,157.43499025066166,143.36703943436467,9.713172767078504e-05,0.0916610211133956,0,0,0
13223,461077.6336247266,2010-11-06 22:28:54,1230.630100262964,2,41,0.5501165986061096,3.86811113357544,39.435463732124646,39.31360443258012,157.45272704604724,143.36703943436467,6.47544875391759e-05,0.0916610211133956,0,0,0
13224,461107.6491266071,2010-11-06 22:29:24,1260.6456021434274,2,41,0.5501165986061096,3.870539426803589,39.440050604154365,39.31360443258012,157.470475550882,143.36703943436467,6.47544875391759e-05,0.0916610211133956,0,0,0
13225,461137.6643512053,2010-11-06 22:29:54,1290.660826766814,2,41,0.5501165986061096,3.8729677200317374,39.44463739369132,39.31360443258012,157.48823485331187,143.36703943436467,3.237724376958795e-05,0.0916610211133956,0,0,0
13226,461167.67974384816,2010-11-06 22:30:24,1320.6762194096032,2,41,0.5499359965324402,3.875072240829468,39.44922427835219,39.31360443258012,157.5060049440919,143.36703943436467,3.237724376958795e-05,0.0916610211133956,0,0,0
13227,461197.6950950375,2010-11-06 22:30:54,1350.6915706039306,2,41,0.5501165986061096,3.8773386478424072,39.45381105123927,39.31360443258012,157.52378441627155,143.36703943436467,6.47544875391759e-05,0.0916610211133956,0,0,0
13228,461227.71070105786,2010-11-06 22:31:24,1380.707176594268,2,41,0.5501165986061096,3.879119396209717,39.4583978998072,39.31360443258012,157.54157339680307,143.36703943436467,3.237724376958795e-05,0.0916610211133956,0,0,0
13229,461257.72593173134,2010-11-06 22:31:54,1410.7224072727693,2,41,0.5501165986061096,3.881062030792236,39.46298476891648,39.31360443258012,157.55937099277466,143.36703943436467,3.237724376958795e-05,0.0916610211133956,0,0,0
13230,461287.741209322,2010-11-06 22:32:24,1440.7376848733957,2,41,0.5501165986061096,3.882519006729126,39.46757160855832,39.31360443258012,157.57717655762127,143.36703943436467,0.0,0.0916610211133956,0,0,0
13231,461317.7566903203,2010-11-06 22:32:54,1470.7531658767462,2,41,0.5501165986061096,3.8844616413116455,39.47215851617496,39.31360443258012,157.59499000368257,143.36703943436467,6.47544875391759e-05,0.0916610211133956,0,0,0
13232,461347.7720690885,2010-11-06 22:33:24,1500.768544624852,2,41,0.550297200679779,3.885918617248535,39.476745387826064,39.31360443258012,157.61281034774322,143.36703943436467,6.47544875391759e-05,0.0916610211133956,0,0,0
13233,461377.7872792106,2010-11-06 22:33:54,1530.7837547721044,2,41,0.550297200679779,3.887375593185425,39.48133221429417,39.31360443258012,157.6306374030932,143.36703943436467,3.237724376958795e-05,0.0916610211133956,0,0,0
13234,461407.8026495026,2010-11-06 22:34:24,1560.7991250390396,2,41,0.5499359965324402,3.888670682907105,39.48591917611496,39.31360443258012,157.648471554119,143.36703943436467,6.47544875391759e-05,0.0916610211133956,0,0,0
13235,461437.818022712,2010-11-06 22:34:54,1590.8144982483198,2,41,0.550297200679779,3.890127658843994,39.490506163714805,39.31360443258012,157.6663122231719,143.36703943436467,3.237724376958795e-05,0.0916610211133956,0,0,0
13236,461467.8334185627,2010-11-06 22:35:24,1620.829894129192,2,41,0.5501165986061096,3.891422748565674,39.49509302463066,39.31360443258012,157.68415861974512,143.36703943436467,3.237724376958795e-05,0.0916610211133956,0,0,0
13237,461497.8489065184,2010-11-06 22:35:54,1650.845382059834,2,41,0.5501165986061096,3.8927178382873535,39.49967997555275,39.31360443258012,157.70201153847842,143.36703943436467,3.237724376958795e-05,0.0916610211133956,0,0,0
13238,461527.86411780847,2010-11-06 22:36:24,1680.8605933499389,2,41,0.5501165986061096,3.894012928009033,39.50426690984165,39.31360443258012,157.71987052429947,143.36703943436467,0.0,0.0916610211133956,0,0,0
13239,461557.8794893988,2010-11-06 22:36:54,1710.875964935165,2,41,0.5501165986061096,3.895308017730713,39.508853899575016,39.31360443258012,157.737735470976,143.36703943436467,6.47544875391759e-05,0.0916610211133956,0,0,0
13240,461587.8948822169,2010-11-06 22:37:24,1740.8913577533922,2,41,0.5501165986061096,3.8967649936676025,39.51344090193945,39.31360443258012,157.75560643299846,143.36703943436467,6.47544875391759e-05,0.0916610211133956,0,0,0
13241,461617.9103539121,2010-11-06 22:37:54,1770.9068294585331,2,41,0.5501165986061096,3.897898197174072,39.51802783176784,39.31360443258012,157.77348311818236,143.36703943436467,3.237724376958795e-05,0.0916610211133956,0,0,0
13242,461647.92560171336,2010-11-06 22:38:24,1800.9220772497504,2,41,0.550297200679779,3.899193286895752,39.522614772419246,39.31360443258012,157.7913659199968,143.36703943436467,0.0,0.0916610211133956,0,0,0
13243,461677.94363142864,2010-11-06 22:38:54,1830.940107050291,2,41,0.5501165986061096,3.9006502628326416,39.52720211417225,39.31360443258012,157.80925627702788,143.36703943436467,6.47544875391759e-05,0.0916610211133956,0,0,0
13244,461707.9565884818,2010-11-06 22:39:24,1860.953064028286,2,41,0.5501165986061096,3.901945352554321,39.53178867391888,39.31360443258012,157.82714965413172,143.36703943436467,3.237724376958795e-05,0.0916610211133956,0,0,0
13245,461737.9716971458,2010-11-06 22:39:54,1890.9681726821952,2,41,0.550297200679779,3.903240442276001,39.53637557067517,39.31360443258012,157.84505044648702,143.36703943436467,6.47544875391759e-05,0.0916610211133956,0,0,0
13246,461767.9870645957,2010-11-06 22:40:24,1920.9835401320995,2,41,0.5501165986061096,3.9045355319976807,39.54096251264263,39.31360443258012,157.86295759112753,143.36703943436467,3.237724376958795e-05,0.0916610211133956,0,0,0
13247,461798.0024328276,2010-11-06 22:40:54,1950.9989083639543,2,41,0.5501165986061096,3.9059925079345694,39.545549508595,39.31360443258012,157.88087103547545,143.36703943436467,3.237724376958795e-05,0.0916610211133956,0,0,0
13248,461828.01780574606,2010-11-06 22:41:24,1981.014281282509,2,41,0.550297200679779,3.90744948387146,39.550136404727645,39.31360443258012,157.89879026111777,143.36703943436467,6.47544875391759e-05,0.0916610211133956,0,0,0
13249,461858.0331621936,2010-11-06 22:41:54,2011.0296377349616,2,41,0.5501165986061096,3.90874457359314,39.55472335330743,39.31360443258012,157.91671593497222,143.36703943436467,6.47544875391759e-05,0.0916610211133956,0,0,0
13250,461888.0486655477,2010-11-06 22:42:24,2041.0451410840903,2,41,0.550297200679779,3.910201549530029,39.55931030762696,39.31360443258012,157.9346479211135,143.36703943436467,6.47544875391759e-05,0.0916610211133956,0,0,0
13251,461918.0639387122,2010-11-06 22:42:54,2071.060414278719,2,41,0.550297200679779,3.911496639251709,39.563897231536096,39.31360443258012,157.95258603879398,143.36703943436467,6.47544875391759e-05,0.0916610211133956,0,0,0
13252,461948.0792863327,2010-11-06 22:43:24,2101.0757618891,2,41,0.5501165986061096,3.9127917289733887,39.56848413658869,39.31360443258012,157.9705304471713,143.36703943436467,3.237724376958795e-05,0.0916610211133956,0,0,0
13253,461978.09476143634,2010-11-06 22:43:54,2131.0912369676616,2,41,0.5501165986061096,3.914248466491699,39.57307111075563,39.31360443258012,157.98848150422364,143.36703943436467,6.47544875391759e-05,0.0916610211133956,0,0,0
13254,462008.1100065709,2010-11-06 22:44:24,2161.1064821273103,2,41,0.5499359965324402,3.915543556213379,39.57765801875809,39.31360443258012,158.0064387564428,143.36703943436467,3.237724376958795e-05,0.0916610211133956,0,0,0
13255,462038.1253720559,2010-11-06 22:44:54,2191.121847607297,2,41,0.5501165986061096,3.917000532150269,39.58224488755452,39.31360443258012,158.02440211304332,143.36703943436467,3.237724376958795e-05,0.0916610211133956,0,0,0
13256,462068.140879816,2010-11-06 22:45:24,2221.137355352399,2,41,0.5501165986061096,3.918295621871948,39.586831829220685,39.31360443258012,158.0423723744479,143.36703943436467,0.0,0.0916610211133956,0,0,0
13257,462098.1561122639,2010-11-06 22:45:54,2251.152587820367,2,41,0.550297200679779,3.919914484024048,39.59141874208007,39.31360443258012,158.06034906167434,143.36703943436467,6.47544875391759e-05,0.0916610211133956,0,0,0
13258,462128.17164802895,2010-11-06 22:46:24,2281.1681235653614,2,41,0.550297200679779,3.9213714599609375,39.59600568367112,39.31360443258012,158.07833246671132,143.36703943436467,6.47544875391759e-05,0.0916610211133956,0,0,0
13259,462158.1868449982,2010-11-06 22:46:54,2311.183320539732,2,41,0.550297200679779,3.922828435897827,39.60059255584327,39.31360443258012,158.09632228368392,143.36703943436467,6.47544875391759e-05,0.0916610211133956,0,0,0
13260,462188.2022330296,2010-11-06 22:47:24,2341.198708586048,2,41,0.5501165986061096,3.924285411834717,39.60517947043963,39.31360443258012,158.11431896577727,143.36703943436467,3.237724376958795e-05,0.0916610211133956,0,0,0
13261,462218.2177225542,2010-11-06 22:47:54,2371.2141980856063,2,41,0.5501165986061096,3.9257423877716064,39.60976638918739,39.31360443258012,158.13232246491722,143.36703943436467,6.47544875391759e-05,0.0916610211133956,0,0,0
13262,462248.2329574332,2010-11-06 22:48:24,2401.229432989655,2,41,0.550297200679779,3.927199363708496,39.614353306466406,39.31360443258012,158.150332653115,143.36703943436467,9.713172767078504e-05,0.0916610211133956,0,0,0
13263,462278.248332853,2010-11-06 22:48:54,2431.2448084044404,2,41,0.5501165986061096,3.9286563396453857,39.618940274975,39.31360443258012,158.16834996848766,143.36703943436467,3.237724376958795e-05,0.0916610211133956,0,0,0
13264,462308.2638283976,2010-11-06 22:49:24,2461.2603039340506,2,41,0.5501165986061096,3.930275201797485,39.62352725257625,39.31360443258012,158.1863742290719,143.36703943436467,6.47544875391759e-05,0.0916610211133956,0,0,0
13265,462338.27908091067,2010-11-06 22:49:54,2491.275556452067,2,41,0.5501165986061096,3.931732177734375,39.6281141770018,39.31360443258012,158.2044052374226,143.36703943436467,3.237724376958795e-05,0.0916610211133956,0,0,0
13266,462368.2944357992,2010-11-06 22:50:24,2521.2909113556534,2,41,0.550297200679779,3.9333510398864746,39.632701128599656,39.31360443258012,158.22244340358034,143.36703943436467,6.47544875391759e-05,0.0916610211133956,0,0,0
13267,462398.3098287328,2010-11-06 22:50:54,2551.3063042741305,2,41,0.550297200679779,3.934969902038574,39.637288123381296,39.31360443258012,158.2404888647872,143.36703943436467,6.47544875391759e-05,0.0916610211133956,0,0,0
13268,462428.32525759086,2010-11-06 22:51:24,2581.321733212519,2,41,0.5501165986061096,3.936264991760254,39.64187512079413,39.31360443258012,158.2585414857869,143.36703943436467,3.237724376958795e-05,0.0916610211133956,0,0,0
13269,462458.34066928126,2010-11-06 22:51:54,2611.3371448126286,2,41,0.550297200679779,3.938045740127564,39.64646201180965,39.31360443258012,158.2766007637742,143.36703943436467,6.47544875391759e-05,0.0916610211133956,0,0,0
13270,462488.3559211626,2010-11-06 22:52:24,2641.3523966990683,2,41,0.5501165986061096,3.939664602279663,39.65104893452399,39.31360443258012,158.29466752809284,143.36703943436467,6.47544875391759e-05,0.0916610211133956,0,0,0
13271,462518.3712690588,2010-11-06 22:52:54,2671.367744620225,2,41,0.550297200679779,3.9412834644317623,39.6556358983256,39.31360443258012,158.3127418881397,143.36703943436467,6.47544875391759e-05,0.0916610211133956,0,0,0
13272,462548.38664328057,2010-11-06 22:53:25,2701.3831188420327,2,41,0.5499359965324402,3.942740440368652,39.660222805106514,39.31360443258012,158.330823365489,143.36703943436467,3.237724376958795e-05,0.0916610211133956,0,0,0
13273,462578.40200127184,2010-11-06 22:53:55,2731.398476808264,2,41,0.5499359965324402,3.944521188735962,39.66480968909814,39.31360443258012,158.34891229258835,143.36703943436467,6.47544875391759e-05,0.0916610211133956,0,0,0
13274,462608.4174088519,2010-11-06 22:54:25,2761.413884418413,2,41,0.550297200679779,3.946301937103272,39.66939661987762,39.31360443258012,158.36700898747702,143.36703943436467,6.47544875391759e-05,0.0916610211133956,0,0,0
13275,462638.43278454745,2010-11-06 22:54:55,2791.429260088837,2,41,0.5501165986061096,3.947597026824951,39.67398359762386,39.31360443258012,158.3851133959866,143.36703943436467,3.237724376958795e-05,0.0916610211133956,0,0,0
13276,462668.4480667294,2010-11-06 22:55:25,2821.4445422809245,2,41,0.5499359965324402,3.9493777751922607,39.67857023118943,39.31360443258012,158.40322407848788,143.36703943436467,0.0,0.0916610211133956,0,0,0
13277,462698.46348648495,2010-11-06 22:55:55,2851.4599620414037,2,41,0.5501165986061096,3.9511585235595694,39.68315623054101,39.31360443258012,158.42133982033516,143.36703943436467,6.47544875391759e-05,0.0916610211133956,0,0,0
13278,462728.4788152282,2010-11-06 22:56:25,2881.47529076464,2,41,0.5501165986061096,3.95277738571167,39.68774241919872,39.31360443258012,158.4394641414011,143.36703943436467,3.237724376958795e-05,0.0916610211133956,0,0,0
13279,462758.4943102666,2010-11-06 22:56:55,2911.4907858280862,2,41,0.5499359965324402,3.95455813407898,39.69232936146113,39.31360443258012,158.45759941475336,143.36703943436467,6.47544875391759e-05,0.0916610211133956,0,0,0
13280,462788.5096700724,2010-11-06 22:57:25,2941.506145633909,2,41,0.5501165986061096,3.956338882446289,39.696916252599664,39.31360443258012,158.4757424385678,143.36703943436467,6.47544875391759e-05,0.0916610211133956,0,0,0
13281,462818.5250246001,2010-11-06 22:57:55,2971.521500161557,2,41,0.5501165986061096,3.9577958583831783,39.70150322463665,39.31360443258012,158.4938937241927,143.36703943436467,0.0,0.0916610211133956,0,0,0
13282,462848.54052081145,2010-11-06 22:58:25,3001.5369963478065,2,41,0.550297200679779,3.959900379180908,39.70609007468218,39.31360443258012,158.51205260505927,143.36703943436467,6.47544875391759e-05,0.0916610211133956,0,0,0
13283,462878.555898973,2010-11-06 22:58:55,3031.5523745244864,2,41,0.5501165986061096,3.961519241333008,39.71067698873445,39.31360443258012,158.5302198491568,143.36703943436467,3.237724376958795e-05,0.0916610211133956,0,0,0
13284,462908.5714914096,2010-11-06 22:59:25,3061.5679669860538,2,41,0.5501165986061096,3.963299989700317,39.71526396515744,39.31360443258012,158.5483955087001,143.36703943436467,6.47544875391759e-05,0.0916610211133956,0,0,0
13285,462938.5866221486,2010-11-06 22:59:55,3091.583097695016,2,41,0.5501165986061096,3.965242624282837,39.71985077278112,39.31360443258012,158.5665787439325,143.36703943436467,3.237724376958795e-05,0.0916610211133956,0,0,0
13286,462968.6018879748,2010-11-06 23:00:25,3121.5983635413013,2,41,0.5501165986061096,3.9670233726501465,39.724437668503846,39.31360443258012,158.58477072619425,143.36703943436467,6.47544875391759e-05,0.0916610211133956,0,0,0
13287,462998.61722962034,2010-11-06 23:00:55,3151.613705181781,2,41,0.550297200679779,3.968804121017456,39.7290246063851,39.31360443258012,158.60297121446848,143.36703943436467,3.237724376958795e-05,0.0916610211133956,0,0,0
13288,463028.6327377063,2010-11-06 23:01:25,3181.629213242671,2,41,0.550297200679779,3.970746755599976,39.73361154670855,39.31360443258012,158.62118025211356,143.36703943436467,3.237724376958795e-05,0.0916610211133956,0,0,0
13289,463058.648095477,2010-11-06 23:01:55,3211.6445710384764,2,41,0.5501165986061096,3.972527503967285,39.7381984402188,39.31360443258012,158.63939777311094,143.36703943436467,3.237724376958795e-05,0.0916610211133956,0,0,0
13290,463088.663339158,2010-11-06 23:02:25,3241.6598147194345,2,41,0.5501165986061096,3.9744701385498047,39.74278534033556,39.31360443258012,158.65762397585715,143.36703943436467,6.47544875391759e-05,0.0916610211133956,0,0,0
13291,463118.6788424169,2010-11-06 23:02:55,3271.675317953276,2,41,0.5501165986061096,3.976412773132324,39.74737231935362,39.31360443258012,158.67585926826783,143.36703943436467,6.47544875391759e-05,0.0916610211133956,0,0,0
13292,463148.6942680772,2010-11-06 23:03:25,3301.6907436134816,2,41,0.5501165986061096,3.977869749069214,39.75195931131135,39.31360443258012,158.6941031781317,143.36703943436467,0.0,0.0916610211133956,0,0,0
13293,463178.709500926,2010-11-06 23:03:55,3331.7059764624005,2,41,0.550297200679779,3.9802980422973633,39.75654611156978,39.31360443258012,158.71235550957613,143.36703943436467,6.47544875391759e-05,0.0916610211133956,0,0,0
13294,463208.7248132383,2010-11-06 23:04:25,3361.721288799735,2,41,0.5501165986061096,3.982240676879883,39.761132950309765,39.31360443258012,158.73061716248583,143.36703943436467,0.0,0.0916610211133956,0,0,0
13295,463238.7401907784,2010-11-06 23:04:55,3391.7366663298003,2,41,0.5501165986061096,3.9841833114624015,39.7657197629872,39.31360443258012,158.74888785324472,143.36703943436467,6.47544875391759e-05,0.0916610211133956,0,0,0
13296,463268.7557137064,2010-11-06 23:05:25,3421.752189252789,2,41,0.550297200679779,3.986449718475342,39.77030666324394,39.31360443258012,158.76716818666216,143.36703943436467,6.47544875391759e-05,0.0916610211133956,0,0,0
13297,463298.7709195228,2010-11-06 23:05:55,3451.7673950892804,2,41,0.5501165986061096,3.9885542392730713,39.77489353066239,39.31360443258012,158.7854578134639,143.36703943436467,9.713172767078504e-05,0.0916610211133956,0,0,0
13298,463328.7862929076,2010-11-06 23:06:25,3481.7827684689864,2,41,0.5501165986061096,3.990496873855591,39.779480380051005,39.31360443258012,158.80375676431237,143.36703943436467,6.47544875391759e-05,0.0916610211133956,0,0,0
13299,463358.8018238354,2010-11-06 23:06:55,3511.7982993969563,2,41,0.5501165986061096,3.99260139465332,39.78406721800848,39.31360443258012,158.82206527158704,143.36703943436467,6.47544875391759e-05,0.0916610211133956,0,0,0
13300,463388.8170797821,2010-11-06 23:07:25,3541.8135553184684,2,41,0.5501165986061096,3.994705677032471,39.7886540528698,39.31360443258012,158.84038346132638,143.36703943436467,3.237724376958795e-05,0.0916610211133956,0,0,0
13301,463418.832637131,2010-11-06 23:07:55,3571.8291126774134,2,41,0.5501165986061096,3.9968101978302,39.79324091500335,39.31360443258012,158.85871159381762,143.36703943436467,6.47544875391759e-05,0.0916610211133956,0,0,0
13302,463448.84776301787,2010-11-06 23:08:25,3601.844238579377,2,41,0.5499359965324402,3.99907660484314,39.79782775799031,39.31360443258012,158.8770494750717,143.36703943436467,6.47544875391759e-05,0.0916610211133956,0,0,0
13303,463478.8631421721,2010-11-06 23:08:55,3631.859617738509,2,41,0.550297200679779,4.001343250274658,39.802414579308255,39.31360443258012,158.89539727380904,143.36703943436467,9.71794142969884e-05,0.0916610211133956,0,0,0
13304,463508.8785129904,2010-11-06 23:09:25,3661.874988551808,2,41,0.5499359965324402,4.003447532653809,39.80700134439606,39.31360443258012,158.9137549170339,143.36703943436467,9.70840483205393e-05,0.0916610211133956,0,0,0
13305,463538.8938682549,2010-11-06 23:09:55,3691.890343816295,2,41,0.550297200679779,4.005713939666748,39.81158819458638,39.31360443258012,158.9321230443389,143.36703943436467,6.47544875391759e-05,0.0916610211133956,0,0,0
13306,463568.90923529374,2010-11-06 23:10:25,3721.9057108301104,2,41,0.550297200679779,4.007980346679688,39.81617547794392,39.31360443258012,158.9505032607957,143.36703943436467,6.47544875391759e-05,0.0916610211133956,0,0,0
13307,463598.9251736938,2010-11-06 23:10:55,3751.9216492301935,2,41,0.550297200679779,4.010246753692627,39.82076318113083,39.31360443258012,158.9688954775598,143.36703943436467,6.47544875391759e-05,0.0916610211133956,0,0,0
13308,463628.9271693005,2010-11-06 23:11:25,3781.923644831907,2,41,0.550297200679779,4.012351512908936,39.82534820022424,39.31360443258012,158.98728733302067,143.36703943436467,3.24249267578125e-05,0.0916610211133956,0,0,0
13309,463658.9400734216,2010-11-06 23:11:55,3811.936549048201,2,41,0.5501165986061096,4.014617919921875,39.82993461277552,39.31360443258012,159.00569535662342,143.36703943436467,3.24249267578125e-05,0.0916610211133956,0,0,0
13310,463688.9551172035,2010-11-06 23:12:25,3841.9515927399552,2,41,0.5501165986061096,4.017208099365234,39.83452139900622,39.31360443258012,159.02411553808744,143.36703943436467,9.71794142969884e-05,0.0916610211133956,0,0,0
13311,463718.9704803878,2010-11-06 23:12:55,3871.96695592421,2,41,0.5501165986061096,4.019312381744385,39.8391082381246,39.31360443258012,159.04254660387153,143.36703943436467,3.23295607813634e-05,0.0916610211133956,0,0,0
13312,463748.9858682136,2010-11-06 23:13:25,3901.982343754989,2,41,0.5501165986061096,4.021740913391113,39.84369504917468,39.31360443258012,159.0609883506487,143.36703943436467,3.24249267578125e-05,0.0916610211133956,0,0,0
13313,463779.0012295533,2010-11-06 23:13:55,3931.997705089628,2,41,0.5497553944587708,4.024007320404053,39.84828190521018,39.31360443258012,159.0794412634198,143.36703943436467,3.24249267578125e-05,0.0916610211133956,0,0,0
13314,463809.01658477256,2010-11-06 23:14:25,3962.013060309002,2,41,0.5501165986061096,4.026435375213623,39.852868785497805,39.31360443258012,159.0979052846043,143.36703943436467,3.23295607813634e-05,0.0916610211133956,0,0,0
13315,463839.0319638064,2010-11-06 23:14:55,3992.0284393478337,2,41,0.5501165986061096,4.029025554656982,39.85745560757242,39.31360443258012,159.1163802382001,143.36703943436467,6.47544875391759e-05,0.0916610211133956,0,0,0
13316,463869.0474538974,2010-11-06 23:15:25,4022.043929433856,2,41,0.5499359965324402,4.031454086303711,39.86204246841945,39.31360443258012,159.13486644444677,143.36703943436467,6.47544875391759e-05,0.0916610211133956,0,0,0
13317,463899.0627237237,2010-11-06 23:15:55,4052.059199260076,2,41,0.550297200679779,4.03404426574707,39.86662924977848,39.31360443258012,159.15336366119132,143.36703943436467,9.71794142969884e-05,0.0916610211133956,0,0,0
13318,463929.07818590006,2010-11-06 23:16:25,4082.074661441444,2,41,0.5501165986061096,4.036633968353272,39.8712161388245,39.31360443258012,159.1718727067385,143.36703943436467,6.47544875391759e-05,0.0916610211133956,0,0,0
13319,463959.0934505733,2010-11-06 23:16:55,4112.089926109789,2,41,0.5501165986061096,4.0390625,39.875802983951615,39.31360443258012,159.1903930526835,143.36703943436467,9.71794142969884e-05,0.0916610211133956,0,0,0
13320,463989.10879561736,2010-11-06 23:17:25,4142.105271153765,2,41,0.5501165986061096,4.04149055480957,39.88038978676004,39.31360443258012,159.20892466653171,143.36703943436467,9.70840483205393e-05,0.0916610211133956,0,0,0
13321,464019.1241882852,2010-11-06 23:17:55,4172.120663821616,2,41,0.5501165986061096,4.043919086456299,39.884976661035225,39.31360443258012,159.2274682527183,143.36703943436467,3.24249267578125e-05,0.0916610211133956,0,0,0
13322,464049.1395378405,2010-11-06 23:18:25,4202.136013376852,2,41,0.550297200679779,4.046509265899658,39.8895634840714,39.31360443258012,159.24602335570088,143.36703943436467,3.24249267578125e-05,0.0916610211133956,0,0,0
13323,464079.1548992654,2010-11-06 23:18:55,4232.151374801717,2,41,0.5501165986061096,4.049099445343018,39.894150342062986,39.31360443258012,159.26459043738842,143.36703943436467,6.47544875391759e-05,0.0916610211133956,0,0,0
13324,464109.1702704496,2010-11-06 23:19:25,4262.166745985942,2,41,0.5499359965324402,4.051689624786377,39.89873721067429,39.31360443258012,159.2831694575009,143.36703943436467,6.47544875391759e-05,0.0916610211133956,0,0,0
13325,464139.18584844,2010-11-06 23:19:55,4292.182323976387,2,41,0.5499359965324402,4.054441452026367,39.903324093620725,39.31360443258012,159.3017606156722,143.36703943436467,6.47544875391759e-05,0.0916610211133956,0,0,0
13326,464169.2011521508,2010-11-06 23:20:25,4322.197627687189,2,41,0.550297200679779,4.057193756103516,39.90791095070293,39.31360443258012,159.32036381913943,143.36703943436467,9.71794142969884e-05,0.0916610211133956,0,0,0
13327,464199.2163938217,2010-11-06 23:20:55,4352.212869358129,2,41,0.550297200679779,4.059945583343506,39.91249782367266,39.31360443258012,159.3389794547686,143.36703943436467,0.0001295089750783,0.0916610211133956,0,0,0
13328,464229.2166522172,2010-11-06 23:21:25,4382.213127753507,2,41,0.5501165986061096,4.062374114990234,39.917082349087146,39.31360443258012,159.3575975836861,143.36703943436467,6.47544875391759e-05,0.0916610211133956,0,0,0
13329,464259.2314918795,2010-11-06 23:21:55,4412.227967425998,2,41,0.5501165986061096,4.065125942230225,39.92166906273865,39.31360443258012,159.3762370742507,143.36703943436467,6.47544875391759e-05,0.0916610211133956,0,0,0
13330,464289.24699075246,2010-11-06 23:22:25,4442.243466288929,2,41,0.550297200679779,4.068039894104004,39.9262559136236,39.31360443258012,159.39488968987396,143.36703943436467,9.70840483205393e-05,0.0916610211133956,0,0,0
13331,464319.2623692951,2010-11-06 23:22:55,4472.258844841546,2,41,0.550297200679779,4.070792198181152,39.93084278338968,39.31360443258012,159.41355506614545,143.36703943436467,9.71794142969884e-05,0.0916610211133956,0,0,0
13332,464349.2775930514,2010-11-06 23:23:25,4502.274068592757,2,41,0.550297200679779,4.073544025421143,39.935429606816285,39.31360443258012,159.43223301148683,143.36703943436467,9.70840483205393e-05,0.0916610211133956,0,0,0
13333,464379.292978055,2010-11-06 23:23:55,4532.28945360149,2,41,0.550297200679779,4.076620101928711,39.9400164355022,39.31360443258012,159.45092404151163,143.36703943436467,0.0001295089750783,0.0916610211133956,0,0,0
13334,464409.30836149486,2010-11-06 23:24:25,4562.304837041307,2,41,0.5501165986061096,4.07921028137207,39.94460330613843,39.31360443258012,159.46962841251113,143.36703943436467,6.47544875391759e-05,0.0916610211133956,0,0,0
13335,464439.32383163605,2010-11-06 23:24:55,4592.320307182544,2,41,0.5501165986061096,4.08212423324585,39.94919019518306,39.31360443258012,159.48834607696858,143.36703943436467,9.71794142969884e-05,0.0916610211133956,0,0,0
13336,464469.33907195873,2010-11-06 23:25:25,4622.335547495093,2,41,0.550297200679779,4.08519983291626,39.95377704317966,39.31360443258012,159.5070768767307,143.36703943436467,9.70840483205393e-05,0.0916610211133956,0,0,0
13337,464499.3544390326,2010-11-06 23:25:55,4652.350914569059,2,41,0.5501165986061096,4.087952136993408,39.95836389874373,39.31360443258012,159.5258211491764,143.36703943436467,6.47544875391759e-05,0.0916610211133956,0,0,0
13338,464529.3698669636,2010-11-06 23:26:26,4682.366342499932,2,41,0.5501165986061096,4.090866088867188,39.9629507460867,39.31360443258012,159.54457896016334,143.36703943436467,3.24249267578125e-05,0.0916610211133956,0,0,0
13339,464559.3851758923,2010-11-06 23:26:56,4712.381651428759,2,41,0.5501165986061096,4.093941688537598,39.96753764050699,39.31360443258012,159.56335066342817,143.36703943436467,9.70840483205393e-05,0.0916610211133956,0,0,0
13340,464589.4005454074,2010-11-06 23:27:26,4742.397020943818,2,41,0.5501165986061096,4.097017765045166,39.97212452307748,39.31360443258012,159.58213617524862,143.36703943436467,9.71794142969884e-05,0.0916610211133956,0,0,0
13341,464619.4159215391,2010-11-06 23:27:56,4772.412397075393,2,41,0.5501165986061096,4.099931716918945,39.97671136321041,39.31360443258012,159.60093540329368,143.36703943436467,6.47544875391759e-05,0.0916610211133956,0,0,0
13342,464649.4312930089,2010-11-06 23:28:26,4802.427768545331,2,41,0.550297200679779,4.103007316589356,39.98129823130314,39.31360443258012,159.61974880658462,143.36703943436467,6.47544875391759e-05,0.0916610211133956,0,0,0
13343,464679.4466530654,2010-11-06 23:28:56,4832.443128601779,2,41,0.5501165986061096,4.106245040893555,39.98588512389211,39.31360443258012,159.63857651473108,143.36703943436467,9.70840483205393e-05,0.0916610211133956,0,0,0
13344,464709.4620286906,2010-11-06 23:29:26,4862.45850422709,2,41,0.550297200679779,4.109644889831543,39.99047196584306,39.31360443258012,159.65741838754352,143.36703943436467,0.0001295089750783,0.0916610211133956,0,0,0
13345,464739.4774041005,2010-11-06 23:29:56,4892.473879636863,2,41,0.5499359965324402,4.112558841705322,39.99505888528455,39.31360443258012,159.67627506825275,143.36703943436467,9.71794142969884e-05,0.0916610211133956,0,0,0
13346,464769.49278430216,2010-11-06 23:30:26,4922.489259838597,2,41,0.5501165986061096,4.115634441375732,39.99964578431887,39.31360443258012,159.6951460774754,143.36703943436467,6.47544875391759e-05,0.0916610211133956,0,0,0
13347,464799.50814973714,2010-11-06 23:30:56,4952.504625273471,2,41,0.5501165986061096,4.1190338134765625,40.00423265493927,39.31360443258012,159.71403163592316,143.36703943436467,0.0001295089750783,0.0916610211133956,0,0,0
13348,464829.52349808434,2010-11-06 23:31:26,4982.519973620691,2,41,0.5501165986061096,4.122109889984131,40.00881952690283,39.31360443258012,159.73293203495638,143.36703943436467,9.71794142969884e-05,0.0916610211133956,0,0,0
13349,464859.5388695142,2010-11-06 23:31:56,5012.53534505053,2,41,0.550297200679779,4.12534761428833,40.01340638273793,39.31360443258012,159.7518471016412,143.36703943436467,9.71794142969884e-05,0.0916610211133956,0,0,0
13350,464889.5544125975,2010-11-06 23:32:26,5042.550888153892,2,41,0.550297200679779,4.12874698638916,40.0179932826091,39.31360443258012,159.77077717173745,143.36703943436467,9.70840483205393e-05,0.0916610211133956,0,0,0
13351,464919.56960542646,2010-11-06 23:32:56,5072.5660809678775,2,41,0.5501165986061096,4.13166093826294,40.0225800828736,39.31360443258012,159.7897218703541,143.36703943436467,6.47544875391759e-05,0.0916610211133956,0,0,0
13352,464949.5851203846,2010-11-06 23:33:26,5102.5815959309975,2,41,0.5501165986061096,4.135222434997559,40.027166981884406,39.31360443258012,159.8086821849492,143.36703943436467,9.70840483205393e-05,0.0916610211133956,0,0,0
13353,464979.6003404265,2010-11-06 23:33:56,5132.596815967935,2,41,0.5501165986061096,4.138460159301758,40.03175385198639,39.31360443258012,159.82765762393348,143.36703943436467,6.47544875391759e-05,0.0916610211133956,0,0,0
13354,465009.6158509285,2010-11-06 23:34:26,5162.612326464906,2,41,0.5501165986061096,4.141860008239746,40.03634073683408,39.31360443258012,159.84664856064165,143.36703943436467,3.24249267578125e-05,0.0916610211133956,0,0,0
13355,465039.6312025138,2010-11-06 23:34:56,5192.627678050209,2,41,0.550297200679779,4.145421504974365,40.04092754430674,39.31360443258012,159.86565468695207,143.36703943436467,9.71794142969884e-05,0.0916610211133956,0,0,0
13356,465069.64644916216,2010-11-06 23:35:26,5222.642924698575,2,41,0.5499359965324402,4.1486592292785645,40.04551437414045,39.31360443258012,159.88467689447882,143.36703943436467,6.47544875391759e-05,0.0916610211133956,0,0,0
13357,465099.6618210832,2010-11-06 23:35:56,5252.658296619638,2,41,0.5501165986061096,4.152382373809815,40.05010129256337,39.31360443258012,159.90371523124193,143.36703943436467,6.47544875391759e-05,0.0916610211133956,0,0,0
13358,465129.67727727967,2010-11-06 23:36:26,5282.673752846144,2,41,0.550297200679779,4.155782222747803,40.05468812096466,39.31360443258012,159.92276892907074,143.36703943436467,9.71794142969884e-05,0.0916610211133956,0,0,0
13359,465159.6925793965,2010-11-06 23:36:56,5312.68905493289,2,41,0.5501165986061096,4.159181594848633,40.05927494519996,39.31360443258012,159.9418384925316,143.36703943436467,6.47544875391759e-05,0.0916610211133956,0,0,0
13360,465189.7079117488,2010-11-06 23:37:26,5342.704387305234,2,41,0.5501165986061096,4.162743091583252,40.063861800254905,39.31360443258012,159.9609242483122,143.36703943436467,9.70840483205393e-05,0.0916610211133956,0,0,0
13361,465219.7233025119,2010-11-06 23:37:56,5372.719778048283,2,41,0.5501165986061096,4.16614294052124,40.06844863437302,39.31360443258012,159.9800259813618,143.36703943436467,9.71794142969884e-05,0.0916610211133956,0,0,0
13362,465249.73870907945,2010-11-06 23:38:26,5402.73518461583,2,41,0.5501165986061096,4.169704437255859,40.073035515141406,39.31360443258012,159.99914415185438,143.36703943436467,6.47544875391759e-05,0.0916610211133956,0,0,0
13363,465279.7541824938,2010-11-06 23:38:56,5432.750658030237,2,41,0.5499359965324402,4.173265933990479,40.07762236368532,39.31360443258012,160.01827850746423,143.36703943436467,6.47544875391759e-05,0.0916610211133956,0,0,0
13364,465309.76945219975,2010-11-06 23:39:26,5462.765927751195,2,41,0.550297200679779,4.1769890785217285,40.08220921074073,39.31360443258012,160.03742927589494,143.36703943436467,9.70840483205393e-05,0.0916610211133956,0,0,0
13365,465339.7847972888,2010-11-06 23:39:56,5492.781272825245,2,41,0.5501165986061096,4.180388927459717,40.08679606304598,39.31360443258012,160.05659651289767,143.36703943436467,6.47544875391759e-05,0.0916610211133956,0,0,0
13366,465369.8001963326,2010-11-06 23:40:26,5522.796671879037,2,41,0.550297200679779,4.184274196624756,40.0913828998911,39.31360443258012,160.07578039316408,143.36703943436467,0.0001295089750783,0.0916610211133956,0,0,0
13367,465399.8156611706,2010-11-06 23:40:56,5552.812136707011,2,41,0.5501165986061096,4.187997341156006,40.09596976252104,39.31360443258012,160.0949810642896,143.36703943436467,0.0001295089750783,0.0916610211133956,0,0,0
13368,465429.83090043056,2010-11-06 23:41:26,5582.827375971945,2,41,0.5501165986061096,4.191397190093994,40.10055652231704,39.31360443258012,160.1141980687603,143.36703943436467,6.47544875391759e-05,0.0916610211133956,0,0,0
13369,465459.8462659757,2010-11-06 23:41:56,5612.842741512082,2,41,0.550297200679779,4.195281982421875,40.10514333425736,39.31360443258012,160.13343219721637,143.36703943436467,0.0001294136018259,0.0916610211133956,0,0,0
13370,465489.8616515358,2010-11-06 23:42:26,5642.858127072192,2,41,0.5501165986061096,4.199005603790283,40.10973018101194,39.31360443258012,160.15268343855965,143.36703943436467,0.0001295089750783,0.0916610211133956,0,0,0
13371,465497.9243844376,2010-11-06 23:42:34,5650.920859993985,2,41,0.5501165986061096,4.200138568878174,40.11096228673735,39.31360443258012,160.15785759585788,143.36703943436467,0.0001618385285837,0.0916610211133956,0,0,0
13372,465527.9541401014,2010-11-06 23:43:04,30.01549311859218,3,41,0.0,4.118224620819092,40.11096228673735,39.31360443258012,160.15785759585788,143.36703943436467,-0.0003237724304199,0.0916610211133956,0,0,0
13373,465557.9694665489,2010-11-06 23:43:34,60.0308196062479,3,41,0.0,4.108511447906494,40.11096228673735,39.31360443258012,160.15785759585788,143.36703943436467,-0.0001619339018361,0.0916610211133956,0,0,0
13374,465587.9847570917,2010-11-06 23:44:04,90.04611011409249,3,41,0.0,4.102359771728516,40.11096228673735,39.31360443258012,160.15785759585788,143.36703943436467,-0.0001942634553415,0.0916610211133956,0,0,0
13375,465617.9532499656,2010-11-06 23:44:34,120.0146029828302,3,41,0.0,4.0989603996276855,40.11096228673735,39.31360443258012,160.15785759585788,143.36703943436467,-6.47544875391759e-05,0.0916610211133956,0,0,0
13376,465617.96875492507,2010-11-06 23:44:34,0.015533900004241,4,41,0.976896345615387,4.199814796447754,40.11096650201778,39.31360443258012,160.157875299255,143.36703943436467,0.0,0.0916610211133956,0,0,0
13377,465618.87497026287,2010-11-06 23:44:35,0.921749247930411,4,41,0.926686942577362,4.199491024017334,40.11120445592154,39.31360443258012,160.15887461848322,143.36703943436467,-6.47544875391759e-05,0.0916610211133956,0,0,0
13378,465621.0155699391,2010-11-06 23:44:37,3.062348914019996,4,41,0.8766582012176514,4.199653148651123,40.11173947640884,39.31360443258012,160.16112149695482,143.36703943436467,-3.23295607813634e-05,0.0916610211133956,0,0,0
13379,465624.3436559487,2010-11-06 23:44:41,6.3904349136884,4,41,0.826268196105957,4.199653148651123,40.11252532759788,39.31360443258012,160.16442178175743,143.36703943436467,0.0,0.0916610211133956,0,0,0
13380,465628.92173969006,2010-11-06 23:44:45,10.968518660039868,4,41,0.7762394547462463,4.199814796447754,40.113542709004605,39.31360443258012,160.16869441906672,143.36703943436467,3.23295607813634e-05,0.0916610211133956,0,0,0
13381,465634.90609975846,2010-11-06 23:44:51,16.952878728441377,4,41,0.7262106537818909,4.199653148651123,40.11478965889826,39.31360443258012,160.17393118616073,143.36703943436467,-3.23295607813634e-05,0.0916610211133956,0,0,0
13382,465642.7497561214,2010-11-06 23:44:59,24.796535086427276,4,41,0.6761819124221802,4.199653148651123,40.11631545674403,39.31360443258012,160.1803390176146,143.36703943436467,3.24249267578125e-05,0.0916610211133956,0,0,0
13383,465653.4375381195,2010-11-06 23:45:10,35.48431719985657,4,41,0.6261531114578247,4.199653148651123,40.1182452976003,39.31360443258012,160.18844369637318,143.36703943436467,0.0,0.0916610211133956,0,0,0
13384,465668.6401420228,2010-11-06 23:45:25,50.68692098777333,4,41,0.576124370098114,4.199814796447754,40.12077739927523,39.31360443258012,160.19907767428222,143.36703943436467,6.47544875391759e-05,0.0916610211133956,0,0,0
13385,465692.483691305,2010-11-06 23:45:49,74.53047027002016,4,41,0.5260955691337585,4.199653148651123,40.12441462423058,39.31360443258012,160.21435281454217,143.36703943436467,-3.23295607813634e-05,0.0916610211133956,0,0,0
13386,465733.8270919937,2010-11-06 23:46:30,115.8738709636747,4,41,0.4760667979717254,4.199491024017334,40.1301437799654,39.31360443258012,160.2384133361308,143.36703943436467,-3.24249267578125e-05,0.0916610211133956,0,0,0
13387,465805.1858754956,2010-11-06 23:47:42,187.23265446556985,4,41,0.4260380268096924,4.199653148651123,40.13904985735125,39.31360443258012,160.2758159072522,143.36703943436467,0.0,0.0916610211133956,0,0,0
13388,465905.2474932025,2010-11-06 23:49:22,287.29427217246126,4,41,0.3760092854499817,4.199653148651123,40.1501758334017,39.31360443258012,160.32254131248973,143.36703943436467,0.0,0.0916610211133956,0,0,0
13389,466027.35582026775,2010-11-06 23:51:24,409.4025992377127,4,41,0.3259805142879486,4.199653148651123,40.16206509023171,39.31360443258012,160.37247224297369,143.36703943436467,0.0,0.0916610211133956,0,0,0
13390,466170.5265981004,2010-11-06 23:53:47,552.5733770905067,4,41,0.2759517431259155,4.199491024017334,40.1740192597918,39.31360443258012,160.42267580952284,143.36703943436467,-6.47544875391759e-05,0.0916610211133956,0,0,0
13391,466343.9316167898,2010-11-06 23:56:40,725.9783958700757,4,41,0.2259229570627212,4.199491024017334,40.18608216281689,39.31360443258012,160.4733360433214,143.36703943436467,-3.24249267578125e-05,0.0916610211133956,0,0,0
13392,466563.132502213,2010-11-07 00:00:20,945.1792811780174,4,41,0.1758941859006881,4.199653148651123,40.19826784207696,39.31360443258012,160.52451190158416,143.36703943436467,0.0,0.0916610211133956,0,0,0
13393,466870.3955287385,2010-11-07 00:05:27,1252.4423077034598,4,41,0.1258654296398162,4.199653148651123,40.21103876960714,39.31360443258012,160.57814555891895,143.36703943436467,0.0,0.0916610211133956,0,0,0
13394,467374.6881192479,2010-11-07 00:13:51,1756.7348982178592,4,41,0.0756560415029525,4.199653148651123,40.22487310080627,39.31360443258012,160.63624515295,143.36703943436467,-3.23295607813634e-05,0.0916610211133956,0,0,0
13395,467836.1060450931,2010-11-07 00:21:33,2218.15282405813,4,41,0.0498289167881011,4.199491024017334,40.23285833856345,39.31360443258012,160.66978050432633,143.36703943436467,-3.24249267578125e-05,0.0916610211133956,0,0,0
13396,467866.1246929085,2010-11-07 00:22:03,30.01538315911641,5,41,0.0,4.192044734954834,40.23285833856345,39.31360443258012,160.66978050432633,143.36703943436467,-3.23295607813634e-05,0.0916610211133956,0,0,0
13397,467896.1244254863,2010-11-07 00:22:33,60.01511573697422,5,41,0.0,4.190911293029785,40.23285833856345,39.31360443258012,160.66978050432633,143.36703943436467,-3.24249267578125e-05,0.0916610211133956,0,0,0
13398,467896.3156382362,2010-11-07 00:22:33,0.187430725927411,6,41,-1.9243103452026844e-05,4.191073417663574,40.23285833856345,39.31360443358199,160.66978050432633,143.3670394385636,0.0,0.0931989923119545,0,0,0
13399,467901.143733565,2010-11-07 00:22:38,5.0155259694391,6,41,0.0008838032954372,4.191073417663574,40.23285915710919,39.313604433832616,160.6697839349133,143.367039439614,0.0,0.0931989923119545,0,0,0
13400,467931.14737665886,2010-11-07 00:23:08,30.0154814745268,7,41,-1.099929690361023,4.022550106048584,40.23285915710919,39.32277427756021,160.6697839349133,143.40411152527705,-0.0008742332574911,0.0931989923119545,0,0,0
13401,467961.1626439338,2010-11-07 00:23:38,60.030748749378255,7,41,-1.099929690361023,3.99794340133667,40.23285915710919,39.33194408131347,160.6697839349133,143.44087609635164,-0.0005504608270712,0.0931989923119545,0,0,0
13402,467991.1779964062,2010-11-07 00:24:08,90.0461012218962,7,41,-1.0997490882873535,3.980621814727783,40.23285915710919,39.34111381299865,160.6697839349133,143.47745248440228,-0.0003885269106831,0.0931989923119545,0,0,0
13403,468021.193371791,2010-11-07 00:24:38,120.06147660660648,7,41,-1.0997490882873535,3.9673471450805664,40.23285915710919,39.35028349877388,160.6697839349133,143.5138897456869,-0.0003237724304199,0.0931989923119545,0,0,0
13404,468051.2088660022,2010-11-07 00:25:08,150.0769708329638,7,41,-1.099929690361023,3.955367565155029,40.23285915710919,39.359453212701546,160.6697839349133,143.5502129719724,-0.0003237724304199,0.0931989923119545,0,0,0
13405,468081.224113598,2010-11-07 00:25:38,180.09221841365562,7,41,-1.0997490882873535,3.944844961166382,40.23285915710919,39.36862285247951,160.6697839349133,143.58643441325268,-0.0002913951757363,0.0931989923119545,0,0,0
13406,468111.2394714941,2010-11-07 00:26:08,210.1075763097116,7,41,-1.0997490882873535,3.935131788253784,40.23285915710919,39.37779257247213,160.6697839349133,143.62256265179235,-0.0002266406954731,0.0931989923119545,0,0,0
13407,468141.25485244254,2010-11-07 00:26:38,240.12295725831012,7,41,-1.0997490882873535,3.925580501556397,40.23285915710919,39.386962267384256,160.6697839349133,143.65860219241128,-0.0002590179501567,0.0931989923119545,0,0,0
13408,468171.2702320128,2010-11-07 00:27:08,270.138336828468,7,41,-1.0997490882873535,3.916514873504639,40.23285915710919,39.39613198102772,160.6697839349133,143.69455740080522,-0.0002266406954731,0.0931989923119545,0,0,0
13409,468201.28558457055,2010-11-07 00:27:38,300.15368938619866,7,41,-1.0997490882873535,3.90761137008667,40.23285915710919,39.40530169518948,160.6697839349133,143.73043064481297,-0.0002590179501567,0.0931989923119545,0,0,0
13410,468231.3043739472,2010-11-07 00:28:08,330.17247884797047,7,41,-1.0997490882873535,3.899355173110962,40.23285915710919,39.41447251978324,160.6697839349133,143.76622887888445,-0.0001942634553415,0.0931989923119545,0,0,0
13411,468261.3166870028,2010-11-07 00:28:38,360.1847919437365,7,41,-1.099929690361023,3.890775203704834,40.23285915710919,39.42364127636145,160.6697839349133,143.80194144454558,-0.0002266406954731,0.0931989923119545,0,0,0
13412,468291.3316933463,2010-11-07 00:29:08,390.1997981619504,7,41,-1.0997490882873535,3.882680892944336,40.23285915710919,39.43281090187631,160.6697839349133,143.83758179811392,-0.0001942634553415,0.0931989923119545,0,0,0
13413,468321.34728892567,2010-11-07 00:29:38,420.2153937413004,7,41,-1.0997490882873535,3.874586582183838,40.23285915710919,39.441980764226734,160.6697839349133,143.8731482876227,-0.0001942634553415,0.0931989923119545,0,0,0
13414,468351.3624071083,2010-11-07 00:30:08,450.2305119189824,7,41,-1.099929690361023,3.86665415763855,40.23285915710919,39.45115028603371,160.6697839349133,143.90863997214302,-0.0002266406954731,0.0931989923119545,0,0,0
13415,468381.3778072047,2010-11-07 00:30:38,480.2459120103643,7,41,-1.099929690361023,3.8587217330932617,40.23285915710919,39.460319872527386,160.6697839349133,143.9440590707563,-0.0001942634553415,0.0931989923119545,0,0,0
13416,468411.3931408402,2010-11-07 00:31:08,510.26124565087474,7,41,-1.0997490882873535,3.8511130809783936,40.23285915710919,39.46948938614688,160.6697839349133,143.979406393649,-0.0001942634553415,0.0931989923119545,0,0,0
13417,468441.40851181897,2010-11-07 00:31:38,540.2766166295869,7,41,-1.0997490882873535,3.843342542648315,40.23285915710919,39.47865888952647,160.6697839349133,144.01468307614147,-0.0002266406954731,0.0931989923119545,0,0,0
13418,468471.4239147976,2010-11-07 00:32:08,570.2920196131884,7,41,-1.099929690361023,3.8357338905334473,40.23285915710919,39.4878284914906,160.6697839349133,144.04989091217115,-0.0002266406954731,0.0931989923119545,0,0,0
13419,468501.4392707337,2010-11-07 00:32:38,600.3073755493521,7,41,-1.0997490882873535,3.828449249267578,40.23285915710919,39.49699832160172,160.6697839349133,144.08503131028428,-0.0002266406954731,0.0931989923119545,0,0,0
13420,468531.454621116,2010-11-07 00:33:08,630.3227259316525,7,41,-1.0997490882873535,3.82116436958313,40.23285915710919,39.506168113589496,160.6697839349133,144.1201041873333,-0.0001942634553415,0.0931989923119545,0,0,0
13421,468561.4701212672,2010-11-07 00:33:38,660.338226092824,7,41,-1.099929690361023,3.814041376113892,40.23285915710919,39.51533788213258,160.6697839349133,144.15511066602386,-0.0001942634553415,0.0931989923119545,0,0,0
13422,468591.48537036666,2010-11-07 00:34:08,690.353475182282,7,41,-1.0997490882873535,3.8067564964294434,40.23285915710919,39.52450759096145,160.6697839349133,144.19005111545067,-0.0002266406954731,0.0931989923119545,0,0,0
13423,468621.500750027,2010-11-07 00:34:38,720.3688548426649,7,41,-1.0997490882873535,3.799957275390625,40.23285915710919,39.53367735511255,160.6697839349133,144.22492727471086,-0.0001618862152099,0.0931989923119545,0,0,0
13424,468651.5160970158,2010-11-07 00:35:08,750.3842018314949,7,41,-1.0997490882873535,3.7933199405670166,40.23285915710919,39.542847137300434,160.6697839349133,144.25974109917797,-0.0001618862152099,0.0931989923119545,0,0,0
13425,468681.5314712325,2010-11-07 00:35:38,780.3995760482898,7,41,-1.0997490882873535,3.786682605743408,40.23285915710919,39.55201689255679,160.6697839349133,144.29449396972865,-0.0001618862152099,0.0931989923119545,0,0,0
13426,468711.5468741561,2010-11-07 00:36:08,810.4149789667284,7,41,-1.0997490882873535,3.78036904335022,40.23285915710919,39.56118673082969,160.6697839349133,144.32918806388804,-0.0001295089750783,0.0931989923119545,0,0,0
13427,468741.5625609981,2010-11-07 00:36:38,840.430665813897,7,41,-1.099929690361023,3.7740554809570312,40.23285915710919,39.570356661415936,160.6697839349133,144.3638241957857,-0.0001618862152099,0.0931989923119545,0,0,0
13428,468771.5777335516,2010-11-07 00:37:08,870.4458383673091,7,41,-1.0997490882873535,3.7679038047790527,40.23285915710919,39.579526320225874,160.6697839349133,144.39840184410883,-0.0001295089750783,0.0931989923119545,0,0,0
13429,468801.5929819143,2010-11-07 00:37:38,900.4610867299529,7,41,-1.0997490882873535,3.761752128601074,40.23285915710919,39.588696038932,160.6697839349133,144.43292322074333,-0.0001295089750783,0.0931989923119545,0,0,0
13430,468831.6083127528,2010-11-07 00:38:08,930.4764175935316,7,41,-1.0997490882873535,3.7557623386383057,40.23285915710919,39.59786584119948,160.6697839349133,144.46738959785097,-0.0001942634553415,0.0931989923119545,0,0,0
13431,468861.6237060623,2010-11-07 00:38:38,960.4918109079972,7,41,-1.0997490882873535,3.749934673309326,40.23285915710919,39.60703564569808,160.6697839349133,144.50180158856844,-0.0001295089750783,0.0931989923119545,0,0,0
13432,468891.63905728166,2010-11-07 00:39:08,990.5071620973122,7,41,-1.0997490882873535,3.7439448833465576,40.23285915710919,39.616205405538366,160.6697839349133,144.536159781653,-0.0001618862152099,0.0931989923119545,0,0,0
13433,468921.6544244509,2010-11-07 00:39:38,1020.5225292665152,7,41,-1.0997490882873535,3.738440752029419,40.23285915710919,39.62537519021755,160.6697839349133,144.57046595164724,-0.0001618862152099,0.0931989923119545,0,0,0
13434,468951.66981621145,2010-11-07 00:40:08,1050.5379210271024,7,41,-1.099929690361023,3.7327747344970703,40.23285915710919,39.63454498491155,160.6697839349133,144.6047207535117,-0.0001618862152099,0.0931989923119545,0,0,0
13435,468981.6851759521,2010-11-07 00:40:38,1080.5532807677623,7,41,-1.099929690361023,3.7274324893951416,40.23285915710919,39.64371473174664,160.6697839349133,144.63892534273927,-0.0001618862152099,0.0931989923119545,0,0,0
13436,469011.7006881483,2010-11-07 00:41:08,1110.568792989038,7,41,-1.0997490882873535,3.722090244293213,40.23285915710919,39.652884467436486,160.6697839349133,144.67308076402685,-0.0001618862152099,0.0931989923119545,0,0,0
13437,469041.71590595966,2010-11-07 00:41:38,1140.5840107853835,7,41,-1.099929690361023,3.716747999191284,40.23285915710919,39.66205422191327,160.6697839349133,144.70718714059512,-0.0001942634553415,0.0931989923119545,0,0,0
13438,469071.73127896345,2010-11-07 00:42:08,1170.5993837791254,7,41,-1.0997490882873535,3.711729526519776,40.23285915710919,39.67122404743488,160.6697839349133,144.74124523445036,-6.47544875391759e-05,0.0931989923119545,0,0,0
13439,469101.7466570148,2010-11-07 00:42:39,1200.6147618355049,7,41,-1.0997490882873535,3.706387281417847,40.23285915710919,39.68039379842073,160.6697839349133,144.7752562296064,-0.0001295089750783,0.0931989923119545,0,0,0
13440,469131.7620139535,2010-11-07 00:43:09,1230.6301187691583,7,41,-1.0997490882873535,3.701530694961548,40.23285915710919,39.68956357354317,160.6697839349133,144.80922077252498,-0.0001295089750783,0.0931989923119545,0,0,0
13441,469161.7773841753,2010-11-07 00:43:39,1260.6454889909814,7,41,-1.0997490882873535,3.696674108505249,40.23285915710919,39.69873338753509,160.6697839349133,144.84313975991748,-9.713172767078504e-05,0.0931989923119545,0,0,0
13442,469191.7927516051,2010-11-07 00:44:09,1290.660856420835,7,41,-1.0997490882873535,3.69165563583374,40.23285915710919,39.7079031636254,160.6697839349133,144.87701346171352,-0.0001295089750783,0.0931989923119545,0,0,0
13443,469221.8081664184,2010-11-07 00:44:39,1320.6762712339646,7,41,-1.0997490882873535,3.686637163162232,40.23285915710919,39.71707301649436,160.6697839349133,144.9108422804279,-0.0001618862152099,0.0931989923119545,0,0,0
13444,469251.82349138206,2010-11-07 00:45:09,1350.6915962028295,7,41,-1.099929690361023,3.681942462921143,40.23285915710919,39.72624280721571,160.6697839349133,144.94462662740906,-0.0001295089750783,0.0931989923119545,0,0,0
13445,469281.8388349424,2010-11-07 00:45:39,1380.706939763101,7,41,-1.099929690361023,3.677085876464844,40.23285915710919,39.73541254395628,160.6697839349133,144.9783672589432,-0.0001618862152099,0.0931989923119545,0,0,0
13446,469311.8542015453,2010-11-07 00:46:09,1410.7223063608778,7,41,-1.099929690361023,3.672553062438965,40.23285915710919,39.74458240639418,160.6697839349133,145.01206552822984,-9.713172767078504e-05,0.0931989923119545,0,0,0
13447,469341.8695822081,2010-11-07 00:46:39,1440.737687023763,7,41,-1.0997490882873535,3.667858600616455,40.23285915710919,39.75375227460371,160.6697839349133,145.04572118620334,-0.0001618862152099,0.0931989923119545,0,0,0
13448,469371.8849394375,2010-11-07 00:47:09,1470.7530442531547,7,41,-1.099929690361023,3.663325786590576,40.23285915710919,39.76292212196524,160.6697839349133,145.0793345539432,-0.0001295089750783,0.0931989923119545,0,0,0
13449,469401.9003077245,2010-11-07 00:47:39,1500.7684125451608,7,41,-1.099568486213684,3.6589548587799072,40.23285915710919,39.77209197646201,160.6697839349133,145.11290657519356,-9.713172767078504e-05,0.0931989923119545,0,0,0
13450,469431.91574538464,2010-11-07 00:48:09,1530.7838501952951,7,41,-1.0997490882873535,3.654422044754028,40.23285915710919,39.78126219116695,160.6697839349133,145.14643916845566,-0.0001295089750783,0.0931989923119545,0,0,0
13451,469461.9310478573,2010-11-07 00:48:39,1560.799152668006,7,41,-1.099929690361023,3.650213003158569,40.23285915710919,39.79043279122796,160.6697839349133,145.1799332481193,-9.713172767078504e-05,0.0931989923119545,0,0,0
13452,469491.9464274275,2010-11-07 00:49:09,1590.814532233151,7,41,-1.0997490882873535,3.6460039615631104,40.23285915710919,39.7996033018427,160.6697839349133,145.213387397033,-6.47544875391759e-05,0.0931989923119545,0,0,0
13453,469521.96189234575,2010-11-07 00:49:39,1620.829997156363,7,41,-1.099929690361023,3.6417949199676514,40.23285915710919,39.80877390267317,160.6697839349133,145.24680359552673,-9.713172767078504e-05,0.0931989923119545,0,0,0
13454,469551.9771375906,2010-11-07 00:50:09,1650.8452424463371,7,41,-1.099929690361023,3.6377477645874015,40.23285915710919,39.81794446484383,160.6697839349133,145.2801819704034,-9.713172767078504e-05,0.0931989923119545,0,0,0
13455,469581.9926446891,2010-11-07 00:50:39,1680.8607495047252,7,41,-1.0997490882873535,3.6338624954223633,40.23285915710919,39.82711510616251,160.6697839349133,145.31352354907557,-3.237724376958795e-05,0.0931989923119545,0,0,0
13456,469612.0078797836,2010-11-07 00:51:09,1710.8759846192995,7,41,-1.0997490882873535,3.629977226257324,40.23285915710919,39.83628538411174,160.6697839349133,145.34682763211876,-6.47544875391759e-05,0.0931989923119545,0,0,0
13457,469642.02326480736,2010-11-07 00:51:39,1740.8913696230206,7,41,-1.0997490882873535,3.626091957092285,40.23285915710919,39.84545512404263,160.6697839349133,145.38009470689624,-6.47544875391759e-05,0.0931989923119545,0,0,0
13458,469672.03864155046,2010-11-07 00:52:09,1770.9067463961967,7,41,-1.1001102924346924,3.622206687927246,40.23285915710919,39.85462476239394,160.6697839349133,145.4133269364114,-0.0001295089750783,0.0931989923119545,0,0,0
13459,469702.0541980673,2010-11-07 00:52:39,1800.9223028829656,7,41,-1.0997490882873535,3.618645191192627,40.23285915710919,39.86379448154655,160.6697839349133,145.4465258394631,-9.713172767078504e-05,0.0931989923119545,0,0,0
13460,469732.0693541146,2010-11-07 00:53:09,1830.937458935188,7,41,-1.0997490882873535,3.6152455806732178,40.23285915710919,39.87296412362144,160.6697839349133,145.47969150876304,-3.237724376958795e-05,0.0931989923119545,0,0,0
13461,469762.08472381,2010-11-07 00:53:39,1860.9528286306977,7,41,-1.099929690361023,3.6115221977233887,40.23285915710919,39.88213381546768,160.6697839349133,145.51282548796405,-0.0001295089750783,0.0931989923119545,0,0,0
13462,469792.1000893452,2010-11-07 00:54:09,1890.9681941608087,7,41,-1.099568486213684,3.6084463596344,40.23285915710919,39.89130356665737,160.6697839349133,145.5459284161344,-3.237724376958795e-05,0.0931989923119545,0,0,0
13463,469822.1154712411,2010-11-07 00:54:39,1920.9835760567723,7,41,-1.099929690361023,3.60488486289978,40.23285915710919,39.90047334881624,160.6697839349133,145.57900094929636,-9.713172767078504e-05,0.0931989923119545,0,0,0
13464,469852.1308521296,2010-11-07 00:55:09,1950.9989569452207,7,41,-1.0997490882873535,3.601809024810791,40.23285915710919,39.90964295624497,160.6697839349133,145.61204323761385,-9.713172767078504e-05,0.0931989923119545,0,0,0
13465,469882.14619422617,2010-11-07 00:55:39,1981.0142990669017,7,41,-1.099929690361023,3.5987331867218018,40.23285915710919,39.918812619205546,160.6697839349133,145.64505701235032,-0.0001295089750783,0.0931989923119545,0,0,0
13466,469912.1616949387,2010-11-07 00:56:09,2011.029799759399,7,41,-1.099568486213684,3.5958192348480225,40.23285915710919,39.92798238014867,160.6697839349133,145.67804284073458,-6.47544875391759e-05,0.0931989923119545,0,0,0
13467,469942.1769442237,2010-11-07 00:56:39,2041.0450490443448,7,41,-1.099929690361023,3.592743396759033,40.23285915710919,39.93715203441741,160.6697839349133,145.7110006439228,-6.47544875391759e-05,0.0931989923119545,0,0,0
13468,469972.19254472526,2010-11-07 00:57:09,2071.060649550994,7,41,-1.0997490882873535,3.589667797088623,40.23285915710919,39.94632187916165,160.6697839349133,145.74393200358654,-9.713172767078504e-05,0.0931989923119545,0,0,0
13469,470002.2078293736,2010-11-07 00:57:39,2101.075934189188,7,41,-1.099929690361023,3.586753845214844,40.23285915710919,39.95549154140228,160.6697839349133,145.77683577614576,-9.713172767078504e-05,0.0931989923119545,0,0,0
13470,470032.2230447689,2010-11-07 00:58:09,2131.09114958454,7,41,-1.0997490882873535,3.5840017795562744,40.23285915710919,39.96466119089823,160.6697839349133,145.80971289461377,-6.47544875391759e-05,0.0931989923119545,0,0,0
13471,470062.2383653618,2010-11-07 00:58:39,2161.1064701875066,7,41,-1.0997490882873535,3.581087827682495,40.23285915710919,39.97383087777232,160.6697839349133,145.84256398883616,-6.47544875391759e-05,0.0931989923119545,0,0,0
13472,470092.25376202463,2010-11-07 00:59:09,2191.1218668403053,7,41,-1.0997490882873535,3.578173875808716,40.23285915710919,39.98300058204519,160.6697839349133,145.87538880637945,-9.713172767078504e-05,0.0931989923119545,0,0,0
13473,470122.2690693344,2010-11-07 00:59:39,2221.137174180165,7,41,-1.0997490882873535,3.5754218101501465,40.23285915710919,39.99217029931378,160.6697839349133,145.90818712240608,-6.47544875391759e-05,0.0931989923119545,0,0,0
13474,470152.2871893351,2010-11-07 01:00:09,2251.1552941557966,7,41,-1.0997490882873535,3.572507858276367,40.23285915710919,40.00134088386094,160.6697839349133,145.9409619007553,-6.47544875391759e-05,0.0931989923119545,0,0,0
13475,470182.3003409991,2010-11-07 01:00:39,2281.1684458197574,7,41,-1.1001102924346924,3.569432020187378,40.23285915710919,40.0105099831096,160.6697839349133,145.9737046678826,-9.713172767078504e-05,0.0931989923119545,0,0,0
13476,470212.3153009367,2010-11-07 01:01:09,2311.183405752436,7,41,-1.099929690361023,3.566518068313598,40.23285915710919,40.01967963493324,160.6697839349133,146.00642222025593,-6.47544875391759e-05,0.0931989923119545,0,0,0
13477,470242.3306726072,2010-11-07 01:01:39,2341.198777422874,7,41,-1.0997490882873535,3.5632803440093994,40.23285915710919,40.02884943447289,160.6697839349133,146.039112358759,-9.713172767078504e-05,0.0931989923119545,0,0,0
13478,470272.3460399418,2010-11-07 01:02:09,2371.2141447574904,7,41,-1.0997490882873535,3.56052827835083,40.23285915710919,40.03801914388582,160.6697839349133,146.07177473995452,-3.237724376958795e-05,0.0931989923119545,0,0,0
13479,470302.3614067752,2010-11-07 01:02:39,2401.2295115908555,7,41,-1.0997490882873535,3.557290554046631,40.23285915710919,40.04718894132553,160.6697839349133,146.10440866605288,-6.47544875391759e-05,0.0931989923119545,0,0,0
13480,470332.3766619698,2010-11-07 01:03:09,2431.2447668156283,7,41,-1.099568486213684,3.5542147159576416,40.23285915710919,40.05635869394078,160.6697839349133,146.13701300050676,-6.47544875391759e-05,0.0931989923119545,0,0,0
13481,470362.39209477295,2010-11-07 01:03:39,2461.2601995885884,7,41,-1.099929690361023,3.5506532192230225,40.23285915710919,40.06552773756645,160.6697839349133,146.16958485490863,-9.713172767078504e-05,0.0931989923119545,0,0,0
13482,470392.4073970451,2010-11-07 01:04:09,2491.275501885861,7,41,-1.099929690361023,3.5472536087036133,40.23285915710919,40.07469672518116,160.6697839349133,146.2021254702019,-9.713172767078504e-05,0.0931989923119545,0,0,0
13483,470422.42286962754,2010-11-07 01:04:39,2521.290974443129,7,41,-1.099568486213684,3.543692111968994,40.23285915710919,40.08386591186268,160.6697839349133,146.23463469449163,-9.713172767078504e-05,0.0931989923119545,0,0,0
13484,470452.4382255837,2010-11-07 01:05:09,2551.306330399342,7,41,-1.099568486213684,3.539968729019165,40.23285915710919,40.093034916744095,160.6697839349133,146.26711006651672,-6.47544875391759e-05,0.0931989923119545,0,0,0
13485,470482.45360933925,2010-11-07 01:05:39,2581.3217141549485,7,41,-1.0997490882873535,3.536245346069336,40.23285915710919,40.102203995894506,160.6697839349133,146.29955147367968,-9.713172767078504e-05,0.0931989923119545,0,0,0
13486,470512.468956664,2010-11-07 01:06:09,2611.3370614796163,7,41,-1.0997490882873535,3.532198190689087,40.23285915710919,40.11137309562061,160.6697839349133,146.33195705228792,-0.0001295089750783,0.0931989923119545,0,0,0
13487,470542.4843454069,2010-11-07 01:06:39,2641.352450227684,7,41,-1.0997490882873535,3.528151035308838,40.23285915710919,40.12054268059181,160.6697839349133,146.36432704118505,-9.713172767078504e-05,0.0931989923119545,0,0,0
13488,470572.49970435567,2010-11-07 01:07:09,2671.367809171355,7,41,-1.0997490882873535,3.523780107498169,40.23285915710919,40.12971235745009,160.6697839349133,146.39665846673802,-9.713172767078504e-05,0.0931989923119545,0,0,0
13489,470602.5150771189,2010-11-07 01:07:39,2701.383181934521,7,41,-1.0997490882873535,3.51924729347229,40.23285915710919,40.138882007828805,160.6697839349133,146.4289492991694,-0.0001295089750783,0.0931989923119545,0,0,0
13490,470632.5304429347,2010-11-07 01:08:09,2731.398547750346,7,41,-1.0997490882873535,3.514552593231201,40.23285915710919,40.14805165927454,160.6697839349133,146.46119833213783,-0.0001295089750783,0.0931989923119545,0,0,0
13491,470662.5460219627,2010-11-07 01:08:39,2761.4141267833934,7,41,-1.1001102924346924,3.509210586547852,40.23285915710919,40.1572213635404,160.6697839349133,146.49340305974684,-0.0002266406954731,0.0931989923119545,0,0,0
13492,470692.5613518288,2010-11-07 01:09:09,2791.4294566444705,7,41,-1.0997490882873535,3.5041921138763428,40.23285915710919,40.16639104179773,160.6697839349133,146.52555964267123,-0.0001295089750783,0.0931989923119545,0,0,0
13493,470722.576567164,2010-11-07 01:09:39,2821.4446719796724,7,41,-1.099929690361023,3.498202323913574,40.23285915710919,40.17556068637885,160.6697839349133,146.55766394787994,-0.0001618862152099,0.0931989923119545,0,0,0
13494,470752.5919221428,2010-11-07 01:10:09,2851.460026958446,7,41,-1.0997490882873535,3.491403102874756,40.23285915710919,40.18473036293173,160.6697839349133,146.58971027863367,-0.0001942634553415,0.0931989923119545,0,0,0
13495,470782.60730966274,2010-11-07 01:10:39,2881.4754144784483,7,41,-1.099929690361023,3.483794450759888,40.23285915710919,40.19390006816555,160.6697839349133,146.6216913319977,-0.0001942634553415,0.0931989923119545,0,0,0
13496,470812.62266606005,2010-11-07 01:11:09,2911.4907708757632,7,41,-1.099568486213684,3.47489070892334,40.23285915710919,40.203069719371705,160.6697839349133,146.6535963730204,-0.0002590179501567,0.0931989923119545,0,0,0
13497,470842.6380796352,2010-11-07 01:11:39,2941.5061844758648,7,41,-1.0997490882873535,3.4643681049346924,40.23285915710919,40.21223941141636,160.6697839349133,146.6854126699984,-0.0002913951757363,0.0931989923119545,0,0,0
13498,470872.6535107489,2010-11-07 01:12:09,2971.521615564621,7,41,-1.099929690361023,3.4514172077178955,40.23285915710919,40.22140919018086,160.6697839349133,146.7171226365327,-0.0003885269106831,0.0931989923119545,0,0,0
13499,470902.6687961842,2010-11-07 01:12:39,3001.5369009998035,7,41,-1.099929690361023,3.43555235862732,40.23285915710919,40.23057883578311,160.6697839349133,146.7487011011217,-0.0004856586456298,0.0931989923119545,0,0,0
13500,470932.684278571,2010-11-07 01:13:09,3031.5523833866077,7,41,-1.0997490882873535,3.4149930477142334,40.23285915710919,40.2397486234354,160.6697839349133,146.78011390225285,-0.0005827903514727,0.0931989923119545,0,0,0
13501,470962.69954831694,2010-11-07 01:13:39,3061.567653127615,7,41,-1.0997490882873535,3.38763427734375,40.23285915710919,40.24891831988588,160.6697839349133,146.81130899363524,-0.0008094310760498,0.0931989923119545,0,0,0
13502,470992.7148867495,2010-11-07 01:14:09,3091.582991565099,7,41,-1.1001102924346924,3.349915027618408,40.23285915710919,40.25808806168821,160.6697839349133,146.84220994576003,-0.0011979102855548,0.0931989923119545,0,0,0
13503,471022.7302605552,2010-11-07 01:14:40,3121.598365370868,7,41,-1.0997490882873535,3.297625780105591,40.23285915710919,40.26725777565857,160.6697839349133,146.87270230418045,-0.0015864849556237,0.0931989923119545,0,0,0
13504,471052.7456402757,2010-11-07 01:15:10,3151.613745091401,7,41,-1.0997490882873535,3.223158359527588,40.23285915710919,40.27642744030631,160.6697839349133,146.90261917752278,-0.0022987842094153,0.0931989923119545,0,0,0
13505,471082.7610186229,2010-11-07 01:15:40,3181.6291234385058,7,41,-1.099929690361023,3.112104654312134,40.23285915710919,40.28559715422159,160.6697839349133,146.93170239073245,-0.0035614967346191,0.0931989923119545,0,0,0
13506,471111.917144253,2010-11-07 01:16:09,3210.7852490786618,7,41,-1.0997490882873535,2.91201400756836,40.23285915710919,40.29450437767551,160.6697839349133,146.95866082530225,-0.0080295084044337,0.0931989923119545,0,0,0
13507,471126.7918822424,2010-11-07 01:16:24,3225.65998705808,7,41,-1.099929690361023,2.711923122406006,40.23285915710919,40.29904863525376,160.6697839349133,146.97146571925796,-0.0119472024962306,0.0931989923119545,0,0,0
13508,471127.58874379646,2010-11-07 01:16:24,3226.4568486121125,7,41,-1.0997490882873535,2.699943780899048,40.23285915710919,40.29929207657639,160.6697839349133,146.9721245210506,-0.0119795324280858,0.0931989923119545,0,0,0
13509,471187.6195770707,2010-11-07 01:17:24,60.015112749517066,8,41,0.0,3.283541679382324,40.23285915710919,40.29929207657639,160.6697839349133,146.9721245210506,0.0011655807029455,0.0931989923119545,0,0,0
13510,471187.7921987504,2010-11-07 01:17:25,0.187636514607617,9,41,-0.0018253359012305,3.284674882888794,40.23285915710919,40.29929217171518,160.6697839349133,146.9721248335506,0.0,0.0917440429329872,0,0,0
13511,471192.62014262605,2010-11-07 01:17:30,5.015580390281897,9,41,0.0005225847125984,3.2914741039276123,40.23285992173296,40.29929218179474,160.66978644933698,146.9721248666658,0.0010684489971026,0.0917440429329872,0,0,0
