Data_Point,Test_Time(s),Date_Time,Step_Time(s),Step_Index,Cycle_Index,Current(A),Voltage(V),Charge_Capacity(Ah),Discharge_Capacity(Ah),Charge_Energy(Wh),Discharge_Energy(Wh),dV/dt(V/s),Internal_Resistance(Ohm),Is_FC_Data,AC_Impedance(Ohm),ACI_Phase_Angle(Deg)
12513,436813.6906912899,2010-11-06 15:44:27,30.0153347883756,1,39,0.0,3.326279640197754,37.27683782232281,37.342379059233465,148.88404361913746,136.1583767272861,0.0007122993702068,0.0931148082017898,0,0,0
12514,436843.70607227366,2010-11-06 15:44:57,60.03071578709934,1,39,0.0,3.3494293689727783,37.27683782232281,37.342379059233465,148.88404361913746,136.1583767272861,0.0005504131549969,0.0931148082017898,0,0,0
12515,436873.7216616125,2010-11-06 15:45:27,90.04630510582184,1,39,0.0,3.366589069366455,37.27683782232281,37.342379059233465,148.88404361913746,136.1583767272861,0.0003885269106831,0.0931148082017898,0,0,0
12516,436903.6898889133,2010-11-06 15:45:57,120.01453240666125,1,39,0.0,3.3806731700897217,37.27683782232281,37.342379059233465,148.88404361913746,136.1583767272861,0.0003237724304199,0.0931148082017898,0,0,0
12517,436933.7069503879,2010-11-06 15:46:28,30.015334146774062,2,39,0.5501165986061096,3.544177770614624,37.28142450854183,37.342379059233465,148.90011730234284,136.1583767272861,0.0017483711708337,0.0931148082017898,0,0,0
12518,436963.7222729056,2010-11-06 15:46:58,60.03065665950778,2,39,0.5501165986061096,3.598895072937012,37.28601115737124,37.342379059233465,148.91650602615294,136.1583767272861,0.0012303352123126,0.0931148082017898,0,0,0
12519,436993.7376342804,2010-11-06 15:47:28,90.04601803424703,2,39,0.5501165986061096,3.639528512954712,37.2905978177484,37.342379059233465,148.9331098989422,136.1583767272861,0.0009389400365762,0.0931148082017898,0,0,0
12520,437023.7529891038,2010-11-06 15:47:58,120.0613728626456,2,39,0.5499359965324402,3.671420097351074,37.295184505181616,37.342379059233465,148.94987928130942,136.1583767272861,0.0007446765666827,0.0931148082017898,0,0,0
12521,437053.76835631806,2010-11-06 15:48:28,150.07674007696136,2,39,0.550297200679779,3.6981310844421382,37.29977113510892,37.342379059233465,148.96678206564542,136.1583767272861,0.0006799221155233,0.0931148082017898,0,0,0
12522,437083.7837055475,2010-11-06 15:48:58,180.092089306384,2,39,0.5501165986061096,3.7203094959259033,37.30435781787698,37.342379059233465,148.98379634599513,136.1583767272861,0.0005504131549969,0.0931148082017898,0,0,0
12523,437113.799067644,2010-11-06 15:49:28,210.107451402925,2,39,0.550297200679779,3.739088296890259,37.30894443734284,37.342379059233465,149.00090429273604,136.1583767272861,0.0004856586456298,0.0931148082017898,0,0,0
12524,437143.8144570387,2010-11-06 15:49:58,240.12284079259385,2,39,0.5501165986061096,3.754143476486206,37.31353107463955,37.342379059233465,149.01808991945398,136.1583767272861,0.0003561019839253,0.0931148082017898,0,0,0
12525,437173.8298300927,2010-11-06 15:50:28,270.1382138414735,2,39,0.5501165986061096,3.7636947631835938,37.31811772048564,37.342379059233465,149.03533267434355,136.1583767272861,0.0001942634553415,0.0931148082017898,0,0,0
12526,437203.84515672567,2010-11-06 15:50:58,300.1535404795046,2,39,0.5501165986061096,3.769522666931152,37.32270441641165,37.342379059233465,149.0526106548266,136.1583767272861,9.713172767078504e-05,0.0931148082017898,0,0,0
12527,437233.8605070076,2010-11-06 15:51:28,330.16889076155485,2,39,0.5501165986061096,3.773893594741821,37.32729106052361,37.342379059233465,149.0699105156688,136.1583767272861,9.713172767078504e-05,0.0931148082017898,0,0,0
12528,437263.875852603,2010-11-06 15:51:58,360.1842363619188,2,39,0.5501165986061096,3.7776169776916495,37.331877751677936,37.342379059233465,149.08722846743945,136.1583767272861,9.713172767078504e-05,0.0931148082017898,0,0,0
12529,437293.8912079077,2010-11-06 15:52:28,390.1995916715185,2,39,0.5501165986061096,3.78101658821106,37.33646453130645,37.342379059233465,149.10456333407717,136.1583767272861,6.47544875391759e-05,0.0931148082017898,0,0,0
12530,437323.9066851966,2010-11-06 15:52:58,420.2150689505728,2,39,0.5501165986061096,3.784578084945679,37.34105125746041,37.342379059233465,149.12191385851477,136.1583767272861,0.0001295089750783,0.0931148082017898,0,0,0
12531,437353.9219473738,2010-11-06 15:53:28,450.2303311276995,2,39,0.5501165986061096,3.787815809249878,37.34563798947326,37.342379059233465,149.13927985360812,136.1583767272861,9.713172767078504e-05,0.0931148082017898,0,0,0
12532,437383.93731348537,2010-11-06 15:53:58,480.24569723926265,2,39,0.5501165986061096,3.790891647338867,37.35022471907773,37.342379059233465,149.15666079230957,136.1583767272861,6.47544875391759e-05,0.0931148082017898,0,0,0
12533,437413.95284460887,2010-11-06 15:54:28,510.261228392796,2,39,0.5501165986061096,3.7941293716430655,37.35481154574738,37.342379059233465,149.1740565529427,136.1583767272861,6.47544875391759e-05,0.0931148082017898,0,0,0
12534,437443.9680135082,2010-11-06 15:54:58,540.2763972620118,2,39,0.5501165986061096,3.797205209732056,37.359398332050525,37.342379059233465,149.1914665072726,136.1583767272861,6.47544875391759e-05,0.0931148082017898,0,0,0
12535,437473.9833602664,2010-11-06 15:55:28,570.291744020266,2,39,0.5501165986061096,3.800119161605835,37.36398515116495,37.342379059233465,149.20889051989212,136.1583767272861,6.47544875391759e-05,0.0931148082017898,0,0,0
12536,437503.99884730985,2010-11-06 15:55:58,600.3072310636936,2,39,0.550297200679779,3.803356885910034,37.368571981711824,37.342379059233465,149.22632826973168,136.1583767272861,0.0001295089750783,0.0931148082017898,0,0,0
12537,437534.0140901687,2010-11-06 15:56:28,630.3224739276116,2,39,0.5499359965324402,3.806108951568604,37.373158736224525,37.342379059233465,149.2437793268107,136.1583767272861,6.47544875391759e-05,0.0931148082017898,0,0,0
12538,437564.0288743877,2010-11-06 15:56:58,660.337258131644,2,39,0.5499359965324402,3.809022903442383,37.3777192683898,37.342379059233465,149.26114400729168,136.1583767272861,3.237724376958795e-05,0.0931148082017898,0,0,0
12539,437594.02918158,2010-11-06 15:57:28,690.3375653338526,2,39,0.550297200679779,3.811936855316162,37.38233001973376,37.342379059233465,149.27871355333528,136.1583767272861,6.47544875391759e-05,0.0931148082017898,0,0,0
12540,437624.0446685432,2010-11-06 15:57:58,720.35305229708,2,39,0.5501165986061096,3.815174579620361,37.38691689257936,37.342379059233465,149.29620614705817,136.1583767272861,6.47544875391759e-05,0.0931148082017898,0,0,0
12541,437654.0600273014,2010-11-06 15:58:28,750.368411055288,2,39,0.5501165986061096,3.818412303924561,37.39150369025412,37.342379059233465,149.3137126464418,136.1583767272861,0.0001295089750783,0.0931148082017898,0,0,0
12542,437684.0752689172,2010-11-06 15:58:58,780.3836526710905,2,39,0.5501165986061096,3.82165002822876,37.39609052962158,37.342379059233465,149.33123382966917,136.1583767272861,0.0001295089750783,0.0931148082017898,0,0,0
12543,437714.090779309,2010-11-06 15:59:28,810.399163072824,2,39,0.5499359965324402,3.824887752532959,37.40067729288699,37.342379059233465,149.34876968696753,136.1583767272861,9.713172767078504e-05,0.0931148082017898,0,0,0
12544,437744.105983777,2010-11-06 15:59:58,840.4143675308751,2,39,0.5501165986061096,3.828125476837158,37.40526407997068,37.342379059233465,149.36632096890838,136.1583767272861,9.713172767078504e-05,0.0931148082017898,0,0,0
12545,437774.12135257525,2010-11-06 16:00:28,870.4297363291447,2,39,0.5499359965324402,3.831525087356568,37.409850846613686,37.342379059233465,149.3838878025509,136.1583767272861,6.47544875391759e-05,0.0931148082017898,0,0,0
12546,437804.1367168021,2010-11-06 16:00:58,900.4451005560032,2,39,0.5501165986061096,3.835086345672608,37.4144377015112,37.342379059233465,149.40147071123224,136.1583767272861,9.713172767078504e-05,0.0931148082017898,0,0,0
12547,437834.1519966935,2010-11-06 16:01:28,930.46038047241,2,39,0.550297200679779,3.8386478424072266,37.41902446186406,37.342379059233465,149.41906895548638,136.1583767272861,0.0001295089750783,0.0931148082017898,0,0,0
12548,437864.167412865,2010-11-06 16:01:58,960.475796618868,2,39,0.550297200679779,3.841885566711426,37.42361126056967,37.342379059233465,149.43668297631342,136.1583767272861,9.713172767078504e-05,0.0931148082017898,0,0,0
12549,437894.1835623369,2010-11-06 16:02:28,990.4919460908188,2,39,0.5501165986061096,3.845123291015625,37.42819820876088,37.342379059233465,149.45431297856038,136.1583767272861,3.237724376958795e-05,0.0931148082017898,0,0,0
12550,437924.1984890868,2010-11-06 16:02:58,1020.5068729359052,2,39,0.5501165986061096,3.848522901535034,37.43278494138745,37.342379059233465,149.47195736480745,136.1583767272861,9.713172767078504e-05,0.0931148082017898,0,0,0
12551,437954.2136414097,2010-11-06 16:03:28,1050.5220251736064,2,39,0.5501165986061096,3.851598739624024,37.43737168520343,37.342379059233465,149.48961667680456,136.1583767272861,6.47544875391759e-05,0.0931148082017898,0,0,0
12552,437984.228874023,2010-11-06 16:03:58,1080.5372577769124,2,39,0.5501165986061096,3.854836463928223,37.44195844668469,37.342379059233465,149.5072905304255,136.1583767272861,9.713172767078504e-05,0.0931148082017898,0,0,0
12553,438014.2442082249,2010-11-06 16:04:28,1110.5525920038865,2,39,0.5501165986061096,3.857912302017212,37.44654527714779,37.342379059233465,149.52497889095446,136.1583767272861,9.713172767078504e-05,0.0931148082017898,0,0,0
12554,438044.2595844969,2010-11-06 16:04:58,1140.567968250749,2,39,0.5501165986061096,3.860826253890991,37.451132112072266,37.342379059233465,149.5426810791541,136.1583767272861,6.47544875391759e-05,0.0931148082017898,0,0,0
12555,438074.27444514167,2010-11-06 16:05:28,1170.5828285747884,2,39,0.5499359965324402,3.863578319549561,37.45571885514388,37.342379059233465,149.56039627354767,136.1583767272861,6.47544875391759e-05,0.0931148082017898,0,0,0
12556,438104.2746624445,2010-11-06 16:05:58,1200.583046198395,2,39,0.550297200679779,3.86633038520813,37.46030338462635,37.342379059233465,149.57811563695606,136.1583767272861,6.47544875391759e-05,0.0931148082017898,0,0,0
12557,438134.29010037537,2010-11-06 16:06:28,1230.598484244518,2,39,0.5501165986061096,3.868920564651489,37.46489022132478,37.342379059233465,149.59585626522687,136.1583767272861,3.237724376958795e-05,0.0931148082017898,0,0,0
12558,438164.3054104621,2010-11-06 16:06:58,1260.6137942159469,2,39,0.5501165986061096,3.8715107440948486,37.46947702839942,37.342379059233465,149.6136084204476,136.1583767272861,6.47544875391759e-05,0.0931148082017898,0,0,0
12559,438194.32075498975,2010-11-06 16:07:28,1290.6291387436331,2,39,0.5501165986061096,3.873939037322998,37.47406384435678,37.342379059233465,149.63137172559146,136.1583767272861,6.47544875391759e-05,0.0931148082017898,0,0,0
12560,438224.33610524674,2010-11-06 16:07:58,1320.6444890006208,2,39,0.5501165986061096,3.8762054443359375,37.47865065446508,37.342379059233465,149.64914534888172,136.1583767272861,9.713172767078504e-05,0.0931148082017898,0,0,0
12561,438254.3514630274,2010-11-06 16:08:28,1350.6598468064517,2,39,0.5501165986061096,3.878148078918457,37.483237487846445,37.342379059233465,149.6669289114204,136.1583767272861,6.47544875391759e-05,0.0931148082017898,0,0,0
12562,438284.3668516352,2010-11-06 16:08:58,1380.6752353840934,2,39,0.5501165986061096,3.880090713500977,37.4878243163831,37.342379059233465,149.68472163012703,136.1583767272861,6.47544875391759e-05,0.0931148082017898,0,0,0
12563,438314.3821997368,2010-11-06 16:09:28,1410.6905834857007,2,39,0.5501165986061096,3.881871461868286,37.49241114003293,37.342379059233465,149.70252292981007,136.1583767272861,6.47544875391759e-05,0.0931148082017898,0,0,0
12564,438344.39754699136,2010-11-06 16:09:58,1440.7059307401937,2,39,0.5499359965324402,3.883328437805176,37.49699793750136,37.342379059233465,149.72033216987182,136.1583767272861,0.0,0.0931148082017898,0,0,0
12565,438374.4129109275,2010-11-06 16:10:28,1470.7212946763266,2,39,0.5501165986061096,3.8852710723876953,37.50158483504372,37.342379059233465,149.73814935094015,136.1583767272861,6.47544875391759e-05,0.0931148082017898,0,0,0
12566,438404.4282622922,2010-11-06 16:10:58,1500.736646036067,2,39,0.5499359965324402,3.886566162109375,37.506171643231234,37.342379059233465,149.75597333927573,136.1583767272861,3.237724376958795e-05,0.0931148082017898,0,0,0
12567,438434.4438525883,2010-11-06 16:11:28,1530.7522363422545,2,39,0.5499359965324402,3.8880231380462646,37.51075850518066,37.342379059233465,149.77380438240667,136.1583767272861,0.0,0.0931148082017898,0,0,0
12568,438464.4591084547,2010-11-06 16:11:58,1560.7674922036158,2,39,0.5501165986061096,3.8894801139831534,37.51534535407016,37.342379059233465,149.7916420106673,136.1583767272861,0.0,0.0931148082017898,0,0,0
12569,438494.4743845466,2010-11-06 16:12:28,1590.7827682904635,2,39,0.5501165986061096,3.890937089920044,37.51993209549108,37.342379059233465,149.80948552274174,136.1583767272861,3.237724376958795e-05,0.0931148082017898,0,0,0
12570,438524.4897288437,2010-11-06 16:12:58,1620.798112592587,2,39,0.5499359965324402,3.892232179641724,37.52451891257266,37.342379059233465,149.82733564450396,136.1583767272861,3.237724376958795e-05,0.0931148082017898,0,0,0
12571,438554.50508794776,2010-11-06 16:13:28,1650.8134716966583,2,39,0.5501165986061096,3.893689155578613,37.52910577849144,37.342379059233465,149.84519210897258,136.1583767272861,6.47544875391759e-05,0.0931148082017898,0,0,0
12572,438584.52043079626,2010-11-06 16:13:58,1680.8288145451531,2,39,0.5501165986061096,3.894984245300293,37.53369267886292,37.342379059233465,149.8630548309428,136.1583767272861,3.237724376958795e-05,0.0931148082017898,0,0,0
12573,438614.53579372994,2010-11-06 16:14:28,1710.8441774737712,2,39,0.550297200679779,3.8962793350219727,37.53827951537064,37.342379059233465,149.88092280354726,136.1583767272861,6.47544875391759e-05,0.0931148082017898,0,0,0
12574,438644.5510848142,2010-11-06 16:14:58,1740.8594685931423,2,39,0.550297200679779,3.897574424743652,37.54286640137416,37.342379059233465,149.89879720133573,136.1583767272861,3.237724376958795e-05,0.0931148082017898,0,0,0
12575,438674.56647250464,2010-11-06 16:15:28,1770.874856258507,2,39,0.5501165986061096,3.898707628250122,37.54745398207736,37.342379059233465,149.91668032013467,136.1583767272861,3.237724376958795e-05,0.0931148082017898,0,0,0
12576,438704.5819314529,2010-11-06 16:15:58,1800.8903152168298,2,39,0.550297200679779,3.900164604187012,37.55204153725549,37.342379059233465,149.9345693975997,136.1583767272861,3.237724376958795e-05,0.0931148082017898,0,0,0
12577,438734.597367108,2010-11-06 16:16:28,1830.9057508920343,2,39,0.5501165986061096,3.9012978076934814,37.55662912215845,37.342379059233465,149.95246456426483,136.1583767272861,-3.237724376958795e-05,0.0931148082017898,0,0,0
12578,438764.6125690248,2010-11-06 16:16:58,1860.9209527786668,2,39,0.5501165986061096,3.902592897415161,37.5612167322193,37.342379059233465,149.97036594697292,136.1583767272861,0.0,0.0931148082017898,0,0,0
12579,438794.6279549808,2010-11-06 16:17:29,1890.9363387347648,2,39,0.550297200679779,3.9042117595672607,37.565804410228274,37.342379059233465,149.9882736620715,136.1583767272861,3.237724376958795e-05,0.0931148082017898,0,0,0
12580,438824.64330711256,2010-11-06 16:17:59,1920.95169086142,2,39,0.550297200679779,3.9053449630737305,37.57039199974371,37.342379059233465,150.00618710957954,136.1583767272861,3.237724376958795e-05,0.0931148082017898,0,0,0
12581,438854.65866007126,2010-11-06 16:18:29,1950.9670438251635,2,39,0.5501165986061096,3.90664005279541,37.57497906259851,37.342379059233465,150.02410453306888,136.1583767272861,3.237724376958795e-05,0.0931148082017898,0,0,0
12582,438884.67401688464,2010-11-06 16:18:59,1980.982400638517,2,39,0.5501165986061096,3.9080970287323,37.5795660442228,37.342379059233465,150.04202782599734,136.1583767272861,6.47544875391759e-05,0.0931148082017898,0,0,0
12583,438914.6894400837,2010-11-06 16:19:29,2010.9978238526169,2,39,0.5501165986061096,3.9095540046691895,37.58415295453402,37.342379059233465,150.05995705312122,136.1583767272861,3.237724376958795e-05,0.0931148082017898,0,0,0
12584,438944.7047330477,2010-11-06 16:19:59,2041.0131168266173,2,39,0.550297200679779,3.910849094390869,37.58873992260087,37.342379059233465,150.07789273268858,136.1583767272861,6.47544875391759e-05,0.0931148082017898,0,0,0
12585,438974.7201364724,2010-11-06 16:20:29,2071.028520246307,2,39,0.550297200679779,3.912144184112549,37.59332690786227,37.342379059233465,150.09583475719677,136.1583767272861,0.0,0.0931148082017898,0,0,0
12586,439004.735469351,2010-11-06 16:20:59,2101.043853104866,2,39,0.550297200679779,3.9136011600494394,37.59791381668278,37.342379059233465,150.1137827900779,136.1583767272861,3.237724376958795e-05,0.0931148082017898,0,0,0
12587,439034.75084123696,2010-11-06 16:21:29,2131.0592249908423,2,39,0.5501165986061096,3.914896011352539,37.60250080802332,37.342379059233465,150.13173760837043,136.1583767272861,3.237724376958795e-05,0.0931148082017898,0,0,0
12588,439064.7661509728,2010-11-06 16:21:59,2161.074534726683,2,39,0.5501165986061096,3.9163529872894287,37.60708776457415,37.342379059233465,150.14969859219178,136.1583767272861,3.237724376958795e-05,0.0931148082017898,0,0,0
12589,439094.7816538959,2010-11-06 16:22:29,2191.090037654761,2,39,0.5501165986061096,3.917648077011109,37.61167468533054,37.342379059233465,150.16766600769705,136.1583767272861,0.0,0.0931148082017898,0,0,0
12590,439124.7969077973,2010-11-06 16:22:59,2221.105291551218,2,39,0.5501165986061096,3.919266939163208,37.61626090243752,37.342379059233465,150.18563699269234,136.1583767272861,9.713172767078504e-05,0.0931148082017898,0,0,0
12591,439154.81227603415,2010-11-06 16:23:29,2251.1206597880864,2,39,0.5501165986061096,3.9207239151000977,37.62084696820813,37.342379059233465,150.20361399958037,136.1583767272861,3.237724376958795e-05,0.0931148082017898,0,0,0
12592,439184.8276186872,2010-11-06 16:23:59,2281.136002446105,2,39,0.5501165986061096,3.9221808910369873,37.62543319426774,37.342379059233465,150.22159822539825,136.1583767272861,3.237724376958795e-05,0.0931148082017898,0,0,0
12593,439214.8429821772,2010-11-06 16:24:29,2311.1513659311127,2,39,0.5501165986061096,3.923637866973877,37.63001938632106,37.342379059233465,150.23958905281995,136.1583767272861,6.47544875391759e-05,0.0931148082017898,0,0,0
12594,439244.8583389354,2010-11-06 16:24:59,2341.1667226893283,2,39,0.5501165986061096,3.925094842910767,37.63460554498216,37.342379059233465,150.2575865659966,136.1583767272861,3.237724376958795e-05,0.0931148082017898,0,0,0
12595,439274.8737110219,2010-11-06 16:25:29,2371.1820947758056,2,39,0.5501165986061096,3.926713705062866,37.63919164300059,37.342379059233465,150.2755905855763,136.1583767272861,6.47544875391759e-05,0.0931148082017898,0,0,0
12596,439304.8890617752,2010-11-06 16:25:59,2401.197445529032,2,39,0.550297200679779,3.928170680999756,37.6437784216098,37.342379059233465,150.29360430206114,136.1583767272861,6.47544875391759e-05,0.0931148082017898,0,0,0
12597,439334.90444613225,2010-11-06 16:26:29,2431.212829886139,2,39,0.550297200679779,3.9296276569366455,37.64836545856808,37.342379059233465,150.3116259766599,136.1583767272861,6.47544875391759e-05,0.0931148082017898,0,0,0
12598,439364.9197876173,2010-11-06 16:26:59,2461.2281713712305,2,39,0.550297200679779,3.931246519088745,37.65295248469824,37.342379059233465,150.3296545796147,136.1583767272861,6.47544875391759e-05,0.0931148082017898,0,0,0
12599,439394.9353551567,2010-11-06 16:27:29,2491.2437389105885,2,39,0.5501165986061096,3.9327034950256343,37.657539608342645,37.342379059233465,150.34769049722448,136.1583767272861,6.47544875391759e-05,0.0931148082017898,0,0,0
12600,439424.9506496645,2010-11-06 16:27:59,2521.2590334284428,2,39,0.550297200679779,3.9343223571777344,37.662126682310905,37.342379059233465,150.3657333086205,136.1583767272861,6.47544875391759e-05,0.0931148082017898,0,0,0
12601,439454.9658733656,2010-11-06 16:28:29,2551.2742571195017,2,39,0.550297200679779,3.935779333114624,37.66671378661983,37.342379059233465,150.3837834259033,136.1583767272861,3.237724376958795e-05,0.0931148082017898,0,0,0
12602,439484.981375211,2010-11-06 16:28:59,2581.289758964878,2,39,0.5501165986061096,3.937398195266724,37.6713008835377,37.342379059233465,150.40184052754108,136.1583767272861,6.47544875391759e-05,0.0931148082017898,0,0,0
12603,439514.9967568613,2010-11-06 16:29:29,2611.305140625253,2,39,0.5501165986061096,3.9390170574188232,37.67588793417927,37.342379059233465,150.41990470979056,136.1583767272861,9.713172767078504e-05,0.0931148082017898,0,0,0
12604,439545.0119877704,2010-11-06 16:29:59,2641.3203715343298,2,39,0.5499359965324402,3.940312147140503,37.68047497378553,37.342379059233465,150.43797612918968,136.1583767272861,3.237724376958795e-05,0.0931148082017898,0,0,0
12605,439575.02732704,2010-11-06 16:30:29,2671.3357107938664,2,39,0.5501165986061096,3.942092895507813,37.68506210463565,37.342379059233465,150.4560552043856,136.1583767272861,3.237724376958795e-05,0.0931148082017898,0,0,0
12606,439605.04268612905,2010-11-06 16:30:59,2701.3510698829,2,39,0.5501165986061096,3.943711757659912,37.68964918828784,37.342379059233465,150.4741414532663,136.1583767272861,6.47544875391759e-05,0.0931148082017898,0,0,0
12607,439635.0580563006,2010-11-06 16:31:29,2731.3664400545977,2,39,0.550297200679779,3.945330619812012,37.694236272098,37.342379059233465,150.4922351266164,136.1583767272861,6.47544875391759e-05,0.0931148082017898,0,0,0
12608,439665.0735531737,2010-11-06 16:31:59,2761.3819369375865,2,39,0.5501165986061096,3.946787595748901,37.69882343659278,37.342379059233465,150.51033665477152,136.1583767272861,3.237724376958795e-05,0.0931148082017898,0,0,0
12609,439695.0887720678,2010-11-06 16:32:29,2791.397155821647,2,39,0.5501165986061096,3.948568344116211,37.70341051838543,37.342379059233465,150.52844537970364,136.1583767272861,6.47544875391759e-05,0.0931148082017898,0,0,0
12610,439725.10413365805,2010-11-06 16:32:59,2821.4125174119245,2,39,0.550297200679779,3.950349092483521,37.70799762368904,37.342379059233465,150.5465618771693,136.1583767272861,6.47544875391759e-05,0.0931148082017898,0,0,0
12611,439755.119514356,2010-11-06 16:33:29,2851.4278981098973,2,39,0.5501165986061096,3.95196795463562,37.712584729740776,37.342379059233465,150.56468613439395,136.1583767272861,3.237724376958795e-05,0.0931148082017898,0,0,0
12612,439785.1348487835,2010-11-06 16:33:59,2881.443232537372,2,39,0.5501165986061096,3.95358681678772,37.71717180836083,37.342379059233465,150.58281803662155,136.1583767272861,3.237724376958795e-05,0.0931148082017898,0,0,0
12613,439815.15033719526,2010-11-06 16:34:29,2911.4587209592405,2,39,0.5501165986061096,3.9555294513702393,37.72175894979229,37.342379059233465,150.60095804933215,136.1583767272861,6.47544875391759e-05,0.0931148082017898,0,0,0
12614,439845.1682182846,2010-11-06 16:34:59,2941.476602123763,2,39,0.5501165986061096,3.957148313522339,37.72634640931804,37.342379059233465,150.6191072320582,136.1583767272861,6.47544875391759e-05,0.0931148082017898,0,0,0
12615,439875.1812555631,2010-11-06 16:35:29,2971.4896394423004,2,39,0.5501165986061096,3.9587671756744394,37.73093313175063,37.342379059233465,150.63726137350633,136.1583767272861,3.237724376958795e-05,0.0931148082017898,0,0,0
12616,439905.1962968388,2010-11-06 16:35:59,3001.50468059271,2,39,0.5501165986061096,3.960547924041748,37.73552017245264,37.342379059233465,150.65542487630398,136.1583767272861,3.237724376958795e-05,0.0931148082017898,0,0,0
12617,439935.2116652311,2010-11-06 16:36:29,3031.5200489899785,2,39,0.5501165986061096,3.9623286724090576,37.74010715640946,37.342379059233465,150.673596252729,136.1583767272861,3.237724376958795e-05,0.0931148082017898,0,0,0
12618,439965.2270434228,2010-11-06 16:36:59,3061.5354271766832,2,39,0.5501165986061096,3.964109420776367,37.74469424339428,37.342379059233465,150.69177626407728,136.1583767272861,0.0,0.0931148082017898,0,0,0
12619,439995.2423875294,2010-11-06 16:37:29,3091.5507712833187,2,39,0.550297200679779,3.966052055358887,37.74928136768977,37.342379059233465,150.70996469881848,136.1583767272861,3.237724376958795e-05,0.0931148082017898,0,0,0
12620,440025.257862192,2010-11-06 16:37:59,3121.5662459458417,2,39,0.550297200679779,3.967832803726196,37.75386847704278,37.342379059233465,150.72816137767416,136.1583767272861,3.237724376958795e-05,0.0931148082017898,0,0,0
12621,440055.2731057526,2010-11-06 16:38:29,3151.581489506499,2,39,0.5501165986061096,3.969613552093506,37.758455566186285,37.342379059233465,150.74636641378453,136.1583767272861,3.237724376958795e-05,0.0931148082017898,0,0,0
12622,440085.28847728274,2010-11-06 16:38:59,3181.596861036588,2,39,0.5501165986061096,3.9715561866760254,37.76304266958778,37.342379059233465,150.76457997729307,136.1583767272861,3.237724376958795e-05,0.0931148082017898,0,0,0
12623,440115.3038468329,2010-11-06 16:39:29,3211.612230586734,2,39,0.550297200679779,3.973498821258545,37.76762987808887,37.342379059233465,150.78280258026118,136.1583767272861,6.47544875391759e-05,0.0931148082017898,0,0,0
12624,440145.3191846588,2010-11-06 16:39:59,3241.627568412692,2,39,0.5501165986061096,3.975117683410645,37.77221700433999,37.342379059233465,150.80103349386755,136.1583767272861,0.0,0.0931148082017898,0,0,0
12625,440175.3345875272,2010-11-06 16:40:29,3271.642971306068,2,39,0.5501165986061096,3.977060317993164,37.776804092891446,37.342379059233465,150.81927302048675,136.1583767272861,0.0,0.0931148082017898,0,0,0
12626,440205.3499122754,2010-11-06 16:40:59,3301.658296029319,2,39,0.5501165986061096,3.9791648387908936,37.78139112111676,37.342379059233465,150.8375207415679,136.1583767272861,6.47544875391759e-05,0.0931148082017898,0,0,0
12627,440235.3654146521,2010-11-06 16:41:29,3331.6737984110337,2,39,0.5499359965324402,3.980945587158203,37.78597817253669,37.342379059233465,150.85577800540077,136.1583767272861,3.237724376958795e-05,0.0931148082017898,0,0,0
12628,440265.3806267944,2010-11-06 16:41:59,3361.689010548253,2,39,0.550297200679779,3.983211994171143,37.79056516558858,37.342379059233465,150.87404408667712,136.1583767272861,6.47544875391759e-05,0.0931148082017898,0,0,0
12629,440295.3961122087,2010-11-06 16:42:29,3391.704495962614,2,39,0.5501165986061096,3.984992742538452,37.795152170947055,37.342379059233465,150.89231927834962,136.1583767272861,6.47544875391759e-05,0.0931148082017898,0,0,0
12630,440325.4113591729,2010-11-06 16:42:59,3421.719742926767,2,39,0.550297200679779,3.987259149551392,37.79973920220903,37.342379059233465,150.9106038732795,136.1583767272861,6.47544875391759e-05,0.0931148082017898,0,0,0
12631,440355.42693991016,2010-11-06 16:43:29,3451.7353236640693,2,39,0.550297200679779,3.989201784133911,37.80432625182623,37.342379059233465,150.92889787592733,136.1583767272861,6.47544875391759e-05,0.0931148082017898,0,0,0
12632,440385.4422169444,2010-11-06 16:43:59,3481.7506006982817,2,39,0.5501165986061096,3.9913063049316406,37.80891324127453,37.342379059233465,150.9472011353968,136.1583767272861,6.47544875391759e-05,0.0931148082017898,0,0,0
12633,440415.45743305655,2010-11-06 16:44:29,3511.765816810423,2,39,0.5501165986061096,3.99324893951416,37.81350017070219,37.342379059233465,150.9655137537743,136.1583767272861,3.237724376958795e-05,0.0931148082017898,0,0,0
12634,440445.4727933586,2010-11-06 16:44:59,3541.781177112485,2,39,0.5501165986061096,3.995515108108521,37.81808721213356,37.342379059233465,150.98383651511108,136.1583767272861,6.47544875391759e-05,0.0931148082017898,0,0,0
12635,440475.4883183869,2010-11-06 16:45:29,3571.7967021507534,2,39,0.5501165986061096,3.99761962890625,37.82267425184381,37.342379059233465,151.0021690976104,136.1583767272861,3.237724376958795e-05,0.0931148082017898,0,0,0
12636,440505.5035390504,2010-11-06 16:45:59,3601.8119228042306,2,39,0.5501165986061096,3.9998860359191895,37.82726122662099,37.342379059233465,151.0205112246336,136.1583767272861,6.47544875391759e-05,0.0931148082017898,0,0,0
12637,440535.51888466073,2010-11-06 16:46:29,3631.827268414619,2,39,0.5501165986061096,4.001990795135498,37.831848162903015,37.342379059233465,151.03886321373858,136.1583767272861,6.47544875391759e-05,0.0931148082017898,0,0,0
12638,440565.53426343895,2010-11-06 16:46:59,3661.842647192801,2,39,0.5501165986061096,4.0042572021484375,37.83643514093546,37.342379059233465,151.05722548523875,136.1583767272861,6.47544875391759e-05,0.0931148082017898,0,0,0
12639,440595.5496431394,2010-11-06 16:47:29,3691.858026893284,2,39,0.5501165986061096,4.006199836730957,37.84102214659183,37.342379059233465,151.07559808582604,136.1583767272861,0.0,0.0931148082017898,0,0,0
12640,440625.565099426,2010-11-06 16:47:59,3721.873483184951,2,39,0.550297200679779,4.008627891540527,37.84560914824279,37.342379059233465,151.09398092041286,136.1583767272861,3.23295607813634e-05,0.0931148082017898,0,0,0
12641,440655.5803285206,2010-11-06 16:48:29,3751.888712274485,2,39,0.5501165986061096,4.011056423187256,37.85019615072724,37.342379059233465,151.11237405359356,136.1583767272861,9.71794142969884e-05,0.0931148082017898,0,0,0
12642,440685.5956947876,2010-11-06 16:48:59,3781.904078541436,2,39,0.5501165986061096,4.013322830200195,37.85478316121467,37.342379059233465,151.1307777694158,136.1583767272861,6.47544875391759e-05,0.0931148082017898,0,0,0
12643,440715.6110743728,2010-11-06 16:49:30,3811.919458126631,2,39,0.5501165986061096,4.015589237213135,37.85937016488943,37.342379059233465,151.14919200237975,136.1583767272861,9.71794142969884e-05,0.0931148082017898,0,0,0
12644,440745.62641581777,2010-11-06 16:50:00,3841.934799571623,2,39,0.5501165986061096,4.018017292022705,37.8639572086055,37.342379059233465,151.167617111173,136.1583767272861,9.70840483205393e-05,0.0931148082017898,0,0,0
12645,440775.64189937245,2010-11-06 16:50:30,3871.950283126343,2,39,0.550297200679779,4.0202836990356445,37.8685443214944,37.342379059233465,151.1860531840441,136.1583767272861,6.47544875391759e-05,0.0931148082017898,0,0,0
12646,440805.6571507075,2010-11-06 16:51:00,3901.9655344614057,2,39,0.550297200679779,4.022712230682373,37.87313129082718,37.342379059233465,151.20449958525884,136.1583767272861,6.47544875391759e-05,0.0931148082017898,0,0,0
12647,440835.6726358562,2010-11-06 16:51:30,3931.981019610104,2,39,0.5501165986061096,4.025140285491943,37.87771831117201,37.342379059233465,151.22295710060635,136.1583767272861,6.47544875391759e-05,0.0931148082017898,0,0,0
12648,440865.68785533175,2010-11-06 16:52:00,3961.996239085641,2,39,0.5501165986061096,4.027406692504883,37.88230523103163,37.342379059233465,151.24142520160945,136.1583767272861,6.47544875391759e-05,0.0931148082017898,0,0,0
12649,440895.7032210273,2010-11-06 16:52:30,3992.0116047811657,2,39,0.550297200679779,4.029835224151611,37.8868921983925,37.342379059233465,151.25990459048765,136.1583767272861,6.47544875391759e-05,0.0931148082017898,0,0,0
12650,440925.7187071084,2010-11-06 16:53:00,4022.027090872215,2,39,0.550297200679779,4.032101631164551,37.89147920694297,37.342379059233465,151.27839524162712,136.1583767272861,3.24249267578125e-05,0.0931148082017898,0,0,0
12651,440955.7339537466,2010-11-06 16:53:30,4052.04233750053,2,39,0.5501165986061096,4.034691333770752,37.89606619101743,37.342379059233465,151.29689706709092,136.1583767272861,6.47544875391759e-05,0.0931148082017898,0,0,0
12652,440985.7493191816,2010-11-06 16:54:00,4082.057702935404,2,39,0.550297200679779,4.037281513214111,37.90065317748383,37.342379059233465,151.31541017265988,136.1583767272861,6.47544875391759e-05,0.0931148082017898,0,0,0
12653,441015.7646876991,2010-11-06 16:54:30,4112.073071452973,2,39,0.5501165986061096,4.03971004486084,37.90524025345436,37.342379059233465,151.33393512877117,136.1583767272861,6.47544875391759e-05,0.0931148082017898,0,0,0
12654,441045.7800460362,2010-11-06 16:55:00,4142.088429815192,2,39,0.5501165986061096,4.042300224304199,37.90982724501545,37.342379059233465,151.3524711312811,136.1583767272861,6.47544875391759e-05,0.0931148082017898,0,0,0
12655,441075.7800920715,2010-11-06 16:55:30,4172.088475825426,2,39,0.5499359965324402,4.0447282791137695,37.91441194327825,37.342379059233465,151.37100951651723,136.1583767272861,3.23295607813634e-05,0.0931148082017898,0,0,0
12656,441105.7951590965,2010-11-06 16:56:00,4202.103542870473,2,39,0.5501165986061096,4.047480583190918,37.918998921951605,37.342379059233465,151.38956882595014,136.1583767272861,9.71794142969884e-05,0.0931148082017898,0,0,0
12657,441135.81049591,2010-11-06 16:56:30,4232.118879663853,2,39,0.5501165986061096,4.050070762634277,37.92358594134953,37.342379059233465,151.40814015816318,136.1583767272861,9.71794142969884e-05,0.0931148082017898,0,0,0
12658,441165.8260435496,2010-11-06 16:57:00,4262.134427308551,2,39,0.5501165986061096,4.052498817443848,37.92817301438606,37.342379059233465,151.42672363826136,136.1583767272861,6.47544875391759e-05,0.0931148082017898,0,0,0
12659,441195.84121526097,2010-11-06 16:57:30,4292.149599014849,2,39,0.5501165986061096,4.055088996887207,37.93276002601079,37.342379059233465,151.4453190717086,136.1583767272861,6.47544875391759e-05,0.0931148082017898,0,0,0
12660,441225.8566027609,2010-11-06 16:58:00,4322.1649865148,2,39,0.550297200679779,4.057841300964356,37.93734701906584,37.342379059233465,151.46392662692048,136.1583767272861,6.47544875391759e-05,0.0931148082017898,0,0,0
12661,441255.8719439052,2010-11-06 16:58:30,4352.180327659042,2,39,0.550297200679779,4.060593128204346,37.94193408936634,37.342379059233465,151.4825468308816,136.1583767272861,3.23295607813634e-05,0.0931148082017898,0,0,0
12662,441285.8873108739,2010-11-06 16:59:00,4382.195694627744,2,39,0.5501165986061096,4.063183307647705,37.94652113697439,37.342379059233465,151.50117890732326,136.1583767272861,6.47544875391759e-05,0.0931148082017898,0,0,0
12663,441315.9026646897,2010-11-06 16:59:30,4412.211048443615,2,39,0.5501165986061096,4.0659356117248535,37.95110818382192,37.342379059233465,151.51982358410478,136.1583767272861,6.47544875391759e-05,0.0931148082017898,0,0,0
12664,441345.9182589056,2010-11-06 17:00:00,4442.2266426846245,2,39,0.550297200679779,4.068849563598633,37.95569518241351,37.342379059233465,151.53848065754374,136.1583767272861,9.71794142969884e-05,0.0931148082017898,0,0,0
12665,441375.933412582,2010-11-06 17:00:30,4472.241796335854,2,39,0.5501165986061096,4.071439743041992,37.96028213049177,37.342379059233465,151.55715034625814,136.1583767272861,6.47544875391759e-05,0.0931148082017898,0,0,0
12666,441405.9488842921,2010-11-06 17:01:00,4502.257268046007,2,39,0.550297200679779,4.074353694915772,37.96486917536643,37.342379059233465,151.57583326680927,136.1583767272861,6.47544875391759e-05,0.0931148082017898,0,0,0
12667,441435.9641132663,2010-11-06 17:01:30,4532.272497020255,2,39,0.5501165986061096,4.077105522155762,37.96945621009807,37.342379059233465,151.59452909935408,136.1583767272861,6.47544875391759e-05,0.0931148082017898,0,0,0
12668,441465.9794987764,2010-11-06 17:02:00,4562.287882530239,2,39,0.5501165986061096,4.080019474029541,37.97404318716786,37.342379059233465,151.61323764416795,136.1583767272861,6.47544875391759e-05,0.0931148082017898,0,0,0
12669,441495.994862532,2010-11-06 17:02:30,4592.303246285921,2,39,0.5501165986061096,4.0827717781066895,37.97863025713136,37.342379059233465,151.63195974360542,136.1583767272861,6.47544875391759e-05,0.0931148082017898,0,0,0
12670,441526.0102113956,2010-11-06 17:03:00,4622.318595149431,2,39,0.5501165986061096,4.086009502410889,37.9832172490053,37.342379059233465,151.65069488405393,136.1583767272861,0.0001295089750783,0.0931148082017898,0,0,0
12671,441556.0255470862,2010-11-06 17:03:30,4652.333930840058,2,39,0.550297200679779,4.088761329650879,37.98780420576729,37.342379059233465,151.6694433578336,136.1583767272861,3.23295607813634e-05,0.0931148082017898,0,0,0
12672,441586.04093811486,2010-11-06 17:04:00,4682.349321868818,2,39,0.5499359965324402,4.091675281524658,37.99239120223755,37.342379059233465,151.68820551618415,136.1583767272861,3.23295607813634e-05,0.0931148082017898,0,0,0
12673,441616.0566669269,2010-11-06 17:04:30,4712.3650507058,2,39,0.5501165986061096,4.094751358032227,37.99697823250171,37.342379059233465,151.70698144553114,136.1583767272861,3.24249267578125e-05,0.0931148082017898,0,0,0
12674,441646.07180521474,2010-11-06 17:05:00,4742.380188978643,2,39,0.550297200679779,4.097989082336426,38.00156515910854,37.342379059233465,151.7257708715677,136.1583767272861,9.71794142969884e-05,0.0931148082017898,0,0,0
12675,441676.0870775122,2010-11-06 17:05:30,4772.395461281043,2,39,0.5499359965324402,4.100903034210205,38.00615215544332,37.342379059233465,151.7445745868236,136.1583767272861,6.47544875391759e-05,0.0931148082017898,0,0,0
12676,441706.1024157792,2010-11-06 17:06:00,4802.410799533065,2,39,0.5504778623580933,4.103978633880615,38.01073916901635,37.342379059233465,151.7633923544041,136.1583767272861,6.47544875391759e-05,0.0931148082017898,0,0,0
12677,441736.11775791086,2010-11-06 17:06:30,4832.426141674796,2,39,0.5501165986061096,4.107216358184815,38.01532619311249,37.342379059233465,151.78222449368693,136.1583767272861,9.70840483205393e-05,0.0931148082017898,0,0,0
12678,441766.13312494976,2010-11-06 17:07:00,4862.441508703649,2,39,0.5501165986061096,4.110130310058594,38.0199131518405,37.342379059233465,151.80107074245765,136.1583767272861,3.23295607813634e-05,0.0931148082017898,0,0,0
12679,441796.1511271714,2010-11-06 17:07:30,4892.459510925348,2,39,0.5501165986061096,4.113530158996582,38.02450058484674,37.342379059233465,151.81993339815818,136.1583767272861,9.71794142969884e-05,0.0931148082017898,0,0,0
12680,441826.1640977133,2010-11-06 17:08:00,4922.472481472214,2,39,0.550297200679779,4.116605758666992,38.02908722476115,37.342379059233465,151.83880723629943,136.1583767272861,9.71794142969884e-05,0.0931148082017898,0,0,0
12681,441856.1792167982,2010-11-06 17:08:30,4952.487600552147,2,39,0.5499359965324402,4.119519710540772,38.03367427066858,37.342379059233465,151.85769735356934,136.1583767272861,6.47544875391759e-05,0.0931148082017898,0,0,0
12682,441886.1945845438,2010-11-06 17:09:00,4982.50296829779,2,39,0.5501165986061096,4.122919082641602,38.03826133287224,37.342379059233465,151.8766022085314,136.1583767272861,9.70840483205393e-05,0.0931148082017898,0,0,0
12683,441916.2099302797,2010-11-06 17:09:30,5012.518314033491,2,39,0.550297200679779,4.12631893157959,38.04284839138213,37.342379059233465,151.89552180434242,136.1583767272861,0.0001295089750783,0.0931148082017898,0,0,0
12684,441946.22572427423,2010-11-06 17:10:00,5042.534108028117,2,39,0.5501165986061096,4.129556655883789,38.04743549583734,37.342379059233465,151.91445651227647,136.1583767272861,9.71794142969884e-05,0.0931148082017898,0,0,0
12685,441976.2406552497,2010-11-06 17:10:30,5072.549039003513,2,39,0.5501165986061096,4.132794380187988,38.05202253852106,37.342379059233465,151.93340601918823,136.1583767272861,9.71794142969884e-05,0.0931148082017898,0,0,0
12686,442006.25604407786,2010-11-06 17:11:00,5102.56442783178,2,39,0.5501165986061096,4.136193752288818,38.056609649847694,37.342379059233465,151.95237106047605,136.1583767272861,9.70840483205393e-05,0.0931148082017898,0,0,0
12687,442036.27140554285,2010-11-06 17:11:30,5132.579789306769,2,39,0.550297200679779,4.139431476593018,38.06119675313873,37.342379059233465,151.9713514574998,136.1583767272861,9.70840483205393e-05,0.0931148082017898,0,0,0
12688,442066.2867890528,2010-11-06 17:12:00,5162.595172806737,2,39,0.5501165986061096,4.142831325531006,38.06578389826336,37.342379059233465,151.9903474671055,136.1583767272861,0.0001295089750783,0.0931148082017898,0,0,0
12689,442096.30223711394,2010-11-06 17:12:30,5192.610620867858,2,39,0.5501165986061096,4.146069049835205,38.07037095395791,37.342379059233465,152.00935863827235,136.1583767272861,6.47544875391759e-05,0.0931148082017898,0,0,0
12690,442126.3174705894,2010-11-06 17:13:00,5222.625854343341,2,39,0.5501165986061096,4.149630546569824,38.07495800394307,37.342379059233465,152.02838550234688,136.1583767272861,6.47544875391759e-05,0.0931148082017898,0,0,0
12691,442156.332831102,2010-11-06 17:13:30,5252.641214860942,2,39,0.550297200679779,4.153029918670654,38.07954499763019,37.342379059233465,152.04742783656306,136.1583767272861,9.70840483205393e-05,0.0931148082017898,0,0,0
12692,442186.348331965,2010-11-06 17:14:00,5282.656715718852,2,39,0.550297200679779,4.156591415405273,38.084132035395456,37.342379059233465,152.0664860489401,136.1583767272861,9.70840483205393e-05,0.0931148082017898,0,0,0
12693,442216.36357670353,2010-11-06 17:14:30,5312.67196045745,2,39,0.5501165986061096,4.159991264343262,38.088719055758034,37.342379059233465,152.0855600828252,136.1583767272861,6.47544875391759e-05,0.0931148082017898,0,0,0
12694,442246.37888529646,2010-11-06 17:15:00,5342.687269050437,2,39,0.5501165986061096,4.163552761077881,38.09330602268786,37.342379059233465,152.1046499327824,136.1583767272861,9.71794142969884e-05,0.0931148082017898,0,0,0
12695,442276.3942632878,2010-11-06 17:15:30,5372.702647066716,2,39,0.5501165986061096,4.1671142578125,38.09789293354971,37.342379059233465,152.1237555598109,136.1583767272861,0.0001295089750783,0.0931148082017898,0,0,0
12696,442306.4098096192,2010-11-06 17:16:00,5402.718193398136,2,39,0.5499359965324402,4.17051362991333,38.10247993939932,37.342379059233465,152.1428778612936,136.1583767272861,6.47544875391759e-05,0.0931148082017898,0,0,0
12697,442336.4251046784,2010-11-06 17:16:30,5432.733488432279,2,39,0.5501165986061096,4.174237251281738,38.10706688710448,37.342379059233465,152.16201626676704,136.1583767272861,9.71794142969884e-05,0.0931148082017898,0,0,0
12698,442366.44046188274,2010-11-06 17:17:00,5462.748845636608,2,39,0.550297200679779,4.177798748016357,38.11165381220147,37.342379059233465,152.18117088342774,136.1583767272861,0.0001295089750783,0.0931148082017898,0,0,0
12699,442396.4557214032,2010-11-06 17:17:30,5492.764105157104,2,39,0.5501165986061096,4.181521892547607,38.11624079900585,37.342379059233465,152.20034233137773,136.1583767272861,0.0001295089750783,0.0931148082017898,0,0,0
12700,442426.4711020561,2010-11-06 17:18:00,5522.779485809964,2,39,0.5497553944587708,4.184921741485596,38.120827887149886,37.342379059233465,152.21953092523813,136.1583767272861,9.71794142969884e-05,0.0931148082017898,0,0,0
12701,442456.48643869406,2010-11-06 17:18:30,5552.794822447957,2,39,0.5501165986061096,4.188644886016846,38.1254149200007,37.342379059233465,152.23873594583293,136.1583767272861,6.47544875391759e-05,0.0931148082017898,0,0,0
12702,442486.5018791813,2010-11-06 17:19:00,5582.810262960235,2,39,0.550297200679779,4.192368507385254,38.13000195874798,37.342379059233465,152.25795788803603,136.1583767272861,0.0001295089750783,0.0931148082017898,0,0,0
12703,442516.5171864359,2010-11-06 17:19:30,5612.82557018982,2,39,0.5501165986061096,4.195929527282715,38.13458897780652,37.342379059233465,152.27719658809934,136.1583767272861,0.0001295089750783,0.0931148082017898,0,0,0
12704,442546.53253539465,2010-11-06 17:20:00,5642.840919148567,2,39,0.550297200679779,4.199653148651123,38.13917600426001,37.342379059233465,152.2964523308943,136.1583767272861,9.71794142969884e-05,0.0931148082017898,0,0,0
12705,442547.2825462221,2010-11-06 17:20:01,5643.590929975978,2,39,0.550297200679779,4.200138568878174,38.1392906222288,37.342379059233465,152.2969336991457,136.1583767272861,0.0001295089750783,0.0931148082017898,0,0,0
12706,442577.30240079423,2010-11-06 17:20:31,30.01535916422145,3,39,0.0,4.117738723754883,38.1392906222288,37.342379059233465,152.2969336991457,136.1583767272861,-0.0004532813909463,0.0931148082017898,0,0,0
12707,442607.3179856568,2010-11-06 17:21:01,60.0309440268208,3,39,0.0,4.108026027679443,38.1392906222288,37.342379059233465,152.2969336991457,136.1583767272861,-0.0002265930233988,0.0931148082017898,0,0,0
12708,442637.33324590913,2010-11-06 17:21:31,90.04620427914294,3,39,0.0,4.102198123931885,38.1392906222288,37.342379059233465,152.2969336991457,136.1583767272861,-0.0001295089750783,0.0931148082017898,0,0,0
12709,442667.30161297385,2010-11-06 17:22:01,120.01457134385446,3,39,0.0,4.098636627197266,38.1392906222288,37.342379059233465,152.2969336991457,136.1583767272861,-6.47544875391759e-05,0.0931148082017898,0,0,0
12710,442667.3070551899,2010-11-06 17:22:01,0.01550183496497,4,39,0.9747290015220642,4.199653148651123,38.139294835421104,37.342379059233465,152.29695139309206,136.1583767272861,0.0,0.0931148082017898,0,0,0
12711,442668.36956501286,2010-11-06 17:22:03,1.078011652933669,4,39,0.9243390560150146,4.199491024017334,38.13957355174864,37.342379059233465,152.29812190316568,136.1583767272861,-3.24249267578125e-05,0.0931148082017898,0,0,0
12712,442670.6038906784,2010-11-06 17:22:05,3.312337318537426,4,39,0.8741296529769897,4.199814796447754,38.1401304456611,37.342379059233465,152.30046064729086,136.1583767272861,3.23295607813634e-05,0.0931148082017898,0,0,0
12713,442673.9944905173,2010-11-06 17:22:08,6.702937157365886,4,39,0.8239202499389648,4.199653148651123,38.14092892154356,37.342379059233465,152.3038139624893,136.1583767272861,0.0,0.0931148082017898,0,0,0
12714,442678.6663220526,2010-11-06 17:22:13,11.374768692621195,4,39,0.7738915085792542,4.199653148651123,38.14196434537891,37.342379059233465,152.3081623761146,136.1583767272861,0.0,0.0931148082017898,0,0,0
12715,442684.7756866015,2010-11-06 17:22:19,17.48413324143728,4,39,0.7238627672195435,4.199814796447754,38.14323348569125,37.342379059233465,152.31349231625288,136.1583767272861,3.23295607813634e-05,0.0931148082017898,0,0,0
12716,442692.8068394895,2010-11-06 17:22:27,25.515286129608132,4,39,0.673833966255188,4.199653148651123,38.1447902944309,37.342379059233465,152.32003038545872,136.1583767272861,-3.23295607813634e-05,0.0931148082017898,0,0,0
12717,442703.72860362806,2010-11-06 17:22:38,36.43705026816939,4,39,0.6238052248954773,4.199653148651123,38.146755095718646,37.342379059233465,152.3282818944142,136.1583767272861,3.24249267578125e-05,0.0931148082017898,0,0,0
12718,442719.337991647,2010-11-06 17:22:54,52.046438297134,4,39,0.5737764239311218,4.199653148651123,38.1493444778738,37.342379059233465,152.339156435047,136.1583767272861,-3.23295607813634e-05,0.0931148082017898,0,0,0
12719,442743.7910061633,2010-11-06 17:23:18,76.49945281336876,4,39,0.5237476825714111,4.199653148651123,38.15305823045624,37.342379059233465,152.35475294328813,136.1583767272861,0.0,0.0931148082017898,0,0,0
12720,442786.2905132062,2010-11-06 17:24:00,118.99895984630868,4,39,0.4735382795333862,4.199491024017334,38.15891984413732,37.342379059233465,152.3793697179323,136.1583767272861,-3.24249267578125e-05,0.0931148082017898,0,0,0
12721,442860.4616223406,2010-11-06 17:25:15,193.17006898064787,4,39,0.4233289062976837,4.199653148651123,38.16812952640541,37.342379059233465,152.41804733812975,136.1583767272861,-3.23295607813634e-05,0.0931148082017898,0,0,0
12722,442963.08573659806,2010-11-06 17:26:57,295.79418323815986,4,39,0.3731195330619812,4.199653148651123,38.1794657164155,37.342379059233465,152.4656556437067,136.1583767272861,0.0,0.0931148082017898,0,0,0
12723,443086.4127661071,2010-11-06 17:29:01,419.1212127472036,4,39,0.3230907618999481,4.199491024017334,38.19138266231088,37.342379059233465,152.51570296455608,136.1583767272861,-3.24249267578125e-05,0.0931148082017898,0,0,0
12724,443233.7396005266,2010-11-06 17:31:28,566.4480471665812,4,39,0.273061990737915,4.199653148651123,38.20356698865115,37.342379059233465,152.56687322046008,136.1583767272861,0.0,0.0931148082017898,0,0,0
12725,443409.8005675114,2010-11-06 17:34:24,742.509014151478,4,39,0.2230332195758819,4.199653148651123,38.21566439289701,37.342379059233465,152.61767835929265,136.1583767272861,0.0,0.0931148082017898,0,0,0
12726,443633.9706086919,2010-11-06 17:38:08,966.6790553319632,4,39,0.1730044484138488,4.199491024017334,38.22793752707208,37.342379059233465,152.66922148009428,136.1583767272861,-6.47544875391759e-05,0.0931148082017898,0,0,0
12727,443950.1554810672,2010-11-06 17:43:24,1282.8639277122509,4,39,0.1229756772518158,4.199491024017334,38.24081662645443,37.342379059233465,152.72330946908218,136.1583767272861,0.0,0.0931148082017898,0,0,0
12728,444478.1818989712,2010-11-06 17:52:12,1810.890345616173,4,39,0.0729469060897827,4.199491024017334,38.254852846658665,37.342379059233465,152.78225703063546,136.1583767272861,-3.24249267578125e-05,0.0931148082017898,0,0,0
12729,444900.85005991673,2010-11-06 17:59:15,2233.558506556751,4,39,0.0498289167881011,4.199491024017334,38.26200777876006,37.342379059233465,152.81230542424117,136.1583767272861,-6.47544875391759e-05,0.0931148082017898,0,0,0
12730,444930.8592580719,2010-11-06 17:59:45,30.01538842225401,5,39,0.0,4.192206382751465,38.26200777876006,37.342379059233465,152.81230542424117,136.1583767272861,-3.24249267578125e-05,0.0931148082017898,0,0,0
12731,444960.85898295545,2010-11-06 18:00:15,60.01511333096846,5,39,0.0,4.190911293029785,38.26200777876006,37.342379059233465,152.81230542424117,136.1583767272861,0.0,0.0931148082017898,0,0,0
12732,444961.0563452,2010-11-06 18:00:16,0.187419442762897,6,39,-1.9243103452026844e-05,4.191073417663574,38.26200777876006,37.34237906023528,152.81230542424117,136.1583767314848,0.0,0.0945633500814437,0,0,0
12733,444965.8843932207,2010-11-06 18:00:20,5.015467453373999,6,39,0.0007031940040178,4.190749645233154,38.26200864460581,37.34237906040153,152.8123090530653,136.15837673218155,-6.47544875391759e-05,0.0945633500814437,0,0,0
12734,444995.90968013246,2010-11-06 18:00:50,30.01540792593821,7,39,-1.0997490882873535,4.021740913391113,38.26200864460581,37.3515485729165,152.8123090530653,136.19544153092625,-0.0008741378551349,0.0945633500814437,0,0,0
12735,445025.9251487599,2010-11-06 18:01:20,60.03087655840926,7,39,-1.0997490882873535,3.99713397026062,38.26200864460581,37.3607181442155,152.8123090530653,136.23219816322097,-0.0005180359003134,0.0945633500814437,0,0,0
12736,445055.9404920495,2010-11-06 18:01:50,90.04621986304275,7,39,-1.099929690361023,3.979650497436523,38.26200864460581,37.36988763191999,152.8123090530653,136.2687658401263,-0.0004532813909463,0.0945633500814437,0,0,0
12737,445085.9557265224,2010-11-06 18:02:20,120.06145434102818,7,39,-1.0997490882873535,3.966375827789306,38.26200864460581,37.37905698468935,152.8123090530653,136.30519403000906,-0.0002913951757363,0.0945633500814437,0,0,0
12738,445115.97109635326,2010-11-06 18:02:50,150.0768241768877,7,39,-1.0997490882873535,3.95455813407898,38.26200864460581,37.38822632344461,152.8123090530653,136.34150772231618,-0.0003237724304199,0.0945633500814437,0,0,0
12739,445145.9864660589,2010-11-06 18:03:21,180.09219385234684,7,39,-1.099929690361023,3.943873643875122,38.26200864460581,37.39739569784336,152.8123090530653,136.3777188643082,-0.0002913951757363,0.0945633500814437,0,0,0
12740,445176.0017883259,2010-11-06 18:03:51,210.1075161144549,7,39,-1.099929690361023,3.9339985847473145,38.26200864460581,37.40656519720122,152.8123090530653,136.41383649334145,-0.0002266406954731,0.0945633500814437,0,0,0
12741,445206.0172506026,2010-11-06 18:04:21,240.12297839607328,7,39,-1.0997490882873535,3.9247710704803462,38.26200864460581,37.415735525824026,152.8123090530653,136.44986932420107,-0.0001942634553415,0.0945633500814437,0,0,0
12742,445236.0325560527,2010-11-06 18:04:51,270.1382838462161,7,39,-1.0997490882873535,3.915705442428589,38.26200864460581,37.42490577683558,152.8123090530653,136.48581752100182,-0.0002266406954731,0.0945633500814437,0,0,0
12743,445266.04794410407,2010-11-06 18:05:21,300.1536719226068,7,39,-1.0997490882873535,3.90680193901062,38.26200864460581,37.43407606539514,152.8123090530653,136.5216845346635,-0.0002266406954731,0.0945633500814437,0,0,0
12744,445296.0632645917,2010-11-06 18:05:51,330.1689923852231,7,39,-1.0997490882873535,3.898383855819702,38.26200864460581,37.44324627355604,152.8123090530653,136.5574721561615,-0.0002590179501567,0.0945633500814437,0,0,0
12745,445326.07864824205,2010-11-06 18:06:21,360.1843760556157,7,39,-1.0997490882873535,3.890127658843994,38.26200864460581,37.45241570235154,152.8123090530653,136.59318037373885,-0.0002266406954731,0.0945633500814437,0,0,0
12746,445356.0940103536,2010-11-06 18:06:51,390.1997381421317,7,39,-1.099929690361023,3.881871461868286,38.26200864460581,37.46158514287209,152.8123090530653,136.62881311069063,-0.0001942634553415,0.0945633500814437,0,0,0
12747,445386.109383172,2010-11-06 18:07:21,420.2151109654484,7,39,-1.0997490882873535,3.873777151107788,38.26200864460581,37.47075455835087,152.8123090530653,136.66437026143325,-0.0001618862152099,0.0945633500814437,0,0,0
12748,445416.1247304716,2010-11-06 18:07:51,450.23045828009145,7,39,-1.0997490882873535,3.86568284034729,38.26200864460581,37.47992399704829,152.8123090530653,136.69985312001674,-0.0001942634553415,0.0945633500814437,0,0,0
12749,445446.1401317309,2010-11-06 18:08:21,480.2458595193386,7,39,-1.0997490882873535,3.857912302017212,38.26200864460581,37.48909347309534,152.8123090530653,136.7352633585523,-0.0001942634553415,0.0945633500814437,0,0,0
12750,445476.1554647046,2010-11-06 18:08:51,510.261192493185,7,39,-1.099929690361023,3.849979877471924,38.26200864460581,37.49826296366679,152.8123090530653,136.77060256256823,-0.0001942634553415,0.0945633500814437,0,0,0
12751,445506.1709594575,2010-11-06 18:09:21,540.276687245856,7,39,-1.099568486213684,3.842694997787476,38.26200864460581,37.50743246670456,152.8123090530653,136.805872052334,-0.0001942634553415,0.0945633500814437,0,0,0
12752,445536.18619168975,2010-11-06 18:09:51,570.2919194782361,7,39,-1.099568486213684,3.8352482318878174,38.26200864460581,37.51660194872868,152.8123090530653,136.84107278138026,-0.0001942634553415,0.0945633500814437,0,0,0
12753,445566.20156044286,2010-11-06 18:10:21,600.3072882564555,7,39,-1.099929690361023,3.827639818191528,38.26200864460581,37.52577142137383,152.8123090530653,136.8762049542996,-0.0001942634553415,0.0945633500814437,0,0,0
12754,445596.2169132312,2010-11-06 18:10:51,630.3226410146867,7,39,-1.0997490882873535,3.82051682472229,38.26200864460581,37.53494090139186,152.8123090530653,136.91127008683554,-0.0001942634553415,0.0945633500814437,0,0,0
12755,445626.2322973026,2010-11-06 18:11:21,660.3380251111428,7,39,-1.0997490882873535,3.813231945037842,38.26200864460581,37.544110418443545,152.8123090530653,136.9462691523598,-0.0002266406954731,0.0945633500814437,0,0,0
12756,445656.2476650984,2010-11-06 18:11:51,690.35339288686,7,39,-1.099929690361023,3.8062708377838135,38.26200864460581,37.5532799121462,152.8123090530653,136.98120243607568,-0.0001618862152099,0.0945633500814437,0,0,0
12757,445686.26308134006,2010-11-06 18:12:21,720.3688091836931,7,39,-1.099929690361023,3.799147844314575,38.26200864460581,37.56244945252669,152.8123090530653,137.01607226141965,-0.0002266406954731,0.0945633500814437,0,0,0
12758,445716.2783774168,2010-11-06 18:12:51,750.3841052253509,7,39,-1.099568486213684,3.792510509490967,38.26200864460581,37.57161895904224,152.8123090530653,137.05087907173504,-0.0001618862152099,0.0945633500814437,0,0,0
12759,445746.29376241553,2010-11-06 18:13:21,780.3994902290718,7,39,-1.0997490882873535,3.786035060882568,38.26200864460581,37.58078845876023,152.8123090530653,137.08562428761067,-0.0001942634553415,0.0945633500814437,0,0,0
12760,445776.3091419456,2010-11-06 18:13:51,810.414869764142,7,39,-1.0997490882873535,3.77939772605896,38.26200864460581,37.58995802523098,152.8123090530653,137.1203097420537,-0.0001618862152099,0.0945633500814437,0,0,0
12761,445806.3246094302,2010-11-06 18:14:21,840.4303372286978,7,39,-1.099568486213684,3.773246049880981,38.26200864460581,37.59912762985066,152.8123090530653,137.15493720965276,-0.0001295089750783,0.0945633500814437,0,0,0
12762,445836.33986671007,2010-11-06 18:14:51,870.4455945286504,7,39,-1.0997490882873535,3.767094373703003,38.26200864460581,37.60829710101312,152.8123090530653,137.18950730672535,-0.0001618862152099,0.0945633500814437,0,0,0
12763,445866.3552403605,2010-11-06 18:15:21,900.4609681489565,7,39,-1.0997490882873535,3.7611045837402335,38.26200864460581,37.61746664379683,152.8123090530653,137.22402228394623,-0.0001295089750783,0.0945633500814437,0,0,0
12764,445896.3707200856,2010-11-06 18:15:51,930.476447869104,7,39,-1.0997490882873535,3.755276679992676,38.26200864460581,37.626636181600254,152.8123090530653,137.25848263060004,-0.0001618862152099,0.0945633500814437,0,0,0
12765,445926.3859376915,2010-11-06 18:16:21,960.4916654799864,7,39,-1.099929690361023,3.7492871284484863,38.26200864460581,37.6358057236486,152.8123090530653,137.29288931957086,-0.0001618862152099,0.0945633500814437,0,0,0
12766,445956.4013115674,2010-11-06 18:16:51,990.5070393509184,7,39,-1.0997490882873535,3.7436211109161377,38.26200864460581,37.6449752917419,152.8123090530653,137.32724305175708,-0.0001618862152099,0.0945633500814437,0,0,0
12767,445986.4168141698,2010-11-06 18:17:21,1020.5225419682208,7,39,-1.1001102924346924,3.737955093383789,38.26200864460581,37.65414486175423,152.8123090530653,137.36154442187643,-0.0001618862152099,0.0945633500814437,0,0,0
12768,446016.4321614092,2010-11-06 18:17:51,1050.5378892177011,7,39,-1.099568486213684,3.732612848281861,38.26200864460581,37.66331439509407,152.8123090530653,137.3957943209062,-0.0001295089750783,0.0945633500814437,0,0,0
12769,446046.44752613234,2010-11-06 18:18:21,1080.5532539257608,7,39,-1.0997490882873535,3.726946830749512,38.26200864460581,37.67248385106683,152.8123090530653,137.42999329360953,-0.0001618862152099,0.0945633500814437,0,0,0
12770,446076.4627585451,2010-11-06 18:18:51,1110.5684863486165,7,39,-1.0997490882873535,3.721604585647583,38.26200864460581,37.681653324019,152.8123090530653,137.46414314339822,-0.0001618862152099,0.0945633500814437,0,0,0
12771,446106.4781288773,2010-11-06 18:19:21,1140.5838566757022,7,39,-1.099929690361023,3.716100454330444,38.26200864460581,37.69082283748553,152.8123090530653,137.4982436785216,-0.0001618862152099,0.0945633500814437,0,0,0
12772,446136.4936386424,2010-11-06 18:19:51,1170.599366435834,7,39,-1.0997490882873535,3.7109200954437256,38.26200864460581,37.699992399067135,152.8123090530653,137.53229586298642,-0.0001618862152099,0.0945633500814437,0,0,0
12773,446166.5088829649,2010-11-06 18:20:21,1200.6146107634056,7,39,-1.0997490882873535,3.705739736557007,38.26200864460581,37.70916195022224,152.8123090530653,137.56629998415949,-0.0001295089750783,0.0945633500814437,0,0,0
12774,446196.5268599837,2010-11-06 18:20:51,1230.6325877771822,7,39,-1.0997490882873535,3.700721263885498,38.26200864460581,37.71833232273282,152.8123090530653,137.60025968781713,-0.0001295089750783,0.0945633500814437,0,0,0
12775,446226.5398960992,2010-11-06 18:21:21,1260.6456239027418,7,39,-1.099929690361023,3.6955409049987793,38.26200864460581,37.72750118101878,152.8123090530653,137.63416723860246,-0.0001295089750783,0.0945633500814437,0,0,0
12776,446256.5549937256,2010-11-06 18:21:51,1290.6607215441622,7,39,-1.0997490882873535,3.6905224323272714,38.26200864460581,37.736670669578814,152.8123090530653,137.66803148882445,-0.0001618862152099,0.0945633500814437,0,0,0
12777,446286.5704004886,2010-11-06 18:22:21,1320.676128282135,7,39,-1.0997490882873535,3.6858277320861816,38.26200864460581,37.745840258801664,152.8123090530653,137.70185077721837,-9.713172767078504e-05,0.0945633500814437,0,0,0
12778,446316.5857068259,2010-11-06 18:22:51,1350.6914346194926,7,39,-1.0997490882873535,3.6811330318450928,38.26200864460581,37.75500993707384,152.8123090530653,137.7356261642709,-9.713172767078504e-05,0.0945633500814437,0,0,0
12779,446346.60108864674,2010-11-06 18:23:21,1380.7068164452808,7,39,-1.099929690361023,3.676276445388794,38.26200864460581,37.76417962895233,152.8123090530653,137.76935806355215,-0.0001295089750783,0.0945633500814437,0,0,0
12780,446376.616575996,2010-11-06 18:23:51,1410.7223037894591,7,39,-1.099568486213684,3.671743869781494,38.26200864460581,37.77334932344206,152.8123090530653,137.80304755403384,-0.0001618385285837,0.0945633500814437,0,0,0
12781,446406.63180398766,2010-11-06 18:24:21,1440.737531781254,7,39,-1.099568486213684,3.6672110557556152,38.26200864460581,37.78251892064866,152.8123090530653,137.8366946123154,-0.0001295089750783,0.0945633500814437,0,0,0
12782,446436.64730557246,2010-11-06 18:24:51,1470.7530333659788,7,39,-1.0997490882873535,3.662678241729736,38.26200864460581,37.79168862647085,152.8123090530653,137.87030023622484,-0.0001295089750783,0.0945633500814437,0,0,0
12783,446466.662570316,2010-11-06 18:25:21,1500.7682981095118,7,39,-1.0997490882873535,3.657983541488648,38.26200864460581,37.80085821008343,152.8123090530653,137.90386387487075,-0.0001618862152099,0.0945633500814437,0,0,0
12784,446496.67792848777,2010-11-06 18:25:51,1530.7836562812558,7,39,-1.099929690361023,3.6536126136779785,38.26200864460581,37.81002787997892,152.8123090530653,137.93738688869084,-0.0001295089750783,0.0945633500814437,0,0,0
12785,446526.6932684741,2010-11-06 18:26:21,1560.7989962676063,7,39,-1.0997490882873535,3.6492416858673096,38.26200864460581,37.81919751404254,152.8123090530653,137.97086977280978,-0.0001618862152099,0.0945633500814437,0,0,0
12786,446556.70862619975,2010-11-06 18:26:51,1590.814353998249,7,39,-1.0997490882873535,3.645194530487061,38.26200864460581,37.82836706754332,152.8123090530653,138.0043125736195,-9.713172767078504e-05,0.0945633500814437,0,0,0
12787,446586.7240273889,2010-11-06 18:27:21,1620.829755192384,7,39,-1.099929690361023,3.640823602676392,38.26200864460581,37.83753662484545,152.8123090530653,138.0377169338183,-9.713172767078504e-05,0.0945633500814437,0,0,0
12788,446616.739994245,2010-11-06 18:27:51,1650.8457221637857,7,39,-1.099568486213684,3.636938333511353,38.26200864460581,37.8467064433716,152.8123090530653,138.0710845636351,-9.713172767078504e-05,0.0945633500814437,0,0,0
12789,446646.754735136,2010-11-06 18:28:21,1680.860462929389,7,39,-1.0997490882873535,3.632891178131104,38.26200864460581,37.85587592178998,152.8123090530653,138.1044141970091,-9.713172767078504e-05,0.0945633500814437,0,0,0
12790,446676.7700927061,2010-11-06 18:28:51,1710.8758204996318,7,39,-1.099568486213684,3.629005908966065,38.26200864460581,37.865045607146406,152.8123090530653,138.13770862626592,-6.47544875391759e-05,0.0945633500814437,0,0,0
12791,446706.7856914133,2010-11-06 18:29:21,1740.8914192067891,7,39,-1.099929690361023,3.6251206398010254,38.26200864460581,37.87421532058979,152.8123090530653,138.1709677754903,-9.713172767078504e-05,0.0945633500814437,0,0,0
12792,446736.80094747513,2010-11-06 18:29:51,1770.9066752686515,7,39,-1.0997490882873535,3.6215591430664062,38.26200864460581,37.88338490209608,152.8123090530653,138.20419247111005,-9.713172767078504e-05,0.0945633500814437,0,0,0
12793,446766.81619193807,2010-11-06 18:30:21,1800.9219197315606,7,39,-1.099568486213684,3.618159532546997,38.26200864460581,37.89255449884745,152.8123090530653,138.23738364051906,-3.237724376958795e-05,0.0945633500814437,0,0,0
12794,446796.83154884167,2010-11-06 18:30:51,1830.9372766351391,7,39,-1.0997490882873535,3.614274263381958,38.26200864460581,37.90172415571706,152.8123090530653,138.27054202465862,-9.713172767078504e-05,0.0945633500814437,0,0,0
12795,446826.8468700862,2010-11-06 18:31:21,1860.9525978797071,7,39,-1.099929690361023,3.610874652862549,38.26200864460581,37.91089375287275,152.8123090530653,138.303668092584,-6.47544875391759e-05,0.0945633500814437,0,0,0
12796,446856.86238538014,2010-11-06 18:31:51,1890.968113173653,7,39,-1.0997490882873535,3.6076369285583496,38.26200864460581,37.92006353493944,152.8123090530653,138.33676370109785,-9.713172767078504e-05,0.0945633500814437,0,0,0
12797,446886.8777405093,2010-11-06 18:32:21,1920.9834683078143,7,39,-1.099929690361023,3.604237318038941,38.26200864460581,37.929233246874816,152.8123090530653,138.36982880458635,-6.47544875391759e-05,0.0945633500814437,0,0,0
12798,446916.8930844355,2010-11-06 18:32:51,1950.998812239012,7,39,-1.0997490882873535,3.601323366165161,38.26200864460581,37.938402911560274,152.8123090530653,138.4028645686006,-6.47544875391759e-05,0.0945633500814437,0,0,0
12799,446946.9084199508,2010-11-06 18:33:21,1981.014147754202,7,39,-1.099929690361023,3.597923755645752,38.26200864460581,37.94757257952691,152.8123090530653,138.43587168206972,-9.713172767078504e-05,0.0945633500814437,0,0,0
12800,446976.92389431247,2010-11-06 18:33:51,2011.029622115974,7,39,-1.099929690361023,3.5950098037719727,38.26200864460581,37.95674226392531,152.8123090530653,138.46885058636715,-6.47544875391759e-05,0.0945633500814437,0,0,0
12801,447006.9391374872,2010-11-06 18:34:21,2041.044865290668,7,39,-1.099929690361023,3.5919342041015625,38.26200864460581,37.96591191295311,152.8123090530653,138.50180186421963,-9.70840483205393e-05,0.0945633500814437,0,0,0
12802,447036.9544941852,2010-11-06 18:34:51,2071.060221973696,7,39,-1.0997490882873535,3.589182138442993,38.26200864460581,37.97508164596289,152.8123090530653,138.5347263841009,-6.47544875391759e-05,0.0945633500814437,0,0,0
12803,447066.9700047173,2010-11-06 18:35:22,2101.0757325107675,7,39,-1.099929690361023,3.586106300354004,38.26200864460581,37.98425137466746,152.8123090530653,138.56762419230168,-9.713172767078504e-05,0.0945633500814437,0,0,0
12804,447096.9852357466,2010-11-06 18:35:52,2131.090963535132,7,39,-1.0997490882873535,3.5833542346954346,38.26200864460581,37.99342104277223,152.8123090530653,138.600494955277,-3.237724376958795e-05,0.0945633500814437,0,0,0
12805,447127.00073897047,2010-11-06 18:36:22,2161.1064667639607,7,39,-1.099929690361023,3.5802783966064453,38.26200864460581,38.002590797838586,152.8123090530653,138.63333983132415,-9.713172767078504e-05,0.0945633500814437,0,0,0
12806,447157.0159630074,2010-11-06 18:36:52,2191.121690800884,7,39,-1.099929690361023,3.577526330947876,38.26200864460581,38.01176050490111,152.8123090530653,138.66615832417102,-6.47544875391759e-05,0.0945633500814437,0,0,0
12807,447187.031343565,2010-11-06 18:37:22,2221.1370713685315,7,39,-1.099929690361023,3.574774265289306,38.26200864460581,38.02093024642837,152.8123090530653,138.69895075167494,-6.47544875391759e-05,0.0945633500814437,0,0,0
12808,447217.0467343532,2010-11-06 18:37:52,2251.152462156691,7,39,-1.099929690361023,3.571860313415528,38.26200864460581,38.030099951641645,152.8123090530653,138.73171644764614,-9.713172767078504e-05,0.0945633500814437,0,0,0
12809,447247.0620725099,2010-11-06 18:38:22,2281.167800308462,7,39,-1.099929690361023,3.568946361541748,38.26200864460581,38.03926964904574,152.8123090530653,138.76445529118493,-6.47544875391759e-05,0.0945633500814437,0,0,0
12810,447277.0774638245,2010-11-06 18:38:52,2311.1831916129104,7,39,-1.0997490882873535,3.5660324096679688,38.26200864460581,38.04843936957011,152.8123090530653,138.79716698416922,-3.237724376958795e-05,0.0945633500814437,0,0,0
12811,447307.0927990238,2010-11-06 18:39:22,2341.1985268474,7,39,-1.0997490882873535,3.563118457794189,38.26200864460581,38.05760903577381,152.8123090530653,138.82985095982684,-3.237724376958795e-05,0.0945633500814437,0,0,0
12812,447337.1081876266,2010-11-06 18:39:52,2371.2139154450915,7,39,-1.0997490882873535,3.5598807334899902,38.26200864460581,38.06677860248819,152.8123090530653,138.86250694458673,-6.47544875391759e-05,0.0945633500814437,0,0,0
12813,447367.1235262896,2010-11-06 18:40:22,2401.2292540880894,7,39,-1.099929690361023,3.556481122970581,38.26200864460581,38.07594829439824,152.8123090530653,138.8951346622985,-9.713172767078504e-05,0.0945633500814437,0,0,0
12814,447397.1388997495,2010-11-06 18:40:52,2431.244627532957,7,39,-1.0997490882873535,3.553405284881592,38.26200864460581,38.08511792835756,152.8123090530653,138.92773277930058,-0.0001295089750783,0.0945633500814437,0,0,0
12815,447427.1545124616,2010-11-06 18:41:22,2461.2602402601105,7,39,-1.0997490882873535,3.5500056743621826,38.26200864460581,38.09428762543098,152.8123090530653,138.9603010856305,-9.713172767078504e-05,0.0945633500814437,0,0,0
12816,447457.16964192246,2010-11-06 18:41:52,2491.275369715945,7,39,-1.0997490882873535,3.5467679500579834,38.26200864460581,38.1034572181585,152.8123090530653,138.99283818712203,-6.47544875391759e-05,0.0945633500814437,0,0,0
12817,447487.1851271614,2010-11-06 18:42:22,2521.290854964893,7,39,-1.0997490882873535,3.5432064533233643,38.26200864460581,38.11262702992362,152.8123090530653,139.02534387564208,-6.47544875391759e-05,0.0945633500814437,0,0,0
12818,447517.200351464,2010-11-06 18:42:52,2551.3060792624665,7,39,-1.1001102924346924,3.5391592979431152,38.26200864460581,38.12179688576202,152.8123090530653,139.05781653238677,-0.0001295089750783,0.0945633500814437,0,0,0
12819,447547.21573768574,2010-11-06 18:43:22,2581.3214654792155,7,39,-1.0997490882873535,3.535597801208496,38.26200864460581,38.13096739386972,152.8123090530653,139.09025692278792,-0.0001295089750783,0.0945633500814437,0,0,0
12820,447577.2310997572,2010-11-06 18:43:52,2611.336827575756,7,39,-1.0997490882873535,3.531712532043457,38.26200864460581,38.14013764511411,152.8123090530653,139.12266069220394,-6.47544875391759e-05,0.0945633500814437,0,0,0
12821,447607.2464701746,2010-11-06 18:44:22,2641.352197993067,7,39,-1.0997490882873535,3.527665376663208,38.26200864460581,38.149307389094446,152.8123090530653,139.155026022218,-6.47544875391759e-05,0.0945633500814437,0,0,0
12822,447637.26183593017,2010-11-06 18:44:52,2671.3675637387173,7,39,-1.099929690361023,3.523294448852539,38.26200864460581,38.15847719263224,152.8123090530653,139.18735289591007,-6.47544875391759e-05,0.0945633500814437,0,0,0
12823,447667.2774050786,2010-11-06 18:45:22,2701.3831328971164,7,39,-1.099929690361023,3.51859974861145,38.26200864460581,38.16764697655351,152.8123090530653,139.21963932428037,-0.0001295089750783,0.0945633500814437,0,0,0
12824,447697.29258109065,2010-11-06 18:45:52,2731.398308884099,7,39,-1.099929690361023,3.5139050483703613,38.26200864460581,38.17681665353808,152.8123090530653,139.25188309815655,-0.0001295089750783,0.0945633500814437,0,0,0
12825,447727.3079336082,2010-11-06 18:46:22,2761.4136614017298,7,39,-1.0997490882873535,3.508886814117432,38.26200864460581,38.18598593502869,152.8123090530653,139.28408087299923,-0.0001618862152099,0.0945633500814437,0,0,0
12826,447757.3233111132,2010-11-06 18:46:52,2791.429038911745,7,39,-1.0997490882873535,3.503544569015503,38.26200864460581,38.1951550380042,152.8123090530653,139.31623020185168,-0.0001295089750783,0.0945633500814437,0,0,0
12827,447787.33869126486,2010-11-06 18:47:22,2821.444419058342,7,39,-1.0997490882873535,3.4973928928375244,38.26200864460581,38.20432455130133,152.8123090530653,139.34832872527625,-0.0001942634553415,0.0945633500814437,0,0,0
12828,447817.3540505144,2010-11-06 18:47:52,2851.4597783127883,7,39,-1.0997490882873535,3.490917444229126,38.26200864460581,38.21349436023622,152.8123090530653,139.38037016160987,-0.0001618862152099,0.0945633500814437,0,0,0
12829,447847.3694172474,2010-11-06 18:48:22,2881.4751450408908,7,39,-1.0997490882873535,3.483146905899048,38.26200864460581,38.222664142538726,152.8123090530653,139.41234601627323,-0.0002266406954731,0.0945633500814437,0,0,0
12830,447877.3848150932,2010-11-06 18:48:52,2911.49054289168,7,39,-1.0997490882873535,3.4742431640625,38.26200864460581,38.23183388151682,152.8123090530653,139.4442456625088,-0.0002913951757363,0.0945633500814437,0,0,0
12831,447907.4001665833,2010-11-06 18:49:22,2941.505894376733,7,39,-1.099929690361023,3.4637205600738525,38.26200864460581,38.241003625871215,152.8123090530653,139.47605623940944,-0.0002590179501567,0.0945633500814437,0,0,0
12832,447937.41563926585,2010-11-06 18:49:52,2971.521367059313,7,39,-1.099929690361023,3.4506077766418457,38.26200864460581,38.25017348247847,152.8123090530653,139.5077598961649,-0.0003885269106831,0.0945633500814437,0,0,0
12833,447967.4308972024,2010-11-06 18:50:22,3001.536624995855,7,39,-1.0997490882873535,3.434742927551269,38.26200864460581,38.259343251714135,152.8123090530653,139.53933120854362,-0.0004209041653666,0.0945633500814437,0,0,0
12834,447997.4462458754,2010-11-06 18:50:52,3031.551973668889,7,39,-1.099929690361023,3.413859844207764,38.26200864460581,38.26851301268516,152.8123090530653,139.57073580124464,-0.0006475448608398,0.0945633500814437,0,0,0
12835,448027.46162101446,2010-11-06 18:51:22,3061.567348807986,7,39,-1.099929690361023,3.3866629600524902,38.26200864460581,38.27768280746321,152.8123090530653,139.60192249349797,-0.0008094310760498,0.0945633500814437,0,0,0
12836,448057.4769770008,2010-11-06 18:51:52,3091.5827047992875,7,39,-1.0997490882873535,3.3487818241119385,38.26200864460581,38.28685263940193,152.8123090530653,139.63281361284558,-0.0011655330890789,0.0945633500814437,0,0,0
12837,448087.4923470071,2010-11-06 18:52:22,3121.59807480056,7,39,-1.099929690361023,3.296168804168701,38.26200864460581,38.29602247695127,152.8123090530653,139.6632942063603,-0.0016188621520996,0.0945633500814437,0,0,0
12838,448117.5103418354,2010-11-06 18:52:52,3151.6160697140167,7,39,-1.099929690361023,3.2212157249450684,38.26200864460581,38.30519308957231,152.8123090530653,139.6931991026393,-0.0023311614058911,0.0945633500814437,0,0,0
12839,448147.5233182918,2010-11-06 18:53:22,3181.6290460954456,7,39,-1.0997490882873535,3.109352827072144,38.26200864460581,38.31436223918958,152.8123090530653,139.72225996362027,-0.003593826200813,0.0945633500814437,0,0,0
12840,448176.413576877,2010-11-06 18:53:51,3210.5193046604795,7,39,-1.0997490882873535,2.90910005569458,38.26200864460581,38.32318840366507,152.8123090530653,139.74894855410173,-0.0080942632630467,0.0945633500814437,0,0,0
12841,448191.2730691608,2010-11-06 18:54:06,3225.378796954321,7,39,-1.0997490882873535,2.7088472843170166,38.26200864460581,38.32772803901594,152.8123090530653,139.76172542967717,-0.0118824485689401,0.0945633500814437,0,0,0
12842,448191.88210800046,2010-11-06 18:54:06,3225.987835798975,7,39,-1.099929690361023,2.699620008468628,38.26200864460581,38.32791410463708,152.8123090530653,139.76222858927957,-0.0119795324280858,0.0945633500814437,0,0,0
12843,448251.90386017406,2010-11-06 18:55:07,60.01521222281772,8,39,0.0,3.284512996673584,38.26200864460581,38.32791410463708,152.8123090530653,139.76222858927957,0.0012303352123126,0.0945633500814437,0,0,0
12844,448252.0826137476,2010-11-06 18:55:07,0.187394455390571,9,39,-1.9243103452026844e-05,3.284836769104004,38.26200864460581,38.32791410563876,152.8123090530653,139.76222859256995,0.0,0.0939245000481605,0,0,0
12845,448256.8953543435,2010-11-06 18:55:12,5.00013507640225,9,39,0.0001613661734154,3.292121648788452,38.262009357696336,38.32791410588885,152.8123113984677,139.76222859339205,0.0010360718006268,0.0939245000481605,0,0,0
