Data_Point,Test_Time(s),Date_Time,Step_Time(s),Step_Index,Cycle_Index,Current(A),Voltage(V),Charge_Capacity(Ah),Discharge_Capacity(Ah),Charge_Energy(Wh),Discharge_Energy(Wh),dV/dt(V/s),Internal_Resistance(Ohm),Is_FC_Data,AC_Impedance(Ohm),ACI_Phase_Angle(Deg)
4281,149411.48171158892,2010-11-03 07:53:55,30.01526044781011,1,14,0.0,3.372255086898804,12.74402399156392,12.801958012122553,50.91805900937107,46.67504269219049,0.0007446765666827,0.0931989923119545,0,0,0
4282,149441.49700984612,2010-11-03 07:54:25,60.03055870499824,1,14,0.0,3.395081043243408,12.74402399156392,12.801958012122553,50.91805900937107,46.67504269219049,0.0005504131549969,0.0931989923119545,0,0,0
4283,149471.51231213837,2010-11-03 07:54:55,90.04586101229609,1,14,0.0,3.412079095840454,12.74402399156392,12.801958012122553,50.91805900937107,46.67504269219049,0.0004209041653666,0.0931989923119545,0,0,0
4284,149501.4806477947,2010-11-03 07:55:25,120.01419664354484,1,14,0.0,3.4260013103485107,12.74402399156392,12.801958012122553,50.91805900937107,46.67504269219049,0.0003561496851034,0.0931989923119545,0,0,0
4285,149531.49657076172,2010-11-03 07:55:56,30.01539083327228,2,14,0.5499359965324402,3.5877251625061035,12.748610457559929,12.801958012122553,50.93434520098799,46.67504269219049,0.0016836166614666,0.0931989923119545,0,0,0
4286,149561.51171208217,2010-11-03 07:56:26,60.03053214870966,2,14,0.5501165986061096,3.6380715370178223,12.753196881234972,12.801958012122553,50.95092207806129,46.67504269219049,0.0011655807029455,0.0931989923119545,0,0,0
4287,149591.5275747833,2010-11-03 07:56:56,90.04639484983672,2,14,0.5501165986061096,3.6746575832366943,12.757783422619044,12.801958012122553,50.9676951915199,46.67504269219049,0.0009065151098184,0.0931989923119545,0,0,0
4288,149621.52924726342,2010-11-03 07:57:26,120.0480674152018,2,14,0.5499359965324402,3.7033114433288574,12.762367806483908,12.801958012122553,50.98460861664974,46.67504269219049,0.0007446765666827,0.0931989923119545,0,0,0
4289,149651.54192332525,2010-11-03 07:57:56,150.06074339177408,2,14,0.5501165986061096,3.726623058319092,12.766953900253508,12.801958012122553,51.00164722832261,46.67504269219049,0.0005827903514727,0.0931989923119545,0,0,0
4290,149681.5571803445,2010-11-03 07:58:26,180.07600041102597,2,14,0.5501165986061096,3.746049404144287,12.771540387507436,12.801958012122553,51.01878552317442,46.67504269219049,0.0004209041653666,0.0931989923119545,0,0,0
4291,149711.57246116814,2010-11-03 07:58:56,210.0912812397099,2,14,0.5499359965324402,3.761752128601074,12.776126860333369,12.801958012122553,51.03600460619123,46.67504269219049,0.0003561496851034,0.0931989923119545,0,0,0
4292,149741.5877491998,2010-11-03 07:59:26,240.1065692914236,2,14,0.550297200679779,3.7722747325897217,12.7807133376151,12.801958012122553,51.05328393716637,46.67504269219049,0.0002266406954731,0.0931989923119545,0,0,0
4293,149771.60323086483,2010-11-03 07:59:56,270.12205093136333,2,14,0.5501165986061096,3.7784264087677,12.785299856949662,12.801958012122553,51.07060081175547,46.67504269219049,0.0001295089750783,0.0931989923119545,0,0,0
4294,149801.61828050145,2010-11-03 08:00:26,300.1371005729687,2,14,0.5501165986061096,3.782797336578369,12.789886286020057,12.801958012122553,51.08794045375316,46.67504269219049,0.0001295089750783,0.0931989923119545,0,0,0
4295,149831.63353434775,2010-11-03 08:00:56,330.1523544393505,2,14,0.5499359965324402,3.786358833312988,12.794472732621,12.801958012122553,51.10529826694509,46.67504269219049,9.713172767078504e-05,0.0931989923119545,0,0,0
4296,149861.64881312128,2010-11-03 08:01:26,360.167633187842,2,14,0.5501165986061096,3.7900822162628174,12.79905918878244,12.801958012122553,51.12267305906428,46.67504269219049,9.713172767078504e-05,0.0931989923119545,0,0,0
4297,149891.66408881717,2010-11-03 08:01:56,390.1829088837136,2,14,0.5501165986061096,3.793643712997437,12.803645674052756,12.801958012122553,51.14006451061445,46.67504269219049,9.713172767078504e-05,0.0931989923119545,0,0,0
4298,149921.67935582637,2010-11-03 08:02:26,420.1981758929018,2,14,0.5501165986061096,3.797205209732056,12.80823220363994,12.801958012122553,51.15747237535183,46.67504269219049,9.713172767078504e-05,0.0931989923119545,0,0,0
4299,149951.6946544996,2010-11-03 08:02:56,450.2134745711412,2,14,0.550297200679779,3.800604820251465,12.812818705710892,12.801958012122553,51.17489608190464,46.67504269219049,9.713172767078504e-05,0.0931989923119545,0,0,0
4300,149981.7099180401,2010-11-03 08:03:26,480.22873810665857,2,14,0.5501165986061096,3.803842544555664,12.817405262183527,12.801958012122553,51.19233539242746,46.67504269219049,3.237724376958795e-05,0.0931989923119545,0,0,0
4301,150011.72530662778,2010-11-03 08:03:56,510.2441266943254,2,14,0.5501165986061096,3.8070802688598633,12.821991759177957,12.801958012122553,51.209789412154855,46.67504269219049,9.713172767078504e-05,0.0931989923119545,0,0,0
4302,150041.7404365548,2010-11-03 08:04:26,540.2592566213356,2,14,0.5501165986061096,3.8103179931640634,12.826578266499554,12.801958012122553,51.2272581717998,46.67504269219049,9.713172767078504e-05,0.0931989923119545,0,0,0
4303,150071.75583402463,2010-11-03 08:04:56,570.2746540961863,2,14,0.550297200679779,3.8135557174682617,12.831164830480242,12.801958012122553,51.24474157329692,46.67504269219049,6.47544875391759e-05,0.0931989923119545,0,0,0
4304,150101.77097855808,2010-11-03 08:05:26,600.2897986296563,2,14,0.5501165986061096,3.816631555557251,12.835751290156429,12.801958012122553,51.26223901438086,46.67504269219049,9.713172767078504e-05,0.0931989923119545,0,0,0
4305,150131.7864161581,2010-11-03 08:05:56,630.3052362246531,2,14,0.5501165986061096,3.8195455074310303,12.84033776542365,12.801958012122553,51.27975047620514,46.67504269219049,6.47544875391759e-05,0.0931989923119545,0,0,0
4306,150161.80154519287,2010-11-03 08:06:26,660.3203652594361,2,14,0.550297200679779,3.8224594593048096,12.844924290805285,12.801958012122553,51.29727602351573,46.67504269219049,6.47544875391759e-05,0.0931989923119545,0,0,0
4307,150191.81693134448,2010-11-03 08:06:56,690.3357514160347,2,14,0.5501165986061096,3.825697183609009,12.849510876672092,12.801958012122553,51.314815672222586,46.67504269219049,0.0001295089750783,0.0931989923119545,0,0,0
4308,150221.83206426897,2010-11-03 08:07:26,720.3508843355144,2,14,0.5499359965324402,3.828611135482788,12.854097345245975,12.801958012122553,51.33236894453908,46.67504269219049,3.237724376958795e-05,0.0931989923119545,0,0,0
4309,150251.84732875187,2010-11-03 08:07:56,750.3661488434592,2,14,0.550297200679779,3.832010746002197,12.85868382649718,12.801958012122553,51.349936645548446,46.67504269219049,0.0001295089750783,0.0931989923119545,0,0,0
4310,150281.86261453287,2010-11-03 08:08:26,780.3814346044551,2,14,0.5501165986061096,3.8352482318878174,12.863270317953445,12.801958012122553,51.36751896806406,46.67504269219049,9.713172767078504e-05,0.0931989923119545,0,0,0
4311,150311.87803965676,2010-11-03 08:08:56,810.3968597333344,2,14,0.5499359965324402,3.8384859561920166,12.867856867539658,12.801958012122553,51.38511654909045,46.67504269219049,9.713172767078504e-05,0.0931989923119545,0,0,0
4312,150341.89318331305,2010-11-03 08:09:26,840.4120033795899,2,14,0.550297200679779,3.841885566711426,12.872443341421352,12.801958012122553,51.40272911727177,46.67504269219049,9.713172767078504e-05,0.0931989923119545,0,0,0
4313,150371.90860508857,2010-11-03 08:09:56,870.4274251550987,2,14,0.5499359965324402,3.844961404800415,12.87702987161455,12.801958012122553,51.420357221483904,46.67504269219049,3.237724376958795e-05,0.0931989923119545,0,0,0
4314,150401.92385384216,2010-11-03 08:10:26,900.4426739087182,2,14,0.5501165986061096,3.848361015319824,12.881616418721984,12.801958012122553,51.43800072542853,46.67504269219049,6.47544875391759e-05,0.0931989923119545,0,0,0
4315,150431.93912679618,2010-11-03 08:10:56,930.4579468627458,2,14,0.550297200679779,3.8517606258392334,12.886202952652734,12.801958012122553,51.45565932413738,46.67504269219049,6.47544875391759e-05,0.0931989923119545,0,0,0
4316,150461.9544407626,2010-11-03 08:11:26,960.4732608391716,2,14,0.5501165986061096,3.854836463928223,12.890789540262375,12.801958012122553,51.47333307937435,46.67504269219049,6.47544875391759e-05,0.0931989923119545,0,0,0
4317,150491.96955643903,2010-11-03 08:11:56,990.4883765105976,2,14,0.550297200679779,3.858236074447632,12.895376068565264,12.801958012122553,51.49102145026651,46.67504269219049,9.713172767078504e-05,0.0931989923119545,0,0,0
4318,150521.98481424025,2010-11-03 08:12:26,1020.5036343067889,2,14,0.5501165986061096,3.861311912536621,12.89996261291053,12.801958012122553,51.50872431904679,46.67504269219049,9.713172767078504e-05,0.0931989923119545,0,0,0
4319,150552.0000881166,2010-11-03 08:12:56,1050.5189081831186,2,14,0.5501165986061096,3.8643877506256095,12.904549141565424,12.801958012122553,51.52644134185843,46.67504269219049,9.713172767078504e-05,0.0931989923119545,0,0,0
4320,150582.0153797472,2010-11-03 08:13:26,1080.534199813766,2,14,0.5501165986061096,3.8674635887146,12.909135625885856,12.801958012122553,51.54417200635962,46.67504269219049,0.0001295089750783,0.0931989923119545,0,0,0
4321,150612.03086237464,2010-11-03 08:13:56,1110.5496824461827,2,14,0.5501165986061096,3.870377540588379,12.913722145899028,12.801958012122553,51.5619162932956,46.67504269219049,9.713172767078504e-05,0.0931989923119545,0,0,0
4322,150642.0459013596,2010-11-03 08:14:26,1140.5647214512378,2,14,0.5501165986061096,3.8729677200317374,12.918308582549642,12.801958012122553,51.57967333548661,46.67504269219049,6.47544875391759e-05,0.0931989923119545,0,0,0
4323,150672.0611675618,2010-11-03 08:14:56,1170.5799876283493,2,14,0.5501165986061096,3.875719785690308,12.922895147516842,12.801958012122553,51.59744338337641,46.67504269219049,6.47544875391759e-05,0.0931989923119545,0,0,0
4324,150702.0764414732,2010-11-03 08:15:26,1200.5952615447793,2,14,0.5499359965324402,3.878309965133667,12.92748169138004,12.801958012122553,51.61522542669674,46.67504269219049,9.713172767078504e-05,0.0931989923119545,0,0,0
4325,150732.09193247152,2010-11-03 08:15:56,1230.6107525380662,2,14,0.5501165986061096,3.880738258361816,12.932068286403515,12.801958012122553,51.63301910899026,46.67504269219049,6.47544875391759e-05,0.0931989923119545,0,0,0
4326,150762.10702776708,2010-11-03 08:16:26,1260.6258479188436,2,14,0.5501165986061096,3.883166551589966,12.936654834619953,12.801958012122553,51.65082349681372,46.67504269219049,0.0001295089750783,0.0931989923119545,0,0,0
4327,150792.12228255076,2010-11-03 08:16:56,1290.641102642365,2,14,0.5499359965324402,3.885109186172485,12.941241385714244,12.801958012122553,51.668638085281664,46.67504269219049,3.237724376958795e-05,0.0931989923119545,0,0,0
4328,150822.13766404573,2010-11-03 08:17:26,1320.6564841573777,2,14,0.5501165986061096,3.887213706970215,12.945827924679616,12.801958012122553,51.68646222292177,46.67504269219049,3.237724376958795e-05,0.0931989923119545,0,0,0
4329,150852.15284169686,2010-11-03 08:17:56,1350.6716617934767,2,14,0.5501165986061096,3.8891563415527344,12.950414467813395,12.801958012122553,51.70429531476453,46.67504269219049,6.47544875391759e-05,0.0931989923119545,0,0,0
4330,150882.1680837387,2010-11-03 08:18:26,1380.6869038052678,2,14,0.5501165986061096,3.890937089920044,12.955001015627245,12.801958012122553,51.7221366980554,46.67504269219049,6.47544875391759e-05,0.0931989923119545,0,0,0
4331,150912.183345575,2010-11-03 08:18:56,1410.7021656415436,2,14,0.5501165986061096,3.8923940658569336,12.959587585638667,12.801958012122553,51.73998591702617,46.67504269219049,3.237724376958795e-05,0.0931989923119545,0,0,0
4332,150942.1987006891,2010-11-03 08:19:26,1440.7175208709434,2,14,0.5501165986061096,3.894012928009033,12.964174227519456,12.801958012122553,51.757842692500766,46.67504269219049,3.237724376958795e-05,0.0931989923119545,0,0,0
4333,150972.21393114206,2010-11-03 08:19:56,1470.7327512085938,2,14,0.5501165986061096,3.894984245300293,12.968760857450492,12.801958012122553,51.77570596636551,46.67504269219049,-3.237724376958795e-05,0.0931989923119545,0,0,0
4334,151002.22918701344,2010-11-03 08:20:26,1500.7480071050427,2,14,0.5501165986061096,3.8967649936676025,12.97334740108728,12.801958012122553,51.79357520884415,46.67504269219049,0.0,0.0931989923119545,0,0,0
4335,151032.24443800264,2010-11-03 08:20:56,1530.7632580691804,2,14,0.5501165986061096,3.898060083389282,12.977934020129348,12.801958012122553,51.8114509912946,46.67504269219049,3.237724376958795e-05,0.0931989923119545,0,0,0
4336,151062.2597068063,2010-11-03 08:21:26,1560.778526872848,2,14,0.5499359965324402,3.899355173110962,12.982520616671447,12.801958012122553,51.82933270346592,46.67504269219049,6.47544875391759e-05,0.0931989923119545,0,0,0
4337,151092.2750107828,2010-11-03 08:21:56,1590.793830849312,2,14,0.5501165986061096,3.900488376617432,12.987107214162467,12.801958012122553,51.84722023046768,46.67504269219049,3.237724376958795e-05,0.0931989923119545,0,0,0
4338,151122.2903753555,2010-11-03 08:22:26,1620.8091954270467,2,14,0.5499359965324402,3.9017834663391113,12.991693747546368,12.801958012122553,51.865113318705454,46.67504269219049,0.0,0.0931989923119545,0,0,0
4339,151152.3055221496,2010-11-03 08:22:56,1650.8243422211597,2,14,0.5501165986061096,3.903078556060791,12.996280296021148,12.801958012122553,51.883012192113405,46.67504269219049,-3.237724376958795e-05,0.0931989923119545,0,0,0
4340,151182.32082119377,2010-11-03 08:23:26,1680.8396412502746,2,14,0.5501165986061096,3.9042117595672607,13.000866835164588,12.801958012122553,51.90091678009112,46.67504269219049,0.0,0.0931989923119545,0,0,0
4341,151212.33609262898,2010-11-03 08:23:56,1710.854912695536,2,14,0.550297200679779,3.9056687355041504,13.005453437917687,12.801958012122553,51.91882730485078,46.67504269219049,6.47544875391759e-05,0.0931989923119545,0,0,0
4342,151242.35141900138,2010-11-03 08:24:26,1740.8702391531167,2,14,0.5501165986061096,3.90664005279541,13.010039972830096,12.801958012122553,51.93674329076884,46.67504269219049,0.0,0.0931989923119545,0,0,0
4343,151272.36661853714,2010-11-03 08:24:56,1770.885438628731,2,14,0.5499359965324402,3.9080970287323,13.014626525391147,12.801958012122553,51.95466511900714,46.67504269219049,6.47544875391759e-05,0.0931989923119545,0,0,0
4344,151302.38191724042,2010-11-03 08:25:26,1800.90073730697,2,14,0.5499359965324402,3.9092302322387695,13.019213037961444,12.801958012122553,51.97259259062975,46.67504269219049,0.0,0.0931989923119545,0,0,0
4345,151332.39716974844,2010-11-03 08:25:56,1830.915989814961,2,14,0.5501165986061096,3.910687208175659,13.023799546555589,12.801958012122553,51.99052591378289,46.67504269219049,3.237724376958795e-05,0.0931989923119545,0,0,0
4346,151362.41267963385,2010-11-03 08:26:26,1860.9314997104311,2,14,0.5501165986061096,3.911982297897339,13.02838608325152,12.801958012122553,52.0084652476781,46.67504269219049,6.47544875391759e-05,0.0931989923119545,0,0,0
4347,151392.4277024084,2010-11-03 08:26:56,1890.946522484972,2,14,0.550297200679779,3.913439273834229,13.032972595474684,12.801958012122553,52.02641042956003,46.67504269219049,3.237724376958795e-05,0.0931989923119545,0,0,0
4348,151422.44311996337,2010-11-03 08:27:26,1920.961940059996,2,14,0.5501165986061096,3.914572238922119,13.037559210039502,12.801958012122553,52.04436194760958,46.67504269219049,3.237724376958795e-05,0.0931989923119545,0,0,0
4349,151452.45838143877,2010-11-03 08:27:57,1950.977201515321,2,14,0.5501165986061096,3.915867328643799,13.042145748159925,12.801958012122553,52.06231915491958,46.67504269219049,6.47544875391759e-05,0.0931989923119545,0,0,0
4350,151482.47351511513,2010-11-03 08:28:27,1980.9923351816649,2,14,0.5499359965324402,3.917000532150269,13.046732184217666,12.801958012122553,52.0802819534433,46.67504269219049,0.0,0.0931989923119545,0,0,0
4351,151512.4889139584,2010-11-03 08:28:57,2011.0077340349565,2,14,0.5501165986061096,3.918457508087158,13.051318606602496,12.801958012122553,52.098250836355575,46.67504269219049,6.47544875391759e-05,0.0931989923119545,0,0,0
4352,151542.50467021382,2010-11-03 08:29:27,2041.0234902803536,2,14,0.5499359965324402,3.919914484024048,13.055905099612632,12.801958012122553,52.11622619794905,46.67504269219049,3.237724376958795e-05,0.0931989923119545,0,0,0
4353,151572.50635332047,2010-11-03 08:29:57,2071.025173472244,2,14,0.5499359965324402,3.9210476875305176,13.060489499907462,12.801958012122553,52.134199512901176,46.67504269219049,0.0,0.0931989923119545,0,0,0
4354,151602.5190017984,2010-11-03 08:30:27,2101.0378218699752,2,14,0.550297200679779,3.922666549682617,13.065075600588628,12.801958012122553,52.15218582567427,46.67504269219049,6.47544875391759e-05,0.0931989923119545,0,0,0
4355,151632.5342584317,2010-11-03 08:30:57,2131.053078498251,2,14,0.5501165986061096,3.924123525619507,13.06966211994516,12.801958012122553,52.17018008147089,46.67504269219049,6.47544875391759e-05,0.0931989923119545,0,0,0
4356,151662.54952968648,2010-11-03 08:31:27,2161.0683497530376,2,14,0.5501165986061096,3.9254186153411865,13.074248579973013,12.801958012122553,52.1881805097158,46.67504269219049,3.237724376958795e-05,0.0931989923119545,0,0,0
4357,151692.56480895125,2010-11-03 08:31:57,2191.0836290228303,2,14,0.5499359965324402,3.926875591278076,13.078835039900804,12.801958012122553,52.206187256335525,46.67504269219049,6.47544875391759e-05,0.0931989923119545,0,0,0
4358,151722.58025740337,2010-11-03 08:32:27,2221.09907747994,2,14,0.550297200679779,3.928332567214966,13.083421468067218,12.801958012122553,52.22420043134931,46.67504269219049,3.237724376958795e-05,0.0931989923119545,0,0,0
4359,151752.59543467854,2010-11-03 08:32:57,2251.1142547451136,2,14,0.5499359965324402,3.9296276569366455,13.088007844640693,12.801958012122553,52.24222000233316,46.67504269219049,3.237724376958795e-05,0.0931989923119545,0,0,0
4360,151782.61078537666,2010-11-03 08:33:27,2281.129605453228,2,14,0.5501165986061096,3.930922746658325,13.092594305486564,12.801958012122553,52.26024664814516,46.67504269219049,0.0,0.0931989923119545,0,0,0
4361,151812.62591412573,2010-11-03 08:33:57,2311.144734202297,2,14,0.5501165986061096,3.9327034950256343,13.097180754466407,12.801958012122553,52.27827984245977,46.67504269219049,6.47544875391759e-05,0.0931989923119545,0,0,0
4362,151842.64119765616,2010-11-03 08:34:27,2341.160017727713,2,14,0.550297200679779,3.9339985847473145,13.101767277241713,12.801958012122553,52.29632008740127,46.67504269219049,3.237724376958795e-05,0.0931989923119545,0,0,0
4363,151872.65645755758,2010-11-03 08:34:57,2371.1752776241465,2,14,0.5501165986061096,3.935617446899414,13.10635384249154,12.801958012122553,52.31436730734398,46.67504269219049,6.47544875391759e-05,0.0931989923119545,0,0,0
4364,151902.67184664152,2010-11-03 08:35:27,2401.190666708052,2,14,0.5499359965324402,3.937074422836304,13.110940406723506,12.801958012122553,52.332421249820456,46.67504269219049,6.47544875391759e-05,0.0931989923119545,0,0,0
4365,151932.68699164613,2010-11-03 08:35:57,2431.2058117227234,2,14,0.5499359965324402,3.938531398773194,13.115526867482329,12.801958012122553,52.35048179666137,46.67504269219049,3.237724376958795e-05,0.0931989923119545,0,0,0
4366,151962.7024148803,2010-11-03 08:36:27,2461.221234946848,2,14,0.5499359965324402,3.939988374710083,13.12011341129663,12.801958012122553,52.36854965388333,46.67504269219049,3.237724376958795e-05,0.0931989923119545,0,0,0
4367,151992.71755206044,2010-11-03 08:36:57,2491.236372126963,2,14,0.5501165986061096,3.941607236862183,13.124699813768682,12.801958012122553,52.386623962485366,46.67504269219049,6.47544875391759e-05,0.0931989923119545,0,0,0
4368,152022.7329310792,2010-11-03 08:37:27,2521.2517511457445,2,14,0.5499359965324402,3.943226099014282,13.129286204220175,12.801958012122553,52.404705313789634,46.67504269219049,3.237724376958795e-05,0.0931989923119545,0,0,0
4369,152052.74807547734,2010-11-03 08:37:57,2551.266895543877,2,14,0.5501165986061096,3.944844961166382,13.13387259121599,12.801958012122553,52.422793838591225,46.67504269219049,6.47544875391759e-05,0.0931989923119545,0,0,0
4370,152082.7634846564,2010-11-03 08:38:27,2581.282304722943,2,14,0.5501165986061096,3.946301937103272,13.13845900874543,12.801958012122553,52.44088976226414,46.67504269219049,3.237724376958795e-05,0.0931989923119545,0,0,0
4371,152112.77853627794,2010-11-03 08:38:57,2611.297356369553,2,14,0.550297200679779,3.947920799255371,13.143045402290422,12.801958012122553,52.458992735210096,46.67504269219049,3.237724376958795e-05,0.0931989923119545,0,0,0
4372,152142.7938613571,2010-11-03 08:39:27,2641.3126814236307,2,14,0.550297200679779,3.949539661407471,13.147632645198952,12.801958012122553,52.47710646077418,46.67504269219049,3.237724376958795e-05,0.0931989923119545,0,0,0
4373,152172.8085178373,2010-11-03 08:39:57,2671.3273378938197,2,14,0.5501165986061096,3.9511585235595694,13.152215099289196,12.801958012122553,52.49520864095274,46.67504269219049,3.237724376958795e-05,0.0931989923119545,0,0,0
4374,152202.80879217247,2010-11-03 08:40:27,2701.327612239012,2,14,0.550297200679779,3.95277738571167,13.15680470270828,12.801958012122553,52.5133464699819,46.67504269219049,6.47544875391759e-05,0.0931989923119545,0,0,0
4375,152232.82407423927,2010-11-03 08:40:57,2731.3428943057866,2,14,0.5501165986061096,3.9543962478637695,13.161392027548274,12.801958012122553,52.53148283125413,46.67504269219049,3.237724376958795e-05,0.0931989923119545,0,0,0
4376,152262.83935511805,2010-11-03 08:41:27,2761.358175189608,2,14,0.5501165986061096,3.956015110015869,13.165979294354456,12.801958012122553,52.54962655279098,46.67504269219049,3.237724376958795e-05,0.0931989923119545,0,0,0
4377,152292.8546083779,2010-11-03 08:41:57,2791.373428444463,2,14,0.550297200679779,3.9577958583831783,13.170566597836286,12.801958012122553,52.567777989028855,46.67504269219049,6.47544875391759e-05,0.0931989923119545,0,0,0
4378,152322.8698918131,2010-11-03 08:42:27,2821.3887118846656,2,14,0.5501165986061096,3.959576606750488,13.175153304922455,12.801958012122553,52.58593473068132,46.67504269219049,9.713172767078504e-05,0.0931989923119545,0,0,0
4379,152352.88517811545,2010-11-03 08:42:57,2851.4039981820006,2,14,0.550297200679779,3.961195468902588,13.179739900676212,12.801958012122553,52.60409877345237,46.67504269219049,6.47544875391759e-05,0.0931989923119545,0,0,0
4380,152382.90059431706,2010-11-03 08:43:27,2881.419414388609,2,14,0.5501165986061096,3.9629762172698975,13.18432655625094,12.801958012122553,52.62227091714722,46.67504269219049,9.713172767078504e-05,0.0931989923119545,0,0,0
4381,152412.915698174,2010-11-03 08:43:57,2911.434518245544,2,14,0.5499359965324402,3.964433193206787,13.18891319136605,12.801958012122553,52.64045092728638,46.67504269219049,3.237724376958795e-05,0.0931989923119545,0,0,0
4382,152442.93100219057,2010-11-03 08:44:27,2941.4498222570955,2,14,0.5501165986061096,3.966375827789306,13.193499821709729,12.801958012122553,52.65863886329818,46.67504269219049,3.237724376958795e-05,0.0931989923119545,0,0,0
4383,152472.94625189656,2010-11-03 08:44:57,2971.465071963092,2,14,0.550297200679779,3.968156576156616,13.198086461689275,12.801958012122553,52.676834839503485,46.67504269219049,9.713172767078504e-05,0.0931989923119545,0,0,0
4384,152502.96151110626,2010-11-03 08:45:27,3001.4803311778246,2,14,0.5501165986061096,3.969775438308716,13.202673014690369,12.801958012122553,52.69503851149552,46.67504269219049,0.0,0.0931989923119545,0,0,0
4385,152532.97680381458,2010-11-03 08:45:57,3031.4956238811496,2,14,0.550297200679779,3.9717180728912354,13.207259584122784,12.801958012122553,52.713250381499314,46.67504269219049,6.47544875391759e-05,0.0931989923119545,0,0,0
4386,152562.99207197665,2010-11-03 08:46:27,3061.510892043216,2,14,0.5499359965324402,3.973498821258545,13.211846256897845,12.801958012122553,52.73147095911614,46.67504269219049,6.47544875391759e-05,0.0931989923119545,0,0,0
4387,152593.00744090526,2010-11-03 08:46:57,3091.526261001886,2,14,0.5501165986061096,3.975117683410645,13.216432830348444,12.801958012122553,52.74969940501485,46.67504269219049,3.237724376958795e-05,0.0931989923119545,0,0,0
4388,152623.02256060674,2010-11-03 08:47:27,3121.541380673296,2,14,0.550297200679779,3.977060317993164,13.221018627774642,12.801958012122553,52.7679330702029,46.67504269219049,6.47544875391759e-05,0.0931989923119545,0,0,0
4389,152653.03774328544,2010-11-03 08:47:57,3151.556563377045,2,14,0.5501165986061096,3.979002952575684,13.225604510733746,12.801958012122553,52.78617511334539,46.67504269219049,9.713172767078504e-05,0.0931989923119545,0,0,0
4390,152683.05324236891,2010-11-03 08:48:27,3181.572062435464,2,14,0.5499359965324402,3.980621814727783,13.230190411274314,12.801958012122553,52.804426331033405,46.67504269219049,0.0,0.0931989923119545,0,0,0
4391,152713.06863736256,2010-11-03 08:48:57,3211.5874575444086,2,14,0.5501165986061096,3.9827263355255127,13.234776073863712,12.801958012122553,52.82268524861854,46.67504269219049,6.47544875391759e-05,0.0931989923119545,0,0,0
4392,152743.08379425693,2010-11-03 08:49:27,3241.6026143284585,2,14,0.5501165986061096,3.984668970108032,13.239361770165722,12.801958012122553,52.84095291138466,46.67504269219049,6.47544875391759e-05,0.0931989923119545,0,0,0
4393,152773.098971096,2010-11-03 08:49:57,3271.6177911575437,2,14,0.5499359965324402,3.986449718475342,13.243947483203865,12.801958012122553,52.85922946217055,46.67504269219049,3.237724376958795e-05,0.0931989923119545,0,0,0
4394,152803.11424294728,2010-11-03 08:50:27,3301.633063013831,2,14,0.5499359965324402,3.988392353057861,13.248533969761882,12.801958012122553,52.87751808372808,46.67504269219049,6.47544875391759e-05,0.0931989923119545,0,0,0
4395,152833.12950533495,2010-11-03 08:50:57,3331.648325421533,2,14,0.5501165986061096,3.990334987640381,13.253120548579648,12.801958012122553,52.8958160165492,46.67504269219049,3.237724376958795e-05,0.0931989923119545,0,0,0
4396,152863.1447509858,2010-11-03 08:51:27,3361.663571047345,2,14,0.5501165986061096,3.99260139465332,13.257707100723898,12.801958012122553,52.914122856000766,46.67504269219049,9.713172767078504e-05,0.0931989923119545,0,0,0
4397,152893.16010805982,2010-11-03 08:51:57,3391.6789282416494,2,14,0.5501165986061096,3.994381904602051,13.2622937339269,12.801958012122553,52.93243914070478,46.67504269219049,6.47544875391759e-05,0.0931989923119545,0,0,0
4398,152923.175410327,2010-11-03 08:52:27,3421.6942304186214,2,14,0.5499359965324402,3.99648642539978,13.26688030048393,12.801958012122553,52.95076439861379,46.67504269219049,3.237724376958795e-05,0.0931989923119545,0,0,0
4399,152953.19059334154,2010-11-03 08:52:57,3451.7094134030717,2,14,0.5501165986061096,3.9984290599823,13.271466832474909,12.801958012122553,52.96909896140877,46.67504269219049,6.47544875391759e-05,0.0931989923119545,0,0,0
4400,152983.20599029007,2010-11-03 08:53:27,3481.724810361633,2,14,0.5501165986061096,4.000695705413818,13.276053454216742,12.801958012122553,52.98744326263091,46.67504269219049,9.71794142969884e-05,0.0931989923119545,0,0,0
4401,153013.22110798155,2010-11-03 08:53:57,3511.739928048089,2,14,0.5501165986061096,4.002638339996338,13.280639946493247,12.801958012122553,53.00579675514414,46.67504269219049,6.47544875391759e-05,0.0931989923119545,0,0,0
4402,153043.23638430898,2010-11-03 08:54:27,3541.755204370525,2,14,0.5501165986061096,4.004742622375488,13.285226498189488,12.801958012122553,53.024160229577134,46.67504269219049,0.0,0.0931989923119545,0,0,0
4403,153073.25168909246,2010-11-03 08:54:57,3571.770509159016,2,14,0.5501165986061096,4.007009029388428,13.289813096597728,12.801958012122553,53.04253378794007,46.67504269219049,6.47544875391759e-05,0.0931989923119545,0,0,0
4404,153103.26721442648,2010-11-03 08:55:27,3601.7860344880105,2,14,0.5501165986061096,4.009113788604736,13.294399732035888,12.801958012122553,53.06091742749943,46.67504269219049,3.24249267578125e-05,0.0931989923119545,0,0,0
4405,153133.2821926398,2010-11-03 08:55:57,3631.8010127063326,2,14,0.550297200679779,4.011380195617676,13.29898619442473,12.801958012122553,53.07931030884932,46.67504269219049,6.47544875391759e-05,0.0931989923119545,0,0,0
4406,153163.2975956234,2010-11-03 08:56:27,3661.816415689934,2,14,0.5501165986061096,4.013484477996826,13.303572873232897,12.801958012122553,53.09771417283854,46.67504269219049,3.23295607813634e-05,0.0931989923119545,0,0,0
4407,153193.31276171567,2010-11-03 08:56:57,3691.8315817822186,2,14,0.5501165986061096,4.015750885009766,13.308159447904538,12.801958012122553,53.116127825012,46.67504269219049,0.0,0.0931989923119545,0,0,0
4408,153223.32801450437,2010-11-03 08:57:27,3721.84683457091,2,14,0.5501165986061096,4.018179416656494,13.312746087872288,12.801958012122553,53.13455206470957,46.67504269219049,6.47544875391759e-05,0.0931989923119545,0,0,0
4409,153253.34329433556,2010-11-03 08:57:57,3751.862114392078,2,14,0.5501165986061096,4.020445823669434,13.317332770299016,12.801958012122553,53.15298681852059,46.67504269219049,6.47544875391759e-05,0.0931989923119545,0,0,0
4410,153283.35871189556,2010-11-03 08:58:27,3781.877531967102,2,14,0.5501165986061096,4.022550106048584,13.32191936322432,12.801958012122553,53.17143187105849,46.67504269219049,6.47544875391759e-05,0.0931989923119545,0,0,0
4411,153313.37385559193,2010-11-03 08:58:57,3811.8926756634833,2,14,0.5499359965324402,4.024816513061523,13.326505948434034,12.801958012122553,53.18988756562169,46.67504269219049,3.23295607813634e-05,0.0931989923119545,0,0,0
4412,153343.3892372573,2010-11-03 08:59:27,3841.9080573338833,2,14,0.550297200679779,4.027406692504883,13.331092527533093,12.801958012122553,53.208354075046735,46.67504269219049,6.47544875391759e-05,0.0931989923119545,0,0,0
4413,153373.4043443423,2010-11-03 08:59:57,3871.9231644088513,2,14,0.5499359965324402,4.029673099517822,13.335679155953514,12.801958012122553,53.22683160041761,46.67504269219049,3.23295607813634e-05,0.0931989923119545,0,0,0
4414,153403.4196329905,2010-11-03 09:00:27,3901.9384530620655,2,14,0.550297200679779,4.032101631164551,13.34026576060668,12.801958012122553,53.24531974889969,46.67504269219049,6.47544875391759e-05,0.0931989923119545,0,0,0
4415,153433.43490321274,2010-11-03 09:00:58,3931.953723289288,2,14,0.5501165986061096,4.034367561340332,13.34485236131656,12.801958012122553,53.26381880227791,46.67504269219049,6.46591215627268e-05,0.0931989923119545,0,0,0
4416,153463.45015396635,2010-11-03 09:01:28,3961.968974032874,2,14,0.5499359965324402,4.036957740783691,13.349438985276665,12.801958012122553,53.28232890171935,46.67504269219049,9.70840483205393e-05,0.0931989923119545,0,0,0
4417,153493.46543109577,2010-11-03 09:01:58,3991.9842511522993,2,14,0.5499359965324402,4.03938627243042,13.354025622821052,12.801958012122553,53.3008502101175,46.67504269219049,6.47544875391759e-05,0.0931989923119545,0,0,0
4418,153523.48166166013,2010-11-03 09:02:28,4022.000481726696,2,14,0.550297200679779,4.04181432723999,13.3586124167103,12.801958012122553,53.31938330091644,46.67504269219049,6.47544875391759e-05,0.0931989923119545,0,0,0
4419,153553.4960327229,2010-11-03 09:02:58,4052.014852874676,2,14,0.5501165986061096,4.044242858886719,13.363198871846272,12.801958012122553,53.33792646995728,46.67504269219049,6.47544875391759e-05,0.0931989923119545,0,0,0
4420,153583.51125031375,2010-11-03 09:03:28,4082.030070370271,2,14,0.5501165986061096,4.046833038330078,13.36778551452114,12.801958012122553,53.35648194055887,46.67504269219049,9.71794142969884e-05,0.0931989923119545,0,0,0
4421,153613.52653379404,2010-11-03 09:03:58,4112.045353860598,2,14,0.5499359965324402,4.049261093139648,13.372372129539231,12.801958012122553,53.37504899385515,46.67504269219049,3.23295607813634e-05,0.0931989923119545,0,0,0
4422,153643.5417864023,2010-11-03 09:04:28,4142.060606463827,2,14,0.5501165986061096,4.051851272583008,13.376958780255922,12.801958012122553,53.39362790387082,46.67504269219049,6.47544875391759e-05,0.0931989923119545,0,0,0
4423,153673.55726451843,2010-11-03 09:04:58,4172.076084610046,2,14,0.5501165986061096,4.054603576660156,13.381545436340025,12.801958012122553,53.41221867575159,46.67504269219049,9.71794142969884e-05,0.0931989923119545,0,0,0
4424,153703.57234893186,2010-11-03 09:05:28,4202.091168998385,2,14,0.5501165986061096,4.057031631469727,13.386132091805052,12.801958012122553,53.43082134992456,46.67504269219049,6.47544875391759e-05,0.0931989923119545,0,0,0
4425,153733.5876013446,2010-11-03 09:05:58,4232.106421406125,2,14,0.550297200679779,4.059783935546875,13.390718718031508,12.801958012122553,53.44943594190815,46.67504269219049,9.71794142969884e-05,0.0931989923119545,0,0,0
4426,153763.60288112567,2010-11-03 09:06:28,4262.121701197219,2,14,0.5501165986061096,4.062374114990234,13.39530538466974,12.801958012122553,53.46806243919676,46.67504269219049,6.47544875391759e-05,0.0931989923119545,0,0,0
4427,153793.6182136534,2010-11-03 09:06:58,4292.13703371994,2,14,0.5501165986061096,4.065125942230225,13.399891979910583,12.801958012122553,53.48670094633371,46.67504269219049,9.70840483205393e-05,0.0931989923119545,0,0,0
4428,153823.63343278808,2010-11-03 09:07:28,4322.15225286465,2,14,0.5499359965324402,4.067716121673584,13.404478595060672,12.801958012122553,53.50535203677243,46.67504269219049,6.47544875391759e-05,0.0931989923119545,0,0,0
4429,153853.6486820179,2010-11-03 09:07:58,4352.167502084434,2,14,0.5501165986061096,4.070630073547363,13.409065229650675,12.801958012122553,53.52401577527085,46.67504269219049,6.47544875391759e-05,0.0931989923119545,0,0,0
4430,153883.66408132733,2010-11-03 09:08:28,4382.182901393864,2,14,0.550297200679779,4.073382377624512,13.413651856554775,12.801958012122553,53.54269200390985,46.67504269219049,6.47544875391759e-05,0.0931989923119545,0,0,0
4431,153913.67924206622,2010-11-03 09:08:58,4412.198062127773,2,14,0.5501165986061096,4.075972557067871,13.418238457557012,12.801958012122553,53.56138077475401,46.67504269219049,3.24249267578125e-05,0.0931989923119545,0,0,0
4432,153943.69450095517,2010-11-03 09:09:28,4442.213321021704,2,14,0.550297200679779,4.07888650894165,13.422825077466678,12.801958012122553,53.58008235174104,46.67504269219049,6.47544875391759e-05,0.0931989923119545,0,0,0
4433,153973.7097685909,2010-11-03 09:09:58,4472.228588657456,2,14,0.5499359965324402,4.08147668838501,13.427411723478937,12.801958012122553,53.598796865143306,46.67504269219049,3.24249267578125e-05,0.0931989923119545,0,0,0
4434,154003.7250516301,2010-11-03 09:10:28,4502.243871691646,2,14,0.550297200679779,4.08455228805542,13.431998362467548,12.801958012122553,53.61752422997264,46.67504269219049,9.70840483205393e-05,0.0931989923119545,0,0,0
4435,154033.74033206783,2010-11-03 09:10:58,4532.259152129354,2,14,0.5499359965324402,4.087304592132568,13.436585012646573,12.801958012122553,53.63626478947912,46.67504269219049,9.71794142969884e-05,0.0931989923119545,0,0,0
4436,154063.75564539764,2010-11-03 09:11:28,4562.274465579466,2,14,0.5501165986061096,4.090218544006348,13.44117164378674,12.801958012122553,53.65501844600811,46.67504269219049,6.47544875391759e-05,0.0931989923119545,0,0,0
4437,154093.77101526357,2010-11-03 09:11:58,4592.289835440388,2,14,0.5501165986061096,4.093132495880127,13.445758276585533,12.801958012122553,53.67378545846376,46.67504269219049,6.47544875391759e-05,0.0931989923119545,0,0,0
4438,154123.7861231957,2010-11-03 09:12:28,4622.30494326222,2,14,0.5501165986061096,4.096046447753906,13.45034485701358,12.801958012122553,53.69256580725254,46.67504269219049,6.47544875391759e-05,0.0931989923119545,0,0,0
4439,154153.80153129707,2010-11-03 09:12:58,4652.320351353571,2,14,0.5501165986061096,4.099122047424316,13.4549314803793,12.801958012122553,53.71135995525304,46.67504269219049,9.70840483205393e-05,0.0931989923119545,0,0,0
4440,154183.81666731427,2010-11-03 09:13:28,4682.335487370783,2,14,0.5499359965324402,4.101874351501465,13.459518094697556,12.801958012122553,53.73016779961269,46.67504269219049,6.47544875391759e-05,0.0931989923119545,0,0,0
4441,154213.83195807273,2010-11-03 09:13:58,4712.35077814429,2,14,0.5501165986061096,4.105273723602295,13.464104660678228,12.801958012122553,53.74898912158103,46.67504269219049,0.0001295089750783,0.0931989923119545,0,0,0
4442,154243.84723682122,2010-11-03 09:14:28,4742.36605688777,2,14,0.5499359965324402,4.108026027679443,13.4686912529569,12.801958012122553,53.767824560975455,46.67504269219049,6.47544875391759e-05,0.0931989923119545,0,0,0
4443,154273.86249173022,2010-11-03 09:14:58,4772.381311796755,2,14,0.5501165986061096,4.111263751983643,13.47327783228805,12.801958012122553,53.78667404234353,46.67504269219049,6.47544875391759e-05,0.0931989923119545,0,0,0
4444,154303.87788931534,2010-11-03 09:15:28,4802.39670938188,2,14,0.550297200679779,4.114501476287842,13.47786452936521,12.801958012122553,53.8055382090863,46.67504269219049,0.0001295089750783,0.0931989923119545,0,0,0
4445,154333.89302704684,2010-11-03 09:15:58,4832.411847108358,2,14,0.5501165986061096,4.117577075958252,13.482451100609111,12.801958012122553,53.82441619456237,46.67504269219049,9.71794142969884e-05,0.0931989923119545,0,0,0
4446,154363.90832708348,2010-11-03 09:16:28,4862.4271471500015,2,14,0.5501165986061096,4.120814800262451,13.487037747428404,12.801958012122553,53.84330892715337,46.67504269219049,9.71794142969884e-05,0.0931989923119545,0,0,0
4447,154393.92358252878,2010-11-03 09:16:58,4892.442402595325,2,14,0.5499359965324402,4.123728752136231,13.49162439969315,12.801958012122553,53.86221614280497,46.67504269219049,6.47544875391759e-05,0.0931989923119545,0,0,0
4448,154423.93885298158,2010-11-03 09:17:28,4922.4576730481085,2,14,0.5501165986061096,4.126804351806641,13.496211009354504,12.801958012122553,53.88113774583308,46.67504269219049,3.23295607813634e-05,0.0931989923119545,0,0,0
4449,154453.9541258604,2010-11-03 09:17:58,4952.472945916924,2,14,0.550297200679779,4.13036584854126,13.500797654003764,12.801958012122553,53.90007425262149,46.67504269219049,9.70840483205393e-05,0.0931989923119545,0,0,0
4450,154483.9693796516,2010-11-03 09:18:28,4982.488199718143,2,14,0.550297200679779,4.133441925048828,13.505384308549134,12.801958012122553,53.91902567402085,46.67504269219049,6.47544875391759e-05,0.0931989923119545,0,0,0
4451,154513.9848913666,2010-11-03 09:18:58,5012.503711433154,2,14,0.5499359965324402,4.136679649353027,13.509971007929533,12.801958012122553,53.93799224064582,46.67504269219049,6.47544875391759e-05,0.0931989923119545,0,0,0
4452,154543.99996949433,2010-11-03 09:19:28,5042.518789560866,2,14,0.550297200679779,4.140079021453857,13.514557638055834,12.801958012122553,53.95697359159424,46.67504269219049,6.47544875391759e-05,0.0931989923119545,0,0,0
4453,154574.01519470918,2010-11-03 09:19:58,5072.534014770717,2,14,0.5501165986061096,4.143478870391846,13.519144355030052,12.801958012122553,53.97597059572864,46.67504269219049,9.71794142969884e-05,0.0931989923119545,0,0,0
4454,154604.03048108672,2010-11-03 09:20:28,5102.549301168301,2,14,0.550297200679779,4.146878242492676,13.523730940648475,12.801958012122553,53.994982569392505,46.67504269219049,9.70840483205393e-05,0.0931989923119545,0,0,0
4455,154634.04596384446,2010-11-03 09:20:58,5132.564783910993,2,14,0.5501165986061096,4.150278091430664,13.528317544870612,12.801958012122553,54.01401019190876,46.67504269219049,0.0001295089750783,0.0931989923119545,0,0,0
4456,154664.06104382678,2010-11-03 09:21:28,5162.579863908371,2,14,0.5499359965324402,4.153515815734863,13.532904163166991,12.801958012122553,54.03305356351907,46.67504269219049,6.47544875391759e-05,0.0931989923119545,0,0,0
4457,154694.07629068068,2010-11-03 09:21:58,5192.595110747212,2,14,0.5499359965324402,4.157077312469482,13.53749075305271,12.801958012122553,54.05211242896701,46.67504269219049,9.71794142969884e-05,0.0931989923119545,0,0,0
4458,154724.0917378195,2010-11-03 09:22:28,5222.610557901068,2,14,0.5501165986061096,4.1604766845703125,13.54207741301731,12.801958012122553,54.07118751625058,46.67504269219049,6.47544875391759e-05,0.0931989923119545,0,0,0
4459,154754.10684455358,2010-11-03 09:22:58,5252.625664620148,2,14,0.5501165986061096,4.164038181304932,13.54666402329225,12.801958012122553,54.09027838802661,46.67504269219049,9.70840483205393e-05,0.0931989923119545,0,0,0
4460,154784.12223767256,2010-11-03 09:23:28,5282.641057729101,2,14,0.550297200679779,4.16743803024292,13.55125063341358,12.801958012122553,54.10938508339231,46.67504269219049,9.71794142969884e-05,0.0931989923119545,0,0,0
4461,154814.13744102788,2010-11-03 09:23:58,5312.656261094424,2,14,0.5501165986061096,4.170999526977539,13.55583726760204,12.801958012122553,54.12850801352352,46.67504269219049,9.71794142969884e-05,0.0931989923119545,0,0,0
4462,154844.15264515008,2010-11-03 09:24:28,5342.6714652166365,2,14,0.550297200679779,4.174722671508789,13.560423869219337,12.801958012122553,54.14764708227744,46.67504269219049,0.0001295089750783,0.0931989923119545,0,0,0
4463,154874.1679339687,2010-11-03 09:24:58,5372.686754035265,2,14,0.5501165986061096,4.178122520446777,13.565010499325902,12.801958012122553,54.16680255025966,46.67504269219049,6.47544875391759e-05,0.0931989923119545,0,0,0
4464,154904.1831967223,2010-11-03 09:25:28,5402.702016783817,2,14,0.5501165986061096,4.1816840171813965,13.569597159892194,12.801958012122553,54.18597470016572,46.67504269219049,6.47544875391759e-05,0.0931989923119545,0,0,0
4465,154934.19845661873,2010-11-03 09:25:58,5432.717276680251,2,14,0.5501165986061096,4.185407161712647,13.574183806105053,12.801958012122553,54.20516342372496,46.67504269219049,9.70840483205393e-05,0.0931989923119545,0,0,0
4466,154964.213742089,2010-11-03 09:26:28,5462.732562150522,2,14,0.550297200679779,4.189130783081055,13.578770395754196,12.801958012122553,54.22436861498336,46.67504269219049,0.0001295089750783,0.0931989923119545,0,0,0
4467,154994.22901036634,2010-11-03 09:26:58,5492.747830422863,2,14,0.550297200679779,4.192692279815674,13.583357085165712,12.801958012122553,54.243591009151245,46.67504269219049,6.47544875391759e-05,0.0931989923119545,0,0,0
4468,155024.24439995651,2010-11-03 09:27:28,5522.763220018045,2,14,0.5501165986061096,4.196253299713135,13.587943758528866,12.801958012122553,54.262830234572654,46.67504269219049,6.47544875391759e-05,0.0931989923119545,0,0,0
4469,155052.93143366103,2010-11-03 09:27:57,5551.450253722562,2,14,0.5501165986061096,4.200138568878174,13.592327446259011,12.801958012122553,54.2812338412967,46.67504269219049,0.0001295089750783,0.0931989923119545,0,0,0
4470,155082.95041968834,2010-11-03 09:28:27,30.01559632120177,3,14,0.0,4.113691806793213,13.592327446259011,12.801958012122553,54.2812338412967,46.67504269219049,-0.0004532813909463,0.0931989923119545,0,0,0
4471,155112.96533314502,2010-11-03 09:28:57,60.03050978288111,3,14,0.0,4.103331089019775,13.592327446259011,12.801958012122553,54.2812338412967,46.67504269219049,-0.0002266883820993,0.0931989923119545,0,0,0
4472,155142.98074015867,2010-11-03 09:29:27,90.04591682160469,3,14,0.0,4.096855640411377,13.592327446259011,12.801958012122553,54.2812338412967,46.67504269219049,-0.0001619339018361,0.0931989923119545,0,0,0
4473,155172.94920545857,2010-11-03 09:29:57,120.01438209646388,3,14,0.0,4.092808723449707,13.592327446259011,12.801958012122553,54.2812338412967,46.67504269219049,-9.70840483205393e-05,0.0931989923119545,0,0,0
4474,155172.95380849837,2010-11-03 09:29:57,2.666656385e-06,4,14,0.992428719997406,4.199814796447754,13.59232744699414,12.801958012122553,54.2812338443841,46.67504269219049,0.0,0.0931989923119545,0,0,0
4475,155173.70377433844,2010-11-03 09:29:58,0.749968526822723,4,14,0.9418581128120422,4.199653148651123,13.592527169934044,12.801958012122553,54.28207261990725,46.67504269219049,-3.23295607813634e-05,0.0931989923119545,0,0,0
4476,155175.75065331327,2010-11-03 09:30:00,2.796847496635833,4,14,0.8916487693786621,4.199653148651123,13.593047312088014,12.801958012122553,54.28425705842497,46.67504269219049,-3.23295607813634e-05,0.0931989923119545,0,0,0
4477,155178.92247515355,2010-11-03 09:30:03,5.968669336921779,4,14,0.8416199684143066,4.199653148651123,13.593809948550367,12.801958012122553,54.2874599361115,46.67504269219049,0.0,0.0931989923119545,0,0,0
4478,155183.31304314677,2010-11-03 09:30:08,10.35923732509225,4,14,0.791591227054596,4.199814796447754,13.594804703553445,12.801958012122553,54.29163764836386,46.67504269219049,3.23295607813634e-05,0.0931989923119545,0,0,0
4479,155189.1098874219,2010-11-03 09:30:13,16.15608160022518,4,14,0.741381824016571,4.199814796447754,13.596037324821737,12.801958012122553,54.2968143322195,46.67504269219049,0.0,0.0931989923119545,0,0,0
4480,155196.65663327556,2010-11-03 09:30:21,23.70282745892632,4,14,0.6913530826568604,4.199653148651123,13.597536774881766,12.801958012122553,54.3031116520621,46.67504269219049,-3.23295607813634e-05,0.0931989923119545,0,0,0
4481,155206.7348710275,2010-11-03 09:30:31,33.781065240928314,4,14,0.6413242816925049,4.199653148651123,13.599398720058126,12.801958012122553,54.3109313721065,46.67504269219049,0.0,0.0931989923119545,0,0,0
4482,155220.81260205497,2010-11-03 09:30:45,47.85879623830253,4,14,0.5911149382591248,4.199653148651123,13.601803565798196,12.801958012122553,54.32103112776616,46.67504269219049,-3.23295607813634e-05,0.0931989923119545,0,0,0
4483,155242.51548428793,2010-11-03 09:31:07,69.56167847126095,4,14,0.5409055352210999,4.199653148651123,13.605205988356571,12.801958012122553,54.33532050007975,46.67504269219049,-3.23295607813634e-05,0.0931989923119545,0,0,0
4484,155280.01502369242,2010-11-03 09:31:44,107.06121787577452,4,14,0.4908767640590668,4.199653148651123,13.610556481258048,12.801958012122553,54.35779128399464,46.67504269219049,-3.23295607813634e-05,0.0931989923119545,0,0,0
4485,155348.43610880218,2010-11-03 09:32:53,175.48230298552926,4,14,0.4408479928970337,4.199814796447754,13.619370305536632,12.801958012122553,54.39480726867375,46.67504269219049,3.23295607813634e-05,0.0931989923119545,0,0,0
4486,155450.80987068164,2010-11-03 09:34:35,277.8560648649899,4,14,0.3908192217350006,4.199653148651123,13.631170782197648,12.801958012122553,54.44436642883031,46.67504269219049,0.0,0.0931989923119545,0,0,0
4487,155578.90215577674,2010-11-03 09:36:43,405.9483499600926,4,14,0.3406098484992981,4.199814796447754,13.644169764093514,12.801958012122553,54.49895902019142,46.67504269219049,0.0,0.0931989923119545,0,0,0
4488,155732.21549509335,2010-11-03 09:39:17,559.2616893619072,4,14,0.2904004752635956,4.199814796447754,13.6575911173973,12.801958012122553,54.55532553601925,46.67504269219049,0.0,0.0931989923119545,0,0,0
4489,155916.22645919913,2010-11-03 09:42:21,743.2726533874942,4,14,0.2403717041015625,4.199814796447754,13.671129760253953,12.801958012122553,54.61218464673206,46.67504269219049,3.23295607813634e-05,0.0931989923119545,0,0,0
4490,156142.39552737353,2010-11-03 09:46:07,969.4417215568864,4,14,0.1903429329395294,4.199814796447754,13.684617127113055,12.801958012122553,54.66882840818506,46.67504269219049,3.23295607813634e-05,0.0931989923119545,0,0,0
4491,156441.5015214962,2010-11-03 09:51:06,1268.547715689548,4,14,0.1403141617774963,4.199653148651123,13.698263838978267,12.801958012122553,54.726141289055015,46.67504269219049,0.0,0.0931989923119545,0,0,0
4492,156889.91800368787,2010-11-03 09:58:34,1716.9641978762372,4,14,0.0902853980660438,4.199814796447754,13.712413625282975,12.801958012122553,54.7855669349594,46.67504269219049,-3.24249267578125e-05,0.0931989923119545,0,0,0
4493,157554.39459715234,2010-11-03 10:09:39,2381.4407913457053,4,14,0.0498289167881011,4.199653148651123,13.725016643279847,12.801958012122553,54.83849661453366,46.67504269219049,-6.47544875391759e-05,0.0931989923119545,0,0,0
4494,157584.41134792945,2010-11-03 10:10:09,30.015261324999717,5,14,0.0,4.191720962524414,13.725016643279847,12.801958012122553,54.83849661453366,46.67504269219049,-6.47544875391759e-05,0.0931989923119545,0,0,0
4495,157614.4110103672,2010-11-03 10:10:39,60.01492376277709,5,14,0.0,4.190425872802734,13.725016643279847,12.801958012122553,54.83849661453366,46.67504269219049,-9.70840483205393e-05,0.0931989923119545,0,0,0
4496,157614.60070757585,2010-11-03 10:10:39,0.187502951212835,6,14,-1.9243103452026844e-05,4.190749645233154,13.725016643279847,12.801958013124814,54.83849661453366,46.67504269639071,0.0,0.0954576581716537,0,0,0
4497,157619.42886109985,2010-11-03 10:10:44,5.015656450139002,6,14,0.0007031940040178,4.190425872802734,13.725017573955366,12.801958013124814,54.83850051468907,46.67504269639071,-6.47544875391759e-05,0.0954576581716537,0,0,0
4498,157649.44638836785,2010-11-03 10:11:14,30.015385630284825,7,14,-1.099568486213684,4.0121893882751465,13.725017573955366,12.811124231347804,54.83850051468907,46.71201908775422,-0.0009389877086505,0.0954576581716537,0,0,0
4499,157679.4617374168,2010-11-03 10:11:44,60.03073465419451,7,14,-1.0997490882873535,3.984992742538452,13.725017573955366,12.820292431704416,54.83850051468907,46.74867131810234,-0.0006475448608398,0.0954576581716537,0,0,0
4500,157709.4768092889,2010-11-03 10:12:14,90.04580652629063,7,14,-1.099568486213684,3.9662139415740967,13.725017573955366,12.829460500996165,54.83850051468907,46.785116074881465,-0.0004209041653666,0.0954576581716537,0,0,0
4501,157739.49207933567,2010-11-03 10:12:44,120.0610765730612,7,14,-1.099568486213684,3.9516441822052,13.725017573955366,12.838628535504672,54.83850051468907,46.821409564260286,-0.0003237724304199,0.0954576581716537,0,0,0
4502,157769.50737626455,2010-11-03 10:13:14,150.0763735019337,7,14,-1.0997490882873535,3.939502716064453,13.725017573955366,12.847796668960669,54.83850051468907,46.85758228940913,-0.0002913951757363,0.0954576581716537,0,0,0
4503,157799.52263459706,2010-11-03 10:13:44,180.0916318344637,7,14,-1.0997490882873535,3.928818225860596,13.725017573955366,12.856964740928452,54.83850051468907,46.89364984560208,-0.0002590179501567,0.0954576581716537,0,0,0
4504,157829.5378938469,2010-11-03 10:14:14,210.10689108428343,7,14,-1.0993878841400146,3.918781280517578,13.725017573955366,12.866132717973512,54.83850051468907,46.9296222968332,-0.0002913951757363,0.0954576581716537,0,0,0
4505,157859.55317353774,2010-11-03 10:14:44,240.12217077512716,7,14,-1.099568486213684,3.9092302322387695,13.725017573955366,12.87530023544816,54.83850051468907,46.96550436295644,-0.0002913951757363,0.0954576581716537,0,0,0
4506,157889.56843943914,2010-11-03 10:15:14,270.1374366815628,7,14,-1.099568486213684,3.9003264904022217,13.725017573955366,12.884467746859873,54.83850051468907,47.0013010440278,-0.0001942634553415,0.0954576581716537,0,0,0
4507,157919.5837206739,2010-11-03 10:15:44,300.1527179112477,7,14,-1.0993878841400146,3.891584634780884,13.725017573955366,12.893635185958455,54.83850051468907,47.037015749715344,-0.0001942634553415,0.0954576581716537,0,0,0
4508,157949.59899293617,2010-11-03 10:16:14,330.16799017354856,7,14,-1.0997490882873535,3.882680892944336,13.725017573955366,12.902802789195778,54.83850051468907,47.07265127757126,-0.0002590179501567,0.0954576581716537,0,0,0
4509,157979.61426759942,2010-11-03 10:16:44,360.18326483684274,7,14,-1.0997490882873535,3.874424695968628,13.725017573955366,12.9119709774708,54.83850051468907,47.10821083752002,-0.0002266406954731,0.0954576581716537,0,0,0
4510,158009.6296531295,2010-11-03 10:17:14,390.1986503668773,7,14,-1.099568486213684,3.86616849899292,13.725017573955366,12.92113915754976,54.83850051468907,47.143694724565854,-0.0002266406954731,0.0954576581716537,0,0,0
4511,158039.6448075777,2010-11-03 10:17:44,420.2138048150962,7,14,-1.099568486213684,3.858236074447632,13.725017573955366,12.930307267607036,54.83850051468907,47.17910419255429,-0.0001942634553415,0.0954576581716537,0,0,0
4512,158069.6603194882,2010-11-03 10:18:14,450.22931673060833,7,14,-1.0997490882873535,3.849979877471924,13.725017573955366,12.93947552513518,54.83850051468907,47.214439774636176,-0.0002266406954731,0.0954576581716537,0,0,0
4513,158099.67534513492,2010-11-03 10:18:44,480.2443423873439,7,14,-1.099568486213684,3.8422093391418457,13.725017573955366,12.948643672193487,54.83850051468907,47.2497013234802,-0.0001618862152099,0.0954576581716537,0,0,0
4514,158129.6907476273,2010-11-03 10:19:14,510.2597448646815,7,14,-1.0997490882873535,3.8346006870269775,13.725017573955366,12.957811942817967,54.83850051468907,47.28489187698367,-0.0002266406954731,0.0954576581716537,0,0,0
4515,158159.70593156412,2010-11-03 10:19:44,540.2749288065208,7,14,-1.0993878841400146,3.826992273330689,13.725017573955366,12.966980151289873,54.83850051468907,47.32001239474528,-0.0001942634553415,0.0954576581716537,0,0,0
4516,158189.7214387729,2010-11-03 10:20:14,570.2904360303219,7,14,-1.099568486213684,3.81938362121582,13.725017573955366,12.976148424415848,54.83850051468907,47.355063806798725,-0.0002266406954731,0.0954576581716537,0,0,0
4517,158219.7364392618,2010-11-03 10:20:44,600.3054365041969,7,14,-1.099568486213684,3.811613082885742,13.725017573955366,12.985316524996303,54.83850051468907,47.3900450570457,-0.0002266406954731,0.0954576581716537,0,0,0
4518,158249.75187963873,2010-11-03 10:21:14,630.3208768811379,7,14,-1.099568486213684,3.804328203201294,13.725017573955366,12.994484730805013,54.83850051468907,47.42495817324524,-0.0001942634553415,0.0954576581716537,0,0,0
4519,158279.76702963084,2010-11-03 10:21:44,660.3360268682211,7,14,-1.0997490882873535,3.7973670959472656,13.725017573955366,13.003652892742798,54.83850051468907,47.45980508841174,-0.0001942634553415,0.0954576581716537,0,0,0
4520,158309.78252760155,2010-11-03 10:22:14,690.3515248539624,7,14,-1.099568486213684,3.7902441024780273,13.725017573955366,13.012821138193202,54.83850051468907,47.49458804914365,-0.0001942634553415,0.0954576581716537,0,0,0
4521,158339.79755019562,2010-11-03 10:22:44,720.3665474430405,7,14,-1.099568486213684,3.783606767654419,13.725017573955366,13.021989291473414,54.83850051468907,47.529308062548274,-0.0002266406954731,0.0954576581716537,0,0,0
4522,158369.81293488358,2010-11-03 10:23:14,750.3819321409981,7,14,-1.099568486213684,3.7769694328308105,13.725017573955366,13.031157509355266,54.83850051468907,47.563967496702034,-0.0001942634553415,0.0954576581716537,0,0,0
4523,158399.82810003348,2010-11-03 10:23:45,780.397097280905,7,14,-1.0993878841400146,3.770655870437622,13.725017573955366,13.04032568534684,54.83850051468907,47.59856653140302,-0.0001618862152099,0.0954576581716537,0,0,0
4524,158429.84349661108,2010-11-03 10:24:15,810.4124938484908,7,14,-1.099568486213684,3.7640185356140137,13.725017573955366,13.049493904444647,54.83850051468907,47.63310602481605,-0.0001618862152099,0.0954576581716537,0,0,0
4525,158459.85860824745,2010-11-03 10:24:45,840.427605484845,7,14,-1.0997490882873535,3.757704973220825,13.725017573955366,13.058662085932689,54.83850051468907,47.66758661514375,-0.0001618862152099,0.0954576581716537,0,0,0
4526,158489.8764582091,2010-11-03 10:25:15,870.4454554414674,7,14,-1.0997490882873535,3.751391649246216,13.725017573955366,13.067831113870152,54.83850051468907,47.70201268775945,-0.0001618862152099,0.0954576581716537,0,0,0
4527,158519.88917160907,2010-11-03 10:25:45,900.4581688464668,7,14,-1.099568486213684,3.7454018592834473,13.725017573955366,13.076998470943472,54.83850051468907,47.7363760628903,-0.0001618862152099,0.0954576581716537,0,0,0
4528,158549.90456083333,2010-11-03 10:26:15,930.4735580857604,7,14,-1.0997490882873535,3.739412069320679,13.725017573955366,13.086166648876947,54.83850051468907,47.770687452970094,-0.0001618862152099,0.0954576581716537,0,0,0
4529,158579.91970199338,2010-11-03 10:26:45,960.4886992407972,7,14,-1.099568486213684,3.73358416557312,13.725017573955366,13.095334736084457,54.83850051468907,47.80494414973564,-0.0001295089750783,0.0954576581716537,0,0,0
4530,158609.9349996591,2010-11-03 10:27:15,990.5039969215466,7,14,-1.0997490882873535,3.727918148040772,13.725017573955366,13.10450291440204,54.83850051468907,47.839147601082026,-0.0001295089750783,0.0954576581716537,0,0,0
4531,158639.95058573977,2010-11-03 10:27:45,1020.5195829771236,7,14,-1.0997490882873535,3.722090244293213,13.725017573955366,13.113671734784582,54.83850051468907,47.87330137070829,-0.0001942634553415,0.0954576581716537,0,0,0
4532,158669.95430808165,2010-11-03 10:28:15,1050.5233054593966,7,14,-1.099929690361023,3.716424226760864,13.725017573955366,13.122837230975124,54.83850051468907,47.9073917440049,-0.0001942634553415,0.0954576581716537,0,0,0
4533,158699.96566123626,2010-11-03 10:28:45,1080.5346586290393,7,14,-1.099568486213684,3.7112438678741455,13.725017573955366,13.132005090841016,54.83850051468907,47.94144042122807,-0.0001295089750783,0.0954576581716537,0,0,0
4534,158729.98045583122,2010-11-03 10:29:15,1110.549453073634,7,14,-1.0997490882873535,3.705739736557007,13.725017573955366,13.141173991282129,54.83850051468907,47.97544254704883,-9.713172767078504e-05,0.0954576581716537,0,0,0
4535,158759.99574989296,2010-11-03 10:29:45,1140.564747140362,7,14,-1.099568486213684,3.700397491455078,13.725017573955366,13.150342542916764,54.83850051468907,48.00939453184519,-0.0001618862152099,0.0954576581716537,0,0,0
4536,158790.0110230274,2010-11-03 10:30:15,1170.58002029489,7,14,-1.0997490882873535,3.695055246353149,13.725017573955366,13.159510791605852,54.83850051468907,48.04329652559485,-0.0001295089750783,0.0954576581716537,0,0,0
4537,158820.02627178608,2010-11-03 10:30:45,1200.595269033472,7,14,-1.099568486213684,3.6897130012512207,13.725017573955366,13.168679065631828,54.83850051468907,48.07714979667372,-0.0001295089750783,0.0954576581716537,0,0,0
4538,158850.04153988796,2010-11-03 10:31:15,1230.6105371504254,7,14,-1.099568486213684,3.684694528579712,13.725017573955366,13.177847294078108,54.83850051468907,48.110954600337,-9.713172767078504e-05,0.0954576581716537,0,0,0
4539,158880.0568109974,2010-11-03 10:31:45,1260.6258082397983,7,14,-1.099568486213684,3.679352283477783,13.725017573955366,13.187015474777468,54.83850051468907,48.14471213258504,-0.0001942634553415,0.0954576581716537,0,0,0
4540,158910.07209359552,2010-11-03 10:32:15,1290.6410908579494,7,14,-1.099568486213684,3.674495697021485,13.725017573955366,13.196183712148702,54.83850051468907,48.17842372920001,-0.0001295089750783,0.0954576581716537,0,0,0
4541,158940.0873589806,2010-11-03 10:32:45,1320.6563562430838,7,14,-1.099568486213684,3.6696393489837646,13.725017573955366,13.205351986850967,54.83850051468907,48.212090157125004,-9.713172767078504e-05,0.0954576581716537,0,0,0
4542,158970.10265850098,2010-11-03 10:33:15,1350.671655743375,7,14,-1.0997490882873535,3.664944648742676,13.725017573955366,13.21452027024179,54.83850051468907,48.24571230532951,-9.713172767078504e-05,0.0954576581716537,0,0,0
4543,159000.11790635734,2010-11-03 10:33:45,1380.686903619805,7,14,-1.0993878841400146,3.660249948501587,13.725017573955366,13.22368854980172,54.83850051468907,48.27929123220928,-0.0001295089750783,0.0954576581716537,0,0,0
4544,159030.13318798805,2010-11-03 10:34:15,1410.7021852504906,7,14,-1.0997490882873535,3.655393362045288,13.725017573955366,13.232856812549546,54.83850051468907,48.31282697837176,-0.0001295089750783,0.0954576581716537,0,0,0
4545,159060.1485102802,2010-11-03 10:34:45,1440.7175076278866,7,14,-1.099568486213684,3.650860548019409,13.725017573955366,13.242025104732663,54.83850051468907,48.3463200834224,-9.713172767078504e-05,0.0954576581716537,0,0,0
4546,159090.16372744998,2010-11-03 10:35:15,1470.7327247124554,7,14,-1.099568486213684,3.64616584777832,13.725017573955366,13.251193420501687,54.83850051468907,48.37977061170949,-0.0001295089750783,0.0954576581716537,0,0,0
4547,159120.17907252404,2010-11-03 10:35:45,1500.7480697915182,7,14,-1.0997490882873535,3.6416330337524414,13.725017573955366,13.26036167758672,54.83850051468907,48.41317903900186,-0.0001618862152099,0.0954576581716537,0,0,0
4548,159150.1944098688,2010-11-03 10:36:15,1530.7634071162247,7,14,-1.099929690361023,3.637262105941773,13.725017573955366,13.269529924356164,54.83850051468907,48.446546394747386,-0.0001295089750783,0.0954576581716537,0,0,0
4549,159180.20956648243,2010-11-03 10:36:45,1560.7785637198238,7,14,-1.099568486213684,3.6330530643463135,13.725017573955366,13.278698140646002,54.83850051468907,48.47987369339639,-9.713172767078504e-05,0.0954576581716537,0,0,0
4550,159210.22483409813,2010-11-03 10:37:15,1590.7938313605885,7,14,-1.099568486213684,3.6288440227508554,13.725017573955366,13.287866346442836,54.83850051468907,48.51316212675842,-9.713172767078504e-05,0.0954576581716537,0,0,0
4551,159240.2400893129,2010-11-03 10:37:45,1620.809086575336,7,14,-1.0997490882873535,3.6244730949401855,13.725017573955366,13.297034566670488,54.83850051468907,48.54641235377064,-0.0001295089750783,0.0954576581716537,0,0,0
4552,159270.25536828695,2010-11-03 10:38:15,1650.824365544378,7,14,-1.099568486213684,3.6205878257751465,13.725017573955366,13.306202797106048,54.83850051468907,48.57962481366539,-9.713172767078504e-05,0.0954576581716537,0,0,0
4553,159300.27076340088,2010-11-03 10:38:45,1680.8397606483106,7,14,-1.0997490882873535,3.616378784179688,13.725017573955366,13.31537106597022,54.83850051468907,48.6128003214651,-0.0001618862152099,0.0954576581716537,0,0,0
4554,159330.28590808975,2010-11-03 10:39:15,1710.8549053271436,7,14,-1.099568486213684,3.6126554012298575,13.725017573955366,13.32453925636398,54.83850051468907,48.64593924045052,-6.47544875391759e-05,0.0954576581716537,0,0,0
4555,159360.30118327434,2010-11-03 10:39:45,1740.8701805368014,7,14,-1.0997490882873535,3.60860824584961,13.725017573955366,13.333707603580818,54.83850051468907,48.67904311420314,-0.0001295089750783,0.0954576581716537,0,0,0
4556,159390.31647691,2010-11-03 10:40:15,1770.885474177466,7,14,-1.0997490882873535,3.60488486289978,13.725017573955366,13.342875939325202,54.83850051468907,48.71211201152468,-9.713172767078504e-05,0.0954576581716537,0,0,0
4557,159420.33171075137,2010-11-03 10:40:45,1800.9007079887874,7,14,-1.099568486213684,3.601323366165161,13.725017573955366,13.352044163082113,54.83850051468907,48.74514653014794,-9.713172767078504e-05,0.0954576581716537,0,0,0
4558,159450.3469785776,2010-11-03 10:41:15,1830.9159758400776,7,14,-1.0993878841400146,3.598085641860962,13.725017573955366,13.361212470716357,54.83850051468907,48.77814862918035,-3.237724376958795e-05,0.0954576581716537,0,0,0
4559,159480.3622475567,2010-11-03 10:41:45,1860.9312448191831,7,14,-1.099568486213684,3.594362258911133,13.725017573955366,13.370380751902156,54.83850051468907,48.8111184608128,-0.0001295089750783,0.0954576581716537,0,0,0
4560,159510.37777273534,2010-11-03 10:42:15,1890.946769987777,7,14,-1.0997490882873535,3.5909628868103027,13.725017573955366,13.37954902428742,54.83850051468907,48.84405699398053,-9.713172767078504e-05,0.0954576581716537,0,0,0
4561,159540.3928010788,2010-11-03 10:42:45,1920.961798341244,7,14,-1.0997490882873535,3.5875632762908936,13.725017573955366,13.388717168475337,54.83850051468907,48.8769643715302,-9.713172767078504e-05,0.0954576581716537,0,0,0
4562,159570.40808810794,2010-11-03 10:43:15,1950.977085375418,7,14,-1.099568486213684,3.5846493244171143,13.725017573955366,13.397885445722329,54.83850051468907,48.909842497112415,-6.47544875391759e-05,0.0954576581716537,0,0,0
4563,159600.42382593235,2010-11-03 10:43:45,1980.992823214871,7,14,-1.0997490882873535,3.581249713897705,13.725017573955366,13.407053863635428,54.83850051468907,48.94269244856442,-9.713172767078504e-05,0.0954576581716537,0,0,0
4564,159630.43884289238,2010-11-03 10:44:15,2011.0078401297856,7,14,-1.0997490882873535,3.578173875808716,13.725017573955366,13.416222052274613,54.83850051468907,48.9755130751402,-0.0001295089750783,0.0954576581716537,0,0,0
4565,159660.45389680966,2010-11-03 10:44:45,2041.022894072126,7,14,-1.099568486213684,3.5752599239349365,13.725017573955366,13.425390228667606,54.83850051468907,49.00830526935728,-3.237724376958795e-05,0.0954576581716537,0,0,0
4566,159690.46919737762,2010-11-03 10:45:15,2071.038194645095,7,14,-1.0997490882873535,3.5721840858459477,13.725017573955366,13.434558529514709,54.83850051468907,49.04107029731308,-6.47544875391759e-05,0.0954576581716537,0,0,0
4567,159720.48445207608,2010-11-03 10:45:45,2101.053449338541,7,14,-1.0993878841400146,3.569270133972168,13.725017573955366,13.443726779457387,54.83850051468907,49.0738076918908,-6.47544875391759e-05,0.0954576581716537,0,0,0
4568,159750.49973293484,2010-11-03 10:46:15,2131.0687302023125,7,14,-1.099568486213684,3.5661942958831787,13.725017573955366,13.452895030261692,54.83850051468907,49.10651727463513,-9.713172767078504e-05,0.0954576581716537,0,0,0
4569,159780.51499839014,2010-11-03 10:46:45,2161.0839956526106,7,14,-1.099568486213684,3.5632803440093994,13.725017573955366,13.462063300631396,54.83850051468907,49.139199147848615,-3.237724376958795e-05,0.0954576581716537,0,0,0
4570,159810.53029464732,2010-11-03 10:47:15,2191.0992918847437,7,14,-1.099568486213684,3.56036639213562,13.725017573955366,13.471231506400128,54.83850051468907,49.17185458165768,-6.47544875391759e-05,0.0954576581716537,0,0,0
4571,159840.5455388496,2010-11-03 10:47:45,2221.114536117077,7,14,-1.0997490882873535,3.557290554046631,13.725017573955366,13.48039977665874,54.83850051468907,49.20448294586078,-6.47544875391759e-05,0.0954576581716537,0,0,0
4572,159870.56083122714,2010-11-03 10:48:15,2251.129828464513,7,14,-1.0997490882873535,3.5542147159576416,13.725017573955366,13.489568131164557,54.83850051468907,49.23708419769304,-9.713172767078504e-05,0.0954576581716537,0,0,0
4573,159900.57609160474,2010-11-03 10:48:45,2281.145088872224,7,14,-1.0997490882873535,3.5513007640838623,13.725017573955366,13.498736428730725,54.83850051468907,49.26965777699064,-9.713172767078504e-05,0.0954576581716537,0,0,0
4574,159930.5913866389,2010-11-03 10:49:15,2311.1603839063664,7,14,-1.099568486213684,3.548386812210083,13.725017573955366,13.50790475483486,54.83850051468907,49.30220366956497,-3.237724376958795e-05,0.0954576581716537,0,0,0
4575,159960.60664723205,2010-11-03 10:49:45,2341.1756444945268,7,14,-1.099568486213684,3.545149087905884,13.725017573955366,13.517073010908288,54.83850051468907,49.33472109725579,-9.713172767078504e-05,0.0954576581716537,0,0,0
4576,159990.62206682714,2010-11-03 10:50:15,2371.19106406453,7,14,-1.0997490882873535,3.5420732498168945,13.725017573955366,13.526241367358114,54.83850051468907,49.36721000653194,-9.713172767078504e-05,0.0954576581716537,0,0,0
4577,160020.63737304418,2010-11-03 10:50:45,2401.2063702966248,7,14,-1.0993878841400146,3.5388355255126958,13.725017573955366,13.535409647148622,54.83850051468907,49.39966979483536,-6.47544875391759e-05,0.0954576581716537,0,0,0
4578,160050.6524726004,2010-11-03 10:51:15,2431.22146986285,7,14,-1.099568486213684,3.535597801208496,13.725017573955366,13.54457789261137,54.83850051468907,49.43210018758526,-6.47544875391759e-05,0.0954576581716537,0,0,0
4579,160080.66774364965,2010-11-03 10:51:45,2461.2367408870605,7,14,-1.099568486213684,3.532198190689087,13.725017573955366,13.553746214827743,54.83850051468907,49.46450064766131,-0.0001295089750783,0.0954576581716537,0,0,0
4580,160110.6831856707,2010-11-03 10:52:15,2491.2521829181305,7,14,-1.0997490882873535,3.5287985801696777,13.725017573955366,13.562914552595958,54.83850051468907,49.49687040235875,-0.0001295089750783,0.0954576581716537,0,0,0
4581,160140.69830062534,2010-11-03 10:52:45,2521.267297862742,7,14,-1.099568486213684,3.525398969650269,13.725017573955366,13.572082836216964,54.83850051468907,49.52920821018732,-6.47544875391759e-05,0.0954576581716537,0,0,0
4582,160170.71377616003,2010-11-03 10:53:15,2551.2827734425546,7,14,-1.099568486213684,3.5218374729156494,13.725017573955366,13.581251215809612,54.83850051468907,49.561514115453775,-9.713172767078504e-05,0.0954576581716537,0,0,0
4583,160200.72889403198,2010-11-03 10:53:45,2581.2978912693607,7,14,-1.0993878841400146,3.5181140899658203,13.725017573955366,13.590419398231283,54.83850051468907,49.59378622748528,-9.713172767078504e-05,0.0954576581716537,0,0,0
4584,160230.74427981765,2010-11-03 10:54:15,2611.313277065058,7,14,-1.0997490882873535,3.514228820800781,13.725017573955366,13.599587734079892,54.83850051468907,49.626024044290446,-0.0001295089750783,0.0954576581716537,0,0,0
4585,160260.75963138288,2010-11-03 10:54:45,2641.328628630312,7,14,-1.0997490882873535,3.5101819038391118,13.725017573955366,13.60875614585172,54.83850051468907,49.65822572328453,-9.713172767078504e-05,0.0954576581716537,0,0,0
4586,160290.77469338535,2010-11-03 10:55:15,2671.343690647809,7,14,-1.099568486213684,3.5056490898132324,13.725017573955366,13.617924407344756,54.83850051468907,49.690387848598526,-0.0001618862152099,0.0954576581716537,0,0,0
4587,160320.78997237445,2010-11-03 10:55:45,2701.358969611839,7,14,-1.0997490882873535,3.501116275787353,13.725017573955366,13.627092791260155,54.83850051468907,49.7225089160572,-9.713172767078504e-05,0.0954576581716537,0,0,0
4588,160350.80528070175,2010-11-03 10:56:16,2731.3742779642266,7,14,-1.099568486213684,3.4960978031158447,13.725017573955366,13.636261080591805,54.83850051468907,49.75458649358272,-0.0001618862152099,0.0954576581716537,0,0,0
4589,160380.82052829248,2010-11-03 10:56:46,2761.389525554943,7,14,-1.099568486213684,3.490917444229126,13.725017573955366,13.645429384789042,54.83850051468907,49.78661632177942,-0.0001295089750783,0.0954576581716537,0,0,0
4590,160410.8358147903,2010-11-03 10:57:16,2791.4048120527777,7,14,-1.099568486213684,3.4849276542663574,13.725017573955366,13.654597698212852,54.83850051468907,49.818594646846535,-0.0001618862152099,0.0954576581716537,0,0,0
4591,160440.85371082195,2010-11-03 10:57:46,2821.422708144561,7,14,-1.0997490882873535,3.477966547012329,13.725017573955366,13.663766775265314,54.83850051468907,49.85051749159296,-0.0002266406954731,0.0954576581716537,0,0,0
4592,160470.8663782121,2010-11-03 10:58:16,2851.4353754494878,7,14,-1.099568486213684,3.470357894897461,13.725017573955366,13.672934264755426,54.83850051468907,49.882369267127096,-0.0001942634553415,0.0954576581716537,0,0,0
4593,160500.8816354469,2010-11-03 10:58:46,2881.4506327093395,7,14,-1.099568486213684,3.462101697921753,13.725017573955366,13.682102555054492,54.83850051468907,49.91414933957802,-0.0001942634553415,0.0954576581716537,0,0,0
4594,160530.8969106766,2010-11-03 10:59:16,2911.465907939048,7,14,-1.099568486213684,3.4517409801483154,13.725017573955366,13.691270828979388,54.83850051468907,49.94584292605235,-0.0002913951757363,0.0954576581716537,0,0,0
4595,160560.91218719954,2010-11-03 10:59:46,2941.481184461984,7,14,-1.099568486213684,3.4394376277923584,13.725017573955366,13.700439175035152,54.83850051468907,49.977434423416526,-0.0003237724304199,0.0954576581716537,0,0,0
4596,160590.9276620024,2010-11-03 11:00:16,2971.4966592698697,7,14,-1.099568486213684,3.424382448196411,13.725017573955366,13.709607624538071,54.83850051468907,50.00890188512972,-0.0004209041653666,0.0954576581716537,0,0,0
4597,160620.94275034062,2010-11-03 11:00:46,3001.511747608068,7,14,-1.099568486213684,3.405603647232056,13.725017573955366,13.71877593796776,54.83850051468907,50.040214417849306,-0.0005180359003134,0.0954576581716537,0,0,0
4598,160650.95803759532,2010-11-03 11:01:16,3031.527034852767,7,14,-1.099568486213684,3.3814826011657715,13.725017573955366,13.727944291383944,54.83850051468907,50.07133219073947,-0.0007122993702068,0.0954576581716537,0,0,0
4599,160680.97330424358,2010-11-03 11:01:46,3061.542301506068,7,14,-1.0997490882873535,3.3494293689727783,13.725017573955366,13.737112617746364,54.83850051468907,50.1021952985812,-0.001003646873869,0.0954576581716537,0,0,0
4600,160710.98861008475,2010-11-03 11:02:16,3091.557607342173,7,14,-1.099568486213684,3.306043863296509,13.725017573955366,13.74628108173938,54.83850051468907,50.13271657560947,-0.0013598442310467,0.0954576581716537,0,0,0
4601,160741.00385544988,2010-11-03 11:02:46,3121.572852712347,7,14,-1.099568486213684,3.2454986572265625,13.725017573955366,13.755449402715591,54.83850051468907,50.16276569951184,-0.0018778800731524,0.0954576581716537,0,0,0
4602,160771.01914266453,2010-11-03 11:03:16,3151.588139921959,7,14,-1.099568486213684,3.1577565670013428,13.725017573955366,13.764617767018375,54.83850051468907,50.19214645593233,-0.0027844428550451,0.0954576581716537,0,0,0
4603,160801.03441639547,2010-11-03 11:03:46,3181.6034136579387,7,14,-1.0993878841400146,3.0178873538970947,13.725017573955366,13.773786060501834,54.83850051468907,50.22051457387327,-0.0047917841002345,0.0954576581716537,0,0,0
4604,160823.19039991897,2010-11-03 11:04:08,3203.7593971814263,7,14,-1.099568486213684,2.8174726963043213,13.725017573955366,13.780553711688956,54.83850051468907,50.24033617907024,-0.0093570230528712,0.0954576581716537,0,0,0
4605,160832.08107547296,2010-11-03 11:04:17,3212.6500727203675,7,14,-1.0997490882873535,2.699620008468628,13.725017573955366,13.783269404863503,54.83850051468907,50.24783156686913,-0.0110405925661325,0.0954576581716537,0,0,0
4606,160892.08879678597,2010-11-03 11:05:17,60.01491311118908,8,14,0.0,3.326765298843384,13.725017573955366,13.783269404863503,54.83850051468907,50.24783156686913,0.0012303352123126,0.0954576581716537,0,0,0
4607,160892.26989649134,2010-11-03 11:05:17,0.187451828602936,9,14,-1.9243103452026844e-05,3.3269271850585938,13.725017573955366,13.783269405865488,54.83850051468907,50.24783157020267,0.0,0.0939245000481605,0,0,0
4608,160897.0983740943,2010-11-03 11:05:22,5.015929456605141,9,14,0.0005225847125984,3.334535837173462,13.725018415714278,13.7832694060354,54.8385033189811,50.24783157076848,0.0010684489971026,0.0939245000481605,0,0,0
