Data_Point,Test_Time(s),Date_Time,Step_Time(s),Step_Index,Cycle_Index,Current(A),Voltage(V),Charge_Capacity(Ah),Discharge_Capacity(Ah),Charge_Energy(Wh),Discharge_Energy(Wh),dV/dt(V/s),Internal_Resistance(Ohm),Is_FC_Data,AC_Impedance(Ohm),ACI_Phase_Angle(Deg)
8891,310481.8229227699,2010-11-05 04:38:43,30.01528383619111,1,28,0.0,3.363027572631836,26.492366619957288,26.55081893933523,105.82601694520818,96.78902877801588,0.0006799221155233,0.0954576581716537,0,0,0
8892,310511.8382287664,2010-11-05 04:39:13,60.03058983269777,1,28,0.0,3.3856916427612305,26.492366619957288,26.55081893933523,105.82601694520818,96.78902877801588,0.0005180359003134,0.0954576581716537,0,0,0
8893,310541.8535008182,2010-11-05 04:39:43,90.04586188447317,1,28,0.0,3.4026896953582764,26.492366619957288,26.55081893933523,105.82601694520818,96.78902877801588,0.0003885269106831,0.0954576581716537,0,0,0
8894,310571.8219128,2010-11-05 04:40:13,120.01427386630472,1,28,0.0,3.416450023651123,26.492366619957288,26.55081893933523,105.82601694520818,96.78902877801588,0.0003237724304199,0.0954576581716537,0,0,0
8895,310601.825613258,2010-11-05 04:40:43,30.0154263419073,2,28,0.5501165986061096,3.5802783966064453,26.496953159481286,26.55081893933523,105.84226519357252,96.78902877801588,0.0017483711708337,0.0954576581716537,0,0,0
8896,310631.8407750496,2010-11-05 04:41:13,60.03058814849374,2,28,0.5501165986061096,3.631434202194214,26.501539642530307,26.55081893933523,105.85881022144795,96.78902877801588,0.0011655807029455,0.0954576581716537,0,0,0
8897,310661.85619825864,2010-11-05 04:41:43,90.04601135256853,2,28,0.5501165986061096,3.668991804122925,26.506126119374493,26.55081893933523,105.87555597831631,96.78902877801588,0.0008741855854168,0.0954576581716537,0,0,0
8898,310691.8714709019,2010-11-05 04:42:13,120.06128399080784,2,28,0.5501165986061096,3.6987786293029785,26.510712564147862,26.55081893933523,105.89245403764468,96.78902877801588,0.0007446765666827,0.0954576581716537,0,0,0
8899,310721.8866591445,2010-11-05 04:42:43,150.07647223338256,2,28,0.5501165986061096,3.722899675369263,26.51529897011202,26.55081893933523,105.909474350968,96.78902877801588,0.0005827903514727,0.0954576581716537,0,0,0
8900,310751.9019168003,2010-11-05 04:43:13,180.0917298892235,2,28,0.5495747923851013,3.742811679840088,26.519885339658696,26.55081893933523,105.92659585642872,96.78902877801588,0.0004532813909463,0.0954576581716537,0,0,0
8901,310781.9171675138,2010-11-05 04:43:43,210.1069806127603,2,28,0.5499359965324402,3.759323835372925,26.524471679519632,26.55081893933523,105.94380149023932,96.78902877801588,0.0004209041653666,0.0954576581716537,0,0,0
8902,310811.9324924526,2010-11-05 04:44:13,240.1223055465373,2,28,0.5499359965324402,3.770655870437622,26.52905727742493,26.55081893933523,105.9610687844588,96.78902877801588,0.0002266406954731,0.0954576581716537,0,0,0
8903,310841.9477749003,2010-11-05 04:44:43,270.1375879992751,2,28,0.5499359965324402,3.777778863906861,26.533642902656982,26.55081893933523,105.97837778947934,96.78902877801588,0.0001618862152099,0.0954576581716537,0,0,0
8904,310871.96309947816,2010-11-05 04:45:13,300.1529126022263,2,28,0.5499359965324402,3.7823116779327393,26.538229284513005,26.55081893933523,105.99571527814794,96.78902877801588,9.713172767078504e-05,0.0954576581716537,0,0,0
8905,310901.9785751883,2010-11-05 04:45:43,330.168388367502,2,28,0.5501165986061096,3.7861969470977774,26.54281568917554,26.55081893933523,106.01307194062304,96.78902877801588,9.713172767078504e-05,0.0954576581716537,0,0,0
8906,310931.9936725992,2010-11-05 04:46:13,360.1834857031591,2,28,0.5501165986061096,3.789920330047608,26.54740209494932,26.55081893933523,106.0304459197374,96.78902877801588,9.713172767078504e-05,0.0954576581716537,0,0,0
8907,310962.00912490085,2010-11-05 04:46:43,390.1989379998535,2,28,0.5499359965324402,3.7934818267822266,26.551988555533804,26.55081893933523,106.04783671879434,96.78902877801588,6.47544875391759e-05,0.0954576581716537,0,0,0
8908,310992.02424662746,2010-11-05 04:47:13,420.2140597213816,2,28,0.5501165986061096,3.7970433235168457,26.556574939609824,26.55081893933523,106.06524346138032,96.78902877801588,9.713172767078504e-05,0.0954576581716537,0,0,0
8909,311022.0395435914,2010-11-05 04:47:43,450.2293566853416,2,28,0.5501165986061096,3.800442934036255,26.56116135785916,26.55081893933523,106.08266614702792,96.78902877801588,9.713172767078504e-05,0.0954576581716537,0,0,0
8910,311052.0548173424,2010-11-05 04:48:13,480.2446304363585,2,28,0.5499359965324402,3.803680658340454,26.5657477470816,26.55081893933523,106.10010405000864,96.78902877801588,9.713172767078504e-05,0.0954576581716537,0,0,0
8911,311082.0701230582,2010-11-05 04:48:43,510.2599361521644,2,28,0.5501165986061096,3.806918382644653,26.57033415782561,26.55081893933523,106.11755705453616,96.78902877801588,3.237724376958795e-05,0.0954576581716537,0,0,0
8912,311112.08541513496,2010-11-05 04:49:13,540.2752282339378,2,28,0.550297200679779,3.810156106948853,26.57492054995913,26.55081893933523,106.13502462575856,96.78902877801588,6.47544875391759e-05,0.0954576581716537,0,0,0
8913,311142.1006874424,2010-11-05 04:49:43,570.2905005363388,2,28,0.5501165986061096,3.813231945037842,26.579506989269184,26.55081893933523,106.15250676154272,96.78902877801588,6.47544875391759e-05,0.0954576581716537,0,0,0
8914,311172.11609869165,2010-11-05 04:50:13,600.3059117905849,2,28,0.5501165986061096,3.816469669342041,26.58409339222376,26.55081893933523,106.17000323742243,96.78902877801588,6.47544875391759e-05,0.0954576581716537,0,0,0
8915,311202.13127152075,2010-11-05 04:50:43,630.3210846146728,2,28,0.5499359965324402,3.81938362121582,26.588679785662432,26.55081893933523,106.18751367152883,96.78902877801588,6.47544875391759e-05,0.0954576581716537,0,0,0
8916,311232.146550174,2010-11-05 04:51:13,660.3363632679265,2,28,0.5501165986061096,3.8222975730896,26.593266183731085,26.55081893933523,106.2050379880568,96.78902877801588,0.0,0.0954576581716537,0,0,0
8917,311262.1618356844,2010-11-05 04:51:43,690.3516487782965,2,28,0.5501165986061096,3.825535297393799,26.597852602669384,26.55081893933523,106.22257622264485,96.78902877801588,9.713172767078504e-05,0.0954576581716537,0,0,0
8918,311292.1771178414,2010-11-05 04:52:13,720.3669309352962,2,28,0.5501165986061096,3.828611135482788,26.602438966049736,26.55081893933523,106.24012838671986,96.78902877801588,9.713172767078504e-05,0.0954576581716537,0,0,0
8919,311322.1924396123,2010-11-05 04:52:43,750.3822527061781,2,28,0.5501165986061096,3.8318488597869873,26.607025313326925,26.55081893933523,106.257694823018,96.78902877801588,9.713172767078504e-05,0.0954576581716537,0,0,0
8920,311352.20785436523,2010-11-05 04:53:13,780.3976674892328,2,28,0.550297200679779,3.835086345672608,26.611611690399236,26.55081893933523,106.27527598264498,96.78902877801588,9.713172767078504e-05,0.0954576581716537,0,0,0
8921,311382.22321721865,2010-11-05 04:53:43,810.4130303276254,2,28,0.5501165986061096,3.838324069976807,26.616198063415585,26.55081893933523,106.29287207198256,96.78902877801588,9.713172767078504e-05,0.0954576581716537,0,0,0
8922,311412.238415752,2010-11-05 04:54:13,840.42822884585,2,28,0.5501165986061096,3.841561794281006,26.62078442584393,26.55081893933523,106.31048342315036,96.78902877801588,6.47544875391759e-05,0.0954576581716537,0,0,0
8923,311442.2537614876,2010-11-05 04:54:43,870.4435745815517,2,28,0.5501165986061096,3.844961404800415,26.625370816965365,26.55081893933523,106.32811025699584,96.78902877801588,6.47544875391759e-05,0.0954576581716537,0,0,0
8924,311472.2688390038,2010-11-05 04:55:13,900.4586520977364,2,28,0.5501165986061096,3.848361015319824,26.629957165744905,26.55081893933523,106.34575227531376,96.78902877801588,6.47544875391759e-05,0.0954576581716537,0,0,0
8925,311502.28425240336,2010-11-05 04:55:43,930.47406550235,2,28,0.5501165986061096,3.851598739624024,26.634543550802555,26.55081893933523,106.36340964516845,96.78902877801588,9.713172767078504e-05,0.0954576581716537,0,0,0
8926,311532.29942764353,2010-11-05 04:56:13,960.4892407224188,2,28,0.5501165986061096,3.854836463928223,26.63912992070862,26.55081893933523,106.38108194651215,96.78902877801588,6.47544875391759e-05,0.0954576581716537,0,0,0
8927,311562.3146746077,2010-11-05 04:56:43,990.5044877016088,2,28,0.5501165986061096,3.858074188232422,26.64371680230672,26.55081893933523,106.39877113502888,96.78902877801588,6.47544875391759e-05,0.0954576581716537,0,0,0
8928,311592.3299551907,2010-11-05 04:57:13,1020.51976828468,2,28,0.550297200679779,3.861311912536621,26.648304107518257,26.55081893933523,106.41647653215166,96.78902877801588,0.0001295089750783,0.0954576581716537,0,0,0
8929,311622.3452597637,2010-11-05 04:57:43,1050.5350728576327,2,28,0.5501165986061096,3.8642258644104,26.652891271447583,26.55081893933523,106.4341956499578,96.78902877801588,9.713172767078504e-05,0.0954576581716537,0,0,0
8930,311652.3606560556,2010-11-05 04:58:13,1080.550469149531,2,28,0.550297200679779,3.8673017024993896,26.657478576089733,26.55081893933523,106.45192925454197,96.78902877801588,9.713172767078504e-05,0.0954576581716537,0,0,0
8931,311682.3758377769,2010-11-05 04:58:43,1110.5656508708275,2,28,0.5501165986061096,3.870215654373169,26.66206579159529,26.55081893933523,106.46967609284712,96.78902877801588,9.713172767078504e-05,0.0954576581716537,0,0,0
8932,311712.39123429434,2010-11-05 04:59:13,1140.581047393301,2,28,0.5501165986061096,3.8729677200317374,26.666653099204886,26.55081893933523,106.4874364878492,96.78902877801588,6.47544875391759e-05,0.0954576581716537,0,0,0
8933,311742.4064141159,2010-11-05 04:59:43,1170.5962272098427,2,28,0.5501165986061096,3.875719785690308,26.67124004839432,26.55081893933523,106.50520807910414,96.78902877801588,6.47544875391759e-05,0.0954576581716537,0,0,0
8934,311772.4216965636,2010-11-05 05:00:13,1200.6115096575684,2,28,0.5501165986061096,3.878471851348877,26.67582658705216,26.55081893933523,106.522990113424,96.78902877801588,9.713172767078504e-05,0.0954576581716537,0,0,0
8935,311802.43698694115,2010-11-05 05:00:43,1230.6268000350876,2,28,0.5501165986061096,3.880738258361816,26.680413245689763,26.55081893933523,106.54078412157402,96.78902877801588,6.47544875391759e-05,0.0954576581716537,0,0,0
8936,311832.4522564315,2010-11-05 05:01:13,1260.6420695254694,2,28,0.5501165986061096,3.883004665374756,26.6849998112156,26.55081893933523,106.55858867655388,96.78902877801588,6.47544875391759e-05,0.0954576581716537,0,0,0
8937,311862.4675218718,2010-11-05 05:01:43,1290.6573349757664,2,28,0.5499359965324402,3.8852710723876953,26.689586403831697,26.55081893933523,106.57640353960386,96.78902877801588,6.47544875391759e-05,0.0954576581716537,0,0,0
8938,311892.4829350208,2010-11-05 05:02:13,1320.672748104692,2,28,0.5499359965324402,3.887051820755005,26.694173000680244,26.55081893933523,106.59422801429676,96.78902877801588,3.237724376958795e-05,0.0954576581716537,0,0,0
8939,311922.4980627523,2010-11-05 05:02:43,1350.6878758612845,2,28,0.5501165986061096,3.8891563415527344,26.698759563319005,26.55081893933523,106.61206135376656,96.78902877801588,6.47544875391759e-05,0.0954576581716537,0,0,0
8940,311952.5134233501,2010-11-05 05:03:13,1380.703236444047,2,28,0.5501165986061096,3.890937089920044,26.70334619445521,26.55081893933523,106.62990326925352,96.78902877801588,9.713172767078504e-05,0.0954576581716537,0,0,0
8941,311982.5287124494,2010-11-05 05:03:43,1410.7185255433756,2,28,0.550297200679779,3.892555952072144,26.707932803220388,26.55081893933523,106.64775290885126,96.78902877801588,6.47544875391759e-05,0.0954576581716537,0,0,0
8942,312012.5439862756,2010-11-05 05:04:13,1440.73379936958,2,28,0.5501165986061096,3.894174814224243,26.71251939631136,26.55081893933523,106.66560978060792,96.78902877801588,9.713172767078504e-05,0.0954576581716537,0,0,0
8943,312042.5592770542,2010-11-05 05:04:43,1470.7490901481003,2,28,0.5501165986061096,3.895308017730713,26.717106053423606,26.55081893933523,106.68347347289952,96.78902877801588,3.237724376958795e-05,0.0954576581716537,0,0,0
8944,312072.5745579831,2010-11-05 05:05:13,1500.7643710770346,2,28,0.5501165986061096,3.8967649936676025,26.72169261025227,26.55081893933523,106.70134328586389,96.78902877801588,3.237724376958795e-05,0.0954576581716537,0,0,0
8945,312102.58984278166,2010-11-05 05:05:43,1530.779655875628,2,28,0.5501165986061096,3.898221969604492,26.72627919687114,26.55081893933523,106.71921947966732,96.78902877801588,6.47544875391759e-05,0.0954576581716537,0,0,0
8946,312132.6052523116,2010-11-05 05:06:13,1560.79506540557,2,28,0.5501165986061096,3.899517059326172,26.730865841509903,26.55081893933523,106.7371020596772,96.78902877801588,3.237724376958795e-05,0.0954576581716537,0,0,0
8947,312162.6204364489,2010-11-05 05:06:43,1590.8102495428975,2,28,0.5499359965324402,3.9006502628326416,26.7354524735568,26.55081893933523,106.7549905109604,96.78902877801588,0.0,0.0954576581716537,0,0,0
8948,312192.6356992125,2010-11-05 05:07:13,1620.825512306488,2,28,0.5501165986061096,3.9021072387695312,26.740039020428977,26.55081893933523,106.77288455104213,96.78902877801588,3.237724376958795e-05,0.0954576581716537,0,0,0
8949,312222.6509871239,2010-11-05 05:07:44,1650.8408002178514,2,28,0.550297200679779,3.903402328491211,26.7446256227624,26.55081893933523,106.79078463145196,96.78902877801588,6.47544875391759e-05,0.0954576581716537,0,0,0
8950,312252.66626823833,2010-11-05 05:08:14,1680.8560813322486,2,28,0.5501165986061096,3.90469741821289,26.74921229141445,26.55081893933523,106.80869082889744,96.78902877801588,6.47544875391759e-05,0.0954576581716537,0,0,0
8951,312282.68156899174,2010-11-05 05:08:44,1710.8713820856676,2,28,0.5501165986061096,3.90583062171936,26.753798880469216,26.55081893933523,106.82660239537644,96.78902877801588,3.237724376958795e-05,0.0954576581716537,0,0,0
8952,312312.6968416099,2010-11-05 05:09:14,1740.8866547088696,2,28,0.550297200679779,3.90712571144104,26.758385513284072,26.55081893933523,106.84452000644558,96.78902877801588,3.237724376958795e-05,0.0954576581716537,0,0,0
8953,312342.71212538093,2010-11-05 05:09:44,1770.9019384748854,2,28,0.5499359965324402,3.9082589149475098,26.76297212648901,26.55081893933523,106.8624433656256,96.78902877801588,0.0,0.0954576581716537,0,0,0
8954,312372.72741839505,2010-11-05 05:10:14,1800.917231488986,2,28,0.550297200679779,3.9097158908844,26.767558742170923,26.55081893933523,106.88037267664556,96.78902877801588,3.237724376958795e-05,0.0954576581716537,0,0,0
8955,312402.7427951281,2010-11-05 05:10:44,1830.932608222062,2,28,0.5501165986061096,3.911010980606079,26.7721453492062,26.55081893933523,106.89830789633535,96.78902877801588,3.237724376958795e-05,0.0954576581716537,0,0,0
8956,312432.75796104496,2010-11-05 05:11:14,1860.9477741389085,2,28,0.5501165986061096,3.912306070327759,26.776731852602964,26.55081893933523,106.91624871600808,96.78902877801588,0.0,0.0954576581716537,0,0,0
8957,312462.7732506606,2010-11-05 05:11:44,1890.9630637795883,2,28,0.5499359965324402,3.913439273834229,26.781318331370287,26.55081893933523,106.93419540355931,96.78902877801588,0.0,0.0954576581716537,0,0,0
8958,312492.78854184016,2010-11-05 05:12:14,1920.978354934047,2,28,0.5501165986061096,3.914896011352539,26.78590496784081,26.55081893933523,106.9521487766178,96.78902877801588,0.0,0.0954576581716537,0,0,0
8959,312522.80386611726,2010-11-05 05:12:44,1950.993679206172,2,28,0.5497553944587708,3.9161911010742183,26.790491591697773,26.55081893933523,106.97010805824382,96.78902877801588,3.237724376958795e-05,0.0954576581716537,0,0,0
8960,312552.8195070548,2010-11-05 05:13:14,1981.009320148756,2,28,0.550297200679779,3.917648077011109,26.79507822903985,26.55081893933523,106.98807364419932,96.78902877801588,6.47544875391759e-05,0.0954576581716537,0,0,0
8961,312582.83455417014,2010-11-05 05:13:44,2011.0243672640552,2,28,0.5501165986061096,3.919105052947998,26.799664890183927,26.55081893933523,107.00604551571053,96.78902877801588,6.47544875391759e-05,0.0954576581716537,0,0,0
8962,312612.84978999646,2010-11-05 05:14:14,2041.0396031004311,2,28,0.550297200679779,3.920238256454468,26.804251477703943,26.55081893933523,107.0240233718072,96.78902877801588,0.0,0.0954576581716537,0,0,0
8963,312642.8651090356,2010-11-05 05:14:44,2071.054922129469,2,28,0.5501165986061096,3.921695232391357,26.808838063512763,26.55081893933523,107.04200750010531,96.78902877801588,3.237724376958795e-05,0.0954576581716537,0,0,0
8964,312672.88025204523,2010-11-05 05:15:14,2101.070065139136,2,28,0.550297200679779,3.923152208328247,26.813424679661,26.55081893933523,107.05999813785168,96.78902877801588,6.47544875391759e-05,0.0954576581716537,0,0,0
8965,312702.8955365631,2010-11-05 05:15:44,2131.0853496570285,2,28,0.5499359965324402,3.924285411834717,26.818011288126623,26.55081893933523,107.07799510477716,96.78902877801588,0.0,0.0954576581716537,0,0,0
8966,312732.91082201834,2010-11-05 05:16:14,2161.100635112261,2,28,0.5501165986061096,3.925904273986816,26.822597942880595,26.55081893933523,107.0959987572414,96.78902877801588,3.237724376958795e-05,0.0954576581716537,0,0,0
8967,312762.9261192279,2010-11-05 05:16:44,2191.115932321834,2,28,0.5501165986061096,3.927361249923706,26.827184605049737,26.55081893933523,107.11400881556436,96.78902877801588,6.47544875391759e-05,0.0954576581716537,0,0,0
8968,312792.94141062297,2010-11-05 05:17:14,2221.131223716893,2,28,0.5501165986061096,3.9286563396453857,26.83177125920577,26.55081893933523,107.1320254738556,96.78902877801588,-3.237724376958795e-05,0.0954576581716537,0,0,0
8969,312822.95685659884,2010-11-05 05:17:44,2251.146669717873,2,28,0.5501165986061096,3.9301133155822754,26.836357908923937,26.55081893933523,107.15004872958984,96.78902877801588,0.0,0.0954576581716537,0,0,0
8970,312852.9719663505,2010-11-05 05:18:14,2281.161779444459,2,28,0.5501165986061096,3.931732177734375,26.84094446950292,26.55081893933523,107.16807830506808,96.78902877801588,6.47544875391759e-05,0.0954576581716537,0,0,0
8971,312882.98770469625,2010-11-05 05:18:44,2311.177517785164,2,28,0.5501165986061096,3.9331891536712646,26.845531145174807,26.55081893933523,107.18611508616452,96.78902877801588,3.237724376958795e-05,0.0954576581716537,0,0,0
8972,312913.00254607794,2010-11-05 05:19:14,2341.192359171933,2,28,0.550297200679779,3.9346461296081534,26.850117688587915,26.55081893933523,107.20415816837576,96.78902877801588,3.237724376958795e-05,0.0954576581716537,0,0,0
8973,312943.01797596377,2010-11-05 05:19:44,2371.207789062699,2,28,0.5501165986061096,3.936264991760254,26.85470431499746,26.55081893933523,107.22220853155778,96.78902877801588,6.47544875391759e-05,0.0954576581716537,0,0,0
8974,312973.03310397593,2010-11-05 05:20:14,2401.2229170749297,2,28,0.5501165986061096,3.937721967697144,26.859290908790346,26.55081893933523,107.24026556227828,96.78902877801588,6.47544875391759e-05,0.0954576581716537,0,0,0
8975,313003.0485598967,2010-11-05 05:20:44,2431.238372990658,2,28,0.550297200679779,3.939340829849243,26.863877594068803,26.55081893933523,107.25833007445806,96.78902877801588,6.47544875391759e-05,0.0954576581716537,0,0,0
8976,313033.0636806007,2010-11-05 05:21:14,2461.2534936946454,2,28,0.5501165986061096,3.940797805786133,26.86846413794947,26.55081893933523,107.2764010710916,96.78902877801588,6.47544875391759e-05,0.0954576581716537,0,0,0
8977,313063.0789677752,2010-11-05 05:21:44,2491.268780894232,2,28,0.5501165986061096,3.9422547817230233,26.873050753030835,26.55081893933523,107.29447943868266,96.78902877801588,6.47544875391759e-05,0.0954576581716537,0,0,0
8978,313093.0943795408,2010-11-05 05:22:14,2521.2841926246665,2,28,0.5501165986061096,3.943873643875122,26.87763737783375,26.55081893933523,107.31256505989964,96.78902877801588,3.237724376958795e-05,0.0954576581716537,0,0,0
8979,313123.10969042947,2010-11-05 05:22:44,2551.2995035234103,2,28,0.5499359965324402,3.945330619812012,26.882224040282665,26.55081893933523,107.33065799516086,96.78902877801588,0.0,0.0954576581716537,0,0,0
8980,313153.1248143715,2010-11-05 05:23:14,2581.314627465481,2,28,0.5501165986061096,3.9469494819641113,26.88681066500512,26.55081893933523,107.34875805004936,96.78902877801588,3.237724376958795e-05,0.0954576581716537,0,0,0
8981,313183.1400971902,2010-11-05 05:23:44,2611.3299102841324,2,28,0.5501165986061096,3.948730230331421,26.89139734468581,26.55081893933523,107.36686567730814,96.78902877801588,3.237724376958795e-05,0.0954576581716537,0,0,0
8982,313213.15540904633,2010-11-05 05:24:14,2641.3452221502903,2,28,0.5501165986061096,3.950187206268311,26.895983969211745,26.55081893933523,107.38498044047458,96.78902877801588,0.0,0.0954576581716537,0,0,0
8983,313243.1706895191,2010-11-05 05:24:44,2671.3605026130613,2,28,0.5501165986061096,3.95180606842041,26.90057063390916,26.55081893933523,107.4031028591698,96.78902877801588,3.237724376958795e-05,0.0954576581716537,0,0,0
8984,313273.18596235284,2010-11-05 05:25:14,2701.3757754467883,2,28,0.5501165986061096,3.9534249305725098,26.90515729484234,26.55081893933523,107.4212327751302,96.78902877801588,0.0,0.0954576581716537,0,0,0
8985,313303.2014626143,2010-11-05 05:25:44,2731.3912757182347,2,28,0.5501165986061096,3.9552056789398193,26.90974406886744,26.55081893933523,107.43937080746493,96.78902877801588,6.47544875391759e-05,0.0954576581716537,0,0,0
8986,313333.2165249626,2010-11-05 05:26:14,2761.406338056533,2,28,0.5501165986061096,3.956986427307129,26.91433066279417,26.55081893933523,107.45751575642744,96.78902877801588,9.713172767078504e-05,0.0954576581716537,0,0,0
8987,313363.2321689127,2010-11-05 05:26:44,2791.421982006624,2,28,0.550297200679779,3.9587671756744394,26.91891738696161,26.55081893933523,107.47566877202772,96.78902877801588,6.47544875391759e-05,0.0954576581716537,0,0,0
8988,313393.2471196424,2010-11-05 05:27:14,2821.4369327363306,2,28,0.550297200679779,3.960386037826538,26.923503944559325,26.55081893933523,107.49382894966608,96.78902877801588,6.47544875391759e-05,0.0954576581716537,0,0,0
8989,313423.26239576435,2010-11-05 05:27:44,2851.4522088582657,2,28,0.5501165986061096,3.9620048999786377,26.928090623328817,26.55081893933523,107.5119974880118,96.78902877801588,6.47544875391759e-05,0.0954576581716537,0,0,0
8990,313453.27766622714,2010-11-05 05:28:14,2881.4674793210747,2,28,0.5501165986061096,3.9637856483459473,26.932677279811728,26.55081893933523,107.53017375064124,96.78902877801588,6.47544875391759e-05,0.0954576581716537,0,0,0
8991,313483.2929662488,2010-11-05 05:28:44,2911.48277934768,2,28,0.5501165986061096,3.965404510498047,26.93726393256181,26.55081893933523,107.5483580405331,96.78902877801588,3.237724376958795e-05,0.0954576581716537,0,0,0
8992,313513.30825818016,2010-11-05 05:29:14,2941.498071274065,2,28,0.5501165986061096,3.967185258865357,26.9418506431868,26.55081893933523,107.5665506330076,96.78902877801588,6.47544875391759e-05,0.0954576581716537,0,0,0
8993,313543.3235229437,2010-11-05 05:29:44,2971.513336037648,2,28,0.5501165986061096,3.968966007232666,26.9464373607476,26.55081893933523,107.58475125067464,96.78902877801588,6.47544875391759e-05,0.0954576581716537,0,0,0
8994,313573.3388033313,2010-11-05 05:30:14,3001.5286164252307,2,28,0.550297200679779,3.970746755599976,26.951024077472383,26.55081893933523,107.6029600447838,96.78902877801588,3.237724376958795e-05,0.0954576581716537,0,0,0
8995,313603.354250816,2010-11-05 05:30:44,3031.544064025202,2,28,0.5501165986061096,3.972527503967285,26.955610787277827,26.55081893933523,107.62117712535624,96.78902877801588,3.237724376958795e-05,0.0954576581716537,0,0,0
8996,313633.36939522414,2010-11-05 05:31:14,3061.559208318071,2,28,0.5501165986061096,3.9744701385498047,26.960197456775305,26.55081893933523,107.63940237110604,96.78902877801588,3.237724376958795e-05,0.0954576581716537,0,0,0
8997,313663.38466787746,2010-11-05 05:31:44,3091.5744809964103,2,28,0.5501165986061096,3.976250886917114,26.96478412921656,26.55081893933523,107.65763603134748,96.78902877801588,3.237724376958795e-05,0.0954576581716537,0,0,0
8998,313693.3999466359,2010-11-05 05:32:14,3121.5897597348767,2,28,0.5501165986061096,3.977869749069214,26.969370891741523,26.55081893933523,107.67587836507931,96.78902877801588,3.237724376958795e-05,0.0954576581716537,0,0,0
8999,313723.41524890816,2010-11-05 05:32:44,3151.605062002074,2,28,0.5499359965324402,3.980136156082153,26.973957497775963,26.55081893933523,107.6941285204073,96.78902877801588,6.47544875391759e-05,0.0954576581716537,0,0,0
9000,313753.43076403666,2010-11-05 05:33:14,3181.6205772458943,2,28,0.5501165986061096,3.981916904449463,26.97854414351352,26.55081893933523,107.71238771862023,96.78902877801588,6.47544875391759e-05,0.0954576581716537,0,0,0
9001,313783.4458705252,2010-11-05 05:33:44,3211.635683644173,2,28,0.5501165986061096,3.9838595390319824,26.98313077078243,26.55081893933523,107.73065558414145,96.78902877801588,3.237724376958795e-05,0.0954576581716537,0,0,0
9002,313813.46132693713,2010-11-05 05:34:14,3241.6511400310774,2,28,0.550297200679779,3.985802173614502,26.98771739732733,26.55081893933523,107.74893221247646,96.78902877801588,9.713172767078504e-05,0.0954576581716537,0,0,0
9003,313843.4764049145,2010-11-05 05:34:44,3271.6662180084136,2,28,0.550297200679779,3.9877448081970215,26.99230398670161,26.55081893933523,107.76721752143112,96.78902877801588,6.47544875391759e-05,0.0954576581716537,0,0,0
9004,313873.4916544601,2010-11-05 05:35:14,3301.68146755401,2,28,0.5501165986061096,3.989525556564331,26.99689055486635,26.55081893933523,107.78551153517152,96.78902877801588,6.47544875391759e-05,0.0954576581716537,0,0,0
9005,313903.5069663563,2010-11-05 05:35:44,3331.6967794502434,2,28,0.5499359965324402,3.991630077362061,27.001477124090865,26.55081893933523,107.80381464807202,96.78902877801588,6.47544875391759e-05,0.0954576581716537,0,0,0
9006,313933.5222022478,2010-11-05 05:36:14,3361.712015341757,2,28,0.550297200679779,3.99373459815979,27.00606367398844,26.55081893933523,107.82212687206952,96.78902877801588,6.47544875391759e-05,0.0954576581716537,0,0,0
9007,313963.53750452003,2010-11-05 05:36:44,3391.727317613967,2,28,0.5501165986061096,3.9956769943237305,27.01065022286785,26.55081893933523,107.8404483788288,96.78902877801588,6.47544875391759e-05,0.0954576581716537,0,0,0
9008,313993.5528634637,2010-11-05 05:37:14,3421.7426765576383,2,28,0.5501165986061096,3.99778151512146,27.0152367620661,26.55081893933523,107.8587792814523,96.78902877801588,9.713172767078504e-05,0.0954576581716537,0,0,0
9009,314023.5682243723,2010-11-05 05:37:44,3451.7580374712265,2,28,0.5499359965324402,3.99972414970398,27.019823303546875,26.55081893933523,107.87711962671835,96.78902877801588,9.713172767078504e-05,0.0954576581716537,0,0,0
9010,314053.5835406344,2010-11-05 05:38:14,3481.773353733357,2,28,0.5501165986061096,4.001990795135498,27.024409900921885,26.55081893933523,107.89546986725291,96.78902877801588,6.47544875391759e-05,0.0954576581716537,0,0,0
9011,314083.59872653615,2010-11-05 05:38:44,3511.7885396401016,2,28,0.5501165986061096,4.004095077514648,27.028996418263777,26.55081893933523,107.91382952403538,96.78902877801588,6.47544875391759e-05,0.0954576581716537,0,0,0
9012,314113.6139909789,2010-11-05 05:39:14,3541.803804158072,2,28,0.5501165986061096,4.006199836730957,27.03358294703946,26.55081893933523,107.93219911746536,96.78902877801588,6.47544875391759e-05,0.0954576581716537,0,0,0
9013,314143.6292327751,2010-11-05 05:39:45,3571.8190458691115,2,28,0.5501165986061096,4.008304119110107,27.038169497201263,26.55081893933523,107.95057875746232,96.78902877801588,6.47544875391759e-05,0.0954576581716537,0,0,0
9014,314173.64451242087,2010-11-05 05:40:15,3601.834325514843,2,28,0.550297200679779,4.010732650756836,27.042756001087263,26.55081893933523,107.96896807203876,96.78902877801588,0.0001295089750783,0.0954576581716537,0,0,0
9015,314203.6598191993,2010-11-05 05:40:45,3631.849632298314,2,28,0.5499359965324402,4.012675285339356,27.04734256667684,26.55081893933523,107.98736785311264,96.78902877801588,3.24249267578125e-05,0.0954576581716537,0,0,0
9016,314233.67508339655,2010-11-05 05:41:15,3661.864896495483,2,28,0.5501165986061096,4.015103340148926,27.05192913564501,26.55081893933523,108.00577790016531,96.78902877801588,6.47544875391759e-05,0.0954576581716537,0,0,0
9017,314263.6904148716,2010-11-05 05:41:45,3691.880227965576,2,28,0.550297200679779,4.017369747161865,27.056515685700315,26.55081893933523,108.02419824642028,96.78902877801588,6.47544875391759e-05,0.0954576581716537,0,0,0
9018,314293.70565476315,2010-11-05 05:42:15,3721.895467857074,2,28,0.550297200679779,4.019312381744385,27.061102288970737,26.55081893933523,108.04262918116927,96.78902877801588,3.23295607813634e-05,0.0954576581716537,0,0,0
9019,314323.7211509945,2010-11-05 05:42:45,3751.910964088436,2,28,0.5501165986061096,4.021902561187744,27.065688879763464,26.55081893933523,108.06107055458784,96.78902877801588,6.47544875391759e-05,0.0954576581716537,0,0,0
9020,314353.7362323653,2010-11-05 05:43:15,3781.926045459242,2,28,0.5501165986061096,4.024331092834473,27.070275428518688,26.55081893933523,108.07952242865905,96.78902877801588,9.71794142969884e-05,0.0954576581716537,0,0,0
9021,314383.7515277102,2010-11-05 05:43:45,3811.941340804161,2,28,0.5501165986061096,4.026435375213623,27.074861972643305,26.55081893933523,108.09798495819904,96.78902877801588,6.47544875391759e-05,0.0954576581716537,0,0,0
9022,314413.7669166237,2010-11-05 05:44:15,3841.956729717642,2,28,0.5501165986061096,4.028863906860352,27.07944853281215,26.55081893933523,108.11645842290233,96.78902877801588,3.24249267578125e-05,0.0954576581716537,0,0,0
9023,314443.7820905555,2010-11-05 05:44:45,3871.9719036494944,2,28,0.5501165986061096,4.031291961669922,27.084035103331,26.55081893933523,108.13494275895174,96.78902877801588,6.47544875391759e-05,0.0954576581716537,0,0,0
9024,314473.79752163426,2010-11-05 05:45:15,3901.9873347382495,2,28,0.5501165986061096,4.03372049331665,27.088621585324887,26.55081893933523,108.15343771303402,96.78902877801588,6.47544875391759e-05,0.0954576581716537,0,0,0
9025,314503.81264246855,2010-11-05 05:45:45,3932.002455562539,2,28,0.5499359965324402,4.036148548126221,27.0932081373134,26.55081893933523,108.1719441564218,96.78902877801588,3.24249267578125e-05,0.0954576581716537,0,0,0
9026,314533.8280938229,2010-11-05 05:46:15,3962.017906936931,2,28,0.5501165986061096,4.038576602935791,27.09779474745347,26.55081893933523,108.19046211995992,96.78902877801588,3.23295607813634e-05,0.0954576581716537,0,0,0
9027,314563.8432235044,2010-11-05 05:46:45,3992.033036598279,2,28,0.5499359965324402,4.04100513458252,27.10238130518099,26.55081893933523,108.2089910727686,96.78902877801588,3.24249267578125e-05,0.0954576581716537,0,0,0
9028,314593.8585024784,2010-11-05 05:47:15,4022.0483155723327,2,28,0.5501165986061096,4.043595314025879,27.1069677944228,26.55081893933523,108.2275311264656,96.78902877801588,6.47544875391759e-05,0.0954576581716537,0,0,0
9029,314623.87377068057,2010-11-05 05:47:45,4052.0635837744985,2,28,0.5504778623580933,4.046347141265869,27.111554383063392,26.55081893933523,108.24608302779214,96.78902877801588,9.70840483205393e-05,0.0954576581716537,0,0,0
9030,314653.8890625368,2010-11-05 05:48:15,4082.078875630709,2,28,0.5501165986061096,4.048613548278809,27.116140930007425,26.55081893933523,108.26464630036467,96.78902877801588,6.47544875391759e-05,0.0954576581716537,0,0,0
9031,314683.9043778867,2010-11-05 05:48:45,4112.094190980563,2,28,0.550297200679779,4.051365852355957,27.12072756718614,26.55081893933523,108.28322164361926,96.78902877801588,0.0001295089750783,0.0954576581716537,0,0,0
9032,314713.92018282355,2010-11-05 05:49:15,4142.109995917502,2,28,0.550297200679779,4.053956031799316,27.125314182314177,26.55081893933523,108.30180867330267,96.78902877801588,0.0001295089750783,0.0954576581716537,0,0,0
9033,314743.9349662607,2010-11-05 05:49:45,4172.124779439832,2,28,0.5501165986061096,4.056222438812256,27.12990068648397,26.55081893933523,108.32040711545476,96.78902877801588,3.24249267578125e-05,0.0954576581716537,0,0,0
9034,314773.9502026935,2010-11-05 05:50:15,4202.140015787485,2,28,0.5501165986061096,4.058974266052246,27.134487268098045,26.55081893933523,108.33901785803468,96.78902877801588,9.70840483205393e-05,0.0954576581716537,0,0,0
9035,314803.96562964696,2010-11-05 05:50:45,4232.155442750944,2,28,0.5501165986061096,4.061402797698975,27.13907392270219,26.55081893933523,108.35764078988336,96.78902877801588,3.24249267578125e-05,0.0954576581716537,0,0,0
9036,314833.9807731479,2010-11-05 05:51:15,4262.170586241811,2,28,0.5501165986061096,4.064316749572754,27.14366050454809,26.55081893933523,108.37627552122284,96.78902877801588,9.71794142969884e-05,0.0954576581716537,0,0,0
9037,314863.9961961915,2010-11-05 05:51:45,4292.186009290498,2,28,0.5501165986061096,4.066906929016113,27.148247041654667,26.55081893933523,108.39492229417496,96.78902877801588,9.71794142969884e-05,0.0954576581716537,0,0,0
9038,314894.0113550558,2010-11-05 05:52:15,4322.201168149727,2,28,0.5501165986061096,4.069658756256104,27.15283356201288,26.55081893933523,108.41358150714244,96.78902877801588,6.47544875391759e-05,0.0954576581716537,0,0,0
9039,314924.0267697787,2010-11-05 05:52:45,4352.216582877644,2,28,0.5501165986061096,4.072248935699463,27.15742006665963,26.55081893933523,108.43225323166924,96.78902877801588,6.47544875391759e-05,0.0954576581716537,0,0,0
9040,314954.0419041468,2010-11-05 05:53:15,4382.231717240727,2,28,0.550297200679779,4.075325012207031,27.16200658681774,26.55081893933523,108.45093771614864,96.78902877801588,0.0001295089750783,0.0954576581716537,0,0,0
9041,314984.05729038856,2010-11-05 05:53:45,4412.247103507601,2,28,0.5499359965324402,4.077915191650391,27.166593157357617,26.55081893933523,108.4696352257392,96.78902877801588,6.47544875391759e-05,0.0954576581716537,0,0,0
9042,315014.0725684253,2010-11-05 05:54:15,4442.262381534291,2,28,0.5499359965324402,4.080667018890381,27.17117970156957,26.55081893933523,108.48834557265975,96.78902877801588,6.47544875391759e-05,0.0954576581716537,0,0,0
9043,315044.08786424645,2010-11-05 05:54:45,4472.277677350386,2,28,0.5501165986061096,4.083743095397949,27.175766261857905,26.55081893933523,108.50706882587455,96.78902877801588,6.47544875391759e-05,0.0954576581716537,0,0,0
9044,315074.1030099829,2010-11-05 05:55:15,4502.292823101897,2,28,0.550297200679779,4.0866570472717285,27.180352787508607,26.55081893933523,108.52580504862536,96.78902877801588,0.0001295089750783,0.0954576581716537,0,0,0
9045,315104.1183127764,2010-11-05 05:55:45,4532.308125870345,2,28,0.5501165986061096,4.089408874511719,27.184939358307663,26.55081893933523,108.5445546729112,96.78902877801588,6.47544875391759e-05,0.0954576581716537,0,0,0
9046,315134.133708552,2010-11-05 05:56:15,4562.323521645955,2,28,0.5501165986061096,4.092322826385498,27.189525904583835,26.55081893933523,108.56331752892795,96.78902877801588,9.70840483205393e-05,0.0954576581716537,0,0,0
9047,315164.1488842082,2010-11-05 05:56:45,4592.338697302112,2,28,0.5499359965324402,4.095398902893066,27.194112461534942,26.55081893933523,108.58209392582248,96.78902877801588,9.71794142969884e-05,0.0954576581716537,0,0,0
9048,315194.1641526911,2010-11-05 05:57:15,4622.353965784979,2,28,0.5501165986061096,4.098312854766846,27.19869902949573,26.55081893933523,108.60088396593872,96.78902877801588,6.47544875391759e-05,0.0954576581716537,0,0,0
9049,315224.1796569274,2010-11-05 05:57:45,4652.369470031347,2,28,0.550297200679779,4.101388454437256,27.20328557546743,26.55081893933523,108.61968761542782,96.78902877801588,0.0001295089750783,0.0954576581716537,0,0,0
9050,315254.1948436361,2010-11-05 05:58:15,4682.384656730069,2,28,0.5501165986061096,4.104464530944824,27.20787209032775,26.55081893933523,108.63850485704984,96.78902877801588,9.71794142969884e-05,0.0954576581716537,0,0,0
9051,315284.21021076024,2010-11-05 05:58:45,4712.400023854159,2,28,0.5499359965324402,4.107216358184815,27.21245861993239,26.55081893933523,108.65733618473132,96.78902877801588,6.47544875391759e-05,0.0954576581716537,0,0,0
9052,315314.2254370277,2010-11-05 05:59:15,4742.415250131675,2,28,0.5501165986061096,4.110454082489014,27.21704516276029,26.55081893933523,108.67618167591084,96.78902877801588,9.70840483205393e-05,0.0954576581716537,0,0,0
9053,315344.2405797767,2010-11-05 05:59:45,4772.430392875678,2,28,0.5501165986061096,4.113530158996582,27.22163170648028,26.55081893933523,108.69504132201484,96.78902877801588,6.47544875391759e-05,0.0954576581716537,0,0,0
9054,315374.2559975623,2010-11-05 06:00:15,4802.445810661227,2,28,0.550297200679779,4.116767406463623,27.226218267116824,26.55081893933523,108.713915400668,96.78902877801588,9.70840483205393e-05,0.0954576581716537,0,0,0
9055,315404.2711452937,2010-11-05 06:00:45,4832.460958387667,2,28,0.5501165986061096,4.119843482971191,27.23080482302976,26.55081893933523,108.73280391562962,96.78902877801588,9.71794142969884e-05,0.0954576581716537,0,0,0
9056,315434.286428373,2010-11-05 06:01:15,4862.476241466969,2,28,0.5501165986061096,4.123081207275391,27.23539139981709,26.55081893933523,108.7517070086305,96.78902877801588,9.71794142969884e-05,0.0954576581716537,0,0,0
9057,315464.30171305133,2010-11-05 06:01:45,4892.491526145263,2,28,0.5501165986061096,4.126156806945801,27.23997799884489,26.55081893933523,108.77062472546804,96.78902877801588,6.47544875391759e-05,0.0954576581716537,0,0,0
9058,315494.3169879101,2010-11-05 06:02:15,4922.506801014069,2,28,0.5499359965324402,4.129232883453369,27.24456451926344,26.55081893933523,108.78955681998822,96.78902877801588,6.47544875391759e-05,0.0954576581716537,0,0,0
9059,315524.3323102574,2010-11-05 06:02:45,4952.522123351366,2,28,0.5501165986061096,4.132470607757568,27.249151086942195,26.55081893933523,108.80850399231494,96.78902877801588,6.47544875391759e-05,0.0954576581716537,0,0,0
9060,315554.34758709115,2010-11-05 06:03:15,4982.537400185078,2,28,0.5499359965324402,4.135869979858398,27.253737662328387,26.55081893933523,108.82746602160704,96.78902877801588,9.70840483205393e-05,0.0954576581716537,0,0,0
9061,315584.3628448272,2010-11-05 06:03:45,5012.552657926131,2,28,0.5499359965324402,4.138946056365967,27.258324273766352,26.55081893933523,108.84644336941837,96.78902877801588,3.24249267578125e-05,0.0954576581716537,0,0,0
9062,315614.37812196166,2010-11-05 06:04:15,5042.567935055581,2,28,0.5499359965324402,4.142507553100586,27.2629109133718,26.55081893933523,108.86543607620926,96.78902877801588,9.71794142969884e-05,0.0954576581716537,0,0,0
9063,315644.39341931656,2010-11-05 06:04:45,5072.583232410517,2,28,0.5499359965324402,4.146069049835205,27.267497489852268,26.55081893933523,108.884444034655,96.78902877801588,0.0001295089750783,0.0954576581716537,0,0,0
9064,315674.4086863558,2010-11-05 06:05:15,5102.59849944978,2,28,0.5501165986061096,4.149468421936035,27.272084073816213,26.55081893933523,108.90346778411622,96.78902877801588,9.70840483205393e-05,0.0954576581716537,0,0,0
9065,315704.4239666081,2010-11-05 06:05:45,5132.613779707038,2,28,0.5501165986061096,4.152706146240234,27.27667059848271,26.55081893933523,108.92250698147645,96.78902877801588,6.47544875391759e-05,0.0954576581716537,0,0,0
9066,315734.4393917219,2010-11-05 06:06:15,5162.629204815868,2,28,0.5499359965324402,4.1562676429748535,27.28125715844228,26.55081893933523,108.94156203879524,96.78902877801588,9.70840483205393e-05,0.0954576581716537,0,0,0
9067,315764.45456519263,2010-11-05 06:06:45,5192.644378286569,2,28,0.550297200679779,4.159829139709473,27.285843723668982,26.55081893933523,108.96063298279034,96.78902877801588,0.0001295089750783,0.0954576581716537,0,0,0
9068,315794.46981554024,2010-11-05 06:07:15,5222.659628644193,2,28,0.550297200679779,4.163228988647461,27.29043030676693,26.55081893933523,108.97971994148692,96.78902877801588,9.71794142969884e-05,0.0954576581716537,0,0,0
9069,315824.4851206044,2010-11-05 06:07:45,5252.674933698347,2,28,0.5501165986061096,4.16679048538208,27.2950168482206,26.55081893933523,108.99882277613676,96.78902877801588,9.71794142969884e-05,0.0954576581716537,0,0,0
9070,315854.50038078154,2010-11-05 06:08:15,5282.690193880494,2,28,0.5501165986061096,4.170351982116699,27.29960344133173,26.55081893933523,109.01794213484509,96.78902877801588,9.71794142969884e-05,0.0954576581716537,0,0,0
9071,315884.5158893988,2010-11-05 06:08:45,5312.705702512811,2,28,0.550297200679779,4.173913478851318,27.30418998166797,26.55081893933523,109.03707760629254,96.78902877801588,9.71794142969884e-05,0.0954576581716537,0,0,0
9072,315914.5309498424,2010-11-05 06:09:15,5342.720762936329,2,28,0.5501165986061096,4.177151203155518,27.30877652096206,26.55081893933523,109.05622937962592,96.78902877801588,3.24249267578125e-05,0.0954576581716537,0,0,0
9073,315944.54636818933,2010-11-05 06:09:45,5372.7361812832805,2,28,0.5501165986061096,4.181036472320557,27.31336313193409,26.55081893933523,109.07539791345388,96.78902877801588,9.71794142969884e-05,0.0954576581716537,0,0,0
9074,315974.56164222106,2010-11-05 06:10:15,5402.751455314998,2,28,0.5501165986061096,4.184597969055176,27.317949690982967,26.55081893933523,109.09458285372236,96.78902877801588,6.47544875391759e-05,0.0954576581716537,0,0,0
9075,316004.5769256011,2010-11-05 06:10:45,5432.766738695051,2,28,0.550297200679779,4.188321113586426,27.322536198917565,26.55081893933523,109.11378418032189,96.78902877801588,9.70840483205393e-05,0.0954576581716537,0,0,0
9076,316034.59206383885,2010-11-05 06:11:15,5462.78187694283,2,28,0.5501165986061096,4.192044734954834,27.327122666312885,26.55081893933523,109.1330022681796,96.78902877801588,0.0001295089750783,0.0954576581716537,0,0,0
9077,316064.60734705854,2010-11-05 06:11:46,5492.797160152458,2,28,0.5499359965324402,4.195767879486084,27.33170922164043,26.55081893933523,109.15223759933936,96.78902877801588,9.71794142969884e-05,0.0954576581716537,0,0,0
9078,316094.6226258521,2010-11-05 06:12:16,5522.812438946062,2,28,0.5501165986061096,4.199329376220703,27.33629573972273,26.55081893933523,109.171489686736,96.78902877801588,6.47544875391759e-05,0.0954576581716537,0,0,0
9079,316099.02883545414,2010-11-05 06:12:20,5527.218648548107,2,28,0.5499359965324402,4.200138568878174,27.336969041858136,26.55081893933523,109.17431734431608,96.78902877801588,0.0001618385285837,0.0954576581716537,0,0,0
9080,316129.0326248293,2010-11-05 06:12:50,30.015413810627297,3,28,0.0,4.113530158996582,27.336969041858136,26.55081893933523,109.17431734431608,96.78902877801588,-0.0004208564641885,0.0954576581716537,0,0,0
9081,316159.04777794925,2010-11-05 06:13:20,60.03056692050541,3,28,0.0,4.102845668792725,27.336969041858136,26.55081893933523,109.17431734431608,96.78902877801588,-0.0002265930233988,0.0954576581716537,0,0,0
9082,316189.0632777144,2010-11-05 06:13:50,90.0460666856885,3,28,0.0,4.096693992614746,27.336969041858136,26.55081893933523,109.17431734431608,96.78902877801588,-9.70840483205393e-05,0.0954576581716537,0,0,0
9083,316219.03146687505,2010-11-05 06:14:20,120.0142558463241,3,28,0.0,4.092484951019287,27.336969041858136,26.55081893933523,109.17431734431608,96.78902877801588,-9.70840483205393e-05,0.0954576581716537,0,0,0
9084,316219.0368486221,2010-11-05 06:14:20,2.641593825e-06,4,28,0.9855656027793884,4.199653148651123,27.33696904258132,26.55081893933523,109.1743173473532,96.78902877801588,0.0,0.0954576581716537,0,0,0
9085,316219.9274480352,2010-11-05 06:14:21,0.890602074794391,4,28,0.935175597667694,4.199814796447754,27.337204909506152,26.55081893933523,109.1753079290056,96.78902877801588,3.23295607813634e-05,0.0954576581716537,0,0,0
9086,316222.0993153853,2010-11-05 06:14:23,3.062469434858551,4,28,0.8847855925559998,4.199814796447754,27.33775267189493,26.55081893933523,109.177608386394,96.78902877801588,3.23295607813634e-05,0.0954576581716537,0,0,0
9087,316225.427384187,2010-11-05 06:14:27,6.390538226573254,4,28,0.8345762491226196,4.199814796447754,27.33854611386584,26.55081893933523,109.18094063415332,96.78902877801588,3.23295607813634e-05,0.0954576581716537,0,0,0
9088,316229.9742300688,2010-11-05 06:14:31,10.93738411342158,4,28,0.7845474481582642,4.199976921081543,27.33956708585703,26.55081893933523,109.18522845789856,96.78902877801588,3.24249267578125e-05,0.0954576581716537,0,0,0
9089,316235.8960498771,2010-11-05 06:14:37,16.859203916699762,4,28,0.7345187067985535,4.199814796447754,27.340814975677027,26.55081893933523,109.19046928240002,96.78902877801588,-3.24249267578125e-05,0.0954576581716537,0,0,0
9090,316243.73968911736,2010-11-05 06:14:45,24.70284315695717,4,28,0.684489905834198,4.199653148651123,27.3423589415322,26.55081893933523,109.19695355647497,96.78902877801588,-3.23295607813634e-05,0.0954576581716537,0,0,0
9091,316254.23955731373,2010-11-05 06:14:55,35.20271135333969,4,28,0.6340999007225037,4.199653148651123,27.344279005418144,26.55081893933523,109.205017355634,96.78902877801588,-6.47544875391759e-05,0.0954576581716537,0,0,0
9092,316269.2707720231,2010-11-05 06:15:10,50.23392607277396,4,28,0.584071159362793,4.199814796447754,27.346816354020547,26.55081893933523,109.21567359958291,96.78902877801588,3.23295607813634e-05,0.0954576581716537,0,0,0
9093,316292.47348325,2010-11-05 06:15:34,73.43663728961909,4,28,0.5340424180030823,4.199653148651123,27.350407114036617,26.55081893933523,109.23075394484611,96.78902877801588,0.0,0.0954576581716537,0,0,0
9094,316333.1138508499,2010-11-05 06:16:14,114.0770049396378,4,28,0.4840136170387268,4.199814796447754,27.35612672643517,26.55081893933523,109.25477496246026,96.78902877801588,0.0,0.0954576581716537,0,0,0
9095,316406.7065521192,2010-11-05 06:17:28,187.66970616886,4,28,0.4339848458766937,4.199814796447754,27.365469767275865,26.55081893933523,109.294013531047,96.78902877801588,3.23295607813634e-05,0.0954576581716537,0,0,0
9096,316512.3147414573,2010-11-05 06:19:13,293.2778955168864,4,28,0.3837754726409912,4.199814796447754,27.37744422300476,26.55081893933523,109.34430346240768,96.78902877801588,0.0,0.0954576581716537,0,0,0
9097,316644.53193480294,2010-11-05 06:21:26,425.4950888425339,4,28,0.3337467014789581,4.199653148651123,27.39061104353792,26.55081893933523,109.39960107549524,96.78902877801588,-3.23295607813634e-05,0.0954576581716537,0,0,0
9098,316800.88954992534,2010-11-05 06:24:02,581.8527039648969,4,28,0.283717930316925,4.199653148651123,27.40399976588476,26.55081893933523,109.45583063099404,96.78902877801588,0.0,0.0954576581716537,0,0,0
9099,316988.82496915985,2010-11-05 06:27:10,769.7881231994478,4,28,0.2336891591548919,4.199814796447754,27.41747964482967,26.55081893933523,109.5124429668762,96.78902877801588,6.47544875391759e-05,0.0954576581716537,0,0,0
9100,317222.83778780216,2010-11-05 06:31:04,1003.8009418718262,4,28,0.1836603879928589,4.199814796447754,27.43099559039429,26.55081893933523,109.56920684994988,96.78902877801588,0.0,0.0954576581716537,0,0,0
9101,317533.5061224105,2010-11-05 06:36:15,1314.469276460087,4,28,0.1336316168308258,4.199653148651123,27.444599305467506,26.55081893933523,109.6263395144916,96.78902877801588,-3.23295607813634e-05,0.0954576581716537,0,0,0
9102,318027.1409374627,2010-11-05 06:44:28,1808.10409150225,4,28,0.0836028531193733,4.199814796447754,27.45923316595267,26.55081893933523,109.68779804709185,96.78902877801588,0.0,0.0954576581716537,0,0,0
9103,318632.1339390655,2010-11-05 06:54:33,2413.097093105097,4,28,0.0498289167881011,4.199814796447754,27.470210812398783,26.55081893933523,109.73390169625915,96.78902877801588,0.0,0.0954576581716537,0,0,0
9104,318662.15123204875,2010-11-05 06:55:03,30.015263109453983,5,28,0.0,4.191720962524414,27.470210812398783,26.55081893933523,109.73390169625915,96.78902877801588,-9.70840483205393e-05,0.0954576581716537,0,0,0
9105,318692.1508929828,2010-11-05 06:55:33,60.014924033452736,5,28,0.0,4.190587520599365,27.470210812398783,26.55081893933523,109.73390169625915,96.78902877801588,0.0,0.0954576581716537,0,0,0
9106,318692.34105439106,2010-11-05 06:55:34,0.187445537900374,6,28,-1.9243103452026844e-05,4.190587520599365,27.470210812398783,26.550818940337184,109.73390169625915,96.78902878221464,0.0,0.0949056595563888,0,0,0
9107,318697.1694475833,2010-11-05 06:55:39,5.015838730137921,6,28,0.0007031940040178,4.190587520599365,27.470211734397733,26.550818940421948,109.733905560022,96.78902878256986,-3.24249267578125e-05,0.0949056595563888,0,0,0
9108,318727.18715637433,2010-11-05 06:56:09,30.015264167094013,7,28,-1.099568486213684,4.010732650756836,27.470211734397733,26.559987136539124,109.733905560022,96.82599941782064,-0.0009388923645019,0.0949056595563888,0,0,0
9109,318757.2033348587,2010-11-05 06:56:39,60.0314426464521,7,28,-1.099568486213684,3.9835357666015625,27.470211734397733,26.56915550575573,109.733905560022,96.86263687896528,-0.0005827903514727,0.0949056595563888,0,0,0
9110,318787.21773814195,2010-11-05 06:57:09,90.04584592964746,7,28,-1.0993878841400146,3.964433193206787,27.470211734397733,26.57832323321381,109.733905560022,96.89906356540624,-0.0004532813909463,0.0949056595563888,0,0,0
9111,318817.23304965725,2010-11-05 06:57:39,120.06115756021762,7,28,-1.099568486213684,3.9497015476226807,27.470211734397733,26.587491303228944,109.733905560022,96.93533906742856,-0.0003561496851034,0.0949056595563888,0,0,0
9112,318847.24861287075,2010-11-05 06:58:09,150.07672078881515,7,28,-1.0993878841400146,3.937398195266724,27.470211734397733,26.596659444601897,109.733905560022,96.97149213925104,-0.0002913951757363,0.0949056595563888,0,0,0
9113,318877.26356696384,2010-11-05 06:58:39,180.09167475159146,7,28,-1.0997490882873535,3.9263899326324463,27.470211734397733,26.6058273397311,109.733905560022,97.00753751698322,-0.0002590179501567,0.0949056595563888,0,0,0
9114,318907.27903100994,2010-11-05 06:59:09,210.10713892292685,7,28,-1.0993878841400146,3.9161911010742183,27.470211734397733,26.61499546211776,109.733905560022,97.04348699672998,-0.0002590179501567,0.0949056595563888,0,0,0
9115,318937.2941104208,2010-11-05 06:59:39,240.1222182085282,7,28,-1.0997490882873535,3.9064781665802,27.470211734397733,26.62416343194884,109.733905560022,97.07934566059168,-0.0002590179501567,0.0949056595563888,0,0,0
9116,318967.30942484835,2010-11-05 07:00:09,270.1375327313178,7,28,-1.0997490882873535,3.897250652313232,27.470211734397733,26.633331586971327,109.733905560022,97.11511875064328,-0.0002266406954731,0.0949056595563888,0,0,0
9117,318997.32465596794,2010-11-05 07:00:39,300.15276376069494,7,28,-1.0997490882873535,3.888346910476685,27.470211734397733,26.64249959096304,109.733905560022,97.15080828845336,-0.0002590179501567,0.0949056595563888,0,0,0
9118,319027.3399511224,2010-11-05 07:01:09,330.1680589051131,7,28,-1.099568486213684,3.879928827285767,27.470211734397733,26.651667690975323,109.733905560022,97.1864180443862,-0.0002266406954731,0.0949056595563888,0,0,0
9119,319057.3552307681,2010-11-05 07:01:39,360.1833385658818,7,28,-1.099568486213684,3.871348857879639,27.470211734397733,26.66083572798727,109.733905560022,97.22194879096094,-0.0001942634553415,0.0949056595563888,0,0,0
9120,319087.37050824845,2010-11-05 07:02:09,390.1986160612452,7,28,-1.099568486213684,3.8629307746887207,27.470211734397733,26.67000382467528,109.733905560022,97.25740278062317,-0.0002266406954731,0.0949056595563888,0,0,0
9121,319117.3857847614,2010-11-05 07:02:39,420.21389257415626,7,28,-1.0997490882873535,3.8546745777130127,27.470211734397733,26.67917189515201,109.733905560022,97.29278074951232,-0.0002266406954731,0.0949056595563888,0,0,0
9122,319147.4010646928,2010-11-05 07:03:09,450.2291724805379,7,28,-1.099568486213684,3.8467421531677246,27.470211734397733,26.68833990616405,109.733905560022,97.3280836689064,-0.0001942634553415,0.0949056595563888,0,0,0
9123,319177.41632754664,2010-11-05 07:03:39,480.2444353594164,7,28,-1.099568486213684,3.8386478424072266,27.470211734397733,26.69750800795512,109.733905560022,97.36331372540783,-0.0002266406954731,0.0949056595563888,0,0,0
9124,319207.4316069668,2010-11-05 07:04:09,510.2597147545218,7,28,-1.0997490882873535,3.8307156562805176,27.470211734397733,26.70667610646542,109.733905560022,97.3984714516218,-0.0002590179501567,0.0949056595563888,0,0,0
9125,319237.4470083965,2010-11-05 07:04:39,540.2751161842446,7,28,-1.0997490882873535,3.8231070041656494,27.470211734397733,26.715844211175373,109.733905560022,97.43355808714874,-0.0002266406954731,0.0949056595563888,0,0,0
9126,319267.4621711454,2010-11-05 07:05:09,570.2902789331831,7,28,-1.099568486213684,3.815498352050781,27.470211734397733,26.72501226768141,109.733905560022,97.46857444458762,-0.0002266406954731,0.0949056595563888,0,0,0
9127,319297.477459127,2010-11-05 07:05:39,600.3055669748719,7,28,-1.099568486213684,3.808051586151123,27.470211734397733,26.73418038479188,109.733905560022,97.503521788724,-0.0002266406954731,0.0949056595563888,0,0,0
9128,319327.49271172023,2010-11-05 07:06:09,630.3208195079255,7,28,-1.099568486213684,3.800766706466675,27.470211734397733,26.743348457333287,109.733905560022,97.53840106019604,-0.0001942634553415,0.0949056595563888,0,0,0
9129,319357.50798131083,2010-11-05 07:06:39,660.3360890985576,7,28,-1.0997490882873535,3.7934818267822266,27.470211734397733,26.75251655513298,109.733905560022,97.57321369156148,-0.0001942634553415,0.0949056595563888,0,0,0
9130,319387.5232790668,2010-11-05 07:07:09,690.351386859507,7,28,-1.0997490882873535,3.7865207195281982,27.470211734397733,26.761684606315104,109.733905560022,97.60796098734824,-0.0001942634553415,0.0949056595563888,0,0,0
9131,319417.53857931896,2010-11-05 07:07:39,720.36668710165,7,28,-1.099568486213684,3.77988338470459,27.470211734397733,26.770852681064525,109.733905560022,97.64264548885376,-0.0001618862152099,0.0949056595563888,0,0,0
9132,319447.55404185114,2010-11-05 07:08:09,750.3821496489313,7,28,-1.099568486213684,3.773084163665772,27.470211734397733,26.780020892517943,109.733905560022,97.67726885697944,-0.0002266406954731,0.0949056595563888,0,0,0
9133,319477.5690909013,2010-11-05 07:08:39,780.3971986890353,7,28,-1.0993878841400146,3.766608715057373,27.470211734397733,26.789188915700013,109.733905560022,97.71183062279664,-0.0001295089750783,0.0949056595563888,0,0,0
9134,319507.5846058995,2010-11-05 07:09:09,810.4127136922549,7,28,-1.099568486213684,3.760133266448975,27.470211734397733,26.79835705628373,109.733905560022,97.74633353928006,-0.0001295089750783,0.0949056595563888,0,0,0
9135,319537.5996596263,2010-11-05 07:09:39,840.4277674140451,7,28,-1.099568486213684,3.753981590270996,27.470211734397733,26.80752509561261,109.733905560022,97.78077803083674,-0.0001618862152099,0.0949056595563888,0,0,0
9136,319567.6149384751,2010-11-05 07:10:09,870.4430462878493,7,28,-1.099568486213684,3.7478301525115967,27.470211734397733,26.81669323897193,109.733905560022,97.81516574259685,-0.0001618862152099,0.0949056595563888,0,0,0
9137,319597.63022156944,2010-11-05 07:10:39,900.4583293821886,7,28,-1.099568486213684,3.741678476333618,27.470211734397733,26.825861362261787,109.733905560022,97.8494972877716,-0.0001295089750783,0.0949056595563888,0,0,0
9138,319627.64564112434,2010-11-05 07:11:09,930.473748912092,7,28,-1.099568486213684,3.7356886863708496,27.470211734397733,26.83502955921252,109.733905560022,97.88377374266231,-0.0001618862152099,0.0949056595563888,0,0,0
9139,319657.6607639336,2010-11-05 07:11:39,960.4888717213352,7,28,-1.0997490882873535,3.729860782623291,27.470211734397733,26.844197641254677,109.733905560022,97.91799606480254,-0.0001618862152099,0.0949056595563888,0,0,0
9140,319687.6761565664,2010-11-05 07:12:09,990.5042643540994,7,28,-1.099568486213684,3.724032878875733,27.470211734397733,26.853365676217287,109.733905560022,97.95216546415618,-0.0001618862152099,0.0949056595563888,0,0,0
9141,319717.6913256812,2010-11-05 07:12:39,1020.5194334689282,7,28,-1.0997490882873535,3.718366861343384,27.470211734397733,26.862533784264567,109.733905560022,97.98628193670712,-9.713172767078504e-05,0.0949056595563888,0,0,0
9142,319747.7067357475,2010-11-05 07:13:09,1050.5348435402211,7,28,-1.099568486213684,3.712538957595825,27.470211734397733,26.871701933608545,109.733905560022,98.02034621507528,-0.0001618862152099,0.0949056595563888,0,0,0
9143,319777.7218579953,2010-11-05 07:13:39,1080.5499657780383,7,28,-1.0997490882873535,3.7070348262786874,27.470211734397733,26.88087004445907,109.733905560022,98.05435925662256,-0.0001618862152099,0.0949056595563888,0,0,0
9144,319807.7372692947,2010-11-05 07:14:09,1110.5653770824097,7,28,-1.099568486213684,3.701692581176758,27.470211734397733,26.89003817712204,109.733905560022,98.088322161681,-0.0001942634553415,0.0949056595563888,0,0,0
9145,319837.7524120938,2010-11-05 07:14:39,1140.5805198815503,7,28,-1.099568486213684,3.696512222290039,27.470211734397733,26.89920630112005,109.733905560022,98.12223567441556,-0.0001295089750783,0.0949056595563888,0,0,0
9146,319867.7678398543,2010-11-05 07:15:09,1170.5959476520238,7,28,-1.099568486213684,3.6911699771881104,27.470211734397733,26.908374529955104,109.733905560022,98.1561008660381,-0.0001295089750783,0.0949056595563888,0,0,0
9147,319897.7829662424,2010-11-05 07:15:39,1200.6110740301754,7,28,-1.099568486213684,3.685989618301392,27.470211734397733,26.91754259703085,109.733905560022,98.18991687199988,-0.0001295089750783,0.0949056595563888,0,0,0
9148,319927.798390444,2010-11-05 07:16:09,1230.6264982417647,7,28,-1.0992072820663452,3.680809259414673,27.470211734397733,26.926710722847577,109.733905560022,98.22368552471718,-9.713172767078504e-05,0.0949056595563888,0,0,0
9149,319957.8136522552,2010-11-05 07:16:39,1260.6417600479658,7,28,-1.0993878841400146,3.675628900527954,27.470211734397733,26.935878819547497,109.733905560022,98.25740675207946,-0.0001618862152099,0.0949056595563888,0,0,0
9150,319987.8288388336,2010-11-05 07:17:09,1290.656946621374,7,28,-1.0997490882873535,3.6704487800598153,27.470211734397733,26.9450469449944,109.733905560022,98.29108169297812,-0.0001618862152099,0.0949056595563888,0,0,0
9151,320017.84408476524,2010-11-05 07:17:39,1320.672192578012,7,28,-1.0997490882873535,3.665592193603516,27.470211734397733,26.95421503219429,109.733905560022,98.3247104206892,-0.0001295089750783,0.0949056595563888,0,0,0
9152,320047.8593590275,2010-11-05 07:18:09,1350.6874668152427,7,28,-1.099568486213684,3.660735607147217,27.470211734397733,26.963383197344346,109.733905560022,98.35829393785366,-0.0001295089750783,0.0949056595563888,0,0,0
9153,320077.8746568286,2010-11-05 07:18:39,1380.702764616292,7,28,-1.099568486213684,3.655717134475708,27.470211734397733,26.972551301855106,109.733905560022,98.3918326923947,-0.0001295089750783,0.0949056595563888,0,0,0
9154,320107.8900290153,2010-11-05 07:19:09,1410.7181368180577,7,28,-1.099568486213684,3.651022434234619,27.470211734397733,26.98171919127505,109.733905560022,98.4253272385766,-0.0001618862152099,0.0949056595563888,0,0,0
9155,320137.90521687694,2010-11-05 07:19:39,1440.7333246646438,7,28,-1.099568486213684,3.64616584777832,27.470211734397733,26.99088698784903,109.733905560022,98.45877809529097,-0.0001618862152099,0.0949056595563888,0,0,0
9156,320167.9204631694,2010-11-05 07:20:09,1470.7485709621324,7,28,-1.0993878841400146,3.6417949199676514,27.470211734397733,27.00005475408541,109.733905560022,98.492186067644,-0.0001295089750783,0.0949056595563888,0,0,0
9157,320197.93587715045,2010-11-05 07:20:39,1500.7639849431853,7,28,-1.099568486213684,3.6371002197265625,27.470211734397733,27.00922261936965,109.733905560022,98.52555225806388,-0.0001295089750783,0.0949056595563888,0,0,0
9158,320227.9510305611,2010-11-05 07:21:09,1530.7791383688516,7,28,-1.099568486213684,3.6327292919158936,27.470211734397733,27.018390638183057,109.733905560022,98.55887769916376,-9.713172767078504e-05,0.0949056595563888,0,0,0
9159,320257.9510956389,2010-11-05 07:21:39,1560.7792034567055,7,28,-1.0997490882873535,3.628196477890015,27.470211734397733,27.027554114059196,109.733905560022,98.59214643410536,-0.0001618862152099,0.0949056595563888,0,0,0
9160,320287.9659655519,2010-11-05 07:22:09,1590.7940733596554,7,28,-1.0997490882873535,3.623987436294556,27.470211734397733,27.0367221161104,109.733905560022,98.62539229416888,-0.0001618862152099,0.0949056595563888,0,0,0
9161,320317.9812236137,2010-11-05 07:22:40,1620.8093314215098,7,28,-1.099568486213684,3.619940280914306,27.470211734397733,27.04589024155037,109.733905560022,98.6585997809805,-0.0001295089750783,0.0949056595563888,0,0,0
9162,320347.99650371063,2010-11-05 07:23:10,1650.8246115233796,7,28,-1.0997490882873535,3.6158931255340576,27.470211734397733,27.05505836541664,109.733905560022,98.69176900353548,-0.0001295089750783,0.0949056595563888,0,0,0
9163,320378.0117948801,2010-11-05 07:23:40,1680.839902657788,7,28,-1.099568486213684,3.6118459701538086,27.470211734397733,27.06422647844992,109.733905560022,98.72490087582756,-0.0001295089750783,0.0949056595563888,0,0,0
9164,320408.0270868516,2010-11-05 07:24:10,1710.8551946593611,7,28,-1.0997490882873535,3.60779881477356,27.470211734397733,27.073394667746804,109.733905560022,98.75799670752392,-0.0001295089750783,0.0949056595563888,0,0,0
9165,320438.0423306779,2010-11-05 07:24:40,1740.8704384806692,7,28,-1.0997490882873535,3.6040754318237305,27.470211734397733,27.0825627998045,109.733905560022,98.79105656490938,-9.713172767078504e-05,0.0949056595563888,0,0,0
9166,320468.05760109064,2010-11-05 07:25:10,1770.8857088983657,7,28,-1.099568486213684,3.6003520488739014,27.470211734397733,27.091730951082976,109.733905560022,98.82408195589694,-9.713172767078504e-05,0.0949056595563888,0,0,0
9167,320498.0732336021,2010-11-05 07:25:40,1800.901341389854,7,28,-1.099568486213684,3.5966286659240723,27.470211734397733,27.100899162476125,109.733905560022,98.85707367291464,-9.713172767078504e-05,0.0949056595563888,0,0,0
9168,320528.088165174,2010-11-05 07:26:10,1830.9162729868017,7,28,-1.099568486213684,3.593229055404663,27.470211734397733,27.11006722499629,109.733905560022,98.89003193030332,-6.47544875391759e-05,0.0949056595563888,0,0,0
9169,320558.103437722,2010-11-05 07:26:40,1860.931545529803,7,28,-1.099568486213684,3.589829683303833,27.470211734397733,27.119235326450788,109.733905560022,98.92295843096912,-3.237724376958795e-05,0.0949056595563888,0,0,0
9170,320588.1187088014,2010-11-05 07:27:10,1890.9468166041388,7,28,-1.0997490882873535,3.586268186569214,27.470211734397733,27.128403470263176,109.733905560022,98.95585385364532,-6.47544875391759e-05,0.0949056595563888,0,0,0
9171,320618.11873892695,2010-11-05 07:27:40,1920.9468467196964,7,28,-1.099568486213684,3.583030462265014,27.470211734397733,27.137566961171952,109.733905560022,98.98870146726333,-9.713172767078504e-05,0.0949056595563888,0,0,0
9172,320648.1336974611,2010-11-05 07:28:10,1950.961805268921,7,28,-1.099568486213684,3.5797927379608154,27.470211734397733,27.146735034104932,109.733905560022,99.02153502506692,-6.47544875391759e-05,0.0949056595563888,0,0,0
9173,320678.1489211171,2010-11-05 07:28:40,1980.9770289248936,7,28,-1.099568486213684,3.5763931274414062,27.470211734397733,27.155903137574857,109.733905560022,99.05433920447956,-6.47544875391759e-05,0.0949056595563888,0,0,0
9174,320708.1641981112,2010-11-05 07:29:10,2010.9923059190053,7,28,-1.0997490882873535,3.573479175567627,27.470211734397733,27.16507133163539,109.733905560022,99.087114319419,-3.237724376958795e-05,0.0949056595563888,0,0,0
9175,320738.1795182781,2010-11-05 07:29:40,2041.0076260658336,7,28,-1.0997490882873535,3.569917678833008,27.470211734397733,27.174239072179525,109.733905560022,99.1198590170684,-0.0001618862152099,0.0949056595563888,0,0,0
9176,320768.194765498,2010-11-05 07:30:10,2071.0228732856244,7,28,-1.0993878841400146,3.5670037269592285,27.470211734397733,27.18340654134172,109.733905560022,99.1525737802395,-0.0001295089750783,0.0949056595563888,0,0,0
9177,320798.2101637948,2010-11-05 07:30:40,2101.038271582527,7,28,-1.099568486213684,3.5639278888702397,27.470211734397733,27.192574448182697,109.733905560022,99.18526116415237,-6.47544875391759e-05,0.0949056595563888,0,0,0
9178,320828.22531240847,2010-11-05 07:31:10,2131.053420186157,7,28,-1.0997490882873535,3.56085205078125,27.470211734397733,27.20174252151765,109.733905560022,99.21792091990488,-9.713172767078504e-05,0.0949056595563888,0,0,0
9179,320858.2407383293,2010-11-05 07:31:40,2161.0688461220507,7,28,-1.099568486213684,3.5577762126922607,27.470211734397733,27.21091074801489,109.733905560022,99.2505535172555,-6.47544875391759e-05,0.0949056595563888,0,0,0
9180,320888.2559680003,2010-11-05 07:32:10,2191.084075903312,7,28,-1.099568486213684,3.554862260818481,27.470211734397733,27.22007889210461,109.733905560022,99.28315773184858,-6.47544875391759e-05,0.0949056595563888,0,0,0
9181,320918.2711587692,2010-11-05 07:32:40,2221.0992665569056,7,28,-1.099568486213684,3.5516245365142822,27.470211734397733,27.22924705883102,109.733905560022,99.3157336684392,-9.713172767078504e-05,0.0949056595563888,0,0,0
9182,320948.2715285325,2010-11-05 07:33:10,2251.099636325289,7,28,-1.099568486213684,3.548548698425293,27.470211734397733,27.23841070954246,109.733905560022,99.34826525381358,-6.47544875391759e-05,0.0949056595563888,0,0,0
9183,320978.28612222604,2010-11-05 07:33:40,2281.1142300989777,7,28,-1.099568486213684,3.5453109741210938,27.470211734397733,27.247578716689205,109.733905560022,99.38078342403269,-6.47544875391759e-05,0.0949056595563888,0,0,0
9184,321008.3013575812,2010-11-05 07:34:10,2311.1294653639275,7,28,-1.0997490882873535,3.5422351360321045,27.470211734397733,27.256746935913917,109.733905560022,99.41327392240346,-9.713172767078504e-05,0.0949056595563888,0,0,0
9185,321038.3166105253,2010-11-05 07:34:40,2341.144718318032,7,28,-1.0997490882873535,3.5391592979431152,27.470211734397733,27.26591511567481,109.733905560022,99.44573559129068,-6.47544875391759e-05,0.0949056595563888,0,0,0
9186,321068.33188238664,2010-11-05 07:35:10,2371.15999017432,7,28,-1.099568486213684,3.535921573638916,27.470211734397733,27.27508338182312,109.733905560022,99.47816809252564,-9.713172767078504e-05,0.0949056595563888,0,0,0
9187,321098.3472276661,2010-11-05 07:35:40,2401.1753354789457,7,28,-1.0997490882873535,3.532521963119507,27.470211734397733,27.28425170185245,109.733905560022,99.51057108013232,-0.0001295089750783,0.0949056595563888,0,0,0
9188,321128.36255135684,2010-11-05 07:36:10,2431.190659189669,7,28,-1.1001102924346924,3.5291223526000977,27.470211734397733,27.29341991947539,109.733905560022,99.54294377349304,-0.0001295089750783,0.0949056595563888,0,0,0
9189,321158.3778049325,2010-11-05 07:36:40,2461.2059127202133,7,28,-1.0997490882873535,3.5258846282958984,27.470211734397733,27.302588172533763,109.733905560022,99.5752861161489,-9.713172767078504e-05,0.0949056595563888,0,0,0
9190,321188.3930595808,2010-11-05 07:37:10,2491.221167368547,7,28,-1.0993878841400146,3.522646903991699,27.470211734397733,27.311756389513626,109.733905560022,99.60759683787072,-3.237724376958795e-05,0.0949056595563888,0,0,0
9191,321218.4083695924,2010-11-05 07:37:40,2521.2364773800755,7,28,-1.099568486213684,3.51876163482666,27.470211734397733,27.32092460323309,109.733905560022,99.639874340732,-9.713172767078504e-05,0.0949056595563888,0,0,0
9192,321248.4237712727,2010-11-05 07:38:10,2551.2518790854865,7,28,-1.099568486213684,3.515038251876831,27.470211734397733,27.33009282810817,109.733905560022,99.67211811248043,-9.713172767078504e-05,0.0949056595563888,0,0,0
9193,321278.43891835253,2010-11-05 07:38:40,2581.2670261402504,7,28,-1.099568486213684,3.511153221130371,27.470211734397733,27.33926098678584,109.733905560022,99.70432665511468,-9.713172767078504e-05,0.0949056595563888,0,0,0
9194,321308.4541864895,2010-11-05 07:39:10,2611.2822942772536,7,28,-1.0997490882873535,3.507106065750122,27.470211734397733,27.34842929220793,109.733905560022,99.73649905314603,-9.713172767078504e-05,0.0949056595563888,0,0,0
9195,321338.4694353284,2010-11-05 07:39:40,2641.2975431160858,7,28,-1.0997490882873535,3.502735137939453,27.470211734397733,27.357597597330823,109.733905560022,99.76863309243302,-9.713172767078504e-05,0.0949056595563888,0,0,0
9196,321368.4847121922,2010-11-05 07:40:10,2671.312820009948,7,28,-1.099568486213684,3.498202323913574,27.470211734397733,27.36676586447665,109.733905560022,99.8007260134621,-9.713172767078504e-05,0.0949056595563888,0,0,0
9197,321398.5000107601,2010-11-05 07:40:40,2701.3281185478368,7,28,-1.0997490882873535,3.493183851242065,27.470211734397733,27.375934163002132,109.733905560022,99.83277542337837,-0.0001295089750783,0.0949056595563888,0,0,0
9198,321428.5152747317,2010-11-05 07:41:10,2731.3433825194425,7,28,-1.099568486213684,3.4878416061401367,27.470211734397733,27.385102451129693,109.733905560022,99.86477824334874,-0.0001942634553415,0.0949056595563888,0,0,0
9199,321458.5307695295,2010-11-05 07:41:40,2761.358877322239,7,28,-1.0997490882873535,3.482013702392578,27.470211734397733,27.394270822197072,109.733905560022,99.89673028783028,-0.0001942634553415,0.0949056595563888,0,0,0
9200,321488.54594190745,2010-11-05 07:42:10,2791.374049695201,7,28,-1.0993878841400146,3.4753763675689697,27.470211734397733,27.403439042102733,109.733905560022,99.9286244188475,-0.0001942634553415,0.0949056595563888,0,0,0
9201,321518.5614777628,2010-11-05 07:42:40,2821.38958555047,7,28,-1.099929690361023,3.4679296016693115,27.470211734397733,27.412607346014003,109.733905560022,99.96045447769052,-0.0002266406954731,0.0949056595563888,0,0,0
9202,321548.57637164055,2010-11-05 07:43:10,2851.4044794282654,7,28,-1.099568486213684,3.459349632263184,27.470211734397733,27.421775487594747,109.733905560022,99.9922106136397,-0.0002590179501567,0.0949056595563888,0,0,0
9203,321578.5917806442,2010-11-05 07:43:40,2881.419888436906,7,28,-1.0997490882873535,3.449312686920166,27.470211734397733,27.43094382694844,109.733905560022,100.02388271978845,-0.0002913951757363,0.0949056595563888,0,0,0
9204,321608.6069287866,2010-11-05 07:44:10,2911.435036574372,7,28,-1.0997490882873535,3.437494993209839,27.470211734397733,27.440112040616462,109.733905560022,100.05545512835388,-0.0003561496851034,0.0949056595563888,0,0,0
9205,321638.6222273245,2010-11-05 07:44:40,2941.450335137324,7,28,-1.0997490882873535,3.423411130905152,27.470211734397733,27.44928032758506,109.733905560022,100.0869083183922,-0.0003885269106831,0.0949056595563888,0,0,0
9206,321668.6376212656,2010-11-05 07:45:10,2971.4657290532905,7,28,-1.099568486213684,3.4054417610168457,27.470211734397733,27.4584486766128,109.733905560022,100.11821528292649,-0.0005180359003134,0.0949056595563888,0,0,0
9207,321698.6527526713,2010-11-05 07:45:40,3001.480860458992,7,28,-1.099568486213684,3.382939577102661,27.470211734397733,27.4676169362272,109.733905560022,100.14933825822756,-0.0006475448608398,0.0949056595563888,0,0,0
9208,321728.6680326679,2010-11-05 07:46:10,3031.496140455599,7,28,-1.0997490882873535,3.353476285934448,27.470211734397733,27.476785255191697,109.733905560022,100.18022496458904,-0.0008741855854168,0.0949056595563888,0,0,0
9209,321758.6833288048,2010-11-05 07:46:40,3061.511436592494,7,28,-1.099568486213684,3.314138174057007,27.470211734397733,27.485953599387425,109.733905560022,100.21079945495006,-0.0011979580158367,0.0949056595563888,0,0,0
9210,321788.69858528767,2010-11-05 07:47:10,3091.526693075408,7,28,-1.099568486213684,3.259906530380249,27.470211734397733,27.495121900508902,109.733905560022,100.24095020825855,-0.0016836166614666,0.0949056595563888,0,0,0
9211,321818.7138609636,2010-11-05 07:47:40,3121.541968776292,7,28,-1.0993878841400146,3.1834964752197266,27.470211734397733,27.504290177525327,109.733905560022,100.27051027627527,-0.0023634911049157,0.0949056595563888,0,0,0
9212,321848.72916551144,2010-11-05 07:48:10,3151.55727329912,7,28,-1.0997490882873535,3.067748069763184,27.470211734397733,27.513458531857037,109.733905560022,100.29920697395966,-0.0037557601463049,0.0949056595563888,0,0,0
9213,321876.6038137468,2010-11-05 07:48:38,3179.431921534523,7,28,-1.099568486213684,2.867657423019409,27.470211734397733,27.521972966606416,109.733905560022,100.3245850740414,-0.007802867796272,0.0949056595563888,0,0,0
9214,321890.4630314714,2010-11-05 07:48:52,3193.291139259151,7,28,-1.099568486213684,2.699943780899048,27.470211734397733,27.526206321060293,109.733905560022,100.33638535140967,-0.0104578016325831,0.0949056595563888,0,0,0
9215,321950.4863603519,2010-11-05 07:49:52,60.01482201379597,8,28,0.0,3.334212064743042,27.470211734397733,27.526206321060293,109.733905560022,100.33638535140967,0.0012303352123126,0.0949056595563888,0,0,0
9216,321950.6833215315,2010-11-05 07:49:52,0.187765581779133,9,28,-1.9243103452026844e-05,3.334212064743042,27.470211734397733,27.52620632206396,109.733905560022,100.33638535475612,0.0,0.0962666198611259,0,0,0
9217,321955.51113466086,2010-11-05 07:49:57,5.015578706077864,9,28,0.0007031940040178,3.34182071685791,27.47021256775897,27.526206322146408,109.73390834239756,100.336385355031,0.0011008263099938,0.0962666198611259,0,0,0
