Data_Point,Test_Time(s),Date_Time,Step_Time(s),Step_Index,Cycle_Index,Current(A),Voltage(V),Charge_Capacity(Ah),Discharge_Capacity(Ah),Charge_Energy(Wh),Discharge_Energy(Wh),dV/dt(V/s),Internal_Resistance(Ohm),Is_FC_Data,AC_Impedance(Ohm),ACI_Phase_Angle(Deg)
15177,528509.7483282576,2010-11-07 17:12:53,30.01536089855061,1,47,0.0,3.3246607780456543,45.15917020914066,45.226427810887046,180.3081665193385,164.99448131750063,0.0007770538213662,0.0938397273421287,0,0,0
15178,528539.7638326543,2010-11-07 17:13:23,60.0308652952948,1,47,0.0,3.347486734390259,45.15917020914066,45.226427810887046,180.3081665193385,164.99448131750063,0.0005504131549969,0.0938397273421287,0,0,0
15179,528569.7790995482,2010-11-07 17:13:53,90.04613218919535,1,47,0.0,3.3649702072143555,45.15917020914066,45.226427810887046,180.3081665193385,164.99448131750063,0.0004209041653666,0.0938397273421287,0,0,0
15180,528599.7475829583,2010-11-07 17:14:23,120.01461559932292,1,47,0.0,3.378730535507202,45.15917020914066,45.226427810887046,180.3081665193385,164.99448131750063,0.0002913951757363,0.0938397273421287,0,0,0
15181,528629.761558409,2010-11-07 17:14:53,30.01557555937706,2,47,0.5501165986061096,3.5420732498168945,45.16375710350214,45.226427810887046,180.32423101343943,164.99448131750063,0.0017807483673095,0.0938397273421287,0,0,0
15182,528659.7767526816,2010-11-07 17:15:23,60.03076983200373,2,47,0.5499359965324402,3.5967905521392822,45.16834397217642,45.226427810887046,180.3406108856466,164.99448131750063,0.001230287598446,0.0938397273421287,0,0,0
15183,528689.792117956,2010-11-07 17:15:53,90.04613510647732,2,47,0.5501165986061096,3.637262105941773,45.17293081550804,45.226427810887046,180.35720583322689,164.99448131750063,0.0009713172912597,0.0938397273421287,0,0,0
15184,528719.80750109,2010-11-07 17:16:23,120.0615182405312,2,47,0.550297200679779,3.6694774627685542,45.177517671008495,45.226427810887046,180.37396640093465,164.99448131750063,0.0007770538213662,0.0938397273421287,0,0,0
15185,528749.8228908607,2010-11-07 17:16:53,150.07690801115092,2,47,0.5501165986061096,3.696026563644409,45.18210446630981,45.226427810887046,180.39086072737987,164.99448131750063,0.0006475448608398,0.0938397273421287,0,0,0
15186,528779.8382630174,2010-11-07 17:17:23,180.09228016780347,2,47,0.5501165986061096,3.718366861343384,45.18669122387684,45.226427810887046,180.4078665291213,164.99448131750063,0.0005504131549969,0.0938397273421287,0,0,0
15187,528809.8536286678,2010-11-07 17:17:53,210.10764581821547,2,47,0.5501165986061096,3.737307548522949,45.19127803788854,45.226427810887046,180.42496668966467,164.99448131750063,0.0004856586456298,0.0938397273421287,0,0,0
15188,528839.8690365385,2010-11-07 17:18:23,240.12305368901605,2,47,0.5499359965324402,3.7522010803222656,45.19586488930657,45.226427810887046,180.44214492093084,164.99448131750063,0.0003237724304199,0.0938397273421287,0,0,0
15189,528869.8844010461,2010-11-07 17:18:53,270.1384182015878,2,47,0.5499359965324402,3.762237787246704,45.20045170004504,45.226427810887046,180.4593810892619,164.99448131750063,0.0001618862152099,0.0938397273421287,0,0,0
15190,528899.8998970018,2010-11-07 17:19:23,300.15391414222427,2,47,0.5501165986061096,3.7682275772094727,45.20503853401392,45.226427810887046,180.4766532590335,164.99448131750063,0.0001295089750783,0.0938397273421287,0,0,0
15191,528929.9151395349,2010-11-07 17:19:53,330.1691566853415,2,47,0.5501165986061096,3.7725985050201416,45.2096254030671,45.226427810887046,180.4939481291273,164.99448131750063,9.713172767078504e-05,0.0938397273421287,0,0,0
15192,528959.9305237416,2010-11-07 17:20:23,360.1845408920729,2,47,0.5501165986061096,3.7761600017547607,45.21421221461646,45.226427810887046,180.51126076527683,164.99448131750063,9.713172767078504e-05,0.0938397273421287,0,0,0
15193,528989.945902986,2010-11-07 17:20:53,390.1999201364175,2,47,0.550297200679779,3.77988338470459,45.21879900403816,45.226427810887046,180.52858992892308,164.99448131750063,9.713172767078504e-05,0.0938397273421287,0,0,0
15194,529019.961269323,2010-11-07 17:21:23,420.2152864735436,2,47,0.5501165986061096,3.783282995223999,45.223385796884365,45.226427810887046,180.54593497933988,164.99448131750063,9.713172767078504e-05,0.0938397273421287,0,0,0
15195,529049.9766686826,2010-11-07 17:21:53,450.2306858330988,2,47,0.5501165986061096,3.7865207195281982,45.22797269061636,45.226427810887046,180.56329574909412,164.99448131750063,9.713172767078504e-05,0.0938397273421287,0,0,0
15196,529079.994587416,2010-11-07 17:22:23,480.248604561386,2,47,0.5501165986061096,3.7894346714019775,45.23255990645152,45.226427810887046,180.5806725481776,164.99448131750063,3.237724376958795e-05,0.0938397273421287,0,0,0
15197,529110.0076530603,2010-11-07 17:22:53,510.2616702106412,2,47,0.5501165986061096,3.7928342819213863,45.23714643475738,45.226427810887046,180.59806112994184,164.99448131750063,6.47544875391759e-05,0.0938397273421287,0,0,0
15198,529140.0227914082,2010-11-07 17:23:23,540.2768085586715,2,47,0.5501165986061096,3.795910120010376,45.24173328382821,45.226427810887046,180.61546505331475,164.99448131750063,6.47544875391759e-05,0.0938397273421287,0,0,0
15199,529170.038168838,2010-11-07 17:23:53,570.2921859884866,2,47,0.550297200679779,3.798985958099365,45.246320232987976,45.226427810887046,180.6328832720602,164.99448131750063,9.713172767078504e-05,0.0938397273421287,0,0,0
15200,529200.0535367191,2010-11-07 17:24:23,600.3075538694666,2,47,0.5501165986061096,3.801738023757935,45.25090712703185,45.226427810887046,180.65031497443505,164.99448131750063,6.47544875391759e-05,0.0938397273421287,0,0,0
15201,529230.0689265347,2010-11-07 17:24:53,630.3229436851988,2,47,0.5501165986061096,3.804651975631714,45.25549398747464,45.226427810887046,180.6677600011882,164.99448131750063,9.713172767078504e-05,0.0938397273421287,0,0,0
15202,529260.0843133981,2010-11-07 17:25:23,660.3383305535741,2,47,0.550297200679779,3.807727813720703,45.26008084506535,45.226427810887046,180.685218532668,164.99448131750063,9.713172767078504e-05,0.0938397273421287,0,0,0
15203,529290.0996710234,2010-11-07 17:25:53,690.3536881739419,2,47,0.5501165986061096,3.8106417655944815,45.26466772271512,45.226427810887046,180.7026906706916,164.99448131750063,9.713172767078504e-05,0.0938397273421287,0,0,0
15204,529320.1150588542,2010-11-07 17:26:23,720.3690760047194,2,47,0.550297200679779,3.813717603683472,45.26925460024027,45.226427810887046,180.72017658551408,164.99448131750063,3.237724376958795e-05,0.0938397273421287,0,0,0
15205,529350.1304398931,2010-11-07 17:26:53,750.3844570435433,2,47,0.5501165986061096,3.816793441772461,45.27384143525211,45.226427810887046,180.7376767031591,164.99448131750063,6.47544875391759e-05,0.0938397273421287,0,0,0
15206,529380.1458741046,2010-11-07 17:27:23,780.3998912550944,2,47,0.5501165986061096,3.82019305229187,45.2784282656495,45.226427810887046,180.75519123038453,164.99448131750063,9.713172767078504e-05,0.0938397273421287,0,0,0
15207,529410.1612188529,2010-11-07 17:27:53,810.4152360033314,2,47,0.5501165986061096,3.8232688903808594,45.28301513306581,45.226427810887046,180.77272082704235,164.99448131750063,9.713172767078504e-05,0.0938397273421287,0,0,0
15208,529440.1765671249,2010-11-07 17:28:23,840.4305843054393,2,47,0.550297200679779,3.826668500900269,45.28760195745877,45.226427810887046,180.7902655943711,164.99448131750063,3.237724376958795e-05,0.0938397273421287,0,0,0
15209,529470.191969482,2010-11-07 17:28:53,870.4459866324017,2,47,0.5501165986061096,3.8300681114196777,45.292188835266096,45.226427810887046,180.8078261281005,164.99448131750063,9.713172767078504e-05,0.0938397273421287,0,0,0
15210,529500.2073295333,2010-11-07 17:29:23,900.4613466888502,2,47,0.5499359965324402,3.833467483520508,45.2967756974985,45.226427810887046,180.8254022781804,164.99448131750063,9.70840483205393e-05,0.0938397273421287,0,0,0
15211,529530.2228316845,2010-11-07 17:29:53,930.4768488349764,2,47,0.550297200679779,3.837190866470337,45.30136250169829,45.226427810887046,180.8429939513008,164.99448131750063,0.0001618862152099,0.0938397273421287,0,0,0
15212,529560.2380924231,2010-11-07 17:30:23,960.4921095735124,2,47,0.550297200679779,3.840428590774536,45.30594926031832,45.226427810887046,180.8606010970714,164.99448131750063,0.0001295089750783,0.0938397273421287,0,0,0
15213,529590.2536692657,2010-11-07 17:30:53,990.5076864160924,2,47,0.5501165986061096,3.843828201293945,45.31053612128257,45.226427810887046,180.87822405631783,164.99448131750063,9.713172767078504e-05,0.0938397273421287,0,0,0
15214,529620.2689513424,2010-11-07 17:31:23,1020.522968492892,2,47,0.5501165986061096,3.847065925598145,45.31512292245791,45.226427810887046,180.89586199501844,164.99448131750063,9.713172767078504e-05,0.0938397273421287,0,0,0
15215,529650.2842019958,2010-11-07 17:31:53,1050.5382191462536,2,47,0.5501165986061096,3.850141763687134,45.3197096576455,45.226427810887046,180.91351461920968,164.99448131750063,6.47544875391759e-05,0.0938397273421287,0,0,0
15216,529680.2996043728,2010-11-07 17:32:23,1080.553621523341,2,47,0.5501165986061096,3.853379487991333,45.324296422347736,45.226427810887046,180.93118198388652,164.99448131750063,6.47544875391759e-05,0.0938397273421287,0,0,0
15217,529710.3149660684,2010-11-07 17:32:53,1110.5689832188812,2,47,0.5499359965324402,3.856455326080322,45.328883209373714,45.226427810887046,180.94886357886065,164.99448131750063,9.713172767078504e-05,0.0938397273421287,0,0,0
15218,529740.330329403,2010-11-07 17:33:23,1140.5843465585249,2,47,0.5501165986061096,3.8593692779541016,45.33346998559487,45.226427810887046,180.96655892851152,164.99448131750063,9.713172767078504e-05,0.0938397273421287,0,0,0
15219,529770.3457260258,2010-11-07 17:33:53,1170.599743176236,2,47,0.5501165986061096,3.862121343612671,45.33805675618616,45.226427810887046,180.9842675271188,164.99448131750063,6.47544875391759e-05,0.0938397273421287,0,0,0
15220,529800.3611097313,2010-11-07 17:34:23,1200.6151268817164,2,47,0.5501165986061096,3.86487340927124,45.34264359699945,45.226427810887046,181.0019891805727,164.99448131750063,3.237724376958795e-05,0.0938397273421287,0,0,0
15221,529830.3764951961,2010-11-07 17:34:53,1230.6305123465884,2,47,0.5501165986061096,3.8674635887146,45.34723034769865,45.226427810887046,181.01972266442868,164.99448131750063,6.47544875391759e-05,0.0938397273421287,0,0,0
15222,529860.3919757032,2010-11-07 17:35:23,1260.6459928787629,2,47,0.5495747923851013,3.869891881942749,45.35181717387879,45.226427810887046,181.0374681438513,164.99448131750063,3.237724376958795e-05,0.0938397273421287,0,0,0
15223,529890.4072441811,2010-11-07 17:35:53,1290.6612613315544,2,47,0.5501165986061096,3.872158288955689,45.35640398675282,45.226427810887046,181.0552246617711,164.99448131750063,0.0,0.0938397273421287,0,0,0
15224,529920.4225946035,2010-11-07 17:36:23,1320.6766117539553,2,47,0.5501165986061096,3.874586582183838,45.36099083028584,45.226427810887046,181.07299169470804,164.99448131750063,6.47544875391759e-05,0.0938397273421287,0,0,0
15225,529950.4379834117,2010-11-07 17:36:54,1350.6920005621726,2,47,0.5501165986061096,3.876691102981568,45.36557767995679,45.226427810887046,181.0907685962346,164.99448131750063,6.47544875391759e-05,0.0938397273421287,0,0,0
15226,529980.4533526311,2010-11-07 17:37:24,1380.7073697814933,2,47,0.5501165986061096,3.878471851348877,45.37016454114717,45.226427810887046,181.10855474438492,164.99448131750063,0.0,0.0938397273421287,0,0,0
15227,530010.4688103712,2010-11-07 17:37:54,1410.7228275418256,2,47,0.5501165986061096,3.880414485931397,45.37475122392426,45.226427810887046,181.12634875024463,164.99448131750063,3.237724376958795e-05,0.0938397273421287,0,0,0
15228,530040.4840578719,2010-11-07 17:38:24,1440.7380750222671,2,47,0.5501165986061096,3.882033348083496,45.379337166219,45.226427810887046,181.1441478910629,164.99448131750063,3.237724376958795e-05,0.0938397273421287,0,0,0
15229,530070.4995662585,2010-11-07 17:38:54,1470.7535834189955,2,47,0.5497553944587708,3.883652210235596,45.38392329442348,45.226427810887046,181.16195537374716,164.99448131750063,3.237724376958795e-05,0.0938397273421287,0,0,0
15230,530100.5149621795,2010-11-07 17:39:24,1500.768979339968,2,47,0.5499359965324402,3.885109186172485,45.38850922659032,45.226427810887046,181.1797692303037,164.99448131750063,6.47544875391759e-05,0.0938397273421287,0,0,0
15231,530130.5302379656,2010-11-07 17:39:54,1530.7842551160395,2,47,0.5501165986061096,3.886728048324585,45.393095070772965,45.226427810887046,181.1975895556214,164.99448131750063,3.237724376958795e-05,0.0938397273421287,0,0,0
15232,530160.5456260871,2010-11-07 17:40:24,1560.7996432475682,2,47,0.5499359965324402,3.8880231380462646,45.39768091920315,45.226427810887046,181.2154164559435,164.99448131750063,3.237724376958795e-05,0.0938397273421287,0,0,0
15233,530190.5609638228,2010-11-07 17:40:54,1590.8149809732756,2,47,0.550297200679779,3.889642000198364,45.40226689858846,45.226427810887046,181.23325034606395,164.99448131750063,6.47544875391759e-05,0.0938397273421287,0,0,0
15234,530220.576483247,2010-11-07 17:41:24,1620.8305003975308,2,47,0.550297200679779,3.890775203704834,45.40685383437746,45.226427810887046,181.25109430852365,164.99448131750063,0.0,0.0938397273421287,0,0,0
15235,530250.5918714188,2010-11-07 17:41:54,1650.8458885791842,2,47,0.5501165986061096,3.8920702934265137,45.411440713141054,45.226427810887046,181.2689442275351,164.99448131750063,3.237724376958795e-05,0.0938397273421287,0,0,0
15236,530280.6071295808,2010-11-07 17:42:24,1680.8611467563262,2,47,0.5501165986061096,3.8935272693634033,45.41602757739161,45.226427810887046,181.2868001689248,164.99448131750063,3.237724376958795e-05,0.0938397273421287,0,0,0
15237,530310.6225211208,2010-11-07 17:42:54,1710.8765382713002,2,47,0.5501165986061096,3.894822359085083,45.42061445375262,45.226427810887046,181.30466229336392,164.99448131750063,3.237724376958795e-05,0.0938397273421287,0,0,0
15238,530340.637876656,2010-11-07 17:43:24,1740.8918938114757,2,47,0.5501165986061096,3.8961174488067623,45.42520122341189,45.226427810887046,181.3225294877193,164.99448131750063,6.47544875391759e-05,0.0938397273421287,0,0,0
15239,530370.6532646873,2010-11-07 17:43:54,1770.9072818427535,2,47,0.5499359965324402,3.897250652313232,45.42978804429807,45.226427810887046,181.3404031124749,164.99448131750063,0.0,0.0938397273421287,0,0,0
15240,530400.6686358715,2010-11-07 17:44:24,1800.9226530269789,2,47,0.5501165986061096,3.898707628250122,45.43437494991861,45.226427810887046,181.3582831317799,164.99448131750063,3.237724376958795e-05,0.0938397273421287,0,0,0
15241,530430.684145787,2010-11-07 17:44:54,1830.9381629475115,2,47,0.5501165986061096,3.9000027179718018,45.43896183470732,45.226427810887046,181.37616922788985,164.99448131750063,3.237724376958795e-05,0.0938397273421287,0,0,0
15242,530460.6993983953,2010-11-07 17:45:24,1860.953415545728,2,47,0.5501165986061096,3.9012978076934814,45.443548650782986,45.226427810887046,181.39406103224195,164.99448131750063,0.0,0.0938397273421287,0,0,0
15243,530490.7147686722,2010-11-07 17:45:54,1890.968785822688,2,47,0.5501165986061096,3.902754783630371,45.448135503034685,45.226427810887046,181.4119591007465,164.99448131750063,6.47544875391759e-05,0.0938397273421287,0,0,0
15244,530520.730170172,2010-11-07 17:46:24,1920.984187322586,2,47,0.550297200679779,3.9042117595672607,45.45272241328422,45.226427810887046,181.4298635388716,164.99448131750063,9.713172767078504e-05,0.0938397273421287,0,0,0
15245,530550.7457685735,2010-11-07 17:46:54,1950.999785749043,2,47,0.5501165986061096,3.905506849288941,45.45730931182768,45.226427810887046,181.4477740598982,164.99448131750063,6.47544875391759e-05,0.0938397273421287,0,0,0
15246,530580.761025287,2010-11-07 17:47:24,1981.015042437469,2,47,0.5501165986061096,3.90664005279541,45.46189612412554,45.226427810887046,181.465690285906,164.99448131750063,3.237724376958795e-05,0.0938397273421287,0,0,0
15247,530610.7762866671,2010-11-07 17:47:54,2011.0303038226184,2,47,0.5501165986061096,3.90793514251709,45.46648300881372,45.226427810887046,181.4836130034074,164.99448131750063,0.0,0.0938397273421287,0,0,0
15248,530640.7916800869,2010-11-07 17:48:24,2041.0456972373347,2,47,0.5501165986061096,3.9095540046691895,45.471069829787325,45.226427810887046,181.5015416523749,164.99448131750063,3.237724376958795e-05,0.0938397273421287,0,0,0
15249,530670.8070653463,2010-11-07 17:48:54,2071.0610824966934,2,47,0.550297200679779,3.910849094390869,45.4756567070194,45.226427810887046,181.51947683311872,164.99448131750063,3.237724376958795e-05,0.0938397273421287,0,0,0
15250,530700.8224178237,2010-11-07 17:49:24,2101.0764349742244,2,47,0.5499359965324402,3.912144184112549,45.48024358723576,45.226427810887046,181.53741839987168,164.99448131750063,6.47544875391759e-05,0.0938397273421287,0,0,0
15251,530730.8378119352,2010-11-07 17:49:54,2131.09182908568,2,47,0.5501165986061096,3.9136011600494394,45.48483049873051,45.226427810887046,181.55536647352488,164.99448131750063,3.237724376958795e-05,0.0938397273421287,0,0,0
15252,530760.8531791396,2010-11-07 17:50:24,2161.1071962949823,2,47,0.5501165986061096,3.915057897567749,45.48941738989016,45.226427810887046,181.5733209943599,164.99448131750063,3.237724376958795e-05,0.0938397273421287,0,0,0
15253,530790.8685806545,2010-11-07 17:50:54,2191.1225978249554,2,47,0.550297200679779,3.916514873504639,45.494004222830746,45.226427810887046,181.5912816371932,164.99448131750063,6.47544875391759e-05,0.0938397273421287,0,0,0
15254,530820.8840576328,2010-11-07 17:51:24,2221.1380747832086,2,47,0.5501165986061096,3.9178099632263184,45.49859108571988,45.226427810887046,181.6092490266904,164.99448131750063,3.237724376958795e-05,0.0938397273421287,0,0,0
15255,530850.8993141708,2010-11-07 17:51:54,2251.1533313413097,2,47,0.5499359965324402,3.919266939163208,45.50317790008058,45.226427810887046,181.62722276045216,164.99448131750063,0.0,0.0938397273421287,0,0,0
15256,530880.9147059263,2010-11-07 17:52:24,2281.1687230818466,2,47,0.5501165986061096,3.9207239151000977,45.507764788482014,45.226427810887046,181.64520346992072,164.99448131750063,6.47544875391759e-05,0.0938397273421287,0,0,0
15257,530910.9300828098,2010-11-07 17:52:54,2311.184099965298,2,47,0.5499359965324402,3.9221808910369873,45.512351663339935,45.226427810887046,181.66319071153265,164.99448131750063,3.237724376958795e-05,0.0938397273421287,0,0,0
15258,530940.945457182,2010-11-07 17:53:24,2341.1994743324685,2,47,0.5501165986061096,3.923475980758667,45.51693847283443,45.226427810887046,181.6811844549684,164.99448131750063,-3.237724376958795e-05,0.0938397273421287,0,0,0
15259,530970.9610674229,2010-11-07 17:53:54,2371.215084608504,2,47,0.5501165986061096,3.925256729125977,45.52152544563886,45.226427810887046,181.69918565647657,164.99448131750063,6.47544875391759e-05,0.0938397273421287,0,0,0
15260,531000.978855876,2010-11-07 17:54:24,2401.232873111729,2,47,0.5501165986061096,3.926551818847656,45.526112702893776,45.226427810887046,181.7171947269608,164.99448131750063,0.0,0.0938397273421287,0,0,0
15261,531030.9918222073,2010-11-07 17:54:54,2431.2458393628717,2,47,0.550297200679779,3.928332567214966,45.530699268422126,45.226427810887046,181.735208045114,164.99448131750063,3.237724376958795e-05,0.0938397273421287,0,0,0
15262,531061.006961954,2010-11-07 17:55:24,2461.2609791093923,2,47,0.5499359965324402,3.9296276569366455,45.53528607356529,45.226427810887046,181.75322922460737,164.99448131750063,3.237724376958795e-05,0.0938397273421287,0,0,0
15263,531091.0223316544,2010-11-07 17:55:54,2491.2763488049013,2,47,0.550297200679779,3.931246519088745,45.53987294509432,45.226427810887046,181.77125768182577,164.99448131750063,6.47544875391759e-05,0.0938397273421287,0,0,0
15264,531121.0378321866,2010-11-07 17:56:24,2521.291849336999,2,47,0.5499359965324402,3.932541608810425,45.5444598688457,45.226427810887046,181.78929337664772,164.99448131750063,0.0,0.0938397273421287,0,0,0
15265,531151.0531168047,2010-11-07 17:56:54,2551.307133955142,2,47,0.5501165986061096,3.934160470962525,45.54904678724473,45.226427810887046,181.80733618290608,164.99448131750063,0.0,0.0938397273421287,0,0,0
15266,531181.0684591819,2010-11-07 17:57:24,2581.3224763324606,2,47,0.5495747923851013,3.935617446899414,45.55363366447211,45.226427810887046,181.8253859679928,164.99448131750063,3.237724376958795e-05,0.0938397273421287,0,0,0
15267,531211.0838433587,2010-11-07 17:57:54,2611.337860509117,2,47,0.550297200679779,3.9375600814819336,45.55822060949112,45.226427810887046,181.84344315356083,164.99448131750063,6.47544875391759e-05,0.0938397273421287,0,0,0
15268,531241.0838596497,2010-11-07 17:58:24,2641.337876915454,2,47,0.5501165986061096,3.9390170574188232,45.56280509904247,45.226427810887046,181.86149796991265,164.99448131750063,6.47544875391759e-05,0.0938397273421287,0,0,0
15269,531271.09898488,2010-11-07 17:58:54,2671.353002030453,2,47,0.5501165986061096,3.940474033355713,45.56739188712643,45.226427810887046,181.87956911790045,164.99448131750063,3.237724376958795e-05,0.0938397273421287,0,0,0
15270,531301.1143719789,2010-11-07 17:59:24,2701.368389129404,2,47,0.5501165986061096,3.942416667938232,45.57197880608764,45.226427810887046,181.89764819427447,164.99448131750063,6.47544875391759e-05,0.0938397273421287,0,0,0
15271,531331.129766727,2010-11-07 17:59:54,2731.3837838774475,2,47,0.550297200679779,3.943711757659912,45.57656572316431,45.226427810887046,181.91573470360265,164.99448131750063,3.237724376958795e-05,0.0938397273421287,0,0,0
15272,531361.1451127785,2010-11-07 18:00:24,2761.3991299289382,2,47,0.5499359965324402,3.9454925060272217,45.58115255856909,45.226427810887046,181.93382835824465,164.99448131750063,6.47544875391759e-05,0.0938397273421287,0,0,0
15273,531391.1604826243,2010-11-07 18:00:54,2791.414499779835,2,47,0.5501165986061096,3.9472732543945312,45.58573945637806,45.226427810887046,181.9519298147553,164.99448131750063,6.47544875391759e-05,0.0938397273421287,0,0,0
15274,531421.1758930616,2010-11-07 18:01:24,2821.4299102120294,2,47,0.5501165986061096,3.948892116546631,45.590326303633525,45.226427810887046,181.9700387279717,164.99448131750063,6.47544875391759e-05,0.0938397273421287,0,0,0
15275,531451.1912723561,2010-11-07 18:01:54,2851.4452895315617,2,47,0.550297200679779,3.950672864913941,45.59491312152737,45.226427810887046,181.988155220193,164.99448131750063,6.47544875391759e-05,0.0938397273421287,0,0,0
15276,531481.2066157961,2010-11-07 18:02:24,2881.4606329514827,2,47,0.5501165986061096,3.95212984085083,45.59949998570036,45.226427810887046,182.00627972080304,164.99448131750063,0.0,0.0938397273421287,0,0,0
15277,531511.2220065792,2010-11-07 18:02:54,2911.4760237296173,2,47,0.5501165986061096,3.95391058921814,45.60408686836961,45.226427810887046,182.0244122246288,164.99448131750063,3.237724376958795e-05,0.0938397273421287,0,0,0
15278,531541.2375716924,2010-11-07 18:03:24,2941.49158884292,2,47,0.550297200679779,3.955691337585449,45.60867374760387,45.226427810887046,182.0425526130686,164.99448131750063,6.47544875391759e-05,0.0938397273421287,0,0,0
15279,531571.2528692128,2010-11-07 18:03:54,2971.506886368281,2,47,0.5501165986061096,3.957472085952759,45.613260636170864,45.226427810887046,182.06070102387008,164.99448131750063,3.237724376958795e-05,0.0938397273421287,0,0,0
15280,531601.2681267333,2010-11-07 18:04:24,3001.5221438887843,2,47,0.550297200679779,3.959252834320069,45.617847462920565,45.226427810887046,182.0788572903415,164.99448131750063,6.47544875391759e-05,0.0938397273421287,0,0,0
15281,531631.2835001932,2010-11-07 18:04:54,3031.5375173486896,2,47,0.5501165986061096,3.961195468902588,45.62243438388015,45.226427810887046,182.0970221070877,164.99448131750063,6.47544875391759e-05,0.0938397273421287,0,0,0
15282,531661.2988906305,2010-11-07 18:05:24,3061.5529077859737,2,47,0.5499359965324402,3.962814331054688,45.62702135526026,45.226427810887046,182.1151953433081,164.99448131750063,6.47544875391759e-05,0.0938397273421287,0,0,0
15283,531691.3142569326,2010-11-07 18:05:54,3091.568274083,2,47,0.550297200679779,3.964595079421997,45.63160827646395,45.226427810887046,182.1333766767045,164.99448131750063,3.237724376958795e-05,0.0938397273421287,0,0,0
15284,531721.3296571141,2010-11-07 18:06:24,3121.5836742646065,2,47,0.5501165986061096,3.966375827789306,45.63619524526228,45.226427810887046,182.1515665216544,164.99448131750063,3.237724376958795e-05,0.0938397273421287,0,0,0
15285,531751.3450387144,2010-11-07 18:06:54,3151.599055869844,2,47,0.5501165986061096,3.968318462371826,45.64078220405034,45.226427810887046,182.1697647194013,164.99448131750063,3.237724376958795e-05,0.0938397273421287,0,0,0
15286,531781.3604025051,2010-11-07 18:07:24,3181.614419655602,2,47,0.550297200679779,3.970099210739136,45.645369072033496,45.226427810887046,182.18797100184955,164.99448131750063,3.237724376958795e-05,0.0938397273421287,0,0,0
15287,531811.3759006613,2010-11-07 18:07:54,3211.629917806756,2,47,0.550297200679779,3.972203731536865,45.649956024720304,45.226427810887046,182.20618626995648,164.99448131750063,6.47544875391759e-05,0.0938397273421287,0,0,0
15288,531841.391274021,2010-11-07 18:08:24,3241.645291171424,2,47,0.5499359965324402,3.973660707473755,45.65454297756112,45.226427810887046,182.2244102273133,164.99448131750063,0.0,0.0938397273421287,0,0,0
15289,531871.406523732,2010-11-07 18:08:54,3271.660540882433,2,47,0.550297200679779,3.9759271144866943,45.65912989865814,45.226427810887046,182.24264287230224,164.99448131750063,6.47544875391759e-05,0.0938397273421287,0,0,0
15290,531901.4220397477,2010-11-07 18:09:25,3301.6760568981804,2,47,0.5501165986061096,3.977707862854004,45.66371686181193,45.226427810887046,182.26088461598223,164.99448131750063,0.0,0.0938397273421287,0,0,0
15291,531931.4373003459,2010-11-07 18:09:55,3331.691317496366,2,47,0.550297200679779,3.979812383651733,45.66830377291512,45.226427810887046,182.27913478940675,164.99448131750063,6.47544875391759e-05,0.0938397273421287,0,0,0
15292,531961.4528123918,2010-11-07 18:10:25,3361.706829547216,2,47,0.550297200679779,3.981916904449463,45.67289060992563,45.226427810887046,182.29739409991708,164.99448131750063,6.47544875391759e-05,0.0938397273421287,0,0,0
15293,531991.4680555162,2010-11-07 18:10:55,3391.722072666772,2,47,0.550297200679779,3.983697652816773,45.677477472535394,45.226427810887046,182.3156626467274,164.99448131750063,3.237724376958795e-05,0.0938397273421287,0,0,0
15294,532021.4834081392,2010-11-07 18:11:25,3421.737425289665,2,47,0.5501165986061096,3.985802173614502,45.682064297887706,45.226427810887046,182.3339402978457,164.99448131750063,9.713172767078504e-05,0.0938397273421287,0,0,0
15295,532051.4987689876,2010-11-07 18:11:55,3451.752786138091,2,47,0.5501165986061096,3.9877448081970215,45.68665116456291,45.226427810887046,182.3522274812852,164.99448131750063,3.237724376958795e-05,0.0938397273421287,0,0,0
15296,532081.5141632394,2010-11-07 18:12:25,3481.7681803898963,2,47,0.550297200679779,3.990011215209961,45.69123800021222,45.226427810887046,182.37052388369457,164.99448131750063,6.47544875391759e-05,0.0938397273421287,0,0,0
15297,532111.5295490803,2010-11-07 18:12:55,3511.783566230707,2,47,0.5501165986061096,3.9921157360076895,45.695824826569165,45.226427810887046,182.3888298417224,164.99448131750063,6.47544875391759e-05,0.0938397273421287,0,0,0
15298,532141.5449353922,2010-11-07 18:13:25,3541.798952542693,2,47,0.550297200679779,3.994220018386841,45.70041162183326,45.226427810887046,182.40714539889183,164.99448131750063,9.70840483205393e-05,0.0938397273421287,0,0,0
15299,532171.5602894637,2010-11-07 18:13:55,3571.8143066142025,2,47,0.550297200679779,3.9963245391845694,45.70499849458524,45.226427810887046,182.4254710722585,164.99448131750063,6.47544875391759e-05,0.0938397273421287,0,0,0
15300,532201.5757067881,2010-11-07 18:14:25,3601.829723968676,2,47,0.550297200679779,3.9984290599823,45.70958535209552,45.226427810887046,182.44380666028516,164.99448131750063,6.47544875391759e-05,0.0938397273421287,0,0,0
15301,532231.5910662782,2010-11-07 18:14:55,3631.845083428635,2,47,0.5499359965324402,4.000533580780029,45.7141722145621,45.226427810887046,182.46215218177431,164.99448131750063,3.23295607813634e-05,0.0938397273421287,0,0,0
15302,532261.6064472719,2010-11-07 18:15:25,3661.8604644223465,2,47,0.550297200679779,4.002962112426758,45.718759060337085,45.226427810887046,182.48050779199727,164.99448131750063,6.47544875391759e-05,0.0938397273421287,0,0,0
15303,532291.621830025,2010-11-07 18:15:55,3691.8758471754495,2,47,0.5501165986061096,4.005066394805908,45.723345913385565,45.226427810887046,182.49887359967204,164.99448131750063,3.23295607813634e-05,0.0938397273421287,0,0,0
15304,532321.6371908082,2010-11-07 18:16:25,3721.891207958712,2,47,0.5501165986061096,4.007332801818848,45.72793281190715,45.226427810887046,182.51724986048572,164.99448131750063,3.23295607813634e-05,0.0938397273421287,0,0,0
15305,532351.6525835062,2010-11-07 18:16:55,3751.906600656639,2,47,0.550297200679779,4.009599208831787,45.73251965389108,45.226427810887046,182.53563619563545,164.99448131750063,6.47544875391759e-05,0.0938397273421287,0,0,0
15306,532381.667955332,2010-11-07 18:17:25,3781.9219724824657,2,47,0.550297200679779,4.012027740478516,45.73710653644909,45.226427810887046,182.55403315129035,164.99448131750063,9.71794142969884e-05,0.0938397273421287,0,0,0
15307,532411.6833259248,2010-11-07 18:17:55,3811.9373430752144,2,47,0.550297200679779,4.014132022857666,45.74169342525284,45.226427810887046,182.5724407642576,164.99448131750063,3.23295607813634e-05,0.0938397273421287,0,0,0
15308,532441.6987090138,2010-11-07 18:18:25,3841.952726164156,2,47,0.5501165986061096,4.0165605545043945,45.74628031700426,45.226427810887046,182.5908589592433,164.99448131750063,3.24249267578125e-05,0.0938397273421287,0,0,0
15309,532471.7140862781,2010-11-07 18:18:55,3871.968103428559,2,47,0.5501165986061096,4.018826961517334,45.75086729138028,45.226427810887046,182.6092882236047,164.99448131750063,6.47544875391759e-05,0.0938397273421287,0,0,0
15310,532501.729692514,2010-11-07 18:19:25,3901.9837096645088,2,47,0.5501165986061096,4.021255016326904,45.75545422250591,45.226427810887046,182.62772794364767,164.99448131750063,6.47544875391759e-05,0.0938397273421287,0,0,0
15311,532531.744852105,2010-11-07 18:19:55,3931.998869255565,2,47,0.5501165986061096,4.023683547973633,45.7600410676629,45.226427810887046,182.6461783450832,164.99448131750063,6.47544875391759e-05,0.0938397273421287,0,0,0
15312,532561.7602617403,2010-11-07 18:20:25,3962.0142788907697,2,47,0.5501165986061096,4.025949954986572,45.76462794604695,45.226427810887046,182.664639899953,164.99448131750063,6.47544875391759e-05,0.0938397273421287,0,0,0
15313,532591.775616734,2010-11-07 18:20:55,3992.0296338845815,2,47,0.5499359965324402,4.028378009796143,45.76921487309245,45.226427810887046,182.683112786696,164.99448131750063,3.23295607813634e-05,0.0938397273421287,0,0,0
15314,532621.7910135473,2010-11-07 18:21:25,4022.04503069778,2,47,0.5501165986061096,4.030806541442871,45.77380179141071,45.226427810887046,182.7015967233866,164.99448131750063,3.24249267578125e-05,0.0938397273421287,0,0,0
15315,532651.806499864,2010-11-07 18:21:55,4052.0605170143936,2,47,0.550297200679779,4.033396720886231,45.77838868197642,45.226427810887046,182.7200917443782,164.99448131750063,9.71794142969884e-05,0.0938397273421287,0,0,0
15316,532681.8217574897,2010-11-07 18:22:25,4082.075774665223,2,47,0.5501165986061096,4.035824775695801,45.78297558589414,45.226427810887046,182.7385981450282,164.99448131750063,6.47544875391759e-05,0.0938397273421287,0,0,0
15317,532711.8372716107,2010-11-07 18:22:55,4112.091288761177,2,47,0.5499359965324402,4.03841495513916,45.78756248676257,45.226427810887046,182.75711604711424,164.99448131750063,9.71794142969884e-05,0.0938397273421287,0,0,0
15318,532741.8525282741,2010-11-07 18:23:25,4142.106545424541,2,47,0.550297200679779,4.04116678237915,45.79214944854612,45.226427810887046,182.77564581476653,164.99448131750063,0.0001295089750783,0.0938397273421287,0,0,0
15319,532771.8680387811,2010-11-07 18:23:55,4172.122055931537,2,47,0.5501165986061096,4.04343318939209,45.796736334175804,45.226427810887046,182.794186895612,164.99448131750063,6.47544875391759e-05,0.0938397273421287,0,0,0
15320,532801.8832871738,2010-11-07 18:24:25,4202.137304349319,2,47,0.5501165986061096,4.046023368835449,45.80132319944338,45.226427810887046,182.8127396996884,164.99448131750063,3.23295607813634e-05,0.0938397273421287,0,0,0
15321,532831.8986548743,2010-11-07 18:24:55,4232.152672049848,2,47,0.5501165986061096,4.048775672912598,45.80591005082446,45.226427810887046,182.8313042973952,164.99448131750063,9.71794142969884e-05,0.0938397273421287,0,0,0
15322,532861.9140659933,2010-11-07 18:25:25,4262.168083143693,2,47,0.5501165986061096,4.051203727722168,45.81049694064262,45.226427810887046,182.8498809793963,164.99448131750063,6.47544875391759e-05,0.0938397273421287,0,0,0
15323,532891.9294234682,2010-11-07 18:25:55,4292.183440623711,2,47,0.5501165986061096,4.053956031799316,45.815083863373886,45.226427810887046,182.86846989414292,164.99448131750063,6.47544875391759e-05,0.0938397273421287,0,0,0
15324,532921.9448353691,2010-11-07 18:26:25,4322.198852509533,2,47,0.5501165986061096,4.056707859039307,45.81967078370851,45.226427810887046,182.8870710053159,164.99448131750063,9.70840483205393e-05,0.0938397273421287,0,0,0
15325,532951.962807586,2010-11-07 18:26:55,4352.216824821574,2,47,0.550297200679779,4.059298038482666,45.824258118751125,45.226427810887046,182.90568617751128,164.99448131750063,6.47544875391759e-05,0.0938397273421287,0,0,0
15326,532981.975855947,2010-11-07 18:27:25,4382.229873102475,2,47,0.5501165986061096,4.061888217926025,45.82884475567361,45.226427810887046,182.9243107763145,164.99448131750063,3.23295607813634e-05,0.0938397273421287,0,0,0
15327,533011.9910863849,2010-11-07 18:27:55,4412.245103530351,2,47,0.550297200679779,4.064802169799805,45.83343160371472,45.226427810887046,182.9429486961164,164.99448131750063,0.0001295089750783,0.0938397273421287,0,0,0
15328,533042.0063407926,2010-11-07 18:28:25,4442.260357948108,2,47,0.550297200679779,4.067554473876953,45.83801851241449,45.226427810887046,182.96159950561932,164.99448131750063,9.71794142969884e-05,0.0938397273421287,0,0,0
15329,533072.0217408339,2010-11-07 18:28:55,4472.275757984353,2,47,0.5501165986061096,4.070306301116943,45.8426054442229,45.226427810887046,182.98026318469664,164.99448131750063,6.47544875391759e-05,0.0938397273421287,0,0,0
15330,533102.0371463889,2010-11-07 18:29:25,4502.291163539373,2,47,0.5501165986061096,4.073058605194092,45.847192389342815,45.226427810887046,182.99893977800903,164.99448131750063,6.47544875391759e-05,0.0938397273421287,0,0,0
15331,533132.0524740795,2010-11-07 18:29:55,4532.306491255094,2,47,0.5501165986061096,4.075972557067871,45.85177928358603,45.226427810887046,183.01762922900505,164.99448131750063,6.47544875391759e-05,0.0938397273421287,0,0,0
15332,533162.0678587925,2010-11-07 18:30:25,4562.321875943027,2,47,0.5501165986061096,4.07888650894165,45.85636615906514,45.226427810887046,183.03633174895663,164.99448131750063,9.71794142969884e-05,0.0938397273421287,0,0,0
15333,533192.083266102,2010-11-07 18:30:55,4592.337283282502,2,47,0.5501165986061096,4.081638336181641,45.860953074754725,45.226427810887046,183.05504760076164,164.99448131750063,6.47544875391759e-05,0.0938397273421287,0,0,0
15334,533222.0986310005,2010-11-07 18:31:25,4622.3526481459485,2,47,0.5499359965324402,4.08455228805542,45.86553988857706,45.226427810887046,183.07377635975465,164.99448131750063,6.47544875391759e-05,0.0938397273421287,0,0,0
15335,533252.1141134725,2010-11-07 18:31:55,4652.368130633003,2,47,0.5501165986061096,4.087628364562988,45.87012682125124,45.226427810887046,183.092519218682,164.99448131750063,9.71794142969884e-05,0.0938397273421287,0,0,0
15336,533282.1293685619,2010-11-07 18:32:25,4682.383385712413,2,47,0.5501165986061096,4.090542316436768,45.87471370524575,45.226427810887046,183.11127549699103,164.99448131750063,6.47544875391759e-05,0.0938397273421287,0,0,0
15337,533312.1447494354,2010-11-07 18:32:55,4712.398766585824,2,47,0.5501165986061096,4.093617916107178,45.879300626585845,45.226427810887046,183.13004558189303,164.99448131750063,6.47544875391759e-05,0.0938397273421287,0,0,0
15338,533342.1601549904,2010-11-07 18:33:25,4742.414172140844,2,47,0.550297200679779,4.096855640411377,45.883887501761386,45.226427810887046,183.14882917438976,164.99448131750063,0.0001295089750783,0.0938397273421287,0,0,0
15339,533372.1755033977,2010-11-07 18:33:55,4772.429520543202,2,47,0.550297200679779,4.099769592285156,45.88847443493488,45.226427810887046,183.1676269759841,164.99448131750063,9.70840483205393e-05,0.0938397273421287,0,0,0
15340,533402.1910365112,2010-11-07 18:34:25,4802.445053656627,2,47,0.5501165986061096,4.102845668792725,45.89306146136294,45.226427810887046,183.18643922132003,164.99448131750063,0.0001295089750783,0.0938397273421287,0,0,0
15341,533432.206267701,2010-11-07 18:34:55,4832.460284851418,2,47,0.5499359965324402,4.105759620666504,45.89764830798708,45.226427810887046,183.20526495991905,164.99448131750063,3.24249267578125e-05,0.0938397273421287,0,0,0
15342,533462.2218839469,2010-11-07 18:35:25,4862.475901097355,2,47,0.5501165986061096,4.108997344970703,45.90223525112502,45.226427810887046,183.22410530207367,164.99448131750063,9.71794142969884e-05,0.0938397273421287,0,0,0
15343,533492.2372814568,2010-11-07 18:35:55,4892.49129860228,2,47,0.550297200679779,4.112072944641113,45.90682214189824,45.226427810887046,183.24295982546343,164.99448131750063,9.70840483205393e-05,0.0938397273421287,0,0,0
15344,533522.2524099202,2010-11-07 18:36:25,4922.506427060624,2,47,0.550297200679779,4.1153106689453125,45.911409015108354,45.226427810887046,183.26182872722933,164.99448131750063,9.71794142969884e-05,0.0938397273421287,0,0,0
15345,533552.2677665631,2010-11-07 18:36:55,4952.521783708565,2,47,0.5501165986061096,4.118386268615723,45.91599588867609,45.226427810887046,183.28071229517985,164.99448131750063,6.47544875391759e-05,0.0938397273421287,0,0,0
15346,533582.2831715216,2010-11-07 18:37:25,4982.537188672109,2,47,0.5501165986061096,4.121786117553711,45.92058277313427,45.226427810887046,183.2996106918708,164.99448131750063,6.47544875391759e-05,0.0938397273421287,0,0,0
15347,533612.2985895277,2010-11-07 18:37:55,5012.552606678209,2,47,0.5501165986061096,4.124861717224121,45.92516969671567,45.226427810887046,183.3185240541248,164.99448131750063,6.47544875391759e-05,0.0938397273421287,0,0,0
15348,533642.3140799245,2010-11-07 18:38:25,5042.568097075006,2,47,0.5501165986061096,4.128261566162109,45.92975661434144,45.226427810887046,183.3374523387693,164.99448131750063,6.47544875391759e-05,0.0938397273421287,0,0,0
15349,533672.3293615001,2010-11-07 18:38:55,5072.583378650555,2,47,0.5501165986061096,4.131499290466309,45.93434428241449,45.226427810887046,183.3563987682948,164.99448131750063,6.47544875391759e-05,0.0938397273421287,0,0,0
15350,533702.3446859878,2010-11-07 18:39:25,5102.598703138218,2,47,0.550297200679779,4.134898662567139,45.93893200023078,45.226427810887046,183.37536052003412,164.99448131750063,6.47544875391759e-05,0.0938397273421287,0,0,0
15351,533732.3602010411,2010-11-07 18:39:55,5132.614218191563,2,47,0.5504778623580933,4.138460159301758,45.943519638842886,45.226427810887046,183.3943372531961,164.99448131750063,0.0001295089750783,0.0938397273421287,0,0,0
15352,533762.3754776191,2010-11-07 18:40:25,5162.629494769637,2,47,0.550297200679779,4.141536235809326,45.94810742401708,45.226427810887046,183.41333006385392,164.99448131750063,9.71794142969884e-05,0.0938397273421287,0,0,0
15353,533792.3908318812,2010-11-07 18:40:55,5192.644849031622,2,47,0.550297200679779,4.144935607910156,45.9526952042287,45.226427810887046,183.43233838040024,164.99448131750063,9.70840483205393e-05,0.0938397273421287,0,0,0
15354,533822.4062358021,2010-11-07 18:41:26,5222.660252952563,2,47,0.550297200679779,4.1483354568481445,45.95728290929839,45.226427810887046,183.4513622076444,164.99448131750063,3.24249267578125e-05,0.0938397273421287,0,0,0
15355,533852.4216005602,2010-11-07 18:41:56,5252.675617710747,2,47,0.5501165986061096,4.151734828948975,45.961870137367626,45.226427810887046,183.47039957531248,164.99448131750063,9.70840483205393e-05,0.0938397273421287,0,0,0
15356,533882.4369748372,2010-11-07 18:42:26,5282.6909919876925,2,47,0.5501165986061096,4.155134677886963,45.96645723405715,45.226427810887046,183.4894521469596,164.99448131750063,6.47544875391759e-05,0.0938397273421287,0,0,0
15357,533912.4523689938,2010-11-07 18:42:56,5312.70638614426,2,47,0.5501165986061096,4.158696174621582,45.971044286370855,45.226427810887046,183.5085204729615,164.99448131750063,9.71794142969884e-05,0.0938397273421287,0,0,0
15358,533942.4677379575,2010-11-07 18:43:26,5342.721755112955,2,47,0.550297200679779,4.162257671356201,45.97563133527782,45.226427810887046,183.52760469472645,164.99448131750063,0.0001295089750783,0.0938397273421287,0,0,0
15359,533972.4831166655,2010-11-07 18:43:56,5372.737133815948,2,47,0.5501165986061096,4.165657043457031,45.98021837500567,45.226427810887046,183.5467048890931,164.99448131750063,9.70840483205393e-05,0.0938397273421287,0,0,0
15360,534002.4984912883,2010-11-07 18:44:26,5402.752508438757,2,47,0.550297200679779,4.16921854019165,45.98480541793128,45.226427810887046,183.5658213869523,164.99448131750063,0.0001295089750783,0.0938397273421287,0,0,0
15361,534032.5140258553,2010-11-07 18:44:56,5432.768043010823,2,47,0.5501165986061096,4.1727800369262695,45.98939247489044,45.226427810887046,183.5849542493795,164.99448131750063,6.47544875391759e-05,0.0938397273421287,0,0,0
15362,534062.5293438669,2010-11-07 18:45:26,5462.783361017308,2,47,0.5499359965324402,4.176503658294678,45.99397955702256,45.226427810887046,183.6041037061172,164.99448131750063,9.71794142969884e-05,0.0938397273421287,0,0,0
15363,534092.5446483245,2010-11-07 18:45:56,5492.798665474974,2,47,0.550297200679779,4.180226802825928,45.99856656286003,45.226427810887046,183.62326944136623,164.99448131750063,0.0001295089750783,0.0938397273421287,0,0,0
15364,534122.560015223,2010-11-07 18:46:26,5522.8140323735015,2,47,0.5501165986061096,4.183788299560547,46.00315365520773,45.226427810887046,183.6424522142263,164.99448131750063,0.0001295089750783,0.0938397273421287,0,0,0
15365,534152.5753970589,2010-11-07 18:46:56,5552.829414209315,2,47,0.550297200679779,4.187349796295166,46.00774071291029,45.226427810887046,183.66165150712857,164.99448131750063,6.47544875391759e-05,0.0938397273421287,0,0,0
15366,534182.590817877,2010-11-07 18:47:26,5582.844835027434,2,47,0.5501165986061096,4.190911293029785,46.01232779785177,45.226427810887046,183.6808678463913,164.99448131750063,3.23295607813634e-05,0.0938397273421287,0,0,0
15367,534212.6061446654,2010-11-07 18:47:56,5612.860161815841,2,47,0.5501165986061096,4.194796562194824,46.016914834439945,45.226427810887046,183.70010092643955,164.99448131750063,9.70840483205393e-05,0.0938397273421287,0,0,0
15368,534242.6215586364,2010-11-07 18:48:26,5642.8755757868685,2,47,0.5501165986061096,4.198519706726074,46.02150192780366,45.226427810887046,183.7193511838012,164.99448131750063,6.47544875391759e-05,0.0938397273421287,0,0,0
15369,534254.0120791029,2010-11-07 18:48:37,5654.26609625334,2,47,0.550297200679779,4.200138568878174,46.0232426248604,45.226427810887046,183.72666070461045,164.99448131750063,0.0001295089750783,0.0938397273421287,0,0,0
15370,534284.0407100691,2010-11-07 18:49:07,30.015085295603253,3,47,0.0,4.118710041046143,46.0232426248604,45.226427810887046,183.72666070461045,164.99448131750063,-0.0002914428769145,0.0938397273421287,0,0,0
15371,534314.0560796594,2010-11-07 18:49:37,60.03045488584968,3,47,0.0,4.108673572540283,46.0232426248604,45.226427810887046,183.72666070461045,164.99448131750063,-0.0002265930233988,0.0938397273421287,0,0,0
15372,534344.0714920865,2010-11-07 18:50:07,90.04586731302366,3,47,0.0,4.1031694412231445,46.0232426248604,45.226427810887046,183.72666070461045,164.99448131750063,-0.0001295089750783,0.0938397273421287,0,0,0
15373,534374.0399795868,2010-11-07 18:50:37,120.01435481336104,3,47,0.0,4.099445819854736,46.0232426248604,45.226427810887046,183.72666070461045,164.99448131750063,-6.47544875391759e-05,0.0938397273421287,0,0,0
15374,534374.0701415528,2010-11-07 18:50:37,2.721794017e-06,4,47,0.975090265274048,4.199653148651123,46.02324262559762,45.226427810887046,183.7266607077065,164.99448131750063,0.0,0.0938397273421287,0,0,0
15375,534375.0701491958,2010-11-07 18:50:38,1.000010384768133,4,47,0.9247002601623536,4.199653148651123,46.02350496653538,45.226427810887046,183.72776243821252,164.99448131750063,0.0,0.0938397273421287,0,0,0
15376,534377.2732528013,2010-11-07 18:50:41,3.203113990306573,4,47,0.8743102550506592,4.199653148651123,46.02405413688764,45.226427810887046,183.7300687453759,164.99448131750063,0.0,0.0938397273421287,0,0,0
15377,534380.6013333022,2010-11-07 18:50:44,6.531194491249311,4,47,0.8242815136909485,4.199653148651123,46.02483793824834,45.226427810887046,183.73336041338987,164.99448131750063,-3.23295607813634e-05,0.0938397273421287,0,0,0
15378,534385.2106694794,2010-11-07 18:50:49,11.140530668476313,4,47,0.774252712726593,4.199653148651123,46.02585985715459,45.226427810887046,183.7376521020269,164.99448131750063,0.0,0.0938397273421287,0,0,0
15379,534391.288752169,2010-11-07 18:50:55,17.218613357958905,4,47,0.7238627672195435,4.199653148651123,46.02712285696413,45.226427810887046,183.7429562577451,164.99448131750063,0.0,0.0938397273421287,0,0,0
15380,534399.319928626,2010-11-07 18:51:03,25.24978981496119,4,47,0.6736533641815186,4.199653148651123,46.028679463571,45.226427810887046,183.74949346630984,164.99448131750063,3.24249267578125e-05,0.0938397273421287,0,0,0
15381,534410.2260895014,2010-11-07 18:51:14,36.15595069037714,4,47,0.6232633590698242,4.199491024017334,46.03064055829107,45.226427810887046,183.7577294048923,164.99448131750063,0.0,0.0938397273421287,0,0,0
15382,534425.8197465735,2010-11-07 18:51:29,51.7496077624532,4,47,0.5732346177101135,4.199653148651123,46.033225624136605,45.226427810887046,183.76858578542024,164.99448131750063,6.47544875391759e-05,0.0938397273421287,0,0,0
15383,534450.14764072,2010-11-07 18:51:53,76.07750190899591,4,47,0.5232058167457581,4.199491024017334,46.03691737955225,45.226427810887046,183.7840898939484,164.99448131750063,-6.47544875391759e-05,0.0938397273421287,0,0,0
15384,534492.9599397699,2010-11-07 18:52:36,118.8898009639446,4,47,0.4729964435100555,4.199653148651123,46.04281455175804,45.226427810887046,183.8088559929893,164.99448131750063,-3.23295607813634e-05,0.0938397273421287,0,0,0
15385,534565.4748162929,2010-11-07 18:53:49,191.4046774818682,4,47,0.422787070274353,4.199491024017334,46.051805313406106,45.226427810887046,183.84661414621905,164.99448131750063,-3.24249267578125e-05,0.0938397273421287,0,0,0
15386,534666.9114897505,2010-11-07 18:55:30,292.8413509394604,4,47,0.3727582991123199,4.199814796447754,46.06299692511477,45.226427810887046,183.8936151975447,164.99448131750063,3.23295607813634e-05,0.0938397273421287,0,0,0
15387,534789.0511472763,2010-11-07 18:57:32,414.9810084653616,4,47,0.3227295279502868,4.199814796447754,46.07478171357577,45.226427810887046,183.9431074222292,164.99448131750063,0.0,0.0938397273421287,0,0,0
15388,534933.19070188,2010-11-07 18:59:57,559.1205630689684,4,47,0.2727007567882538,4.199653148651123,46.08668657591463,45.226427810887046,183.99310394171863,164.99448131750063,3.24249267578125e-05,0.0938397273421287,0,0,0
15389,535106.423538772,2010-11-07 19:02:50,732.3533999610567,4,47,0.2226720005273819,4.199653148651123,46.09858608929693,45.226427810887046,184.04307799400195,164.99448131750063,-3.23295607813634e-05,0.0938397273421287,0,0,0
15390,535329.1092377711,2010-11-07 19:06:32,955.0390989600968,4,47,0.1726432293653488,4.199653148651123,46.11076848934501,45.226427810887046,184.0942400937871,164.99448131750063,3.24249267578125e-05,0.0938397273421287,0,0,0
15391,535641.6535503741,2010-11-07 19:11:45,1267.583411563094,4,47,0.1226144582033157,4.199491024017334,46.12346924939009,45.226427810887046,184.14757912876684,164.99448131750063,-3.24249267578125e-05,0.0938397273421287,0,0,0
15392,536162.6336733669,2010-11-07 19:20:26,1788.563534555872,4,47,0.0725856870412826,4.199491024017334,46.137271120120175,45.226427810887046,184.20554232301453,164.99448131750063,0.0,0.0938397273421287,0,0,0
15393,536577.317803428,2010-11-07 19:27:21,2203.2476646170635,4,47,0.0498289167881011,4.199491024017334,46.14428282189155,45.226427810887046,184.2349891196564,164.99448131750063,-3.24249267578125e-05,0.0938397273421287,0,0,0
15394,536607.3188007228,2010-11-07 19:27:51,30.015365139135767,5,47,0.0,4.192206382751465,46.14428282189155,45.226427810887046,184.2349891196564,164.99448131750063,0.0,0.0938397273421287,0,0,0
15395,536637.3185791803,2010-11-07 19:28:21,60.01514360654095,5,47,0.0,4.191073417663574,46.14428282189155,45.226427810887046,184.2349891196564,164.99448131750063,0.0,0.0938397273421287,0,0,0
15396,536637.5077551041,2010-11-07 19:28:21,0.187429061773427,6,47,-1.9243103452026844e-05,4.191235065460205,46.14428282189155,45.22642781188891,184.2349891196564,164.99448132169968,0.0,0.0931148082017898,0,0,0
15397,536642.3359459362,2010-11-07 19:28:26,5.015619898901488,6,47,0.0005225847125984,4.190911293029785,46.14428364328136,45.2264278119735,184.2349925622331,164.9944813220542,-6.47544875391759e-05,0.0931148082017898,0,0,0
15398,536672.3373945602,2010-11-07 19:28:56,30.01538266287772,7,47,-1.0997490882873535,4.023521423339844,46.14428364328136,45.23559758133083,184.2349925622331,165.0315599730446,-0.0008418083307333,0.0931148082017898,0,0,0
15399,536702.352769574,2010-11-07 19:29:26,60.03075767666213,7,47,-1.0997490882873535,3.9989147186279297,46.14428364328136,45.244767334020686,184.2349925622331,165.06833237880113,-0.0005504608270712,0.0931148082017898,0,0,0
15400,536732.3682017606,2010-11-07 19:29:56,90.04618987318345,7,47,-1.0997490882873535,3.981755018234253,46.14428364328136,45.25393709998007,184.2349925622331,165.104918385183,-0.0003885269106831,0.0931148082017898,0,0,0
15401,536762.3861358672,2010-11-07 19:30:26,120.0641239698324,7,47,-1.0997490882873535,3.968318462371826,46.14428364328136,45.26310754357392,184.2349925622331,165.14136888100023,-0.0003237724304199,0.0931148082017898,0,0,0
15402,536792.3993472051,2010-11-07 19:30:56,150.07733539797417,7,47,-1.1001102924346924,3.956500768661499,46.14428364328136,45.272276509129405,184.2349925622331,165.1776993260698,-0.0003237724304199,0.0931148082017898,0,0,0
15403,536822.4142642508,2010-11-07 19:31:26,180.0922523533744,7,47,-1.0997490882873535,3.9461400508880615,46.14428364328136,45.28144600362656,184.2349925622331,165.21393055536552,-0.0002913951757363,0.0931148082017898,0,0,0
15404,536852.4296018812,2010-11-07 19:31:56,210.1075899838443,7,47,-1.0997490882873535,3.936264991760254,46.14428364328136,45.29061558941249,184.2349925622331,165.25006887001584,-0.0002590179501567,0.0931148082017898,0,0,0
15405,536882.445151155,2010-11-07 19:32:26,240.1231392576084,7,47,-1.099929690361023,3.926875591278076,46.14428364328136,45.299785301902006,184.2349925622331,165.28611937738626,-0.0002590179501567,0.0931148082017898,0,0,0
15406,536912.4604127206,2010-11-07 19:32:56,270.1384008282212,7,47,-1.099929690361023,3.9178099632263184,46.14428364328136,45.308954920995866,184.2349925622331,165.32208508189368,-0.0002266406954731,0.0931148082017898,0,0,0
15407,536942.4757865915,2010-11-07 19:33:26,300.15377469414034,7,47,-1.099929690361023,3.9089064598083496,46.14428364328136,45.3181245503461,184.2349925622331,165.3579692438537,-0.0002590179501567,0.0931148082017898,0,0,0
15408,536972.4911824673,2010-11-07 19:33:56,330.1691705699997,7,47,-1.0997490882873535,3.900488376617432,46.14428364328136,45.32729418904933,184.2349925622331,165.3937740541398,-0.0001942634553415,0.0931148082017898,0,0,0
15409,537002.5065500225,2010-11-07 19:34:26,360.1845381251663,7,47,-1.099929690361023,3.8920702934265137,46.14428364328136,45.33646383772509,184.2349925622331,165.42950125532943,-0.0002266406954731,0.0931148082017898,0,0,0
15410,537032.5219387705,2010-11-07 19:34:56,390.1999268732335,7,47,-1.0997490882873535,3.883975982666016,46.14428364328136,45.34563349895583,184.2349925622331,165.46515299588063,-0.0001942634553415,0.0931148082017898,0,0,0
15411,537062.5374919691,2010-11-07 19:35:26,420.215480076807,7,47,-1.0997490882873535,3.8758816719055176,46.14428364328136,45.35480324815351,184.2349925622331,165.50073036190324,-0.0002266406954731,0.0931148082017898,0,0,0
15412,537092.552693946,2010-11-07 19:35:56,450.2306820486522,7,47,-1.099929690361023,3.8676254749298096,46.14428364328136,45.36397285773007,184.2349925622331,165.53623318618452,-0.0002590179501567,0.0931148082017898,0,0,0
15413,537122.5680605989,2010-11-07 19:36:26,480.24604870657913,7,47,-1.099929690361023,3.859854936599731,46.14428364328136,45.37314254340439,184.2349925622331,165.5716633909047,-0.0002266406954731,0.0931148082017898,0,0,0
15414,537152.5834594673,2010-11-07 19:36:56,510.26144756989567,7,47,-1.0997490882873535,3.8522462844848633,46.14428364328136,45.38231224340171,184.2349925622331,165.60702209461536,-0.0001942634553415,0.0931148082017898,0,0,0
15415,537182.5988347066,2010-11-07 19:37:26,540.2768228092431,7,47,-1.0997490882873535,3.844637632369995,46.14428364328136,45.3914819527288,184.2349925622331,165.64230994974648,-0.0001942634553415,0.0931148082017898,0,0,0
15416,537212.6141992894,2010-11-07 19:37:56,570.29218739199,7,47,-1.099929690361023,3.836867094039917,46.14428364328136,45.40065163883349,184.2349925622331,165.67752800029743,-0.0002266406954731,0.0931148082017898,0,0,0
15417,537242.6295743984,2010-11-07 19:38:26,600.3075625010122,7,47,-1.099929690361023,3.829582452774048,46.14428364328136,45.40982135839381,184.2349925622331,165.71267771143914,-0.0001942634553415,0.0931148082017898,0,0,0
15418,537272.6453204283,2010-11-07 19:38:56,630.32330855096,7,47,-1.0997490882873535,3.8221356868743896,46.14428364328136,45.41899118573942,184.2349925622331,165.7477600594247,-0.0002266406954731,0.0931148082017898,0,0,0
15419,537302.6604783651,2010-11-07 19:39:26,660.338466467837,7,47,-1.099929690361023,3.814850807189941,46.14428364328136,45.42816077324802,184.2349925622331,165.78277469576858,-0.0001942634553415,0.0931148082017898,0,0,0
15420,537332.6757422265,2010-11-07 19:39:56,690.3537303291678,7,47,-1.0993878841400146,3.807889699935913,46.14428364328136,45.43733036101766,184.2349925622331,165.8177234913365,-0.0001942634553415,0.0931148082017898,0,0,0
15421,537362.6911348994,2010-11-07 19:40:26,720.3691230872447,7,47,-1.099929690361023,3.801090478897095,46.14428364328136,45.44650001288408,184.2349925622331,165.85260900874053,-0.0001618862152099,0.0931148082017898,0,0,0
15422,537392.706500635,2010-11-07 19:40:56,750.3844887376569,7,47,-1.099929690361023,3.7941293716430655,46.14428364328136,45.45566966298148,184.2349925622331,165.88743187972727,-0.0002266406954731,0.0931148082017898,0,0,0
15423,537422.7218632076,2010-11-07 19:41:26,780.3998513103865,7,47,-1.099929690361023,3.787653923034668,46.14428364328136,45.46483937406515,184.2349925622331,165.92219356955297,-0.0001942634553415,0.0931148082017898,0,0,0
15424,537452.7374801754,2010-11-07 19:41:56,810.415468278125,7,47,-1.099929690361023,3.7811784744262695,46.14428364328136,45.47400915365158,184.2349925622331,165.9568958261216,-0.0001618862152099,0.0931148082017898,0,0,0
15425,537482.7526621874,2010-11-07 19:42:26,840.4306502901472,7,47,-1.099929690361023,3.775026798248291,46.14428364328136,45.4831787593441,184.2349925622331,165.99153885323418,-0.0001295089750783,0.0931148082017898,0,0,0
15426,537512.7680139482,2010-11-07 19:42:56,870.4460020508886,7,47,-1.0997490882873535,3.7685513496398926,46.14428364328136,45.492348470164806,184.2349925622331,166.0261245165012,-0.0001942634553415,0.0931148082017898,0,0,0
15427,537542.7836648257,2010-11-07 19:43:26,900.461652948321,7,47,-1.0997490882873535,3.762561559677124,46.14428364328136,45.50151827352988,184.2349925622331,166.06065422252655,-0.0001618862152099,0.0931148082017898,0,0,0
15428,537572.7987584621,2010-11-07 19:43:56,930.4767465646944,7,47,-1.099929690361023,3.756571769714356,46.14428364328136,45.51068791671577,184.2349925622331,166.09512823403043,-0.0001942634553415,0.0931148082017898,0,0,0
15429,537602.8141701875,2010-11-07 19:44:26,960.4921582901164,7,47,-1.0997490882873535,3.750744104385376,46.14428364328136,45.51985767047582,184.2349925622331,166.1295482319884,-0.0001295089750783,0.0931148082017898,0,0,0
15430,537632.8295235422,2010-11-07 19:44:57,990.5075116448364,7,47,-1.0997490882873535,3.7449162006378174,46.14428364328136,45.52902736710019,184.2349925622331,166.16391464637775,-0.0001618862152099,0.0931148082017898,0,0,0
15431,537662.844892942,2010-11-07 19:45:27,1020.52288104962,7,47,-1.0997490882873535,3.7392501831054688,46.14428364328136,45.538197089650765,184.2349925622331,166.19822887830696,-0.0001618862152099,0.0931148082017898,0,0,0
15432,537692.8602765722,2010-11-07 19:45:57,1050.5382646749,7,47,-1.099929690361023,3.73374605178833,46.14428364328136,45.54736685548468,184.2349925622331,166.23249160042778,-0.0001295089750783,0.0931148082017898,0,0,0
15433,537722.8756533555,2010-11-07 19:46:27,1080.5536414631138,7,47,-1.099929690361023,3.728403806686402,46.14428364328136,45.55653653670934,184.2349925622331,166.2667037921443,-0.0001295089750783,0.0931148082017898,0,0,0
15434,537752.8910439631,2010-11-07 19:46:57,1110.5690320658105,7,47,-1.099929690361023,3.722899675369263,46.14428364328136,45.56570622941453,184.2349925622331,166.3008667844185,-0.0001295089750783,0.0931148082017898,0,0,0
15435,537782.9064146962,2010-11-07 19:47:27,1140.5844027989097,7,47,-1.0997490882873535,3.717719316482544,46.14428364328136,45.574875977715344,184.2349925622331,166.3349806579566,-0.0001295089750783,0.0931148082017898,0,0,0
15436,537812.9218077451,2010-11-07 19:47:57,1170.5997958527246,7,47,-1.099929690361023,3.7123770713806152,46.14428364328136,45.5840456357181,184.2349925622331,166.36904573753716,-0.0001618862152099,0.0931148082017898,0,0,0
15437,537842.9371733805,2010-11-07 19:48:27,1200.6151614830867,7,47,-1.0997490882873535,3.707196712493897,46.14428364328136,45.59321538032586,184.2349925622331,166.40306352118776,-0.0001618862152099,0.0931148082017898,0,0,0
15438,537872.9525635972,2010-11-07 19:48:57,1230.63055169982,7,47,-1.099929690361023,3.702178239822388,46.14428364328136,45.60238508060419,184.2349925622331,166.43703436611173,-0.0001295089750783,0.0931148082017898,0,0,0
15439,537902.9679407513,2010-11-07 19:49:27,1260.645928853947,7,47,-1.0997490882873535,3.697321653366089,46.14428364328136,45.61155482336752,184.2349925622331,166.470959141293,-9.713172767078504e-05,0.0931148082017898,0,0,0
15440,537932.9834477997,2010-11-07 19:49:57,1290.6614359073224,7,47,-1.0997490882873535,3.69230318069458,46.14428364328136,45.6207245837383,184.2349925622331,166.5048383815021,-0.0001295089750783,0.0931148082017898,0,0,0
15441,537962.9987565781,2010-11-07 19:50:27,1320.6767447960483,7,47,-1.0997490882873535,3.687446594238281,46.14428364328136,45.62989426791762,184.2349925622331,166.5386723619946,-6.47544875391759e-05,0.0931148082017898,0,0,0
15442,537993.014221762,2010-11-07 19:50:57,1350.6922098746486,7,47,-1.0997490882873535,3.6825900077819824,46.14428364328136,45.63906399312468,184.2349925622331,166.57246207136572,-0.0001295089750783,0.0931148082017898,0,0,0
15443,538023.0294667613,2010-11-07 19:51:27,1380.7074548638716,7,47,-1.0997490882873535,3.677733421325684,46.14428364328136,45.64823374187356,184.2349925622331,166.6062082689415,-0.0001618862152099,0.0931148082017898,0,0,0
15444,538053.0449704513,2010-11-07 19:51:57,1410.722958553852,7,47,-1.099929690361023,3.6730387210845943,46.14428364328136,45.65740352372636,184.2349925622331,166.6399113695196,-0.0001295089750783,0.0931148082017898,0,0,0
15445,538083.0602141072,2010-11-07 19:52:27,1440.7382022097468,7,47,-1.099929690361023,3.668506145477295,46.14428364328136,45.666573251855176,184.2349925622331,166.67357161921026,-9.713172767078504e-05,0.0931148082017898,0,0,0
15446,538113.0757295615,2010-11-07 19:52:57,1470.7537176640924,7,47,-1.0997490882873535,3.664135217666626,46.14428364328136,45.67574306146963,184.2349925622331,166.7071903680223,-6.47544875391759e-05,0.0931148082017898,0,0,0
15447,538143.0909815532,2010-11-07 19:53:27,1500.7689696557943,7,47,-1.0997490882873535,3.659602403640747,46.14428364328136,45.68491281338595,184.2349925622331,166.74076814920434,-6.47544875391759e-05,0.0931148082017898,0,0,0
15448,538173.1064786316,2010-11-07 19:53:57,1530.7844667342713,7,47,-1.0997490882873535,3.655231475830078,46.14428364328136,45.69408256410024,184.2349925622331,166.77430534688582,-9.713172767078504e-05,0.0931148082017898,0,0,0
15449,538203.1217303827,2010-11-07 19:54:27,1560.799718485373,7,47,-1.0997490882873535,3.650860548019409,46.14428364328136,45.70325227487007,184.2349925622331,166.807802328734,-9.713172767078504e-05,0.0931148082017898,0,0,0
15450,538233.1373626536,2010-11-07 19:54:57,1590.8153507563109,7,47,-1.0997490882873535,3.64616584777832,46.14428364328136,45.71242209088178,184.2349925622331,166.8412599448399,-0.0001942634553415,0.0931148082017898,0,0,0
15451,538263.1524931422,2010-11-07 19:55:27,1620.8304812447225,7,47,-1.0997490882873535,3.642280578613281,46.14428364328136,45.72159171161855,184.2349925622331,166.8746777557867,-9.713172767078504e-05,0.0931148082017898,0,0,0
15452,538293.1678907573,2010-11-07 19:55:57,1650.8458788599237,7,47,-1.099929690361023,3.638233423233032,46.14428364328136,45.73076141306672,184.2349925622331,166.90805803940705,-6.47544875391759e-05,0.0931148082017898,0,0,0
15453,538323.1832956958,2010-11-07 19:56:27,1680.8612837984044,7,47,-1.0997490882873535,3.634348154067993,46.14428364328136,45.739931151326815,184.2349925622331,166.94140169163387,-9.713172767078504e-05,0.0931148082017898,0,0,0
15454,538353.1986650153,2010-11-07 19:56:57,1710.8766531179751,7,47,-1.099568486213684,3.630462884902954,46.14428364328136,45.749100900678926,184.2349925622331,166.97470936890684,-9.713172767078504e-05,0.0931148082017898,0,0,0
15455,538383.2139657337,2010-11-07 19:57:27,1740.8919538363066,7,47,-1.099929690361023,3.626577615737915,46.14428364328136,45.75827063417445,184.2349925622331,167.00798149550923,-0.0001295089750783,0.0931148082017898,0,0,0
15456,538413.2293877548,2010-11-07 19:57:57,1770.9073758574286,7,47,-1.099929690361023,3.622854232788086,46.14428364328136,45.76744117717825,184.2349925622331,167.04122166010745,-0.0001295089750783,0.0931148082017898,0,0,0
15457,538443.2447676507,2010-11-07 19:58:27,1800.9227557584124,7,47,-1.0997490882873535,3.619292736053467,46.14428364328136,45.77661164556919,184.2349925622331,167.0744280310986,-6.47544875391759e-05,0.0931148082017898,0,0,0
15458,538473.2601825792,2010-11-07 19:58:57,1830.9381706818167,7,47,-1.099568486213684,3.615731239318848,46.14428364328136,45.785781454395945,184.2349925622331,167.10759977350395,-9.713172767078504e-05,0.0931148082017898,0,0,0
15459,538503.2756794472,2010-11-07 19:59:27,1860.9536675597933,7,47,-1.0997490882873535,3.612493515014648,46.14428364328136,45.794951193993526,184.2349925622331,167.1407393784582,-3.237724376958795e-05,0.0931148082017898,0,0,0
15460,538533.2909410328,2010-11-07 19:59:57,1890.9689291354184,7,47,-1.099929690361023,3.6087701320648193,46.14428364328136,45.8041210013634,184.2349925622331,167.17384815124757,-9.713172767078504e-05,0.0931148082017898,0,0,0
15461,538563.3063108285,2010-11-07 20:00:27,1920.9842989311785,7,47,-1.099929690361023,3.60569429397583,46.14428364328136,45.8132907935539,184.2349925622331,167.20692654310952,-6.47544875391759e-05,0.0931148082017898,0,0,0
15462,538593.3216987646,2010-11-07 20:00:57,1950.999686872231,7,47,-1.0997490882873535,3.602618455886841,46.14428364328136,45.82246052888368,184.2349925622331,167.23997529605776,-6.47544875391759e-05,0.0931148082017898,0,0,0
15463,538623.3370659989,2010-11-07 20:01:27,1981.015054101584,7,47,-1.0997490882873535,3.5993807315826416,46.14428364328136,45.83163027549043,184.2349925622331,167.27299558819914,-0.0001295089750783,0.0931148082017898,0,0,0
15464,538653.3524628422,2010-11-07 20:01:57,2011.030450969921,7,47,-1.0997490882873535,3.5963048934936523,46.14428364328136,45.840800043748416,184.2349925622331,167.3059877882994,-0.0001295089750783,0.0931148082017898,0,0,0
15465,538683.3704708583,2010-11-07 20:02:27,2041.0484590462347,7,47,-1.099929690361023,3.593390941619873,46.14428364328136,45.84997061833107,184.2349925622331,167.3389552339017,-9.713172767078504e-05,0.0931148082017898,0,0,0
15466,538713.3834622772,2010-11-07 20:02:57,2071.061450379987,7,47,-1.0997490882873535,3.590477228164673,46.14428364328136,45.859139736225686,184.2349925622331,167.3718902250374,-6.47544875391759e-05,0.0931148082017898,0,0,0
15467,538743.398614886,2010-11-07 20:03:27,2101.0766029886136,7,47,-1.0997490882873535,3.5875632762908936,46.14428364328136,45.86830944221023,184.2349925622331,167.40480026647762,-9.713172767078504e-05,0.0931148082017898,0,0,0
15468,538773.4139832833,2010-11-07 20:03:57,2131.091971390895,7,47,-1.099929690361023,3.5846493244171143,46.14428364328136,45.87747919172516,184.2349925622331,167.43768367363592,-6.47544875391759e-05,0.0931148082017898,0,0,0
15469,538803.4293751441,2010-11-07 20:04:27,2161.10736324672,7,47,-1.0997490882873535,3.581735372543335,46.14428364328136,45.88664897052493,184.2349925622331,167.4705405563795,-6.47544875391759e-05,0.0931148082017898,0,0,0
15470,538833.4447600476,2010-11-07 20:04:57,2191.1227481501905,7,47,-1.0997490882873535,3.578821420669556,46.14428364328136,45.89581874889122,184.2349925622331,167.5033709979541,-9.713172767078504e-05,0.0931148082017898,0,0,0
15471,538863.4601351917,2010-11-07 20:05:27,2221.1381232943,7,47,-1.0997490882873535,3.5759074687957764,46.14428364328136,45.90498849178394,184.2349925622331,167.53617506154526,-6.47544875391759e-05,0.0931148082017898,0,0,0
15472,538893.4754970075,2010-11-07 20:05:57,2251.1534851101405,7,47,-1.099929690361023,3.572993516921997,46.14428364328136,45.91415823868068,184.2349925622331,167.5689524907575,-9.713172767078504e-05,0.0931148082017898,0,0,0
15473,538923.4908911791,2010-11-07 20:06:27,2281.1688792817454,7,47,-1.099929690361023,3.5700795650482178,46.14428364328136,45.92332804150928,184.2349925622331,167.60170352068394,-9.713172767078504e-05,0.0931148082017898,0,0,0
15474,538953.506284243,2010-11-07 20:06:57,2311.184272340573,7,47,-1.0997490882873535,3.5671656131744385,46.14428364328136,45.93249786769197,184.2349925622331,167.63442731053323,-6.47544875391759e-05,0.0931148082017898,0,0,0
15475,538983.5218002436,2010-11-07 20:07:27,2341.19978835632,7,47,-1.099929690361023,3.564089775085449,46.14428364328136,45.94166777770414,184.2349925622331,167.66712383939725,-9.713172767078504e-05,0.0931148082017898,0,0,0
15476,539013.5371512825,2010-11-07 20:07:57,2371.21513939526,7,47,-1.099568486213684,3.56117582321167,46.14428364328136,45.95083755554749,184.2349925622331,167.69979225168444,-9.713172767078504e-05,0.0931148082017898,0,0,0
15477,539043.5523948031,2010-11-07 20:08:27,2401.230382905792,7,47,-1.099929690361023,3.5579380989074707,46.14428364328136,45.96000734608734,184.2349925622331,167.7324325048157,-9.713172767078504e-05,0.0931148082017898,0,0,0
15478,539073.5679354203,2010-11-07 20:08:57,2431.245923522948,7,47,-1.099929690361023,3.5547003746032715,46.14428364328136,45.96917721047242,184.2349925622331,167.76504376501777,-6.47544875391759e-05,0.0931148082017898,0,0,0
15479,539103.5831538884,2010-11-07 20:09:27,2461.26114199097,7,47,-1.0997490882873535,3.5514626502990723,46.14428364328136,45.97834703421818,184.2349925622331,167.7976246478173,-9.713172767078504e-05,0.0931148082017898,0,0,0
15480,539133.5985484308,2010-11-07 20:09:57,2491.276536533501,7,47,-1.099929690361023,3.547901153564453,46.14428364328136,45.98751692293414,184.2349925622331,167.83017456070004,-9.713172767078504e-05,0.0931148082017898,0,0,0
15481,539163.613923239,2010-11-07 20:10:27,2521.2919113467847,7,47,-1.0997490882873535,3.544339656829834,46.14428364328136,45.99668675197142,184.2349925622331,167.86269202421585,-0.0001295089750783,0.0931148082017898,0,0,0
15482,539193.6295392344,2010-11-07 20:10:57,2551.307527337084,7,47,-1.0997490882873535,3.540616273880005,46.14428364328136,46.005856581369365,184.2349925622331,167.8951763045991,-9.713172767078504e-05,0.0931148082017898,0,0,0
15483,539223.6448201984,2010-11-07 20:11:27,2581.322808306118,7,47,-1.0997490882873535,3.536892890930176,46.14428364328136,46.01502636049901,184.2349925622331,167.92762611702648,-6.47544875391759e-05,0.0931148082017898,0,0,0
15484,539253.6600221653,2010-11-07 20:11:57,2611.338010267938,7,47,-1.099929690361023,3.5328457355499268,46.14428364328136,46.024196174682594,184.2349925622331,167.96004047061345,-9.713172767078504e-05,0.0931148082017898,0,0,0
15485,539283.6754571889,2010-11-07 20:12:27,2641.353445281491,7,47,-1.0997490882873535,3.528636693954468,46.14428364328136,46.03336578100566,184.2349925622331,167.99241674615297,-0.0001295089750783,0.0931148082017898,0,0,0
15486,539313.690840318,2010-11-07 20:12:57,2671.3688284205577,7,47,-1.0997490882873535,3.524427652359009,46.14428364328136,46.04253532032254,184.2349925622331,168.02475376231473,-9.713172767078504e-05,0.0931148082017898,0,0,0
15487,539343.7061871312,2010-11-07 20:13:27,2701.384175228937,7,47,-1.099929690361023,3.51973295211792,46.14428364328136,46.05170484065096,184.2349925622331,168.05704997329067,-0.0001618862152099,0.0931148082017898,0,0,0
15488,539373.7217135931,2010-11-07 20:13:57,2731.3997017158213,7,47,-1.0997490882873535,3.515200138092041,46.14428364328136,46.060874478511415,184.2349925622331,168.08930424506795,-9.713172767078504e-05,0.0931148082017898,0,0,0
15489,539403.7369578154,2010-11-07 20:14:27,2761.41494591808,7,47,-1.0997490882873535,3.5101819038391118,46.14428364328136,46.07004416419797,184.2349925622331,168.12151438341942,-0.0001295089750783,0.0931148082017898,0,0,0
15490,539433.7523304432,2010-11-07 20:14:57,2791.4303185459084,7,47,-1.099568486213684,3.5046777725219727,46.14428364328136,46.07921363017187,184.2349925622331,168.15367582143188,-9.713172767078504e-05,0.0931148082017898,0,0,0
15491,539463.767935812,2010-11-07 20:15:27,2821.4459239146945,7,47,-1.0997490882873535,3.498687982559204,46.14428364328136,46.08838292801284,184.2349925622331,168.18578415271517,-0.0001618862152099,0.0931148082017898,0,0,0
15492,539493.7831019395,2010-11-07 20:15:57,2851.46109004708,7,47,-1.0997490882873535,3.492050647735596,46.14428364328136,46.09755206592112,184.2349925622331,168.2178337049696,-0.0001618862152099,0.0931148082017898,0,0,0
15493,539523.7985815093,2010-11-07 20:16:27,2881.4765696118384,7,47,-1.099929690361023,3.484118223190308,46.14428364328136,46.1067212496398,184.2349925622331,168.24981768219567,-0.0002590179501567,0.0931148082017898,0,0,0
15494,539553.8138465234,2010-11-07 20:16:58,2911.49183465111,7,47,-1.099929690361023,3.47521448135376,46.14428364328136,46.11589075021792,184.2349925622331,168.28172640824107,-0.0002590179501567,0.0931148082017898,0,0,0
15495,539583.8292177978,2010-11-07 20:17:28,2941.50720590551,7,47,-1.099929690361023,3.4645299911499023,46.14428364328136,46.12506055290044,184.2349925622331,168.31354639751729,-0.0003237724304199,0.0931148082017898,0,0,0
15496,539613.8446196987,2010-11-07 20:17:58,2971.522607826459,7,47,-1.0997490882873535,3.451579093933105,46.14428364328136,46.13423037977866,184.2349925622331,168.34525859450218,-0.0003561496851034,0.0931148082017898,0,0,0
15497,539643.8599790183,2010-11-07 20:18:28,3001.537967121006,7,47,-1.0997490882873535,3.43555235862732,46.14428364328136,46.14340019595116,184.2349925622331,168.37683781033567,-0.0004856586456298,0.0931148082017898,0,0,0
15498,539673.8753720922,2010-11-07 20:18:58,3031.5533601948714,7,47,-1.0997490882873535,3.4145073890686035,46.14428364328136,46.15256999184816,184.2349925622331,168.40824873933047,-0.0006151676061563,0.0931148082017898,0,0,0
15499,539703.8907574569,2010-11-07 20:19:28,3061.5687455645057,7,47,-1.099568486213684,3.3868248462677,46.14428364328136,46.16173973822789,184.2349925622331,168.4394387603432,-0.0008094310760498,0.0931148082017898,0,0,0
15500,539733.9061163254,2010-11-07 20:19:58,3091.5841044530384,7,47,-1.099929690361023,3.3484580516815186,46.14428364328136,46.17090955275816,184.2349925622331,168.47032941303056,-0.001230287598446,0.0931148082017898,0,0,0
15501,539763.9214939106,2010-11-07 20:20:28,3121.5994820382416,7,47,-1.099929690361023,3.2951974868774414,46.14428364328136,46.180079351423565,184.2349925622331,168.50080427096665,-0.0016188621520996,0.0931148082017898,0,0,0
15502,539793.9368879468,2010-11-07 20:20:58,3151.6148760795218,7,47,-1.0997490882873535,3.2195968627929688,46.14428364328136,46.18924914874417,184.2349925622331,168.5306948594986,-0.0023635388351976,0.0931148082017898,0,0,0
15503,539823.9522510158,2010-11-07 20:21:28,3181.630239118415,7,47,-1.099929690361023,3.1062769889831543,46.14428364328136,46.19841895089094,184.2349925622331,168.55973706347717,-0.0036585808265954,0.0931148082017898,0,0,0
15504,539852.436417688,2010-11-07 20:21:56,3210.1144058156706,7,47,-1.0997490882873535,2.906024217605591,46.14428364328136,46.20712096281195,184.2349925622331,168.58602332100722,-0.0081914421170949,0.0931148082017898,0,0,0
15505,539867.2175338379,2010-11-07 20:22:11,3224.895521940536,7,47,-1.1001102924346924,2.7057716846466064,46.14428364328136,46.21163665633246,184.2349925622331,168.59871762153708,-0.0118824001401662,0.0931148082017898,0,0,0
15506,539867.6395271181,2010-11-07 20:22:11,3225.317515220685,7,47,-1.0997490882873535,2.699781894683838,46.14428364328136,46.21176557808133,184.2349925622331,168.59906606441118,-0.0118824001401662,0.0931148082017898,0,0,0
15507,539927.6828287726,2010-11-07 20:23:11,60.01525201213799,8,47,0.0,3.283703565597534,46.14428364328136,46.21176557808133,184.2349925622331,168.59906606441118,0.0012303352123126,0.0931148082017898,0,0,0
15508,539927.8518363313,2010-11-07 20:23:12,0.187383673477257,9,47,-1.9243103452026844e-05,3.283703565597534,46.14428364328136,46.21176557908295,184.2349925622331,168.59906606770022,0.0,0.0939245000481605,0,0,0
15509,539932.6799237351,2010-11-07 20:23:17,5.015471072407664,9,47,0.0007031940040178,3.2913122177124023,46.14428443997283,46.21176557925013,184.2349951818368,168.5990660682492,0.0011008263099938,0.0939245000481605,0,0,0
