Data_Point,Test_Time(s),Date_Time,Step_Time(s),Step_Index,Cycle_Index,Current(A),Voltage(V),Charge_Capacity(Ah),Discharge_Capacity(Ah),Charge_Energy(Wh),Discharge_Energy(Wh),dV/dt(V/s),Internal_Resistance(Ohm),Is_FC_Data,AC_Impedance(Ohm),ACI_Phase_Angle(Deg)
5598,195458.58525902257,2010-11-03 20:41:27,30.01528225223732,1,18,0.0,3.34214448928833,16.67401733194531,16.73634775307802,66.6156109434191,61.01658082677324,0.0007122993702068,0.0938397273421287,0,0,0
5599,195488.6005966029,2010-11-03 20:41:57,60.03061980751954,1,18,0.0,3.3656177520751958,16.67401733194531,16.73634775307802,66.6156109434191,61.01658082677324,0.0005180359003134,0.0938397273421287,0,0,0
5600,195518.6158879629,2010-11-03 20:42:27,90.04591116749116,1,18,0.0,3.383425235748291,16.67401733194531,16.73634775307802,66.6156109434191,61.01658082677324,0.0003885269106831,0.0938397273421287,0,0,0
5601,195548.5843477139,2010-11-03 20:42:57,120.01437091856208,1,18,0.0,3.3975093364715576,16.67401733194531,16.73634775307802,66.6156109434191,61.01658082677324,0.0002913951757363,0.0938397273421287,0,0,0
5602,195578.5935738192,2010-11-03 20:43:27,30.01520335529841,2,18,0.5501165986061096,3.5593950748443604,16.678603811444013,16.73634775307802,66.63175893928089,61.01658082677324,0.0017483711708337,0.0938397273421287,0,0,0
5603,195608.60878380603,2010-11-03 20:43:57,60.0304133371377,2,18,0.550297200679779,3.6123316287994394,16.683190378927385,16.73634775307802,66.64821317586895,61.01658082677324,0.0011979580158367,0.0938397273421287,0,0,0
5604,195638.6241052812,2010-11-03 20:44:27,90.04573481729393,2,18,0.5501165986061096,3.651508092880249,16.687776948059764,16.73634775307802,66.6648755593035,61.01658082677324,0.0009389400365762,0.0938397273421287,0,0,0
5605,195668.6395129615,2010-11-03 20:44:57,120.06114250263155,2,18,0.5501165986061096,3.682428121566773,16.69236344434798,16.73634775307802,66.68169666966313,61.01658082677324,0.0007446765666827,0.0938397273421287,0,0,0
5606,195698.65474184556,2010-11-03 20:45:27,150.0763713866536,2,18,0.550297200679779,3.707844257354736,16.696949834303712,16.73634775307802,66.69864544715243,61.01658082677324,0.0006475448608398,0.0938397273421287,0,0,0
5607,195728.670188844,2010-11-03 20:45:57,180.0918183650728,2,18,0.550297200679779,3.729051351547241,16.701536399232882,16.73634775307802,66.71570141791315,61.01658082677324,0.0005180359003134,0.0938397273421287,0,0,0
5608,195758.68548826408,2010-11-03 20:46:27,210.1071177951888,2,18,0.5501165986061096,3.746696949005127,16.706122868312058,16.73634775307802,66.73284605532513,61.01658082677324,0.0004532813909463,0.0938397273421287,0,0,0
5609,195788.70072469697,2010-11-03 20:46:57,240.1223542280539,2,18,0.5499359965324402,3.7599713802337646,16.710709283800696,16.73634775307802,66.7500623606729,61.01658082677324,0.0002590179501567,0.0938397273421287,0,0,0
5610,195818.71601038275,2010-11-03 20:47:28,270.1376399138619,2,18,0.5499359965324402,3.7683894634246826,16.715295746762177,16.73634775307802,66.76732835664265,61.01658082677324,0.0001942634553415,0.0938397273421287,0,0,0
5611,195848.7313838527,2010-11-03 20:47:58,300.1530133837926,2,18,0.5499359965324402,3.773246049880981,16.719882281810516,16.73634775307802,66.78462421957443,61.01658082677324,9.713172767078504e-05,0.0938397273421287,0,0,0
5612,195878.74675313217,2010-11-03 20:48:28,330.1683826783008,2,18,0.5501165986061096,3.77745509147644,16.724468766678093,16.73634775307802,66.80193996125367,61.01658082677324,0.0001295089750783,0.0938397273421287,0,0,0
5613,195908.76194748,2010-11-03 20:48:58,360.18357701107766,2,18,0.5501165986061096,3.7808547019958496,16.72905529229636,16.73634775307802,66.81927307566093,61.01658082677324,6.47544875391759e-05,0.0938397273421287,0,0,0
5614,195938.7772445893,2010-11-03 20:49:28,390.1988741504756,2,18,0.5501165986061096,3.7844161987304688,16.7336418400605,16.73634775307802,66.83662260377821,61.01658082677324,6.47544875391759e-05,0.0938397273421287,0,0,0
5615,195968.79256102187,2010-11-03 20:49:58,420.2141905830324,2,18,0.5501165986061096,3.787815809249878,16.73822831952228,16.73634775307802,66.85398785603388,61.01658082677324,6.47544875391759e-05,0.0938397273421287,0,0,0
5616,195998.80802838612,2010-11-03 20:50:28,450.22965792728775,2,18,0.5501165986061096,3.791215419769287,16.74281496854197,16.73634775307802,66.87136932120691,61.01658082677324,9.713172767078504e-05,0.0938397273421287,0,0,0
5617,196028.8232182227,2010-11-03 20:50:58,480.2448477588288,2,18,0.5499359965324402,3.7944531440734863,16.747401614690638,16.73634775307802,66.88876577589045,61.01658082677324,6.47544875391759e-05,0.0938397273421287,0,0,0
5618,196058.8386411511,2010-11-03 20:51:28,510.2602706822029,2,18,0.5501165986061096,3.7976908683776855,16.751988224896568,16.73634775307802,66.90617690855913,61.01658082677324,9.713172767078504e-05,0.0938397273421287,0,0,0
5619,196088.85383227587,2010-11-03 20:51:58,540.2754618069721,2,18,0.550297200679779,3.8009285926818848,16.756574811634867,16.73634775307802,66.92360241439567,61.01658082677324,9.713172767078504e-05,0.0938397273421287,0,0,0
5620,196118.86927613147,2010-11-03 20:52:28,570.2909056676087,2,18,0.550297200679779,3.804004430770874,16.761161459333643,16.73634775307802,66.94104232161688,61.01658082677324,9.713172767078504e-05,0.0938397273421287,0,0,0
5621,196148.88448945165,2010-11-03 20:52:58,600.3061189827685,2,18,0.5501165986061096,3.806918382644653,16.76574812572816,16.73634775307802,66.95849636052472,61.01658082677324,6.47544875391759e-05,0.0938397273421287,0,0,0
5622,196178.89992391385,2010-11-03 20:53:28,630.3215534449453,2,18,0.550297200679779,3.8099942207336426,16.77033488169216,16.73634775307802,66.97596462435519,61.01658082677324,9.713172767078504e-05,0.0938397273421287,0,0,0
5623,196208.9151397804,2010-11-03 20:53:58,660.3367693214987,2,18,0.5501165986061096,3.812908172607422,16.77492152699716,16.73634775307802,66.99344631619921,61.01658082677324,9.713172767078504e-05,0.0938397273421287,0,0,0
5624,196238.9305569594,2010-11-03 20:54:28,690.3521865005341,2,18,0.5501165986061096,3.816145896911621,16.779508170499405,16.73634775307802,67.01094226867947,61.01658082677324,9.713172767078504e-05,0.0938397273421287,0,0,0
5625,196268.94576078583,2010-11-03 20:54:58,720.367390321996,2,18,0.5501165986061096,3.8192217350006095,16.784094803954744,16.73634775307802,67.02845230413925,61.01658082677324,0.0001295089750783,0.0938397273421287,0,0,0
5626,196298.96106651676,2010-11-03 20:55:28,750.382696047827,2,18,0.5499359965324402,3.8221356868743896,16.788681439840985,16.73634775307802,67.04597672835524,61.01658082677324,3.237724376958795e-05,0.0938397273421287,0,0,0
5627,196328.9763743127,2010-11-03 20:55:58,780.3980038438256,2,18,0.5501165986061096,3.825535297393799,16.79326808862486,16.73634775307802,67.0635158635438,61.01658082677324,6.47544875391759e-05,0.0938397273421287,0,0,0
5628,196358.99170555224,2010-11-03 20:56:28,810.4133350833428,2,18,0.5501165986061096,3.828934907913208,16.797854774140443,16.73634775307802,67.08107039048096,61.01658082677324,0.0001295089750783,0.0938397273421287,0,0,0
5629,196389.01019566177,2010-11-03 20:56:58,840.4318252780981,2,18,0.5501165986061096,3.832334518432617,16.802441943364958,16.73634775307802,67.09864236496227,61.01658082677324,9.713172767078504e-05,0.0938397273421287,0,0,0
5630,196419.0224224872,2010-11-03 20:57:28,870.4440521035199,2,18,0.5499359965324402,3.8357338905334473,16.807028105141534,16.73634775307802,67.11622609796903,61.01658082677324,9.713172767078504e-05,0.0938397273421287,0,0,0
5631,196449.0376751907,2010-11-03 20:57:58,900.4593047217865,2,18,0.5501165986061096,3.8392953872680655,16.811614645680155,16.73634775307802,67.13382712268883,61.01658082677324,6.47544875391759e-05,0.0938397273421287,0,0,0
5632,196479.0529861245,2010-11-03 20:58:28,930.4746156556172,2,18,0.5501165986061096,3.842694997787476,16.816201261559378,16.73634775307802,67.15144425104269,61.01658082677324,9.713172767078504e-05,0.0938397273421287,0,0,0
5633,196509.06850333823,2010-11-03 20:58:58,960.4901328944172,2,18,0.5499359965324402,3.8460946083068848,16.82078789824124,16.73634775307802,67.16907702919478,61.01658082677324,9.713172767078504e-05,0.0938397273421287,0,0,0
5634,196539.0837432097,2010-11-03 20:59:28,990.5053727508282,2,18,0.5501165986061096,3.849332332611084,16.825374539649317,16.73634775307802,67.18672526846977,61.01658082677324,6.47544875391759e-05,0.0938397273421287,0,0,0
5635,196569.09893067036,2010-11-03 20:59:58,1020.520560201426,2,18,0.550297200679779,3.852731943130493,16.82996116290071,16.73634775307802,67.20438861486423,61.01658082677324,9.713172767078504e-05,0.0938397273421287,0,0,0
5636,196599.11431692212,2010-11-03 21:00:28,1050.535946453262,2,18,0.5501165986061096,3.8558077812194815,16.834547839820168,16.73634775307802,67.22206703183234,61.01658082677324,6.47544875391759e-05,0.0938397273421287,0,0,0
5637,196629.12960012176,2010-11-03 21:00:58,1080.551229652864,2,18,0.5501165986061096,3.8590455055236816,16.839134501119847,16.73634775307802,67.23975997429928,61.01658082677324,6.47544875391759e-05,0.0938397273421287,0,0,0
5638,196659.14488778752,2010-11-03 21:01:28,1110.5665173186146,2,18,0.5501165986061096,3.862121343612671,16.843721136024907,16.73634775307802,67.25746703563571,61.01658082677324,9.713172767078504e-05,0.0938397273421287,0,0,0
5639,196689.16034530225,2010-11-03 21:01:58,1140.581974863409,2,18,0.5499359965324402,3.86503529548645,16.848307857350328,16.73634775307802,67.2751882246022,61.01658082677324,6.47544875391759e-05,0.0938397273421287,0,0,0
5640,196719.1755339508,2010-11-03 21:02:28,1170.597163481922,2,18,0.5501165986061096,3.8679492473602295,16.852894435489496,16.73634775307802,67.29292213884968,61.01658082677324,6.47544875391759e-05,0.0938397273421287,0,0,0
5641,196749.19086516023,2010-11-03 21:02:58,1200.6124946913642,2,18,0.5501165986061096,3.870701313018799,16.85748108866338,16.73634775307802,67.31066914038044,61.01658082677324,9.713172767078504e-05,0.0938397273421287,0,0,0
5642,196779.20601634533,2010-11-03 21:03:28,1230.6276458764376,2,18,0.5501165986061096,3.873129606246948,16.862067652712295,16.73634775307802,67.32842801085609,61.01658082677324,3.237724376958795e-05,0.0938397273421287,0,0,0
5643,196809.22148189007,2010-11-03 21:03:58,1260.6431114412514,2,18,0.5499359965324402,3.875719785690308,16.866654300628507,16.73634775307802,67.34619874473528,61.01658082677324,6.47544875391759e-05,0.0938397273421287,0,0,0
5644,196839.2367997211,2010-11-03 21:04:28,1290.6584292522489,2,18,0.5501165986061096,3.878148078918457,16.87124090782843,16.73634775307802,67.36398032098634,61.01658082677324,6.47544875391759e-05,0.0938397273421287,0,0,0
5645,196869.252237246,2010-11-03 21:04:58,1320.6738667770703,2,18,0.5501165986061096,3.8802525997161865,16.875827529349184,16.73634775307802,67.38177232229418,61.01658082677324,6.47544875391759e-05,0.0938397273421287,0,0,0
5646,196899.26764402405,2010-11-03 21:05:28,1350.6892735651686,2,18,0.5501165986061096,3.882195234298706,16.880414166734308,16.73634775307802,67.39957405091309,61.01658082677324,6.47544875391759e-05,0.0938397273421287,0,0,0
5647,196929.2827467281,2010-11-03 21:05:58,1380.7043762642134,2,18,0.5501165986061096,3.8841378688812256,16.885000752458566,16.73634775307802,67.4173846778133,61.01658082677324,6.47544875391759e-05,0.0938397273421287,0,0,0
5648,196959.2980604439,2010-11-03 21:06:28,1410.719689974976,2,18,0.5501165986061096,3.885918617248535,16.889587369679678,16.73634775307802,67.4352037653256,61.01658082677324,3.237724376958795e-05,0.0938397273421287,0,0,0
5649,196989.31351641472,2010-11-03 21:06:58,1440.7351459458416,2,18,0.5501165986061096,3.8875374794006343,16.894174089719236,16.73634775307802,67.45303117398191,61.01658082677324,6.47544875391759e-05,0.0938397273421287,0,0,0
5650,197019.32883189493,2010-11-03 21:07:28,1470.750461426021,2,18,0.5501165986061096,3.889318227767944,16.89876078392163,16.73634775307802,67.47086590327116,61.01658082677324,6.47544875391759e-05,0.0938397273421287,0,0,0
5651,197049.34403787172,2010-11-03 21:07:58,1500.765667407876,2,18,0.5501165986061096,3.890613317489624,16.903347514884757,16.73634775307802,67.48870771156561,61.01658082677324,0.0,0.0938397273421287,0,0,0
5652,197079.35934568784,2010-11-03 21:08:28,1530.780975218912,2,18,0.5501165986061096,3.8920702934265137,16.907934138986683,16.73634775307802,67.50655579388769,61.01658082677324,3.237724376958795e-05,0.0938397273421287,0,0,0
5653,197109.3746933433,2010-11-03 21:08:58,1560.7963228794183,2,18,0.5501165986061096,3.8935272693634033,16.91252088402096,16.73634775307802,67.52441078041848,61.01658082677324,6.47544875391759e-05,0.0938397273421287,0,0,0
5654,197139.38998955532,2010-11-03 21:09:28,1590.8116190864891,2,18,0.5501165986061096,3.894660472869873,16.917107641856425,16.73634775307802,67.54227216491405,61.01658082677324,0.0,0.0938397273421287,0,0,0
5655,197169.4053179127,2010-11-03 21:09:58,1620.8269474438116,2,18,0.5501165986061096,3.8961174488067623,16.921694327521053,16.73634775307802,67.56013884319141,61.01658082677324,6.47544875391759e-05,0.0938397273421287,0,0,0
5656,197199.42070219465,2010-11-03 21:10:28,1650.842331725731,2,18,0.5504778623580933,3.897574424743652,16.926280982447853,16.73634775307802,67.57801167334591,61.01658082677324,6.47544875391759e-05,0.0938397273421287,0,0,0
5657,197229.4359662013,2010-11-03 21:10:58,1680.8575957574867,2,18,0.5501165986061096,3.898707628250122,16.930867612876902,16.73634775307802,67.59589039676477,61.01658082677324,3.237724376958795e-05,0.0938397273421287,0,0,0
5658,197259.45127664896,2010-11-03 21:11:28,1710.8729061900667,2,18,0.5501165986061096,3.9000027179718018,16.93545425938051,16.73634775307802,67.61377520926274,61.01658082677324,3.237724376958795e-05,0.0938397273421287,0,0,0
5659,197289.46658117176,2010-11-03 21:11:58,1740.88821070287,2,18,0.5501165986061096,3.9012978076934814,16.940040959928428,16.73634775307802,67.63166618279905,61.01658082677324,3.237724376958795e-05,0.0938397273421287,0,0,0
5660,197319.48191151404,2010-11-03 21:12:28,1770.9035410451472,2,18,0.5501165986061096,3.902431011199951,16.944627629554898,16.73634775307802,67.64956305153352,61.01658082677324,0.0,0.0938397273421287,0,0,0
5661,197349.49723654307,2010-11-03 21:12:58,1800.918866074162,2,18,0.5501165986061096,3.903887987136841,16.94921434450273,16.73634775307802,67.6674661041437,61.01658082677324,6.47544875391759e-05,0.0938397273421287,0,0,0
5662,197379.5125467601,2010-11-03 21:13:28,1830.9341762962165,2,18,0.5501165986061096,3.905183076858521,16.95380105919809,16.73634775307802,67.68537520059502,61.01658082677324,3.237724376958795e-05,0.0938397273421287,0,0,0
5663,197409.52801615448,2010-11-03 21:13:58,1860.9496456855768,2,18,0.5499359965324402,3.9064781665802,16.958387767916577,16.73634775307802,67.70329011021276,61.01658082677324,3.237724376958795e-05,0.0938397273421287,0,0,0
5664,197439.54319690831,2010-11-03 21:14:28,1890.964826444471,2,18,0.5501165986061096,3.90777325630188,16.9629744499244,16.73634775307802,67.72121112374866,61.01658082677324,0.0,0.0938397273421287,0,0,0
5665,197469.5587420819,2010-11-03 21:14:58,1920.980371612988,2,18,0.5499359965324402,3.90906834602356,16.967561168604462,16.73634775307802,67.73913835052866,61.01658082677324,0.0,0.0938397273421287,0,0,0
5666,197499.57383788872,2010-11-03 21:15:28,1950.9954674198289,2,18,0.5501165986061096,3.910525321960449,16.972147839264814,16.73634775307802,67.75707158832873,61.01658082677324,3.237724376958795e-05,0.0938397273421287,0,0,0
5667,197529.5892320804,2010-11-03 21:15:58,1981.0108617267715,2,18,0.5499359965324402,3.911658525466919,16.976734481561145,16.73634775307802,67.77501081448969,61.01658082677324,-3.237724376958795e-05,0.0938397273421287,0,0,0
5668,197559.60449403693,2010-11-03 21:16:28,2011.0261235680605,2,18,0.5499359965324402,3.9132773876190186,16.98132118586212,16.73634775307802,67.79295657642069,61.01658082677324,6.47544875391759e-05,0.0938397273421287,0,0,0
5669,197589.6198404093,2010-11-03 21:16:58,2041.041469945364,2,18,0.550297200679779,3.914734125137329,16.985907925702612,16.73634775307802,67.81090875448338,61.01658082677324,3.237724376958795e-05,0.0938397273421287,0,0,0
5670,197619.63524151812,2010-11-03 21:17:28,2071.056871079348,2,18,0.5501165986061096,3.915867328643799,16.990494689956996,16.73634775307802,67.82886721116779,61.01658082677324,3.237724376958795e-05,0.0938397273421287,0,0,0
5671,197649.6506223214,2010-11-03 21:17:58,2101.0722518575217,2,18,0.5501165986061096,3.917324304580689,16.995081403767806,16.73634775307802,67.84683181827734,61.01658082677324,0.0,0.0938397273421287,0,0,0
5672,197679.66580031332,2010-11-03 21:18:28,2131.0874298645463,2,18,0.5501165986061096,3.918943166732788,16.9996681007559,16.73634775307802,67.86480272767504,61.01658082677324,6.47544875391759e-05,0.0938397273421287,0,0,0
5673,197709.681093528,2010-11-03 21:18:58,2161.102723059097,2,18,0.550297200679779,3.920238256454468,17.004254770367638,16.73634775307802,67.8827799793859,61.01658082677324,6.47544875391759e-05,0.0938397273421287,0,0,0
5674,197739.69654309287,2010-11-03 21:19:29,2191.1181726339983,2,18,0.5501165986061096,3.921533346176148,17.008841516874917,16.73634775307802,67.90076402060261,61.01658082677324,3.237724376958795e-05,0.0938397273421287,0,0,0
5675,197769.711724749,2010-11-03 21:19:59,2221.1333542801067,2,18,0.5501165986061096,3.922990322113037,17.013428199348294,16.73634775307802,67.91875431465266,61.01658082677324,3.237724376958795e-05,0.0938397273421287,0,0,0
5676,197799.7270728907,2010-11-03 21:20:29,2251.1487024218145,2,18,0.5501165986061096,3.924447298049927,17.018014948723618,16.73634775307802,67.93675138710445,61.01658082677324,3.237724376958795e-05,0.0938397273421287,0,0,0
5677,197829.74238342856,2010-11-03 21:20:59,2281.164012969682,2,18,0.550297200679779,3.925904273986816,17.02260166507907,16.73634775307802,67.95475501109954,61.01658082677324,3.237724376958795e-05,0.0938397273421287,0,0,0
5678,197859.7576898712,2010-11-03 21:21:29,2311.179319402277,2,18,0.5499359965324402,3.927199363708496,17.027188460497364,16.73634775307802,67.97276549725743,61.01658082677324,0.0,0.0938397273421287,0,0,0
5679,197889.77302975225,2010-11-03 21:21:59,2341.194659283365,2,18,0.5499359965324402,3.9286563396453857,17.03177518238654,16.73634775307802,67.99078246616986,61.01658082677324,0.0,0.0938397273421287,0,0,0
5680,197919.7883409217,2010-11-03 21:22:29,2371.2099704577963,2,18,0.5501165986061096,3.930275201797485,17.036361922147005,16.73634775307802,68.00880626183668,61.01658082677324,6.47544875391759e-05,0.0938397273421287,0,0,0
5681,197949.80366642185,2010-11-03 21:22:59,2401.225295952974,2,18,0.5501165986061096,3.931894063949585,17.040948677616438,16.73634775307802,68.02683694793087,61.01658082677324,6.47544875391759e-05,0.0938397273421287,0,0,0
5682,197979.81897885943,2010-11-03 21:23:29,2431.240608395572,2,18,0.5501165986061096,3.9331891536712646,17.045535407430663,16.73634775307802,68.04487437081812,61.01658082677324,0.0,0.0938397273421287,0,0,0
5683,198009.834304094,2010-11-03 21:23:59,2461.25593365015,2,18,0.5501165986061096,3.934808015823364,17.0501221410924,16.73634775307802,68.06291870252333,61.01658082677324,3.237724376958795e-05,0.0938397273421287,0,0,0
5684,198039.84963307285,2010-11-03 21:24:29,2491.2712626139864,2,18,0.5501165986061096,3.936264991760254,17.05470892834255,16.73634775307802,68.0809702507723,61.01658082677324,3.237724376958795e-05,0.0938397273421287,0,0,0
5685,198069.86496673344,2010-11-03 21:24:59,2521.2865962695346,2,18,0.550297200679779,3.938045740127564,17.05929565957707,16.73634775307802,68.09902841555343,61.01658082677324,9.713172767078504e-05,0.0938397273421287,0,0,0
5686,198099.8804144938,2010-11-03 21:25:29,2551.302044034918,2,18,0.550297200679779,3.939340829849243,17.06388234269064,16.73634775307802,68.11709354786153,61.01658082677324,6.47544875391759e-05,0.0938397273421287,0,0,0
5687,198129.89558438555,2010-11-03 21:25:59,2581.3172139166613,2,18,0.5501165986061096,3.940959692001343,17.068469028176334,16.73634775307802,68.13516582954446,61.01658082677324,6.47544875391759e-05,0.0938397273421287,0,0,0
5688,198159.91103689777,2010-11-03 21:26:29,2611.3326664389187,2,18,0.5501165986061096,3.9425785541534415,17.07305578377936,16.73634775307802,68.15324549671564,61.01658082677324,3.237724376958795e-05,0.0938397273421287,0,0,0
5689,198189.92627169652,2010-11-03 21:26:59,2641.3479012377047,2,18,0.5501165986061096,3.944035530090332,17.07764251808263,16.73634775307802,68.1713323891255,61.01658082677324,6.47544875391759e-05,0.0938397273421287,0,0,0
5690,198219.94155447013,2010-11-03 21:27:29,2671.3631840012185,2,18,0.5501165986061096,3.945654392242432,17.082229202976706,16.73634775307802,68.18942638261622,61.01658082677324,3.237724376958795e-05,0.0938397273421287,0,0,0
5691,198249.9568770931,2010-11-03 21:27:59,2701.378506624228,2,18,0.5501165986061096,3.9472732543945312,17.086815932515673,16.73634775307802,68.20752788603832,61.01658082677324,3.237724376958795e-05,0.0938397273421287,0,0,0
5692,198279.97220193667,2010-11-03 21:28:29,2731.39383146778,2,18,0.5501165986061096,3.949054002761841,17.091402667307243,16.73634775307802,68.22563685540257,61.01658082677324,6.47544875391759e-05,0.0938397273421287,0,0,0
5693,198309.99019158195,2010-11-03 21:28:59,2761.411821198299,2,18,0.5501165986061096,3.9505109786987305,17.09598975612474,16.73634775307802,68.2437546408564,61.01658082677324,3.237724376958795e-05,0.0938397273421287,0,0,0
5694,198340.0028513932,2010-11-03 21:29:29,2791.4244809243078,2,18,0.5501165986061096,3.95212984085083,17.100576151063958,16.73634775307802,68.26187725225407,61.01658082677324,3.237724376958795e-05,0.0938397273421287,0,0,0
5695,198370.01818452243,2010-11-03 21:29:59,2821.439814058554,2,18,0.550297200679779,3.9540724754333496,17.105162962507638,16.73634775307802,68.28000910199266,61.01658082677324,9.713172767078504e-05,0.0938397273421287,0,0,0
5696,198400.03350654396,2010-11-03 21:30:29,2851.455136075049,2,18,0.5499359965324402,3.955367565155029,17.109749701853232,16.73634775307802,68.29814834857626,61.01658082677324,0.0,0.0938397273421287,0,0,0
5697,198430.04905570243,2010-11-03 21:30:59,2881.4706852636,2,18,0.5501165986061096,3.957148313522339,17.114336550063097,16.73634775307802,68.31629574106321,61.01658082677324,3.237724376958795e-05,0.0938397273421287,0,0,0
5698,198460.064262772,2010-11-03 21:31:29,2911.48589231312,2,18,0.5501165986061096,3.958929061889648,17.118923294558453,16.73634775307802,68.3344505035786,61.01658082677324,3.237724376958795e-05,0.0938397273421287,0,0,0
5699,198490.0794556662,2010-11-03 21:31:59,2941.501085197281,2,18,0.5499359965324402,3.960709810256958,17.123510063262827,16.73634775307802,68.3526132546897,61.01658082677324,3.237724376958795e-05,0.0938397273421287,0,0,0
5700,198520.0949423036,2010-11-03 21:32:29,2971.51657184472,2,18,0.5501165986061096,3.962490558624268,17.12809686803833,16.73634775307802,68.370784096361,61.01658082677324,6.47544875391759e-05,0.0938397273421287,0,0,0
5701,198550.11012336824,2010-11-03 21:32:59,3001.531752904365,2,18,0.5501165986061096,3.964109420776367,17.13268361065311,16.73634775307802,68.38896269193549,61.01658082677324,3.237724376958795e-05,0.0938397273421287,0,0,0
5702,198580.12555612111,2010-11-03 21:33:29,3031.5471856522627,2,18,0.550297200679779,3.966052055358887,17.137270367202206,16.73634775307802,68.40714939489699,61.01658082677324,6.47544875391759e-05,0.0938397273421287,0,0,0
5703,198610.14088030808,2010-11-03 21:33:59,3061.562509834163,2,18,0.5501165986061096,3.9676709175109854,17.14185715583398,16.73634775307802,68.42534434518792,61.01658082677324,0.0,0.0938397273421287,0,0,0
5704,198640.15626589823,2010-11-03 21:34:29,3091.57789542936,2,18,0.5499359965324402,3.969289779663086,17.14644396495333,16.73634775307802,68.4435474944111,61.01658082677324,0.0,0.0938397273421287,0,0,0
5705,198670.17140908336,2010-11-03 21:34:59,3121.5930386144646,2,18,0.5501165986061096,3.9712324142456055,17.151030672769696,16.73634775307802,68.46175846073947,61.01658082677324,0.0,0.0938397273421287,0,0,0
5706,198700.18684657308,2010-11-03 21:35:29,3151.60847610921,2,18,0.550297200679779,3.973175048828125,17.155617475696193,16.73634775307802,68.47997812386537,61.01658082677324,6.47544875391759e-05,0.0938397273421287,0,0,0
5707,198730.20206230928,2010-11-03 21:35:59,3181.623691840402,2,18,0.5501165986061096,3.9749557971954346,17.160204198796144,16.73634775307802,68.49820587030622,61.01658082677324,3.237724376958795e-05,0.0938397273421287,0,0,0
5708,198760.2173716692,2010-11-03 21:36:29,3211.639001200304,2,18,0.5501165986061096,3.976736545562744,17.16479101045936,16.73634775307802,68.51644241802272,61.01658082677324,3.237724376958795e-05,0.0938397273421287,0,0,0
5709,198790.2327123222,2010-11-03 21:36:59,3241.6543418533183,2,18,0.5501165986061096,3.978679180145264,17.169377844295674,16.73634775307802,68.53468716613787,61.01658082677324,0.0001295089750783,0.0938397273421287,0,0,0
5710,198820.2482398166,2010-11-03 21:37:29,3271.6698693527305,2,18,0.5499359965324402,3.980459928512573,17.17396461978262,16.73634775307802,68.552940796269,61.01658082677324,3.237724376958795e-05,0.0938397273421287,0,0,0
5711,198850.2633327864,2010-11-03 21:37:59,3301.68496232249,2,18,0.5501165986061096,3.9824025630950928,17.17855127277696,16.73634775307802,68.5712027122217,61.01658082677324,0.0,0.0938397273421287,0,0,0
5712,198880.2787867272,2010-11-03 21:38:29,3331.700416258276,2,18,0.5501165986061096,3.984345197677612,17.183137975306906,16.73634775307802,68.5894736292416,61.01658082677324,6.47544875391759e-05,0.0938397273421287,0,0,0
5713,198910.29399745585,2010-11-03 21:38:59,3361.7156269869797,2,18,0.5501165986061096,3.986449718475342,17.18772463455861,16.73634775307802,68.60775336661526,61.01658082677324,9.713172767078504e-05,0.0938397273421287,0,0,0
5714,198940.30945552696,2010-11-03 21:39:29,3391.7310850681124,2,18,0.5501165986061096,3.988392353057861,17.192311384994465,16.73634775307802,68.6260424719287,61.01658082677324,6.47544875391759e-05,0.0938397273421287,0,0,0
5715,198970.32462772453,2010-11-03 21:39:59,3421.746257255611,2,18,0.550297200679779,3.990334987640381,17.196898074530594,16.73634775307802,68.64434037079604,61.01658082677324,3.237724376958795e-05,0.0938397273421287,0,0,0
5716,199000.3399626231,2010-11-03 21:40:29,3451.761592159274,2,18,0.5499359965324402,3.992277622222901,17.20148476637556,16.73634775307802,68.66264754563733,61.01658082677324,6.47544875391759e-05,0.0938397273421287,0,0,0
5717,199030.35529691027,2010-11-03 21:40:59,3481.776926451412,2,18,0.5501165986061096,3.9945437908172607,17.20607146964538,16.73634775307802,68.68096413334231,61.01658082677324,6.47544875391759e-05,0.0938397273421287,0,0,0
5718,199060.3705726713,2010-11-03 21:41:29,3511.792202232496,2,18,0.550297200679779,3.9966483116149902,17.210658200687277,16.73634775307802,68.69929028629434,61.01658082677324,6.47544875391759e-05,0.0938397273421287,0,0,0
5719,199090.3859104672,2010-11-03 21:41:59,3541.8075400083285,2,18,0.5501165986061096,3.9985909461975098,17.215244906879004,16.73634775307802,68.71762588392512,61.01658082677324,3.237724376958795e-05,0.0938397273421287,0,0,0
5720,199120.40119377707,2010-11-03 21:42:29,3571.822823338256,2,18,0.5501165986061096,4.000695705413818,17.21983157668517,16.73634775307802,68.7359708801092,61.01658082677324,6.47544875391759e-05,0.0938397273421287,0,0,0
5721,199150.41663648983,2010-11-03 21:42:59,3601.8382660309776,2,18,0.5501165986061096,4.002799987792969,17.224418250584424,16.73634775307802,68.75432569905871,61.01658082677324,6.47544875391759e-05,0.0938397273421287,0,0,0
5722,199180.4319408172,2010-11-03 21:43:29,3631.8535703482926,2,18,0.5499359965324402,4.005066394805908,17.229004968998165,16.73634775307802,68.77269063619283,61.01658082677324,6.47544875391759e-05,0.0938397273421287,0,0,0
5723,199210.44723586136,2010-11-03 21:43:59,3661.868865392461,2,18,0.550297200679779,4.007332801818848,17.233591683502404,16.73634775307802,68.79106560498042,61.01658082677324,6.47544875391759e-05,0.0938397273421287,0,0,0
5724,199240.46257489533,2010-11-03 21:44:29,3691.8842044314474,2,18,0.550297200679779,4.009599208831787,17.23817843748732,16.73634775307802,68.80945082539732,61.01658082677324,0.0001295089750783,0.0938397273421287,0,0,0
5725,199270.47790420504,2010-11-03 21:44:59,3721.8995337461583,2,18,0.550297200679779,4.011703968048096,17.242765124422956,16.73634775307802,68.82784596738401,61.01658082677324,3.24249267578125e-05,0.0938397273421287,0,0,0
5726,199300.49321205617,2010-11-03 21:45:29,3751.914841597295,2,18,0.5501165986061096,4.013970375061035,17.24735185747081,16.73634775307802,68.84625162121085,61.01658082677324,6.47544875391759e-05,0.0938397273421287,0,0,0
5727,199330.50865693932,2010-11-03 21:45:59,3781.930286500533,2,18,0.5501165986061096,4.016236782073975,17.251938658699665,16.73634775307802,68.864667859965,61.01658082677324,6.47544875391759e-05,0.0938397273421287,0,0,0
5728,199360.5239045852,2010-11-03 21:46:29,3811.945534126339,2,18,0.5501165986061096,4.018503189086914,17.256525358482865,16.73634775307802,68.88309419774534,61.01658082677324,6.47544875391759e-05,0.0938397273421287,0,0,0
5729,199390.53949294653,2010-11-03 21:46:59,3841.961122482659,2,18,0.5501165986061096,4.0207695960998535,17.26111211313893,16.73634775307802,68.90153120554275,61.01658082677324,6.47544875391759e-05,0.0938397273421287,0,0,0
5730,199420.55451222736,2010-11-03 21:47:29,3871.9761417684913,2,18,0.5501165986061096,4.023197650909424,17.26569873211217,16.73634775307802,68.9199784288284,61.01658082677324,9.70840483205393e-05,0.0938397273421287,0,0,0
5731,199450.5698367802,2010-11-03 21:47:59,3901.991466311292,2,18,0.5499359965324402,4.025464057922363,17.27028547196556,16.73634775307802,68.93843692865488,61.01658082677324,6.47544875391759e-05,0.0938397273421287,0,0,0
5732,199480.58515565883,2010-11-03 21:48:29,3932.0067851899553,2,18,0.5499359965324402,4.027568817138672,17.27487216431078,16.73634775307802,68.95690602262916,61.01658082677324,0.0,0.0938397273421287,0,0,0
5733,199510.60051889325,2010-11-03 21:48:59,3962.0221484443855,2,18,0.550297200679779,4.030482769012451,17.27945892071801,16.73634775307802,68.97538631400418,61.01658082677324,9.71794142969884e-05,0.0938397273421287,0,0,0
5734,199540.6158140176,2010-11-03 21:49:29,3992.037443553717,2,18,0.5501165986061096,4.032587051391602,17.28404561140848,16.73634775307802,68.99387739848201,61.01658082677324,6.47544875391759e-05,0.0938397273421287,0,0,0
5735,199570.63130046453,2010-11-03 21:49:59,4022.0529299956434,2,18,0.5501165986061096,4.035177230834961,17.28863240327214,16.73634775307802,69.012380070662,61.01658082677324,9.71794142969884e-05,0.0938397273421287,0,0,0
5736,199600.64644991528,2010-11-03 21:50:29,4052.0680794463874,2,18,0.5501165986061096,4.0374436378479,17.293219094765668,16.73634775307802,69.03089348496253,61.01658082677324,3.24249267578125e-05,0.0938397273421287,0,0,0
5737,199630.6618041221,2010-11-03 21:50:59,4082.0834336532334,2,18,0.550297200679779,4.04003381729126,17.297805917428246,16.73634775307802,69.04941873910896,61.01658082677324,3.24249267578125e-05,0.0938397273421287,0,0,0
5738,199660.67719426868,2010-11-03 21:51:30,4112.09882383488,2,18,0.5499359965324402,4.04246187210083,17.302392693504313,16.73634775307802,69.06795509307194,61.01658082677324,3.23295607813634e-05,0.0938397273421287,0,0,0
5739,199690.69241879685,2010-11-03 21:52:00,4142.114048327941,2,18,0.5501165986061096,4.0450520515441895,17.306979450516987,16.73634775307802,69.08650290308995,61.01658082677324,6.47544875391759e-05,0.0938397273421287,0,0,0
5740,199720.7077657706,2010-11-03 21:52:30,4172.129395306746,2,18,0.5501165986061096,4.047480583190918,17.311566198487704,16.73634775307802,69.10506218460995,61.01658082677324,6.47544875391759e-05,0.0938397273421287,0,0,0
5741,199750.7230890653,2010-11-03 21:53:00,4202.144718596419,2,18,0.5501165986061096,4.050232410430908,17.316152899409573,16.73634775307802,69.12363302612586,61.01658082677324,9.70840483205393e-05,0.0938397273421287,0,0,0
5742,199780.7385460988,2010-11-03 21:53:30,4232.160175629938,2,18,0.550297200679779,4.052822589874268,17.320739652403994,16.73634775307802,69.14221587106672,61.01658082677324,9.70840483205393e-05,0.0938397273421287,0,0,0
5743,199810.75371063224,2010-11-03 21:54:00,4262.1753401633305,2,18,0.5499359965324402,4.055251121520996,17.325326325674993,16.73634775307802,69.16081042576202,61.01658082677324,6.47544875391759e-05,0.0938397273421287,0,0,0
5744,199840.76916705925,2010-11-03 21:54:30,4292.190796590335,2,18,0.5501165986061096,4.057841300964356,17.329913136441316,16.73634775307802,69.17941756934019,61.01658082677324,3.24249267578125e-05,0.0938397273421287,0,0,0
5745,199870.78438132172,2010-11-03 21:55:00,4322.206010852859,2,18,0.550297200679779,4.060593128204346,17.334499851048562,16.73634775307802,69.19803645937411,61.01658082677324,6.47544875391759e-05,0.0938397273421287,0,0,0
5746,199900.79981234536,2010-11-03 21:55:30,4352.221441886478,2,18,0.550297200679779,4.063183307647705,17.33908664556061,16.73634775307802,69.21666746850019,61.01658082677324,6.47544875391759e-05,0.0938397273421287,0,0,0
5747,199930.8150071142,2010-11-03 21:56:00,4382.236636650331,2,18,0.5501165986061096,4.066097259521484,17.343673354014495,16.73634775307802,69.23531060273058,61.01658082677324,0.0001295089750783,0.0938397273421287,0,0,0
5748,199960.8303404991,2010-11-03 21:56:30,4412.25197003019,2,18,0.5501165986061096,4.068849563598633,17.348260116294064,16.73634775307802,69.25396648190925,61.01658082677324,9.71794142969884e-05,0.0938397273421287,0,0,0
5749,199990.84574064563,2010-11-03 21:57:00,4442.26737017671,2,18,0.5501165986061096,4.071277618408203,17.35284686379016,16.73634775307802,69.27263490971625,61.01658082677324,6.47544875391759e-05,0.0938397273421287,0,0,0
5750,200020.86098329892,2010-11-03 21:57:30,4472.282612830102,2,18,0.550297200679779,4.074353694915772,17.35743355119909,16.73634775307802,69.29131573910213,61.01658082677324,9.71794142969884e-05,0.0938397273421287,0,0,0
5751,200050.8763084784,2010-11-03 21:58:00,4502.297938009493,2,18,0.5501165986061096,4.076943874359131,17.36202022562362,16.73634775307802,69.3100093792875,61.01658082677324,6.47544875391759e-05,0.0938397273421287,0,0,0
5752,200080.89168416383,2010-11-03 21:58:30,4532.313313694954,2,18,0.5501165986061096,4.07985782623291,17.366606891904844,16.73634775307802,69.32871588082328,61.01658082677324,6.47544875391759e-05,0.0938397273421287,0,0,0
5753,200110.90693550897,2010-11-03 21:59:00,4562.328565040043,2,18,0.5501165986061096,4.0827717781066895,17.371194134957936,16.73634775307802,69.34743775100185,61.01658082677324,0.0001295089750783,0.0938397273421287,0,0,0
5754,200140.9222559114,2010-11-03 21:59:30,4592.3438854425085,2,18,0.550297200679779,4.085685729980469,17.37578157713985,16.73634775307802,69.36617355728312,61.01658082677324,9.71794142969884e-05,0.0938397273421287,0,0,0
5755,200170.93760947665,2010-11-03 22:00:00,4622.359239007755,2,18,0.550297200679779,4.088599681854248,17.380368926722706,16.73634775307802,69.38492226206239,61.01658082677324,6.47544875391759e-05,0.0938397273421287,0,0,0
5756,200200.95305974327,2010-11-03 22:00:30,4652.374689274381,2,18,0.550297200679779,4.091513633728027,17.38495647130342,16.73634775307802,69.40368523871103,61.01658082677324,6.47544875391759e-05,0.0938397273421287,0,0,0
5757,200230.97089052704,2010-11-03 22:01:00,4682.392520143358,2,18,0.550297200679779,4.094427585601807,17.38954435034844,16.73634775307802,69.42246297666878,61.01658082677324,9.71794142969884e-05,0.0938397273421287,0,0,0
5758,200260.9836136463,2010-11-03 22:01:30,4712.405243207468,2,18,0.5504778623580933,4.097503185272217,17.39413147700686,16.73634775307802,69.44125129945456,61.01658082677324,9.70840483205393e-05,0.0938397273421287,0,0,0
5759,200290.99888314167,2010-11-03 22:02:00,4742.420512672788,2,18,0.5499359965324402,4.100255489349365,17.39871858602031,16.73634775307802,69.46005337064592,61.01658082677324,9.71794142969884e-05,0.0938397273421287,0,0,0
5760,200321.0143583305,2010-11-03 22:02:30,4772.435987871649,2,18,0.5501165986061096,4.1034932136535645,17.403305416427468,16.73634775307802,69.47886811963245,61.01658082677324,6.47544875391759e-05,0.0938397273421287,0,0,0
5761,200351.0301379994,2010-11-03 22:03:00,4802.45176753049,2,18,0.550297200679779,4.106568813323975,17.407892276302505,16.73634775307802,69.49769709721113,61.01658082677324,6.47544875391759e-05,0.0938397273421287,0,0,0
5762,200381.04486969236,2010-11-03 22:03:30,4832.466499223447,2,18,0.5501165986061096,4.109806537628174,17.412479036760956,16.73634775307802,69.5165398797233,61.01658082677324,9.70840483205393e-05,0.0938397273421287,0,0,0
5763,200411.06019989427,2010-11-03 22:04:00,4862.481829435399,2,18,0.5499359965324402,4.112558841705322,17.417065868298746,16.73634775307802,69.53539722417084,61.01658082677324,6.47544875391759e-05,0.0938397273421287,0,0,0
5764,200441.0755139509,2010-11-03 22:04:30,4892.497143482,2,18,0.550297200679779,4.115958213806152,17.421652676964673,16.73634775307802,69.55426874024852,61.01658082677324,9.71794142969884e-05,0.0938397273421287,0,0,0
5765,200471.0908541077,2010-11-03 22:05:00,4922.512483638776,2,18,0.550297200679779,4.1190338134765625,17.42623953178587,16.73634775307802,69.5731549479857,61.01658082677324,9.70840483205393e-05,0.0938397273421287,0,0,0
5766,200501.10628000848,2010-11-03 22:05:30,4952.527909549607,2,18,0.5501165986061096,4.122109889984131,17.430826437438007,16.73634775307802,69.59205597875678,61.01658082677324,3.24249267578125e-05,0.0938397273421287,0,0,0
5767,200531.12160605,2010-11-03 22:06:00,4982.543235581124,2,18,0.5499359965324402,4.12534761428833,17.435413338040114,16.73634775307802,69.61097165999523,61.01658082677324,9.71794142969884e-05,0.0938397273421287,0,0,0
5768,200561.13681134515,2010-11-03 22:06:30,5012.558440876264,2,18,0.550297200679779,4.12874698638916,17.44000021147887,16.73634775307802,69.62990194656949,61.01658082677324,9.70840483205393e-05,0.0938397273421287,0,0,0
5769,200591.1524692952,2010-11-03 22:07:00,5042.574098941589,2,18,0.550297200679779,4.131984710693359,17.444587158230686,16.73634775307802,69.64884745840813,61.01658082677324,9.70840483205393e-05,0.0938397273421287,0,0,0
5770,200621.16747762868,2010-11-03 22:07:30,5072.589107159795,2,18,0.550297200679779,4.135222434997559,17.449173942324983,16.73634775307802,69.66780739855277,61.01658082677324,9.70840483205393e-05,0.0938397273421287,0,0,0
5771,200651.1829095746,2010-11-03 22:08:00,5102.604539110704,2,18,0.5501165986061096,4.138460159301758,17.453760727271238,16.73634775307802,69.68678257300229,61.01658082677324,6.47544875391759e-05,0.0938397273421287,0,0,0
5772,200681.19810644872,2010-11-03 22:08:30,5132.619735984824,2,18,0.5497553944587708,4.142021656036377,17.45834759812168,16.73634775307802,69.70577347750827,61.01658082677324,0.0001295089750783,0.0938397273421287,0,0,0
5773,200711.21351858013,2010-11-03 22:09:00,5162.635148196459,2,18,0.5499359965324402,4.145259380340576,17.462934463964558,16.73634775307802,69.72477981385714,61.01658082677324,3.23295607813634e-05,0.0938397273421287,0,0,0
5774,200741.22897397456,2010-11-03 22:09:30,5192.650603505674,2,18,0.5501165986061096,4.1486592292785645,17.46752125011531,16.73634775307802,69.7438015930095,61.01658082677324,6.47544875391759e-05,0.0938397273421287,0,0,0
5775,200771.24421321444,2010-11-03 22:10:00,5222.665842745545,2,18,0.5501165986061096,4.152220726013184,17.472108001983596,16.73634775307802,69.76283885774414,61.01658082677324,9.71794142969884e-05,0.0938397273421287,0,0,0
5776,200801.2594017327,2010-11-03 22:10:30,5252.681031263809,2,18,0.550297200679779,4.155620098114014,17.476694825664712,16.73634775307802,69.7818921387297,61.01658082677324,6.47544875391759e-05,0.0938397273421287,0,0,0
5777,200831.27476200467,2010-11-03 22:11:00,5282.696391535796,2,18,0.5501165986061096,4.159019947052002,17.48128167281213,16.73634775307802,69.80096133614026,61.01658082677324,6.47544875391759e-05,0.0938397273421287,0,0,0
5778,200861.29005130453,2010-11-03 22:11:30,5312.711680835624,2,18,0.5501165986061096,4.162581443786621,17.485868544865173,16.73634775307802,69.82004645754233,61.01658082677324,9.71794142969884e-05,0.0938397273421287,0,0,0
5779,200891.30537855407,2010-11-03 22:12:00,5342.727008085182,2,18,0.5501165986061096,4.16614294052124,17.490455390423897,16.73634775307802,69.8391474331129,61.01658082677324,0.0001295089750783,0.0938397273421287,0,0,0
5780,200921.3207032773,2010-11-03 22:12:30,5372.742332808433,2,18,0.5499359965324402,4.16954231262207,17.495042226020438,16.73634775307802,69.8582644445329,61.01658082677324,9.70840483205393e-05,0.0938397273421287,0,0,0
5781,200951.3360435444,2010-11-03 22:13:00,5402.7576730754845,2,18,0.5501165986061096,4.1731038093566895,17.499629079175225,16.73634775307802,69.87739769888,61.01658082677324,9.70840483205393e-05,0.0938397273421287,0,0,0
5782,200981.35147883865,2010-11-03 22:13:30,5432.773108369738,2,18,0.550297200679779,4.176827430725098,17.504215936889175,16.73634775307802,69.8965473467552,61.01658082677324,0.0001295089750783,0.0938397273421287,0,0,0
5783,201011.36667924657,2010-11-03 22:14:00,5462.78830877768,2,18,0.5501165986061096,4.180226802825928,17.508802689892565,16.73634775307802,69.91571300155593,61.01658082677324,9.70840483205393e-05,0.0938397273421287,0,0,0
5784,201041.38215131263,2010-11-03 22:14:30,5492.8037808537465,2,18,0.550297200679779,4.184112071990967,17.513389531535186,16.73634775307802,69.93489551791814,61.01658082677324,0.0001295089750783,0.0938397273421287,0,0,0
5785,201071.3973420063,2010-11-03 22:15:00,5522.818971542427,2,18,0.5501165986061096,4.187511920928955,17.517976443082876,16.73634775307802,69.95409486676549,61.01658082677324,9.71794142969884e-05,0.0938397273421287,0,0,0
5786,201101.4127808394,2010-11-03 22:15:30,5552.834410370501,2,18,0.5501165986061096,4.191235065460205,17.52256332681792,16.73634775307802,69.97331092620638,61.01658082677324,9.70840483205393e-05,0.0938397273421287,0,0,0
5787,201131.4279877987,2010-11-03 22:16:00,5582.849617329796,2,18,0.5501165986061096,4.194958209991455,17.527150195409444,16.73634775307802,69.99254384073168,61.01658082677324,9.70840483205393e-05,0.0938397273421287,0,0,0
5788,201161.4433268728,2010-11-03 22:16:30,5612.864956408883,2,18,0.5499359965324402,4.198519706726074,17.531737043225878,16.73634775307802,70.01179358769714,61.01658082677324,6.47544875391759e-05,0.0938397273421287,0,0,0
5789,201172.3650762545,2010-11-03 22:16:41,5623.786705785596,2,18,0.5501165986061096,4.200138568878174,17.533406082368398,16.73634775307802,70.01880233935208,61.01658082677324,0.0001295089750783,0.0938397273421287,0,0,0
5790,201202.38437661613,2010-11-03 22:17:11,30.015316502731817,3,18,0.0,4.116443634033203,17.533406082368398,16.73634775307802,70.01880233935208,61.01658082677324,-0.0003561973571777,0.0938397273421287,0,0,0
5791,201232.3998325569,2010-11-03 22:17:41,60.03077244352249,3,18,0.0,4.106245040893555,17.533406082368398,16.73634775307802,70.01880233935208,61.01658082677324,-0.0001942634553415,0.0938397273421287,0,0,0
5792,201262.41516694927,2010-11-03 22:18:11,90.0461068659847,3,18,0.0,4.100255489349365,17.533406082368398,16.73634775307802,70.01880233935208,61.01658082677324,-0.0001295089750783,0.0938397273421287,0,0,0
5793,201292.3834715982,2010-11-03 22:18:41,120.01441148482174,3,18,0.0,4.096370220184326,17.533406082368398,16.73634775307802,70.01880233935208,61.01658082677324,-9.70840483205393e-05,0.0938397273421287,0,0,0
5794,201292.3886636774,2010-11-03 22:18:41,2.691718945e-06,4,18,0.9806891083717346,4.199653148651123,17.53340608310166,16.73634775307802,70.01880234243151,61.01658082677324,0.0,0.0938397273421287,0,0,0
5795,201293.38864051845,2010-11-03 22:18:42,0.999979547794302,4,18,0.930660367012024,4.199814796447754,17.533670058128113,16.73634775307802,70.01991094633028,61.01658082677324,3.23295607813634e-05,0.0938397273421287,0,0,0
5796,201295.5917359486,2010-11-03 22:18:45,3.203074972913156,4,18,0.8800897598266602,4.199491024017334,17.534223021604365,16.73634775307802,70.02223321182844,61.01658082677324,-3.24249267578125e-05,0.0938397273421287,0,0,0
5797,201298.9510842237,2010-11-03 22:18:48,6.562423258055685,4,18,0.8296997547149658,4.199491024017334,17.53501981836654,16.73634775307802,70.0255795100252,61.01658082677324,-6.47544875391759e-05,0.0938397273421287,0,0,0
5798,201303.59174038543,2010-11-03 22:18:53,11.203079525045208,4,18,0.7793098092079163,4.199491024017334,17.53605581030298,16.73634775307802,70.02993036210675,61.01658082677324,-6.47544875391759e-05,0.0938397273421287,0,0,0
5799,201309.6384982885,2010-11-03 22:18:59,17.249837317766268,4,18,0.7292810082435608,4.199814796447754,17.53732126322202,16.73634775307802,70.03524489657664,61.01658082677324,3.23295607813634e-05,0.0938397273421287,0,0,0
5800,201317.54464316732,2010-11-03 22:19:07,25.15598218167657,4,18,0.6788910031318665,4.199653148651123,17.5388655360172,16.73634775307802,70.04173038244171,61.01658082677324,-3.23295607813634e-05,0.0938397273421287,0,0,0
5801,201328.23217025425,2010-11-03 22:19:17,35.84350928857031,4,18,0.6288622617721558,4.199653148651123,17.540803531193955,16.73634775307802,70.04986942198519,61.01658082677324,0.0,0.0938397273421287,0,0,0
5802,201343.4662544972,2010-11-03 22:19:33,51.07759353655856,4,18,0.5788334608078003,4.199814796447754,17.54335199633279,16.73634775307802,70.06057225815654,61.01658082677324,3.23295607813634e-05,0.0938397273421287,0,0,0
5803,201367.3097680653,2010-11-03 22:19:56,74.92110709964489,4,18,0.5286241173744202,4.199653148651123,17.54700595188959,16.73634775307802,70.07591786173096,61.01658082677324,0.0,0.0938397273421287,0,0,0
5804,201408.871848798,2010-11-03 22:20:38,116.48318781728236,4,18,0.4785953462123871,4.199653148651123,17.55279397112892,16.73634775307802,70.1002258515368,61.01658082677324,0.0,0.0938397273421287,0,0,0
5805,201481.74615246136,2010-11-03 22:21:51,189.35749235784704,4,18,0.428566575050354,4.199653148651123,17.5619382727803,16.73634775307802,70.13862884774237,61.01658082677324,0.0,0.0938397273421287,0,0,0
5806,201585.99508764688,2010-11-03 22:23:35,293.6064266711908,4,18,0.3785378038883209,4.199491024017334,17.573601775555844,16.73634775307802,70.18761210625712,61.01658082677324,-3.24249267578125e-05,0.0938397273421287,0,0,0
5807,201713.07195958955,2010-11-03 22:25:42,420.68329861886014,4,18,0.3285090327262878,4.199491024017334,17.58606376215866,16.73634775307802,70.23994900611534,61.01658082677324,-3.24249267578125e-05,0.0938397273421287,0,0,0
5808,201864.1486840564,2010-11-03 22:28:13,571.7600230806898,4,18,0.2784802615642547,4.199653148651123,17.598780199431037,16.73634775307802,70.29335452467213,61.01658082677324,-3.23295607813634e-05,0.0938397273421287,0,0,0
5809,202044.1623802816,2010-11-03 22:31:13,751.7737193108953,4,18,0.2284514904022216,4.199491024017334,17.6114342019084,16.73634775307802,70.3464977794012,61.01658082677324,-6.47544875391759e-05,0.0938397273421287,0,0,0
5810,202269.58203713,2010-11-03 22:34:59,977.1933761493112,4,18,0.1784227192401886,4.199653148651123,17.624137081441795,16.73634775307802,70.39984626565797,61.01658082677324,-3.23295607813634e-05,0.0938397273421287,0,0,0
5811,202577.39146847097,2010-11-03 22:40:07,1285.00280750026,4,18,0.1283939480781555,4.199653148651123,17.637170987961827,16.73634775307802,70.45458498631263,61.01658082677324,0.0,0.0938397273421287,0,0,0
5812,203077.3553976808,2010-11-03 22:48:26,1784.9667367151085,4,18,0.078365184366703,4.199814796447754,17.65125085535801,16.73634775307802,70.51371646669246,61.01658082677324,0.0,0.0938397273421287,0,0,0
5813,203577.6810688793,2010-11-03 22:56:47,2285.2924079035747,4,18,0.0498289167881011,4.199653148651123,17.66003198762114,16.73634775307802,70.55059475620497,61.01658082677324,0.0,0.0938397273421287,0,0,0
5814,203607.6904142728,2010-11-03 22:57:17,30.015330417465133,5,18,0.0,4.191882610321045,17.66003198762114,16.73634775307802,70.55059475620497,61.01658082677324,-3.24249267578125e-05,0.0938397273421287,0,0,0
5815,203637.69010718164,2010-11-03 22:57:47,60.015023326302966,5,18,0.0,4.190911293029785,17.66003198762114,16.73634775307802,70.55059475620497,61.01658082677324,3.23295607813634e-05,0.0938397273421287,0,0,0
5816,203637.87484568093,2010-11-03 22:57:47,0.187484906169631,6,18,-1.9243103452026844e-05,4.190749645233154,17.66003198762114,16.736347754080185,70.55059475620497,61.0165808309733,-9.70840483205393e-05,0.0931989923119545,0,0,0
5817,203642.70330357464,2010-11-03 22:57:52,5.015942809937113,6,18,0.0003419754502829,4.190587520599365,17.660032865845146,16.736347754247067,70.55059843675382,61.01658083167267,-9.71794142969884e-05,0.0931989923119545,0,0,0
5818,203672.7155042044,2010-11-03 22:58:22,30.015307084221767,7,18,-1.0997490882873535,4.018017292022705,17.660032865845146,16.74551676827341,70.55059843675382,61.05361326841958,-0.0009065627818927,0.0931989923119545,0,0,0
5819,203702.73086356407,2010-11-03 22:58:52,60.03066644894371,7,18,-1.0997490882873535,3.9921157360076895,17.660032865845146,16.754685799453526,70.55059843675382,61.0903267490567,-0.0005503654247149,0.0931989923119545,0,0,0
5820,203732.74615576616,2010-11-03 22:59:22,90.04595864600483,7,18,-1.0997490882873535,3.9741463661193848,17.660032865845146,16.76385474247616,70.55059843675382,61.126843916763264,-0.0004532813909463,0.0931989923119545,0,0,0
5821,203762.76148373756,2010-11-03 22:59:52,120.0612866173641,7,18,-1.099929690361023,3.960062265396118,17.660032865845146,16.773023657075537,70.55059843675382,61.16321677352151,-0.0003885269106831,0.0931989923119545,0,0,0
5822,203792.776812952,2010-11-03 23:00:22,150.07661583683887,7,18,-1.099568486213684,3.948568344116211,17.660032865845146,16.782192585832952,70.55059843675382,61.19947239515263,-0.0002590179501567,0.0931989923119545,0,0,0
5823,203822.792151996,2010-11-03 23:00:52,180.09195488083716,7,18,-1.0997490882873535,3.9378838539123535,17.660032865845146,16.791361479013837,70.55059843675382,61.23562597944082,-0.0002590179501567,0.0931989923119545,0,0,0
5824,203852.8075087492,2010-11-03 23:01:22,210.10731162902783,7,18,-1.099568486213684,3.928008794784546,17.660032865845146,16.800530410161112,70.55059843675382,61.27168688426316,-0.0002913951757363,0.0931989923119545,0,0,0
5825,203882.82281508652,2010-11-03 23:01:52,240.1226179764103,7,18,-1.099929690361023,3.918619394302368,17.660032865845146,16.809699615646924,70.55059843675382,61.3076610490694,-0.0002590179501567,0.0931989923119545,0,0,0
5826,203912.83824995472,2010-11-03 23:02:22,270.138052839588,7,18,-1.0997490882873535,3.90987777709961,17.660032865845146,16.818869416004837,70.55059843675382,61.343553422215855,-0.0001942634553415,0.0931989923119545,0,0,0
5827,203942.85348916447,2010-11-03 23:02:52,300.15329205940986,7,18,-1.0997490882873535,3.901135921478272,17.660032865845146,16.82803877927591,70.55059843675382,61.3793634303071,-0.0002590179501567,0.0931989923119545,0,0,0
5828,203972.86892295003,2010-11-03 23:03:22,330.1687258348725,7,18,-1.099929690361023,3.892555952072144,17.660032865845146,16.83720775507506,70.55059843675382,61.41509380305445,-0.0002266406954731,0.0931989923119545,0,0,0
5829,204002.88424963813,2010-11-03 23:03:52,360.18405252302864,7,18,-1.099929690361023,3.8844616413116455,17.660032865845146,16.84637669093794,70.55059843675382,61.450748002954256,-0.0002266406954731,0.0931989923119545,0,0,0
5830,204032.8994552441,2010-11-03 23:04:22,390.1992581339574,7,18,-1.0997490882873535,3.876367330551148,17.660032865845146,16.855545641171577,70.55059843675382,61.48632706679328,-0.0001618862152099,0.0931989923119545,0,0,0
5831,204062.91481773663,2010-11-03 23:04:52,420.2146206214744,7,18,-1.0997490882873535,3.8684349060058594,17.660032865845146,16.864714624089743,70.55059843675382,61.52183206539772,-0.0001942634553415,0.0931989923119545,0,0,0
5832,204092.930125683,2010-11-03 23:05:22,450.2299285678482,7,18,-1.0997490882873535,3.8605024814605713,17.660032865845146,16.87388358966544,70.55059843675382,61.55726422493857,-0.0001942634553415,0.0931989923119545,0,0,0
5833,204122.9454772984,2010-11-03 23:05:52,480.24528018322655,7,18,-1.099568486213684,3.852570056915283,17.660032865845146,16.88305263439941,70.55059843675382,61.5926238631216,-0.0001942634553415,0.0931989923119545,0,0,0
5834,204152.96089702376,2010-11-03 23:06:22,510.260699918643,7,18,-1.099568486213684,3.844961404800415,17.660032865845146,16.892221694167777,70.55059843675382,61.62791208634272,-0.0001618862152099,0.0931989923119545,0,0,0
5835,204182.97611884016,2010-11-03 23:06:52,540.2759217300106,7,18,-1.099568486213684,3.837352752685547,17.660032865845146,16.901390572615615,70.55059843675382,61.6631299622584,-0.0001618862152099,0.0931989923119545,0,0,0
5836,204212.9915482898,2010-11-03 23:07:22,570.291351174663,7,18,-1.0997490882873535,3.829906225204468,17.660032865845146,16.91055956164383,70.55059843675382,61.6982796336207,-0.0001942634553415,0.0931989923119545,0,0,0
5837,204243.00688273733,2010-11-03 23:07:52,600.3066856322126,7,18,-1.0997490882873535,3.8222975730896,17.660032865845146,16.91972857936858,70.55059843675382,61.73336151691223,-0.0002266406954731,0.0931989923119545,0,0,0
5838,204273.02222848305,2010-11-03 23:08:22,630.322031372927,7,18,-1.099568486213684,3.8153364658355713,17.660032865845146,16.928897509318073,70.55059843675382,61.76837618477419,-0.0001618862152099,0.0931989923119545,0,0,0
5839,204303.03741685595,2010-11-03 23:08:52,660.3372197408145,7,18,-1.0997490882873535,3.808051586151123,17.660032865845146,16.938066462964215,70.55059843675382,61.80332510470775,-0.0001942634553415,0.0931989923119545,0,0,0
5840,204333.05286927297,2010-11-03 23:09:23,690.3526721628218,7,18,-1.0997490882873535,3.801090478897095,17.660032865845146,16.947235468973997,70.55059843675382,61.83821044742916,-0.0001942634553415,0.0931989923119545,0,0,0
5841,204363.06806300924,2010-11-03 23:09:53,720.3678658940971,7,18,-1.0997490882873535,3.794291257858277,17.660032865845146,16.95640445268664,70.55059843675382,61.873032677160914,-0.0001942634553415,0.0931989923119545,0,0,0
5842,204393.0835376066,2010-11-03 23:10:23,750.3833404964699,7,18,-1.0997490882873535,3.787815809249878,17.660032865845146,16.965573458845938,70.55059843675382,61.90779296596407,-0.0001618862152099,0.0931989923119545,0,0,0
5843,204423.09873369875,2010-11-03 23:10:53,780.3985365886385,7,18,-1.0997490882873535,3.7811784744262695,17.660032865845146,16.9747424477089,70.55059843675382,61.9424930487775,-0.0001618862152099,0.0931989923119545,0,0,0
5844,204453.11405339948,2010-11-03 23:11:23,810.4138562843405,7,18,-1.0997490882873535,3.774864912033081,17.660032865845146,16.983911461705517,70.55059843675382,61.97713388777309,-0.0001618862152099,0.0931989923119545,0,0,0
5845,204483.12940248355,2010-11-03 23:11:53,840.4292053684003,7,18,-1.099929690361023,3.7685513496398926,17.660032865845146,16.993080425600258,70.55059843675382,62.01171688895181,-0.0001942634553415,0.0931989923119545,0,0,0
5846,204513.14483379788,2010-11-03 23:12:23,870.4446366827195,7,18,-1.099568486213684,3.762399673461914,17.660032865845146,17.00224941432241,70.55059843675382,62.04624324270583,-0.0001618862152099,0.0931989923119545,0,0,0
5847,204543.16004881228,2010-11-03 23:12:53,900.4598516971209,7,18,-1.099568486213684,3.756571769714356,17.660032865845146,17.011418384261596,70.55059843675382,62.080713881741794,-0.0001618862152099,0.0931989923119545,0,0,0
5848,204573.1753660468,2010-11-03 23:13:23,930.4751689316796,7,18,-1.099568486213684,3.750744104385376,17.660032865845146,17.020587384415183,70.55059843675382,62.11513060485713,-0.0001618862152099,0.0931989923119545,0,0,0
5849,204603.19069304576,2010-11-03 23:13:53,960.4904959306114,7,18,-1.0997490882873535,3.744754314422608,17.660032865845146,17.029756378949337,70.55059843675382,62.14949366980657,-0.0001618862152099,0.0931989923119545,0,0,0
5850,204633.19080992287,2010-11-03 23:14:23,990.4906129380646,7,18,-1.0997490882873535,3.7392501831054688,17.660032865845146,17.03892078584472,70.55059843675382,62.18378705302898,-0.0001295089750783,0.0931989923119545,0,0,0
5851,204663.20574357497,2010-11-03 23:14:53,1020.505546459817,7,18,-1.0997490882873535,3.73374605178833,17.660032865845146,17.048089708162507,70.55059843675382,62.21804660908436,-0.0001618862152099,0.0931989923119545,0,0,0
5852,204693.22107752625,2010-11-03 23:15:23,1050.5208804111032,7,18,-1.099929690361023,3.728080034255981,17.660032865845146,17.057258760382258,70.55059843675382,62.2522557831452,-0.0001618862152099,0.0931989923119545,0,0,0
5853,204723.2363897834,2010-11-03 23:15:53,1080.5361926682372,7,18,-1.099568486213684,3.722899675369263,17.660032865845146,17.066427759045908,70.55059843675382,62.2864152976741,-0.0001295089750783,0.0931989923119545,0,0,0
5854,204753.25171527857,2010-11-03 23:16:23,1110.5515181684282,7,18,-1.0997490882873535,3.717557430267334,17.660032865845146,17.075596723012378,70.55059843675382,62.32052534645696,-9.713172767078504e-05,0.0931989923119545,0,0,0
5855,204783.26715606652,2010-11-03 23:16:53,1140.5669589513825,7,18,-1.0997490882873535,3.712215185165405,17.660032865845146,17.084765809112522,70.55059843675382,62.354587274075165,-0.0001618862152099,0.0931989923119545,0,0,0
5856,204813.28238621872,2010-11-03 23:17:23,1170.58218910357,7,18,-1.0997490882873535,3.7070348262786874,17.660032865845146,17.093934817792306,70.55059843675382,62.38860104392551,-0.0001618862152099,0.0931989923119545,0,0,0
5857,204843.2976793631,2010-11-03 23:17:53,1200.5974822530086,7,18,-1.0997490882873535,3.7020163536071777,17.660032865845146,17.10310381131837,70.55059843675382,62.422567614509546,-0.0001295089750783,0.0931989923119545,0,0,0
5858,204873.31300690345,2010-11-03 23:18:23,1230.6128097882793,7,18,-1.0997490882873535,3.696835994720459,17.660032865845146,17.112272863384266,70.55059843675382,62.45648813742752,-0.0001295089750783,0.0931989923119545,0,0,0
5859,204903.32846037805,2010-11-03 23:18:53,1260.6282632679265,7,18,-1.0997490882873535,3.69197940826416,17.660032865845146,17.121441935572005,70.55059843675382,62.49036335627555,-0.0001618862152099,0.0931989923119545,0,0,0
5860,204933.34635779812,2010-11-03 23:19:23,1290.646160678,7,18,-1.099568486213684,3.687122821807861,17.660032865845146,17.130611788041463,70.55059843675382,62.52419606903466,-9.713172767078504e-05,0.0931989923119545,0,0,0
5861,204963.3591566615,2010-11-03 23:19:53,1320.6589595463292,7,18,-1.0997490882873535,3.6822662353515625,17.660032865845146,17.13978009079988,70.55059843675382,62.557978410926864,-0.0001295089750783,0.0931989923119545,0,0,0
5862,204993.3743725731,2010-11-03 23:20:23,1350.67417545797,7,18,-1.099929690361023,3.677409648895264,17.660032865845146,17.14894916867844,70.55059843675382,62.5917195994228,-0.0001618862152099,0.0931989923119545,0,0,0
5863,205023.38969917607,2010-11-03 23:20:53,1380.6895020609136,7,18,-1.099568486213684,3.672714948654175,17.660032865845146,17.15811830637649,70.55059843675382,62.62541760839957,-0.0001295089750783,0.0931989923119545,0,0,0
5864,205053.405270555,2010-11-03 23:21:23,1410.7050734398556,7,18,-1.099929690361023,3.668020486831665,17.660032865845146,17.167287473464906,70.55059843675382,62.65907292273504,-0.0001618862152099,0.0931989923119545,0,0,0
5865,205083.4204876446,2010-11-03 23:21:53,1440.7202905344495,7,18,-1.0997490882873535,3.663487672805786,17.660032865845146,17.17645652983673,70.55059843675382,62.6926856694861,-0.0001618862152099,0.0931989923119545,0,0,0
5866,205113.43569174173,2010-11-03 23:22:23,1470.7354946265873,7,18,-1.0997490882873535,3.659116744995117,17.660032865845146,17.18562560959013,70.55059843675382,62.72625692107326,-0.0001295089750783,0.0931989923119545,0,0,0
5867,205143.45103850492,2010-11-03 23:22:53,1500.7508413948665,7,18,-1.099568486213684,3.6545839309692383,17.660032865845146,17.194794805772222,70.55059843675382,62.759787646814594,-0.0001618862152099,0.0931989923119545,0,0,0
5868,205173.46637200017,2010-11-03 23:23:23,1530.7661749050517,7,18,-1.0997490882873535,3.65005111694336,17.660032865845146,17.20396390846493,70.55059843675382,62.79327764206738,-0.0001942634553415,0.0931989923119545,0,0,0
5869,205203.4816848237,2010-11-03 23:23:53,1560.7814877085495,7,18,-1.0997490882873535,3.6460039615631104,17.660032865845146,17.21313294712069,70.55059843675382,62.82672758484247,-6.47544875391759e-05,0.0931989923119545,0,0,0
5870,205233.49713341115,2010-11-03 23:24:23,1590.79693630601,7,18,-1.0997490882873535,3.6417949199676514,17.660032865845146,17.222301985017435,70.55059843675382,62.86013850619055,-9.713172767078504e-05,0.0931989923119545,0,0,0
5871,205263.51252402383,2010-11-03 23:24:53,1620.8123269387818,7,18,-1.0997490882873535,3.637585878372192,17.660032865845146,17.231471088146208,70.55059843675382,62.89351127074457,-9.713172767078504e-05,0.0931989923119545,0,0,0
5872,205293.52768077783,2010-11-03 23:25:23,1650.8274836576686,7,18,-1.0997490882873535,3.633538722991944,17.660032865845146,17.240640083287847,70.55059843675382,62.92684589936568,-0.0001618862152099,0.0931989923119545,0,0,0
5873,205323.5433436552,2010-11-03 23:25:53,1680.843146655305,7,18,-1.0997490882873535,3.6294915676116943,17.660032865845146,17.249809265788837,70.55059843675382,62.96014443057354,-0.0001295089750783,0.0931989923119545,0,0,0
5874,205353.5583303597,2010-11-03 23:26:23,1710.858133244522,7,18,-1.0997490882873535,3.6256062984466553,17.660032865845146,17.258978286706718,70.55059843675382,62.99340620736376,-0.0001295089750783,0.0931989923119545,0,0,0
5875,205383.5736496444,2010-11-03 23:26:53,1740.8734525342104,7,18,-1.0997490882873535,3.621882915496826,17.660032865845146,17.268147360805777,70.55059843675382,63.02663313218997,-0.0001295089750783,0.0931989923119545,0,0,0
5876,205413.5889962422,2010-11-03 23:27:23,1770.888799127052,7,18,-1.099929690361023,3.618159532546997,17.660032865845146,17.27731644564879,70.55059843675382,63.0598257363136,-0.0001295089750783,0.0931989923119545,0,0,0
5877,205443.6045459721,2010-11-03 23:27:53,1800.9043488770046,7,18,-1.0997490882873535,3.614436149597168,17.660032865845146,17.286485614337877,70.55059843675382,63.09298500059513,-0.0001295089750783,0.0931989923119545,0,0,0
5878,205473.60467200208,2010-11-03 23:28:23,1830.9044749170043,7,18,-1.0997490882873535,3.611036539077759,17.660032865845146,17.295650098514916,70.55059843675382,63.12609488844819,-3.237724376958795e-05,0.0931989923119545,0,0,0
5879,205503.6194488026,2010-11-03 23:28:53,1860.9192516924936,7,18,-1.0997490882873535,3.6076369285583496,17.660032865845146,17.30481899411839,70.55059843675382,63.15918891036425,-9.713172767078504e-05,0.0931989923119545,0,0,0
5880,205533.63464183715,2010-11-03 23:29:23,1890.93444472703,7,18,-1.0997490882873535,3.604237318038941,17.660032865845146,17.313988002129545,70.55059843675382,63.19225222372092,-9.713172767078504e-05,0.0931989923119545,0,0,0
5881,205563.65002886087,2010-11-03 23:29:53,1920.9498317558057,7,18,-1.099929690361023,3.601161479949951,17.660032865845146,17.323157061469175,70.55059843675382,63.22528581773752,-9.713172767078504e-05,0.0931989923119545,0,0,0
5882,205593.66534300777,2010-11-03 23:30:23,1950.965145902657,7,18,-1.099568486213684,3.598085641860962,17.660032865845146,17.332326153239112,70.55059843675382,63.25828999332972,-6.47544875391759e-05,0.0931989923119545,0,0,0
5883,205623.6806975104,2010-11-03 23:30:53,1980.9805003952167,7,18,-1.0997490882873535,3.5948479175567627,17.660032865845146,17.34149530301636,70.55059843675382,63.291265644101706,-6.47544875391759e-05,0.0931989923119545,0,0,0
5884,205653.69602648923,2010-11-03 23:31:23,2010.9958293740915,7,18,-1.0997490882873535,3.5917723178863525,17.660032865845146,17.350664412463114,70.55059843675382,63.32421331958774,-9.70840483205393e-05,0.0931989923119545,0,0,0
5885,205683.7113558992,2010-11-03 23:31:53,2041.0111587890544,7,18,-1.099568486213684,3.588858366012573,17.660032865845146,17.35983352188419,70.55059843675382,63.3571335138147,-6.47544875391759e-05,0.0931989923119545,0,0,0
5886,205713.72678266212,2010-11-03 23:32:23,2071.026585557025,7,18,-1.0997490882873535,3.585944414138794,17.660032865845146,17.3690026681454,70.55059843675382,63.39002670019407,-6.47544875391759e-05,0.0931989923119545,0,0,0
5887,205743.74199563143,2010-11-03 23:32:53,2101.041798516296,7,18,-1.099568486213684,3.583030462265014,17.660032865845146,17.37817171438766,70.55059843675382,63.42289260170349,-6.47544875391759e-05,0.0931989923119545,0,0,0
5888,205773.7573704297,2010-11-03 23:33:23,2131.057173314543,7,18,-1.0997490882873535,3.580116510391236,17.660032865845146,17.38734081854737,70.55059843675382,63.45573225004644,-6.47544875391759e-05,0.0931989923119545,0,0,0
5889,205803.77279280167,2010-11-03 23:33:53,2161.0725956865404,7,18,-1.099929690361023,3.577202558517456,17.660032865845146,17.39650993313209,70.55059843675382,63.488545416033816,-9.713172767078504e-05,0.0931989923119545,0,0,0
5890,205833.78797436252,2010-11-03 23:34:23,2191.087777247437,7,18,-1.099568486213684,3.5744504928588867,17.660032865845146,17.40567904310057,70.55059843675382,63.52133216699997,-3.237724376958795e-05,0.0931989923119545,0,0,0
5891,205863.8032809556,2010-11-03 23:34:53,2221.1030838404326,7,18,-1.0997490882873535,3.571374654769897,17.660032865845146,17.414848070717078,70.55059843675382,63.55409232564452,-9.713172767078504e-05,0.0931989923119545,0,0,0
5892,205893.81856018025,2010-11-03 23:35:23,2251.1183630651126,7,18,-1.0997490882873535,3.568622589111328,17.660032865845146,17.424016546134343,70.55059843675382,63.58682413090748,-6.47544875391759e-05,0.0931989923119545,0,0,0
5893,205923.83395459247,2010-11-03 23:35:53,2281.1337574773183,7,18,-1.099568486213684,3.565708637237549,17.660032865845146,17.433185031469733,70.55059843675382,63.61952940571707,-6.47544875391759e-05,0.0931989923119545,0,0,0
5894,205953.84965286817,2010-11-03 23:36:23,2311.1494557530145,7,18,-1.099568486213684,3.562794685363769,17.660032865845146,17.442353614962965,70.55059843675382,63.65220808605073,-6.47544875391759e-05,0.0931989923119545,0,0,0
5895,205983.86472889065,2010-11-03 23:36:53,2341.1645318005326,7,18,-1.099568486213684,3.5598807334899902,17.660032865845146,17.451522101451957,70.55059843675382,63.684859611246544,-6.47544875391759e-05,0.0931989923119545,0,0,0
5896,206013.87993611052,2010-11-03 23:37:23,2371.179739020478,7,18,-1.0997490882873535,3.556643009185791,17.660032865845146,17.460691151819464,70.55059843675382,63.717485117389714,-0.0001295089750783,0.0931989923119545,0,0,0
5897,206043.89565349897,2010-11-03 23:37:53,2401.195456408882,7,18,-1.099568486213684,3.5535671710968018,17.660032865845146,17.469860405727793,70.55059843675382,63.75008274339984,-6.47544875391759e-05,0.0931989923119545,0,0,0
5898,206073.9105937876,2010-11-03 23:38:23,2431.210396667451,7,18,-1.0997490882873535,3.5503294467926025,17.660032865845146,17.479029405027287,70.55059843675382,63.78265013419553,-6.47544875391759e-05,0.0931989923119545,0,0,0
5899,206103.92591281663,2010-11-03 23:38:53,2461.225715701501,7,18,-1.0997490882873535,3.5469298362731934,17.660032865845146,17.48819849362457,70.55059843675382,63.815187881705526,-9.713172767078504e-05,0.0931989923119545,0,0,0
5900,206133.94125740448,2010-11-03 23:39:23,2491.2410603043754,7,18,-1.099929690361023,3.543530225753784,17.660032865845146,17.49736760293993,70.55059843675382,63.847695112855305,-0.0001295089750783,0.0931989923119545,0,0,0
5901,206163.9566136063,2010-11-03 23:39:53,2521.256416491164,7,18,-1.099568486213684,3.540292501449585,17.660032865845146,17.506536735893963,70.55059843675382,63.88017105555302,-6.47544875391759e-05,0.0931989923119545,0,0,0
5902,206193.9718981944,2010-11-03 23:40:23,2551.2717010942697,7,18,-1.099568486213684,3.536569118499756,17.660032865845146,17.51570584237888,70.55059843675382,63.91261463129104,-0.0001295089750783,0.0931989923119545,0,0,0
5903,206223.9873719346,2010-11-03 23:40:53,2581.287174844515,7,18,-1.0997490882873535,3.5328457355499268,17.660032865845146,17.524875060726135,70.55059843675382,63.94502520898955,-9.713172767078504e-05,0.0931989923119545,0,0,0
5904,206254.00258019217,2010-11-03 23:41:23,2611.302383076988,7,18,-1.0997490882873535,3.5291223526000977,17.660032865845146,17.534044122753624,70.55059843675382,63.97740096824876,-9.713172767078504e-05,0.0931989923119545,0,0,0
5905,206284.01789431396,2010-11-03 23:41:53,2641.31769722384,7,18,-1.099568486213684,3.5250751972198486,17.660032865845146,17.54321325965653,70.55059843675382,64.00974134981554,-0.0001618862152099,0.0931989923119545,0,0,0
5906,206314.0332158893,2010-11-03 23:42:24,2671.3330187992333,7,18,-1.099929690361023,3.5208661556243896,17.660032865845146,17.552382428819573,70.55059843675382,64.04204449564264,-9.713172767078504e-05,0.0931989923119545,0,0,0
5907,206344.04854462252,2010-11-03 23:42:54,2701.3483475324942,7,18,-1.099929690361023,3.5164952278137207,17.660032865845146,17.561551651932835,70.55059843675382,64.07430882283367,-0.0001618862152099,0.0931989923119545,0,0,0
5908,206374.06387517537,2010-11-03 23:43:24,2731.363678060235,7,18,-1.099568486213684,3.511800527572632,17.660032865845146,17.57072084405233,70.55059843675382,64.10653206794852,-0.0001295089750783,0.0931989923119545,0,0,0
5909,206404.07922234968,2010-11-03 23:43:54,2761.379025234528,7,18,-1.099568486213684,3.507106065750122,17.660032865845146,17.579890020557738,70.55059843675382,64.1387117614176,-0.0001618862152099,0.0931989923119545,0,0,0
5910,206434.09453458176,2010-11-03 23:44:24,2791.3943374916616,7,18,-1.0997490882873535,3.5016019344329834,17.660032865845146,17.589059227071427,70.55059843675382,64.17084460471764,-0.0001942634553415,0.0931989923119545,0,0,0
5911,206464.10988456805,2010-11-03 23:44:54,2821.4096874529114,7,18,-1.0997490882873535,3.4959359169006348,17.660032865845146,17.59822844732634,70.55059843675382,64.20292645658596,-0.0001618862152099,0.0931989923119545,0,0,0
5912,206494.1252117625,2010-11-03 23:45:24,2851.425014672394,7,18,-1.0997490882873535,3.4892985820770264,17.660032865845146,17.607397646356784,70.55059843675382,64.23495153614137,-0.0001942634553415,0.0931989923119545,0,0,0
5913,206524.1405415935,2010-11-03 23:45:54,2881.440344503395,7,18,-1.099929690361023,3.481851816177368,17.660032865845146,17.616566856932486,70.55059843675382,64.26691283315297,-0.0002266406954731,0.0931989923119545,0,0,0
5914,206554.15598145916,2010-11-03 23:46:24,2911.4557843540224,7,18,-1.0997490882873535,3.4731099605560303,17.660032865845146,17.62573604539822,70.55059843675382,64.29880009240402,-0.0002913951757363,0.0931989923119545,0,0,0
5915,206584.17122432808,2010-11-03 23:46:54,2941.471027212928,7,18,-1.0997490882873535,3.4629111289978027,17.660032865845146,17.634905181489383,70.55059843675382,64.33060127301039,-0.0003237724304199,0.0931989923119545,0,0,0
5916,206614.18652715668,2010-11-03 23:47:24,2971.4863300565644,7,18,-1.0997490882873535,3.450769662857056,17.660032865845146,17.64407432747726,70.55059843675382,64.36230023032755,-0.0003561496851034,0.0931989923119545,0,0,0
5917,206644.2018622558,2010-11-03 23:47:54,3001.501665140678,7,18,-1.099568486213684,3.4357142448425293,17.660032865845146,17.65324354326055,70.55059843675382,64.39387453988508,-0.0004209041653666,0.0931989923119545,0,0,0
5918,206674.21719195147,2010-11-03 23:48:24,3031.516994861404,7,18,-1.099568486213684,3.416450023651123,17.660032865845146,17.662412763865813,70.55059843675382,64.42529185795507,-0.0005504131549969,0.0931989923119545,0,0,0
5919,206704.232504344,2010-11-03 23:48:54,3061.5323072588885,7,18,-1.099568486213684,3.390872001647949,17.660032865845146,17.671581983453176,70.55059843675382,64.45650570066611,-0.0007446765666827,0.0931989923119545,0,0,0
5920,206734.24786385405,2010-11-03 23:49:24,3091.547666763961,7,18,-1.0997490882873535,3.3562283515930176,17.660032865845146,17.680751228328216,70.55059843675382,64.48744724521102,-0.0010684489971026,0.0931989923119545,0,0,0
5921,206764.26317806105,2010-11-03 23:49:54,3121.562980970962,7,18,-1.099929690361023,3.3081483840942383,17.660032865845146,17.68992044582675,70.55059843675382,64.51801322686433,-0.0014569759368896,0.0931989923119545,0,0,0
5922,206794.27853312503,2010-11-03 23:50:24,3151.5783361251742,7,18,-1.0997490882873535,3.239832639694214,17.660032865845146,17.699089652628636,70.55059843675382,64.54805118067074,-0.0021045207977294,0.0931989923119545,0,0,0
5923,206824.2938293572,2010-11-03 23:50:54,3181.59363224202,7,18,-1.0997490882873535,3.1389777660369877,17.660032865845146,17.708258848027942,70.55059843675382,64.57732823801729,-0.0032053471077233,0.0931989923119545,0,0,0
5924,206854.30916919812,2010-11-03 23:51:24,3211.6089720980444,7,18,-1.0997490882873535,2.966407537460327,17.660032865845146,17.71742802974886,70.55059843675382,64.60541492266452,-0.0063783167861402,0.0931989923119545,0,0,0
5925,206871.34025186065,2010-11-03 23:51:41,3228.640054770562,7,18,-1.099568486213684,2.765993118286133,17.660032865845146,17.722630763262604,70.55059843675382,64.62037431043862,-0.0113319875672459,0.0931989923119545,0,0,0
5926,206875.7620819187,2010-11-03 23:51:45,3233.061884828669,7,18,-1.099568486213684,2.699943780899048,17.660032865845146,17.723981582360086,70.55059843675382,64.62406639139226,-0.0119795324280858,0.0931989923119545,0,0,0
5927,206935.7750120773,2010-11-03 23:52:45,60.01503249919993,8,18,0.0,3.293092966079712,17.660032865845146,17.723981582360086,70.55059843675382,64.62406639139226,0.0012303352123126,0.0931989923119545,0,0,0
5928,206935.9608768812,2010-11-03 23:52:46,0.187500299593987,9,18,-1.9243103452026844e-05,3.293092966079712,17.660032865845146,17.72398158336233,70.55059843675382,64.62406639469275,0.0,0.0931148082017898,0,0,0
5929,206940.78893577892,2010-11-03 23:52:51,5.015559222443715,9,18,0.0003419754502829,3.30070161819458,17.66003361414641,17.72398158352929,70.55060090442029,64.62406639524256,0.0010684489971026,0.0931148082017898,0,0,0
