Data_Point,Test_Time(s),Date_Time,Step_Time(s),Step_Index,Cycle_Index,Current(A),Voltage(V),Charge_Capacity(Ah),Discharge_Capacity(Ah),Charge_Energy(Wh),Discharge_Energy(Wh),dV/dt(V/s),Internal_Resistance(Ohm),Is_FC_Data,AC_Impedance(Ohm),ACI_Phase_Angle(Deg)
1968,68800.69469506812,2010-11-02 09:30:16,30.015341149253327,1,7,0.0,3.393300294876098,5.847844860686039,5.903487027894818,23.3802580204817,21.51673893078845,0.0006799221155233,0.0939245000481605,0,0,0
1969,68830.709850985,2010-11-02 09:30:46,60.03049706112566,1,7,0.0,3.416126251220703,5.847844860686039,5.903487027894818,23.3802580204817,21.51673893078845,0.0005180359003134,0.0939245000481605,0,0,0
1970,68860.72508525247,2010-11-02 09:31:16,90.04573132357307,1,7,0.0,3.43344783782959,5.847844860686039,5.903487027894818,23.3802580204817,21.51673893078845,0.0004208564641885,0.0939245000481605,0,0,0
1971,68890.69349004637,2010-11-02 09:31:46,120.01413612247494,1,7,0.0,3.4470462799072266,5.847844860686039,5.903487027894818,23.3802580204817,21.51673893078845,0.0003237724304199,0.0939245000481605,0,0,0
1972,68920.71084188035,2010-11-02 09:32:16,30.01511323033264,2,7,0.5499359965324402,3.60585618019104,5.852431280038458,5.903487027894818,23.39663441204257,21.51673893078845,0.0015864849556237,0.0939245000481605,0,0,0
1973,68950.72611259378,2010-11-02 09:32:46,60.03038394376733,2,7,0.5501165986061096,3.653450727462769,5.857017572045558,5.903487027894818,23.413287831491257,21.51673893078845,0.0010684489971026,0.0939245000481605,0,0,0
1974,68980.74140221441,2010-11-02 09:33:16,90.0456735694098,2,7,0.5501165986061096,3.687608480453491,5.861603796613286,5.903487027894818,23.430125434925827,21.51673893078845,0.0008094310760498,0.0939245000481605,0,0,0
1975,69010.75662619119,2010-11-02 09:33:46,120.06089757124516,2,7,0.5499359965324402,3.7144815921783447,5.866189932099132,5.903487027894818,23.4471015429441,21.51673893078845,0.0006151676061563,0.0939245000481605,0,0,0
1976,69040.7719110349,2010-11-02 09:34:16,150.0761823949011,2,7,0.5499359965324402,3.7363362312316895,5.870775325694412,5.903487027894818,23.464185997544984,21.51673893078845,0.0005180359003134,0.0939245000481605,0,0,0
1977,69070.78717075087,2010-11-02 09:34:46,180.091442115897,2,7,0.5499359965324402,3.754305362701416,5.875360772839736,5.903487027894818,23.48136175836281,21.51673893078845,0.0004208564641885,0.0939245000481605,0,0,0
1978,69100.80249125861,2010-11-02 09:35:16,210.10676260858835,2,7,0.5501165986061096,3.7679038047790527,5.879947104792893,5.903487027894818,23.498613675128283,21.51673893078845,0.0002913951757363,0.0939245000481605,0,0,0
1979,69130.81802655247,2010-11-02 09:35:46,240.1222979325316,2,7,0.5499359965324402,3.7764837741851807,5.884533511313295,5.903487027894818,23.515916339910177,21.51673893078845,0.0001942634553415,0.0939245000481605,0,0,0
1980,69160.833016069,2010-11-02 09:36:16,270.13728741396795,2,7,0.5501165986061096,3.7816641330718994,5.889119853131641,5.903487027894818,23.533249334746102,21.51673893078845,9.713172767078504e-05,0.0939245000481605,0,0,0
1981,69190.8482794792,2010-11-02 09:36:46,300.1525508492352,2,7,0.5499359965324402,3.7855494022369385,5.893706258808145,5.903487027894818,23.55060324288376,21.51673893078845,6.47544875391759e-05,0.0939245000481605,0,0,0
1982,69220.86353048345,2010-11-02 09:37:17,330.1678018334227,2,7,0.5499359965324402,3.7894346714019775,5.898292644062814,5.903487027894818,23.5679746666443,21.51673893078845,6.47544875391759e-05,0.0939245000481605,0,0,0
1983,69250.87881020436,2010-11-02 09:37:47,360.1830815543414,2,7,0.5501165986061096,3.793158054351807,5.902879013687405,5.903487027894818,23.585362618941023,21.51673893078845,0.0001295089750783,0.0939245000481605,0,0,0
1984,69280.89419108277,2010-11-02 09:38:17,390.1984624277523,2,7,0.5501165986061096,3.796557664871216,5.907465375981925,5.903487027894818,23.602766726183887,21.51673893078845,9.713172767078504e-05,0.0939245000481605,0,0,0
1985,69310.91194538564,2010-11-02 09:38:47,420.21621682584606,2,7,0.5501165986061096,3.800119161605835,5.912052117780116,5.903487027894818,23.62018825257661,21.51673893078845,0.0001295089750783,0.0939245000481605,0,0,0
1986,69340.92461970808,2010-11-02 09:39:17,450.22889105806416,2,7,0.550297200679779,3.803356885910034,5.916638040167103,5.903487027894818,23.63762227536765,21.51673893078845,9.713172767078504e-05,0.0939245000481605,0,0,0
1987,69370.93988930373,2010-11-02 09:39:47,480.24416064869627,2,7,0.550297200679779,3.8065946102142334,5.921224494226887,5.903487027894818,23.655073500361127,21.51673893078845,9.713172767078504e-05,0.0939245000481605,0,0,0
1988,69400.95513540572,2010-11-02 09:40:17,510.25940678077205,2,7,0.5499359965324402,3.809670448303223,5.925810921457136,5.903487027894818,23.67253938556132,21.51673893078845,6.47544875391759e-05,0.0939245000481605,0,0,0
1989,69430.9704198384,2010-11-02 09:40:47,540.2746911883894,2,7,0.5501165986061096,3.812908172607422,5.930397371849145,5.903487027894818,23.690020044627072,21.51673893078845,6.47544875391759e-05,0.0939245000481605,0,0,0
1990,69460.98579579455,2010-11-02 09:41:17,570.2900671545511,2,7,0.5501165986061096,3.816307783126831,5.934983741956075,5.903487027894818,23.70751510270988,21.51673893078845,0.0001295089750783,0.0939245000481605,0,0,0
1991,69491.00094705982,2010-11-02 09:41:47,600.3052184097999,2,7,0.5501165986061096,3.8192217350006095,5.939570095668322,5.903487027894818,23.72502435289757,21.51673893078845,6.47544875391759e-05,0.0939245000481605,0,0,0
1992,69521.01622706644,2010-11-02 09:42:17,630.3204984414944,2,7,0.5499359965324402,3.8222975730896,5.944156492482283,5.903487027894818,23.742547906705685,21.51673893078845,6.47544875391759e-05,0.0939245000481605,0,0,0
1993,69551.0316279899,2010-11-02 09:42:47,660.3358993649533,2,7,0.5501165986061096,3.825535297393799,5.948742820663471,5.903487027894818,23.760085150505866,21.51673893078845,0.0001295089750783,0.0939245000481605,0,0,0
1994,69581.04673423781,2010-11-02 09:43:17,690.3510055877941,2,7,0.5499359965324402,3.828449249267578,5.953329136226606,5.903487027894818,23.77763657770359,21.51673893078845,6.47544875391759e-05,0.0939245000481605,0,0,0
1995,69611.06201183343,2010-11-02 09:43:47,720.3662831783954,2,7,0.5495747923851013,3.831363201141357,5.957915538314043,5.903487027894818,23.79520267525335,21.51673893078845,6.47544875391759e-05,0.0939245000481605,0,0,0
1996,69641.07726623114,2010-11-02 09:44:17,750.381537581116,2,7,0.5501165986061096,3.834762573242188,5.962501888192876,5.903487027894818,23.81278306276577,21.51673893078845,9.713172767078504e-05,0.0939245000481605,0,0,0
1997,69671.09253361626,2010-11-02 09:44:47,780.3968049862928,2,7,0.5501165986061096,3.8380002975463863,5.967088219968622,5.903487027894818,23.83037821804617,21.51673893078845,6.47544875391759e-05,0.0939245000481605,0,0,0
1998,69701.10779734726,2010-11-02 09:45:17,810.4120686972482,2,7,0.5499359965324402,3.841238021850586,5.971674593686151,5.903487027894818,23.84798855776124,21.51673893078845,3.237724376958795e-05,0.0939245000481605,0,0,0
1999,69731.12308638144,2010-11-02 09:45:47,840.4273577314142,2,7,0.5501165986061096,3.844799518585205,5.976260990515877,5.903487027894818,23.865614215917045,21.51673893078845,9.713172767078504e-05,0.0939245000481605,0,0,0
2000,69761.13845749549,2010-11-02 09:46:17,870.4427288504768,2,7,0.550297200679779,3.848037242889404,5.980847379957944,5.903487027894818,23.883255119531604,21.51673893078845,9.713172767078504e-05,0.0939245000481605,0,0,0
2001,69791.1535946405,2010-11-02 09:46:47,900.4578660105418,2,7,0.550297200679779,3.8514368534088135,5.985433720750018,5.903487027894818,23.900911109464747,21.51673893078845,9.713172767078504e-05,0.0939245000481605,0,0,0
2002,69821.16886065221,2010-11-02 09:47:17,930.47313200219,2,7,0.550297200679779,3.8546745777130127,5.990020124354684,5.903487027894818,23.918582386085504,21.51673893078845,6.47544875391759e-05,0.0939245000481605,0,0,0
2003,69851.18413854857,2010-11-02 09:47:47,960.488409893542,2,7,0.5501165986061096,3.857750415802002,5.994606496359941,5.903487027894818,23.936268434811367,21.51673893078845,6.47544875391759e-05,0.0939245000481605,0,0,0
2004,69881.19939900641,2010-11-02 09:48:17,990.5036703513772,2,7,0.550297200679779,3.861150026321411,5.999192829521051,5.903487027894818,23.95396897959079,21.51673893078845,0.0001295089750783,0.0939245000481605,0,0,0
2005,69911.21466452186,2010-11-02 09:48:47,1020.5189358668368,2,7,0.5501165986061096,3.8640639781951904,6.003779192392149,5.903487027894818,23.97168405874073,21.51673893078845,6.47544875391759e-05,0.0939245000481605,0,0,0
2006,69941.23010931483,2010-11-02 09:49:17,1050.534380699901,2,7,0.5501165986061096,3.8673017024993896,6.008365512660967,5.903487027894818,23.98941306010516,21.51673893078845,9.713172767078504e-05,0.0939245000481605,0,0,0
2007,69971.24520680586,2010-11-02 09:49:47,1080.5494781508455,2,7,0.5501165986061096,3.870053768157959,6.012951781872171,5.903487027894818,24.00715555980392,21.51673893078845,6.47544875391759e-05,0.0939245000481605,0,0,0
2008,70001.26046334894,2010-11-02 09:50:17,1110.564734723984,2,7,0.5501165986061096,3.8729677200317374,6.017538164761183,5.903487027894818,24.024911725037377,21.51673893078845,6.47544875391759e-05,0.0939245000481605,0,0,0
2009,70031.27573201727,2010-11-02 09:50:47,1140.5800033672513,2,7,0.5501165986061096,3.8755578994750977,6.022124551327943,5.903487027894818,24.04268056938699,21.51673893078845,3.237724376958795e-05,0.0939245000481605,0,0,0
2010,70061.29103936715,2010-11-02 09:51:17,1170.595310717136,2,7,0.550297200679779,3.878309965133667,6.026710963446662,5.903487027894818,24.06046174732297,21.51673893078845,9.713172767078504e-05,0.0939245000481605,0,0,0
2011,70091.30643253626,2010-11-02 09:51:47,1200.6107038912517,2,7,0.550297200679779,3.880738258361816,6.031297386549515,5.903487027894818,24.07825462641953,21.51673893078845,6.47544875391759e-05,0.0939245000481605,0,0,0
2012,70121.32156589182,2010-11-02 09:52:17,1230.6258372418074,2,7,0.5501165986061096,3.883004665374756,6.035883807690391,5.903487027894818,24.096058585210347,21.51673893078845,6.47544875391759e-05,0.0939245000481605,0,0,0
2013,70151.33682989852,2010-11-02 09:52:47,1260.6411012434885,2,7,0.5501165986061096,3.8852710723876953,6.040470324028605,5.903487027894818,24.11387339111597,21.51673893078845,6.47544875391759e-05,0.0939245000481605,0,0,0
2014,70181.35208090275,2010-11-02 09:53:17,1290.6563522527383,2,7,0.550297200679779,3.887213706970215,6.045056689451577,5.903487027894818,24.13169742586765,21.51673893078845,0.0,0.0939245000481605,0,0,0
2015,70211.36735911992,2010-11-02 09:53:47,1320.671630469904,2,7,0.550297200679779,3.889318227767944,6.049643127963257,5.903487027894818,24.149531027850244,21.51673893078845,6.47544875391759e-05,0.0939245000481605,0,0,0
2016,70241.38264318669,2010-11-02 09:54:17,1350.6869145416829,2,7,0.5501165986061096,3.891098976135254,6.054229585056943,5.903487027894818,24.167373211872256,21.51673893078845,3.237724376958795e-05,0.0939245000481605,0,0,0
2017,70271.39814163359,2010-11-02 09:54:47,1380.7024129885754,2,7,0.5499359965324402,3.8927178382873535,6.058816025492037,5.903487027894818,24.185223297754188,21.51673893078845,6.47544875391759e-05,0.0939245000481605,0,0,0
2018,70301.41348862743,2010-11-02 09:55:17,1410.71776094482,2,7,0.5501165986061096,3.894336700439453,6.063402504764804,5.903487027894818,24.203081019212465,21.51673893078845,6.47544875391759e-05,0.0939245000481605,0,0,0
2019,70331.42845545731,2010-11-02 09:55:47,1440.7327268072995,2,7,0.5501165986061096,3.895793676376343,6.067988921251683,5.903487027894818,24.22094502872009,21.51673893078845,0.0001295089750783,0.0939245000481605,0,0,0
2020,70361.44372100788,2010-11-02 09:56:17,1470.7479923578471,2,7,0.550297200679779,3.897250652313232,6.072575314790885,5.903487027894818,24.238815530434124,21.51673893078845,6.47544875391759e-05,0.0939245000481605,0,0,0
2021,70391.45898798195,2010-11-02 09:56:47,1500.7632593269352,2,7,0.5501165986061096,3.898545742034912,6.0771617464171,5.903487027894818,24.256692430088503,21.51673893078845,3.237724376958795e-05,0.0939245000481605,0,0,0
2022,70421.4742626603,2010-11-02 09:57:17,1530.7785340102794,2,7,0.5499359965324402,3.899678945541382,6.081748155086837,5.903487027894818,24.27457530808536,21.51673893078845,0.0,0.0939245000481605,0,0,0
2023,70451.48964266153,2010-11-02 09:57:47,1560.793914016526,2,7,0.5501165986061096,3.900812149047852,6.08633462805817,5.903487027894818,24.292464162743663,21.51673893078845,0.0,0.0939245000481605,0,0,0
2024,70481.50476173645,2010-11-02 09:58:17,1590.8090330914476,2,7,0.5501165986061096,3.9021072387695312,6.090921087337907,5.903487027894818,24.31035867618512,21.51673893078845,0.0,0.0939245000481605,0,0,0
2025,70511.52017152203,2010-11-02 09:58:47,1620.8244428770276,2,7,0.550297200679779,3.903726100921631,6.095507536004597,5.903487027894818,24.32825870772463,21.51673893078845,9.713172767078504e-05,0.0939245000481605,0,0,0
2026,70541.53530574977,2010-11-02 09:59:17,1650.8395771047733,2,7,0.5501165986061096,3.9045355319976807,6.100093975023731,5.903487027894818,24.34616430649396,21.51673893078845,0.0,0.0939245000481605,0,0,0
2027,70571.55062155577,2010-11-02 09:59:47,1680.8548929007409,2,7,0.5501165986061096,3.90583062171936,6.104680432293258,5.903487027894818,24.36407542244704,21.51673893078845,6.47544875391759e-05,0.0939245000481605,0,0,0
2028,70601.56585831444,2010-11-02 10:00:17,1710.8701296644315,2,7,0.5501165986061096,3.90712571144104,6.109266865702265,5.903487027894818,24.38199209294268,21.51673893078845,3.237724376958795e-05,0.0939245000481605,0,0,0
2029,70631.58110793523,2010-11-02 10:00:47,1740.8853792902282,2,7,0.5501165986061096,3.9082589149475098,6.113853277073689,5.903487027894818,24.399914230963915,21.51673893078845,3.237724376958795e-05,0.0939245000481605,0,0,0
2030,70661.59634094454,2010-11-02 10:01:17,1770.9006122995477,2,7,0.5501165986061096,3.90939211845398,6.118439741301268,5.903487027894818,24.41784220793128,21.51673893078845,0.0,0.0939245000481605,0,0,0
2031,70691.61172795328,2010-11-02 10:01:47,1800.9159993182984,2,7,0.5501165986061096,3.910687208175659,6.123026213553571,5.903487027894818,24.435775876812556,21.51673893078845,3.237724376958795e-05,0.0939245000481605,0,0,0
2032,70721.62698100763,2010-11-02 10:02:17,1830.931252362628,2,7,0.5497553944587708,3.911982297897339,6.127612614106423,5.903487027894818,24.45371487996548,21.51673893078845,3.237724376958795e-05,0.0939245000481605,0,0,0
2033,70751.64224466846,2010-11-02 10:02:47,1860.9465160234583,2,7,0.5499359965324402,3.9131155014038086,6.132198948968627,5.903487027894818,24.471659385625088,21.51673893078845,3.237724376958795e-05,0.0939245000481605,0,0,0
2034,70781.65754324144,2010-11-02 10:03:17,1890.961814596435,2,7,0.5501165986061096,3.914734125137329,6.136785403028057,5.903487027894818,24.48961019117052,21.51673893078845,6.47544875391759e-05,0.0939245000481605,0,0,0
2035,70811.67294305211,2010-11-02 10:03:47,1920.977214407116,2,7,0.5501165986061096,3.915705442428589,6.141371855527804,5.903487027894818,24.507566768595915,21.51673893078845,3.237724376958795e-05,0.0939245000481605,0,0,0
2036,70841.68815596127,2010-11-02 10:04:17,1950.9924274315504,2,7,0.5501165986061096,3.917000532150269,6.145958242283602,5.903487027894818,24.52552881084491,21.51673893078845,3.237724376958795e-05,0.0939245000481605,0,0,0
2037,70871.70333785801,2010-11-02 10:04:47,1981.0076092129973,2,7,0.5501165986061096,3.918457508087158,6.150544671017925,5.903487027894818,24.543497088192385,21.51673893078845,6.47544875391759e-05,0.0939245000481605,0,0,0
2038,70901.7187853878,2010-11-02 10:05:17,2011.0230567528176,2,7,0.550297200679779,3.919914484024048,6.155131075790178,5.903487027894818,24.56147133554404,21.51673893078845,6.47544875391759e-05,0.0939245000481605,0,0,0
2039,70931.73389967075,2010-11-02 10:05:47,2041.0381710257527,2,7,0.5501165986061096,3.9210476875305176,6.159717469202263,5.903487027894818,24.57945164234726,21.51673893078845,6.47544875391759e-05,0.0939245000481605,0,0,0
2040,70961.74915233915,2010-11-02 10:06:17,2071.0534236941444,2,7,0.5501165986061096,3.922342777252197,6.164303850349765,5.903487027894818,24.597437993327976,21.51673893078845,3.237724376958795e-05,0.0939245000481605,0,0,0
2041,70991.76446029554,2010-11-02 10:06:47,2101.0687316505428,2,7,0.5501165986061096,3.923799753189087,6.168890180306694,5.903487027894818,24.61543044353499,21.51673893078845,6.47544875391759e-05,0.0939245000481605,0,0,0
2042,71021.7797124276,2010-11-02 10:07:17,2131.083983812671,2,7,0.5501165986061096,3.925094842910767,6.173476561681575,5.903487027894818,24.633429456643967,21.51673893078845,3.237724376958795e-05,0.0939245000481605,0,0,0
2043,71051.79511339116,2010-11-02 10:07:47,2161.09938475618,2,7,0.550297200679779,3.926551818847656,6.178062991631077,5.903487027894818,24.651434975665904,21.51673893078845,6.47544875391759e-05,0.0939245000481605,0,0,0
2044,71081.81026073665,2010-11-02 10:08:17,2191.114532091644,2,7,0.5501165986061096,3.928008794784546,6.18264934261187,5.903487027894818,24.66944659609882,21.51673893078845,3.237724376958795e-05,0.0939245000481605,0,0,0
2045,71111.82553910419,2010-11-02 10:08:47,2221.1298104591847,2,7,0.550297200679779,3.929465770721436,6.187235742970498,5.903487027894818,24.68746490285812,21.51673893078845,3.237724376958795e-05,0.0939245000481605,0,0,0
2046,71141.84084246913,2010-11-02 10:09:18,2251.1451138241227,2,7,0.5499359965324402,3.9307608604431152,6.191822131610319,5.903487027894818,24.70548971337009,21.51673893078845,3.237724376958795e-05,0.0939245000481605,0,0,0
2047,71171.85605914266,2010-11-02 10:09:48,2281.160330497665,2,7,0.5501165986061096,3.932379722595215,6.196408597447588,5.903487027894818,24.72352134510116,21.51673893078845,6.47544875391759e-05,0.0939245000481605,0,0,0
2048,71201.87133776584,2010-11-02 10:10:18,2311.1756091459065,2,7,0.5501165986061096,3.933512926101685,6.200994974153192,5.903487027894818,24.74155929463236,21.51673893078845,0.0,0.0939245000481605,0,0,0
2049,71231.8897097355,2010-11-02 10:10:48,2341.193981175704,2,7,0.5501165986061096,3.935131788253784,6.205581844289435,5.903487027894818,24.759605959499417,21.51673893078845,3.237724376958795e-05,0.0939245000481605,0,0,0
2050,71261.90191026026,2010-11-02 10:11:18,2371.206181700476,2,7,0.5501165986061096,3.936588764190674,6.210167816399104,5.903487027894818,24.77765587653977,21.51673893078845,6.47544875391759e-05,0.0939245000481605,0,0,0
2051,71291.9171538911,2010-11-02 10:11:48,2401.221425246096,2,7,0.5501165986061096,3.938207626342773,6.214754222844353,5.903487027894818,24.79571441886173,21.51673893078845,3.237724376958795e-05,0.0939245000481605,0,0,0
2052,71321.93241611333,2010-11-02 10:12:18,2431.2366874683344,2,7,0.5501165986061096,3.939664602279663,6.219340606297318,5.903487027894818,24.81377984556549,21.51673893078845,0.0,0.0939245000481605,0,0,0
2053,71351.94767363885,2010-11-02 10:12:48,2461.25194499385,2,7,0.5501165986061096,3.9411215782165527,6.223927025238096,5.903487027894818,24.83185247386806,21.51673893078845,3.237724376958795e-05,0.0939245000481605,0,0,0
2054,71381.9629649888,2010-11-02 10:13:18,2491.267236343797,2,7,0.5501165986061096,3.942740440368652,6.228513387391085,5.903487027894818,24.84993187101556,21.51673893078845,3.237724376958795e-05,0.0939245000481605,0,0,0
2055,71411.97824511072,2010-11-02 10:13:48,2521.2825164657165,2,7,0.5499359965324402,3.944197416305542,6.233099774514515,5.903487027894818,24.868018507414316,21.51673893078845,0.0,0.0939245000481605,0,0,0
2056,71441.99348734808,2010-11-02 10:14:18,2551.29775870307,2,7,0.550297200679779,3.945978164672852,6.237686235326457,5.903487027894818,24.88611261200884,21.51673893078845,3.237724376958795e-05,0.0939245000481605,0,0,0
2057,71472.00876331962,2010-11-02 10:14:48,2581.31303467463,2,7,0.5501165986061096,3.947435140609741,6.242272715342101,5.903487027894818,24.90421393381436,21.51673893078845,6.47544875391759e-05,0.0939245000481605,0,0,0
2058,71502.02402315091,2010-11-02 10:15:18,2611.3282945059013,2,7,0.5499359965324402,3.949054002761841,6.246859130721795,5.903487027894818,24.92232227015306,21.51673893078845,6.47544875391759e-05,0.0939245000481605,0,0,0
2059,71532.0394281796,2010-11-02 10:15:48,2641.3436995446323,2,7,0.5501165986061096,3.9508347511291504,6.251445511661533,5.903487027894818,24.940437779964867,21.51673893078845,9.713172767078504e-05,0.0939245000481605,0,0,0
2060,71562.05455391115,2010-11-02 10:16:18,2671.358825266145,2,7,0.5501165986061096,3.95229172706604,6.256031960671112,5.903487027894818,24.958560995383603,21.51673893078845,6.47544875391759e-05,0.0939245000481605,0,0,0
2061,71592.06982501555,2010-11-02 10:16:48,2701.374096370556,2,7,0.5501165986061096,3.9540724754333496,6.260618390623696,5.903487027894818,24.976691608672017,21.51673893078845,6.47544875391759e-05,0.0939245000481605,0,0,0
2062,71622.0851120748,2010-11-02 10:17:18,2731.3893834297924,2,7,0.5504778623580933,3.955691337585449,6.265204810304716,5.903487027894818,24.994829727527748,21.51673893078845,3.237724376958795e-05,0.0939245000481605,0,0,0
2063,71652.10037761032,2010-11-02 10:17:48,2761.4046489703146,2,7,0.5499359965324402,3.957148313522339,6.269791270517451,5.903487027894818,25.012975624758862,21.51673893078845,3.237724376958795e-05,0.0939245000481605,0,0,0
2064,71682.11563330125,2010-11-02 10:18:18,2791.419904686313,2,7,0.5501165986061096,3.9587671756744394,6.274377559212409,5.903487027894818,25.031128350366185,21.51673893078845,3.237724376958795e-05,0.0939245000481605,0,0,0
2065,71712.13090906729,2010-11-02 10:18:48,2821.4351804222847,2,7,0.5501165986061096,3.960709810256958,6.278964011178614,5.903487027894818,25.04928943153998,21.51673893078845,6.47544875391759e-05,0.0939245000481605,0,0,0
2066,71742.14617226196,2010-11-02 10:19:18,2851.450443621964,2,7,0.5499359965324402,3.962166786193848,6.283550377837734,5.903487027894818,25.06745800789798,21.51673893078845,3.237724376958795e-05,0.0939245000481605,0,0,0
2067,71772.16145121596,2010-11-02 10:19:48,2881.465722570956,2,7,0.550297200679779,3.964271306991577,6.288136796856096,5.903487027894818,25.085634684003608,21.51673893078845,9.713172767078504e-05,0.0939245000481605,0,0,0
2068,71802.17683443021,2010-11-02 10:20:18,2911.4811057852103,2,7,0.5499359965324402,3.965728282928467,6.292723307176604,5.903487027894818,25.10381968007189,21.51673893078845,6.47544875391759e-05,0.0939245000481605,0,0,0
2069,71832.19199296864,2010-11-02 10:20:48,2941.4962643236386,2,7,0.5501165986061096,3.967509031295776,6.29730973330608,5.903487027894818,25.122012312701862,21.51673893078845,3.237724376958795e-05,0.0939245000481605,0,0,0
2070,71862.20729604286,2010-11-02 10:21:18,2971.511567422913,2,7,0.5501165986061096,3.969289779663086,6.301896197948676,5.903487027894818,25.14021300993244,21.51673893078845,9.713172767078504e-05,0.0939245000481605,0,0,0
2071,71892.22253328272,2010-11-02 10:21:48,3001.52680463773,2,7,0.5501165986061096,3.9709086418151855,6.306482606538038,5.903487027894818,25.15842147092615,21.51673893078845,3.237724376958795e-05,0.0939245000481605,0,0,0
2072,71922.23780550493,2010-11-02 10:22:18,3031.542076859931,2,7,0.5501165986061096,3.972689390182495,6.311068997129675,5.903487027894818,25.17663795226666,21.51673893078845,3.237724376958795e-05,0.0939245000481605,0,0,0
2073,71952.25306471967,2010-11-02 10:22:48,3061.557336079676,2,7,0.550297200679779,3.974632024765015,6.315655485006973,5.903487027894818,25.19486303850287,21.51673893078845,6.47544875391759e-05,0.0939245000481605,0,0,0
2074,71982.26845543765,2010-11-02 10:23:18,3091.572726792648,2,7,0.550297200679779,3.976412773132324,6.320241969655148,5.903487027894818,25.21309639793055,21.51673893078845,9.713172767078504e-05,0.0939245000481605,0,0,0
2075,72012.28365947466,2010-11-02 10:23:48,3121.58793085471,2,7,0.550297200679779,3.977869749069214,6.324828451318085,5.903487027894818,25.23133792575991,21.51673893078845,0.0,0.0939245000481605,0,0,0
2076,72042.29897343102,2010-11-02 10:24:18,3151.6032447860234,2,7,0.550297200679779,3.9802980422973633,6.329415697786263,5.903487027894818,25.249590935394245,21.51673893078845,9.713172767078504e-05,0.0939245000481605,0,0,0
2077,72072.3141464506,2010-11-02 10:24:48,3181.6184179509623,2,7,0.5499359965324402,3.981916904449463,6.334002775693908,5.903487027894818,25.267852015250767,21.51673893078845,3.237724376958795e-05,0.0939245000481605,0,0,0
2078,72102.32953261222,2010-11-02 10:25:18,3211.6338039672105,2,7,0.5501165986061096,3.983697652816773,6.338589909660517,5.903487027894818,25.28612197529106,21.51673893078845,0.0,0.0939245000481605,0,0,0
2079,72132.34466415325,2010-11-02 10:25:48,3241.648935508249,2,7,0.5501165986061096,3.985802173614502,6.343177053827842,5.903487027894818,25.304400682086047,21.51673893078845,6.47544875391759e-05,0.0939245000481605,0,0,0
2080,72162.35992753839,2010-11-02 10:26:18,3271.664198893392,2,7,0.5499359965324402,3.987582921981812,6.347764218899702,5.903487027894818,25.322688285035888,21.51673893078845,3.237724376958795e-05,0.0939245000481605,0,0,0
2081,72192.37539619091,2010-11-02 10:26:48,3301.6796675459127,2,7,0.5499359965324402,3.989363670349121,6.35235138161636,5.903487027894818,25.340984586032565,21.51673893078845,0.0,0.0939245000481605,0,0,0
2082,72222.39070707462,2010-11-02 10:27:18,3331.694978429619,2,7,0.5501165986061096,3.991630077362061,6.356937914472754,5.903487027894818,25.359287369139327,21.51673893078845,6.47544875391759e-05,0.0939245000481605,0,0,0
2083,72252.40577868106,2010-11-02 10:27:48,3361.710050036051,2,7,0.5501165986061096,3.99341082572937,6.361524303959628,5.903487027894818,25.377598660746862,21.51673893078845,3.237724376958795e-05,0.0939245000481605,0,0,0
2084,72282.42101042722,2010-11-02 10:28:18,3391.7252817822177,2,7,0.5501165986061096,3.995515108108521,6.366110720297163,5.903487027894818,25.395919246109315,21.51673893078845,6.47544875391759e-05,0.0939245000481605,0,0,0
2085,72312.43628558677,2010-11-02 10:28:48,3421.740556941751,2,7,0.5501165986061096,3.99761962890625,6.370697148857085,5.903487027894818,25.41424914853325,21.51673893078845,6.47544875391759e-05,0.0939245000481605,0,0,0
2086,72342.45158165347,2010-11-02 10:29:18,3451.755853008471,2,7,0.5501165986061096,3.9995622634887695,6.375283615309539,5.903487027894818,25.432588457268658,21.51673893078845,6.47544875391759e-05,0.0939245000481605,0,0,0
2087,72372.46683286323,2010-11-02 10:29:48,3481.771104218222,2,7,0.5499359965324402,4.001667022705078,6.379870051546773,5.903487027894818,25.450937142848066,21.51673893078845,6.47544875391759e-05,0.0939245000481605,0,0,0
2088,72402.48208847897,2010-11-02 10:30:18,3511.78635983397,2,7,0.5501165986061096,4.0037713050842285,6.384456408882574,5.903487027894818,25.46929507872253,21.51673893078845,6.47544875391759e-05,0.0939245000481605,0,0,0
2089,72432.49734257592,2010-11-02 10:30:48,3541.8016139309275,2,7,0.5501165986061096,4.005876064300537,6.389042819828861,5.903487027894818,25.4876628949209,21.51673893078845,6.47544875391759e-05,0.0939245000481605,0,0,0
2090,72462.51265439196,2010-11-02 10:31:18,3571.8169257469604,2,7,0.5501165986061096,4.007980346679688,6.393629204030358,5.903487027894818,25.506040463488112,21.51673893078845,3.23295607813634e-05,0.0939245000481605,0,0,0
2091,72492.5279062032,2010-11-02 10:31:48,3601.8321775582126,2,7,0.5501165986061096,4.010246753692627,6.398215569704892,5.903487027894818,25.52442783416847,21.51673893078845,6.47544875391759e-05,0.0939245000481605,0,0,0
2092,72522.5431199745,2010-11-02 10:32:18,3631.847391339536,2,7,0.5499359965324402,4.012351512908936,6.402801913632757,5.903487027894818,25.54282514281965,21.51673893078845,6.47544875391759e-05,0.0939245000481605,0,0,0
2093,72552.55847557986,2010-11-02 10:32:48,3661.862746934849,2,7,0.5501165986061096,4.014617919921875,6.407388378063288,5.903487027894818,25.56123308017309,21.51673893078845,6.47544875391759e-05,0.0939245000481605,0,0,0
2094,72582.5737476968,2010-11-02 10:33:18,3691.8780190517873,2,7,0.550297200679779,4.016884326934815,6.411974792729647,5.903487027894818,25.57965104025387,21.51673893078845,6.47544875391759e-05,0.0939245000481605,0,0,0
2095,72612.58902562824,2010-11-02 10:33:48,3721.893296988252,2,7,0.5501165986061096,4.019150733947754,6.416561266895871,5.903487027894818,25.598079604254284,21.51673893078845,0.0,0.0939245000481605,0,0,0
2096,72642.60429604092,2010-11-02 10:34:18,3751.9085673959225,2,7,0.550297200679779,4.021417140960693,6.421147700863575,5.903487027894818,25.61651835245607,21.51673893078845,9.71794142969884e-05,0.0939245000481605,0,0,0
2097,72672.61957007264,2010-11-02 10:34:48,3781.923841432653,2,7,0.5501165986061096,4.023683547973633,6.425734104943279,5.903487027894818,25.634967636626133,21.51673893078845,6.47544875391759e-05,0.0939245000481605,0,0,0
2098,72702.63483492144,2010-11-02 10:35:18,3811.939106276436,2,7,0.5499359965324402,4.025949954986572,6.430320548207972,5.903487027894818,25.65342767986419,21.51673893078845,3.24249267578125e-05,0.0939245000481605,0,0,0
2099,72732.65022565446,2010-11-02 10:35:48,3841.954497009458,2,7,0.5499359965324402,4.028378009796143,6.434907059875489,5.903487027894818,25.671898696728643,21.51673893078845,6.47544875391759e-05,0.0939245000481605,0,0,0
2100,72762.66536338594,2010-11-02 10:36:18,3871.9696347409495,2,7,0.5501165986061096,4.030644416809082,6.439493529736004,5.903487027894818,25.690380257538923,21.51673893078845,3.23295607813634e-05,0.0939245000481605,0,0,0
2101,72792.6806322598,2010-11-02 10:36:48,3901.984903614793,2,7,0.550297200679779,4.033234596252441,6.444079966353167,5.903487027894818,25.708872655166623,21.51673893078845,9.70840483205393e-05,0.0939245000481605,0,0,0
2102,72822.69597261205,2010-11-02 10:37:18,3932.0002439820937,2,7,0.5501165986061096,4.035501003265381,6.448666438003627,5.903487027894818,25.72737615520184,21.51673893078845,3.24249267578125e-05,0.0939245000481605,0,0,0
2103,72852.7111861177,2010-11-02 10:37:48,3962.015457472691,2,7,0.5499359965324402,4.037929058074951,6.453252921833209,5.903487027894818,25.74589083750692,21.51673893078845,6.47544875391759e-05,0.0939245000481605,0,0,0
2104,72882.72646586868,2010-11-02 10:38:18,3992.0307372286975,2,7,0.5501165986061096,4.04035758972168,6.457839380187102,5.903487027894818,25.764416578984186,21.51673893078845,3.24249267578125e-05,0.0939245000481605,0,0,0
2105,72912.7417269982,2010-11-02 10:38:48,4022.045998353198,2,7,0.5501165986061096,4.04310941696167,6.462425760287644,5.903487027894818,25.78295330376834,21.51673893078845,0.0001295089750783,0.0939245000481605,0,0,0
2106,72942.7569849197,2010-11-02 10:39:18,4052.061256274701,2,7,0.5501165986061096,4.045537948608398,6.46701225085061,5.903487027894818,25.80150198322269,21.51673893078845,9.71794142969884e-05,0.0939245000481605,0,0,0
2107,72972.77239269025,2010-11-02 10:39:48,4082.07666404024,2,7,0.5501165986061096,4.048128128051758,6.471598753915533,5.903487027894818,25.82006219512327,21.51673893078845,9.71794142969884e-05,0.0939245000481605,0,0,0
2108,73002.7875238353,2010-11-02 10:40:18,4112.091795190302,2,7,0.5501165986061096,4.050394535064697,6.476185195257053,5.903487027894818,25.83863374804822,21.51673893078845,3.24249267578125e-05,0.0939245000481605,0,0,0
2109,73032.80279961639,2010-11-02 10:40:48,4142.107070991437,2,7,0.550297200679779,4.053146362304688,6.480771654492552,5.903487027894818,25.85721705204811,21.51673893078845,9.70840483205393e-05,0.0939245000481605,0,0,0
2110,73062.81807119198,2010-11-02 10:41:19,4172.1223425469725,2,7,0.550297200679779,4.055574893951416,6.485358122696397,5.903487027894818,25.87581226308046,21.51673893078845,6.47544875391759e-05,0.0939245000481605,0,0,0
2111,73092.83337124868,2010-11-02 10:41:49,4202.137642613679,2,7,0.5501165986061096,4.058326721191406,6.48994462236401,5.903487027894818,25.89441946638533,21.51673893078845,9.70840483205393e-05,0.0939245000481605,0,0,0
2112,73122.84859986199,2010-11-02 10:42:19,4232.152871216999,2,7,0.5501165986061096,4.060755252838135,6.494531145523209,5.903487027894818,25.91303879045135,21.51673893078845,6.47544875391759e-05,0.0939245000481605,0,0,0
2113,73152.8664380693,2010-11-02 10:42:49,4262.170709509507,2,7,0.550297200679779,4.063669204711914,6.499117912081582,5.903487027894818,25.93167071313277,21.51673893078845,0.0001295089750783,0.0939245000481605,0,0,0
2114,73182.87927584474,2010-11-02 10:43:19,4292.183547204753,2,7,0.5501165986061096,4.066097259521484,6.50370400146982,5.903487027894818,25.950312220680285,21.51673893078845,6.47544875391759e-05,0.0939245000481605,0,0,0
2115,73212.89442160126,2010-11-02 10:43:49,4322.198692966289,2,7,0.550297200679779,4.068849563598633,6.508290403717311,5.903487027894818,25.96896725762753,21.51673893078845,6.47544875391759e-05,0.0939245000481605,0,0,0
2116,73242.90967309674,2010-11-02 10:44:19,4352.213944451728,2,7,0.5497553944587708,4.071439743041992,6.512876870346919,5.903487027894818,25.98763507531959,21.51673893078845,3.24249267578125e-05,0.0939245000481605,0,0,0
2117,73272.92494079765,2010-11-02 10:44:49,4382.229212177705,2,7,0.5499359965324402,4.074191570281982,6.517463298659627,5.903487027894818,26.006315269972323,21.51673893078845,6.47544875391759e-05,0.0939245000481605,0,0,0
2118,73302.94036144533,2010-11-02 10:45:19,4412.244632800336,2,7,0.5499359965324402,4.076943874359131,6.522049744350565,5.903487027894818,26.025008313357493,21.51673893078845,6.47544875391759e-05,0.0939245000481605,0,0,0
2119,73332.95549057036,2010-11-02 10:45:49,4442.259761935369,2,7,0.550297200679779,4.080019474029541,6.526636206362914,5.903487027894818,26.043714385646293,21.51673893078845,9.70840483205393e-05,0.0939245000481605,0,0,0
2120,73362.97077702306,2010-11-02 10:46:19,4472.275048388092,2,7,0.5501165986061096,4.0827717781066895,6.531222652382598,5.903487027894818,26.06243331604819,21.51673893078845,9.71794142969884e-05,0.0939245000481605,0,0,0
2121,73392.98602453359,2010-11-02 10:46:49,4502.290295888583,2,7,0.5501165986061096,4.085685729980469,6.535809117621026,5.903487027894818,26.08116532700421,21.51673893078845,6.47544875391759e-05,0.0939245000481605,0,0,0
2122,73423.00144025899,2010-11-02 10:47:19,4532.305711613991,2,7,0.550297200679779,4.088437557220459,6.540395628132242,5.903487027894818,26.099910629387846,21.51673893078845,6.47544875391759e-05,0.0939245000481605,0,0,0
2123,73453.01670028575,2010-11-02 10:47:49,4562.320971650775,2,7,0.550297200679779,4.091513633728027,6.544982139481945,5.903487027894818,26.118669182351493,21.51673893078845,9.71794142969884e-05,0.0939245000481605,0,0,0
2124,73483.03182345087,2010-11-02 10:48:19,4592.336094805881,2,7,0.5501165986061096,4.094265460968018,6.549568550148783,5.903487027894818,26.13744055506977,21.51673893078845,9.70840483205393e-05,0.0939245000481605,0,0,0
2125,73513.0472500384,2010-11-02 10:48:49,4622.351521398414,2,7,0.5501165986061096,4.097179412841797,6.554155076837868,5.903487027894818,26.156225869563272,21.51673893078845,6.47544875391759e-05,0.0939245000481605,0,0,0
2126,73543.06236526372,2010-11-02 10:49:19,4652.3666366187135,2,7,0.5499359965324402,4.100093364715576,6.558741546218408,5.903487027894818,26.17502448641253,21.51673893078845,6.47544875391759e-05,0.0939245000481605,0,0,0
2127,73573.07777710944,2010-11-02 10:49:49,4682.382048464436,2,7,0.5501165986061096,4.103331089019775,6.563328111566176,5.903487027894818,26.193837166961444,21.51673893078845,9.70840483205393e-05,0.0939245000481605,0,0,0
2128,73603.09303737179,2010-11-02 10:50:19,4712.397308731796,2,7,0.5501165986061096,4.106245040893555,6.567914569325186,5.903487027894818,26.212663287010603,21.51673893078845,6.47544875391759e-05,0.0939245000481605,0,0,0
2129,73633.10816995041,2010-11-02 10:50:49,4742.4124413104255,2,7,0.5501165986061096,4.109321117401123,6.572501080945083,5.903487027894818,26.23150360885285,21.51673893078845,6.47544875391759e-05,0.0939245000481605,0,0,0
2130,73663.12357890392,2010-11-02 10:51:19,4772.427850258916,2,7,0.5501165986061096,4.112396717071533,6.577087558768347,5.903487027894818,26.250357877284635,21.51673893078845,6.47544875391759e-05,0.0939245000481605,0,0,0
2131,73693.13873032459,2010-11-02 10:51:49,4802.443001679577,2,7,0.550297200679779,4.115634441375732,6.58167402007098,5.903487027894818,26.26922625991916,21.51673893078845,9.71794142969884e-05,0.0939245000481605,0,0,0
2132,73723.15412415031,2010-11-02 10:52:19,4832.45839550532,2,7,0.5499359965324402,4.118548393249512,6.586260558585411,5.903487027894818,26.28810925242767,21.51673893078845,6.47544875391759e-05,0.0939245000481605,0,0,0
2133,73753.16925295953,2010-11-02 10:52:49,4862.473524314539,2,7,0.5501165986061096,4.121786117553711,6.590847054074868,5.903487027894818,26.30700644997973,21.51673893078845,9.71794142969884e-05,0.0939245000481605,0,0,0
2134,73783.18452468551,2010-11-02 10:53:19,4892.488796040501,2,7,0.5501165986061096,4.124861717224121,6.595433550520406,5.903487027894818,26.32591809911217,21.51673893078845,9.70840483205393e-05,0.0939245000481605,0,0,0
2135,73813.19987215052,2010-11-02 10:53:49,4922.504143610782,2,7,0.5501165986061096,4.1279377937316895,6.600020061905699,5.903487027894818,26.34484452460711,21.51673893078845,6.47544875391759e-05,0.0939245000481605,0,0,0
2136,73843.2150345987,2010-11-02 10:54:19,4952.519305978771,2,7,0.550297200679779,4.13133716583252,6.604606591055581,5.903487027894818,26.363785717515537,21.51673893078845,6.47544875391759e-05,0.0939245000481605,0,0,0
2137,73873.23030872567,2010-11-02 10:54:49,4982.534580105726,2,7,0.5501165986061096,4.134574890136719,6.609193205936788,5.903487027894818,26.38274211323933,21.51673893078845,9.70840483205393e-05,0.0939245000481605,0,0,0
2138,73903.24557841655,2010-11-02 10:55:19,5012.54984980162,2,7,0.5501165986061096,4.137974739074707,6.613779820836654,5.903487027894818,26.40171342893813,21.51673893078845,6.47544875391759e-05,0.0939245000481605,0,0,0
2139,73933.26099557053,2010-11-02 10:55:49,5042.565266930531,2,7,0.550297200679779,4.141212463378906,6.618366424154914,5.903487027894818,26.42069978663798,21.51673893078845,9.71794142969884e-05,0.0939245000481605,0,0,0
2140,73963.27612849,2010-11-02 10:56:19,5072.580399855023,2,7,0.5501165986061096,4.144611835479736,6.622953085083576,5.903487027894818,26.439701676993337,21.51673893078845,0.0001295089750783,0.0939245000481605,0,0,0
2141,73993.29138469722,2010-11-02 10:56:49,5102.595656062247,2,7,0.5501165986061096,4.148011684417725,6.627539622800794,5.903487027894818,26.458718688236296,21.51673893078845,9.71794142969884e-05,0.0939245000481605,0,0,0
2142,74023.30665711491,2010-11-02 10:57:19,5132.610928469911,2,7,0.5499359965324402,4.151411056518555,6.632126220184621,5.903487027894818,26.477751343177037,21.51673893078845,9.70840483205393e-05,0.0939245000481605,0,0,0
2143,74053.32194526687,2010-11-02 10:57:49,5162.626216621876,2,7,0.5501165986061096,4.154648780822754,6.636712816246336,5.903487027894818,26.49679949957297,21.51673893078845,6.47544875391759e-05,0.0939245000481605,0,0,0
2144,74083.33721453672,2010-11-02 10:58:19,5192.641485901732,2,7,0.5501165986061096,4.158210277557373,6.641299372440158,5.903487027894818,26.51586315098029,21.51673893078845,9.70840483205393e-05,0.0939245000481605,0,0,0
2145,74113.35267036723,2010-11-02 10:58:49,5222.6569417422725,2,7,0.5499359965324402,4.161610126495361,6.645885982622615,5.903487027894818,26.534942805371696,21.51673893078845,9.71794142969884e-05,0.0939245000481605,0,0,0
2146,74143.3681610748,2010-11-02 10:59:19,5252.672432530047,2,7,0.5501165986061096,4.165009498596191,6.650472549862752,5.903487027894818,26.554038193680288,21.51673893078845,6.47544875391759e-05,0.0939245000481605,0,0,0
2147,74173.38302111311,2010-11-02 10:59:49,5282.687292468122,2,7,0.5501165986061096,4.1685709953308105,6.655059036360721,5.903487027894818,26.57314928936174,21.51673893078845,6.47544875391759e-05,0.0939245000481605,0,0,0
2148,74203.3984575402,2010-11-02 11:00:19,5312.702728980416,2,7,0.550297200679779,4.172294616699219,6.659645650354193,5.903487027894818,26.59227708534415,21.51673893078845,0.0001295089750783,0.0939245000481605,0,0,0
2149,74233.41353548747,2010-11-02 11:00:49,5342.717806842464,2,7,0.5499359965324402,4.175693988800049,6.664232226533806,5.903487027894818,26.611420996437776,21.51673893078845,9.70840483205393e-05,0.0939245000481605,0,0,0
2150,74263.42881819585,2010-11-02 11:01:19,5372.73308955084,2,7,0.5501165986061096,4.179093837738037,6.668818843324512,5.903487027894818,26.63058152689143,21.51673893078845,3.24249267578125e-05,0.0939245000481605,0,0,0
2151,74293.44409499948,2010-11-02 11:01:49,5402.748366354477,2,7,0.5501165986061096,4.182979106903076,6.67340547825198,5.903487027894818,26.649758748550298,21.51673893078845,9.71794142969884e-05,0.0939245000481605,0,0,0
2152,74323.45935117162,2010-11-02 11:02:19,5432.763622526615,2,7,0.5499359965324402,4.186378479003906,6.677992069276971,5.903487027894818,26.66895235929165,21.51673893078845,6.47544875391759e-05,0.0939245000481605,0,0,0
2153,74353.47466877209,2010-11-02 11:02:49,5462.778940132099,2,7,0.5499359965324402,4.1901021003723145,6.682578663304847,5.903487027894818,26.688162720731707,21.51673893078845,9.71794142969884e-05,0.0939245000481605,0,0,0
2154,74383.49002266313,2010-11-02 11:03:19,5492.794294018146,2,7,0.5501165986061096,4.1938252449035645,6.68716522865169,5.903487027894818,26.70738971549597,21.51673893078845,9.70840483205393e-05,0.0939245000481605,0,0,0
2155,74413.50517098107,2010-11-02 11:03:49,5522.809442336062,2,7,0.550297200679779,4.197710514068604,6.691751821361639,5.903487027894818,26.726633783539626,21.51673893078845,0.0001295089750783,0.0939245000481605,0,0,0
2156,74433.2081869652,2010-11-02 11:04:09,5542.512458320191,2,7,0.5501165986061096,4.200138568878174,6.69476261889539,5.903487027894818,26.739275427895024,21.51673893078845,0.0001618385285837,0.0939245000481605,0,0,0
2157,74463.22087357164,2010-11-02 11:04:39,30.015228648433972,3,7,0.0,4.113691806793213,6.69476261889539,5.903487027894818,26.739275427895024,21.51673893078845,-0.0004208564641885,0.0939245000481605,0,0,0
2158,74493.23633901616,2010-11-02 11:05:09,60.03069409294739,3,7,0.0,4.1031694412231445,6.69476261889539,5.903487027894818,26.739275427895024,21.51673893078845,-0.0001618385285837,0.0939245000481605,0,0,0
2159,74523.25182110221,2010-11-02 11:05:39,90.04617621408826,3,7,0.0,4.096693992614746,6.69476261889539,5.903487027894818,26.739275427895024,21.51673893078845,-0.0001295089750783,0.0939245000481605,0,0,0
2160,74553.2199201429,2010-11-02 11:06:09,120.0142752246955,3,7,0.0,4.092808723449707,6.69476261889539,5.903487027894818,26.739275427895024,21.51673893078845,-3.23295607813634e-05,0.0939245000481605,0,0,0
2161,74553.23458581557,2010-11-02 11:06:09,0.01577321236471,4,7,0.9833982586860656,4.199653148651123,6.694766953721771,5.903487027894818,26.739293633011663,21.51673893078845,-3.23295607813634e-05,0.0939245000481605,0,0,0
2162,74554.26578386956,2010-11-02 11:06:10,1.04697124129076,4,7,0.933369517326355,4.199653148651123,6.695039876945087,5.903487027894818,26.74043983440843,21.51673893078845,-3.23295607813634e-05,0.0939245000481605,0,0,0
2163,74556.53126016192,2010-11-02 11:06:13,3.312447538663819,4,7,0.8831601142883301,4.199653148651123,6.695610287840458,5.903487027894818,26.742835395364263,21.51673893078845,-3.23295607813634e-05,0.0939245000481605,0,0,0
2164,74559.9532136192,2010-11-02 11:06:16,6.734400985922552,4,7,0.8327701091766357,4.199814796447754,6.696424596077016,5.903487027894818,26.74625527543127,21.51673893078845,0.0,0.0939245000481605,0,0,0
2165,74564.59367818267,2010-11-02 11:06:21,11.374865549390591,4,7,0.7825607657432556,4.199814796447754,6.697464379236219,5.903487027894818,26.75062209977997,21.51673893078845,3.23295607813634e-05,0.0939245000481605,0,0,0
2166,74570.6404677447,2010-11-02 11:06:27,17.42165511642523,4,7,0.7325319647789001,4.199653148651123,6.698735304545005,5.903487027894818,26.75595967398223,21.51673893078845,0.0,0.0939245000481605,0,0,0
2167,74578.60929498346,2010-11-02 11:06:35,25.390483257438763,4,7,0.6821420192718506,4.199653148651123,6.700298999746924,5.903487027894818,26.762526819667837,21.51673893078845,-3.23295607813634e-05,0.0939245000481605,0,0,0
2168,74589.35911319352,2010-11-02 11:06:45,36.14030056525712,4,7,0.6319326162338257,4.199653148651123,6.702257446178417,5.903487027894818,26.770751810394056,21.51673893078845,-3.23295607813634e-05,0.0939245000481605,0,0,0
2169,74604.53071233408,2010-11-02 11:07:01,51.31189970079159,4,7,0.581903874874115,4.199491024017334,6.704809005267445,5.903487027894818,26.781467745983523,21.51673893078845,-6.47544875391759e-05,0.0939245000481605,0,0,0
2170,74628.13991389837,2010-11-02 11:07:24,74.9211012650809,4,7,0.5318750739097595,4.199653148651123,6.708448583925695,5.903487027894818,26.796753098947548,21.51673893078845,-3.23295607813634e-05,0.0939245000481605,0,0,0
2171,74669.8424211322,2010-11-02 11:08:06,116.6236085039194,4,7,0.481665700674057,4.199653148651123,6.714292998233002,5.903487027894818,26.821298232714888,21.51673893078845,-3.23295607813634e-05,0.0939245000481605,0,0,0
2172,74745.5915714952,2010-11-02 11:09:22,192.3727588619284,4,7,0.4316369295120239,4.199814796447754,6.723861574212466,5.903487027894818,26.86148397724783,21.51673893078845,0.0,0.0939245000481605,0,0,0
2173,74853.90278162395,2010-11-02 11:11:10,300.6839689956854,4,7,0.3816081583499908,4.199814796447754,6.736072117587528,5.903487027894818,26.91276528384339,21.51673893078845,0.0,0.0939245000481605,0,0,0
2174,74987.35428014025,2010-11-02 11:13:23,434.13546750696935,4,7,0.3315793871879577,4.199653148651123,6.74927643560128,5.903487027894818,26.968220276386862,21.51673893078845,-3.23295607813634e-05,0.0939245000481605,0,0,0
2175,75145.75866663887,2010-11-02 11:16:02,592.5398540055754,4,7,0.2815506160259247,4.199653148651123,6.762743384765981,5.903487027894818,27.024778222587216,21.51673893078845,0.0,0.0939245000481605,0,0,0
2176,75336.94402494132,2010-11-02 11:19:13,783.7252123080305,4,7,0.2311606258153915,4.199653148651123,6.776338558335346,5.903487027894818,27.08187466250904,21.51673893078845,-3.23295607813634e-05,0.0939245000481605,0,0,0
2177,75576.3787696402,2010-11-02 11:23:12,1023.1599570169384,4,7,0.1811318546533584,4.199653148651123,6.790017313867679,5.903487027894818,27.139322045072618,21.51673893078845,-3.23295607813634e-05,0.0939245000481605,0,0,0
2178,75895.48416960666,2010-11-02 11:28:31,1342.2653569833933,4,7,0.1311030983924865,4.199653148651123,6.803784666049754,5.903487027894818,27.19714136952589,21.51673893078845,0.0,0.0939245000481605,0,0,0
2179,76397.21274686953,2010-11-02 11:36:53,1843.993934231216,4,7,0.0810743197798729,4.199814796447754,6.818333942244474,5.903487027894818,27.25824453785241,21.51673893078845,0.0,0.0939245000481605,0,0,0
2180,76948.19053850825,2010-11-02 11:46:04,2394.9717258749724,4,7,0.0498289167881011,4.199653148651123,6.82819126962082,5.903487027894818,27.299642890141296,21.51673893078845,0.0,0.0939245000481605,0,0,0
2181,76978.20963087739,2010-11-02 11:46:34,30.01525562577357,5,7,0.0,4.191882610321045,6.82819126962082,5.903487027894818,27.299642890141296,21.51673893078845,-3.24249267578125e-05,0.0939245000481605,0,0,0
2182,77008.20927797689,2010-11-02 11:47:04,60.014902720251705,5,7,0.0,4.190587520599365,6.82819126962082,5.903487027894818,27.299642890141296,21.51673893078845,-3.24249267578125e-05,0.0939245000481605,0,0,0
2183,77008.39351335421,2010-11-02 11:47:05,0.187502079035747,6,7,-1.9243103452026844e-05,4.190587520599365,6.82819126962082,5.903487028897074,27.299642890141296,21.51673893498849,0.0,0.0947341993451118,0,0,0
2184,77013.221450067,2010-11-02 11:47:09,5.015438796842888,6,7,0.0007031940040178,4.190425872802734,6.828192219101,5.903487029063548,27.29964686908599,21.516738935686117,-6.47544875391759e-05,0.0947341993451118,0,0,0
2185,77043.23105590128,2010-11-02 11:47:40,30.012817008609957,7,7,-1.099929690361023,4.012513160705566,6.828192219101,5.91265440769096,27.29964686908599,21.553723224875213,-0.0009713172912597,0.0947341993451118,0,0,0
2186,77073.24617111658,2010-11-02 11:48:10,60.027932228909854,7,7,-1.099568486213684,3.985640287399292,6.828192219101,5.92182245975436,27.29964686908599,21.590379478228183,-0.0006151676061563,0.0947341993451118,0,0,0
2187,77103.26143689269,2010-11-02 11:48:40,90.04319800502023,7,7,-1.099568486213684,3.967185258865357,6.828192219101,5.930990491822213,27.29964686908599,21.626830852490425,-0.0004532813909463,0.0947341993451118,0,0,0
2188,77133.27674293933,2010-11-02 11:49:10,120.058504051652,7,7,-1.099568486213684,3.95261549949646,6.828192219101,5.940158468724051,27.29964686908599,21.6631324954364,-0.0003561496851034,0.0947341993451118,0,0,0
2189,77163.29199438468,2010-11-02 11:49:40,150.0737555070156,7,7,-1.099568486213684,3.940635919570923,6.828192219101,5.949326466460527,27.29964686908599,21.69931370324005,-0.0002913951757363,0.0947341993451118,0,0,0
2190,77193.3072607773,2010-11-02 11:50:10,180.08902188963987,7,7,-1.0997490882873535,3.929789543151856,6.828192219101,5.958494442662039,27.29964686908599,21.735390987767243,-0.0002913951757363,0.0947341993451118,0,0,0
2191,77223.3225360471,2010-11-02 11:50:40,210.104297159448,7,7,-1.099568486213684,3.919914484024048,6.828192219101,5.967662451481499,27.29964686908599,21.77137432747425,-0.0002590179501567,0.0947341993451118,0,0,0
2192,77253.33782924166,2010-11-02 11:51:10,240.11959035399903,7,7,-1.0993878841400146,3.910849094390869,6.828192219101,5.97683045543915,27.29964686908599,21.807269808748845,-0.0002266406954731,0.0947341993451118,0,0,0
2193,77283.35308625591,2010-11-02 11:51:40,270.1348473682384,7,7,-1.099568486213684,3.9017834663391113,6.828192219101,5.985998456150298,27.29964686908599,21.8430816405922,-0.0002590179501567,0.0947341993451118,0,0,0
2194,77313.36836356079,2010-11-02 11:52:10,300.15012467813887,7,7,-1.099568486213684,3.893203496932984,6.828192219101,5.995166469487941,27.29964686908599,21.87881238091474,-0.0001942634553415,0.0947341993451118,0,0,0
2195,77343.38366802847,2010-11-02 11:52:40,330.1654291608669,7,7,-1.099568486213684,3.8844616413116455,6.828192219101,6.004334479660041,27.29964686908599,21.91446402071671,-0.0002266406954731,0.0947341993451118,0,0,0
2196,77373.39892974445,2010-11-02 11:53:10,360.1806908567926,7,7,-1.099568486213684,3.876043558120728,6.828192219101,6.013502529585919,27.29964686908599,21.95003768720404,-0.0002266406954731,0.0947341993451118,0,0,0
2197,77403.41418518478,2010-11-02 11:53:40,390.1959462971031,7,7,-1.099568486213684,3.86778736114502,6.828192219101,6.022670554754658,27.29964686908599,21.9855343344216,-0.0001942634553415,0.0947341993451118,0,0,0
2198,77433.42946437436,2010-11-02 11:54:10,420.2112254866957,7,7,-1.099568486213684,3.859531164169312,6.828192219101,6.031838546953095,27.29964686908599,22.020954947115,-0.0001942634553415,0.0947341993451118,0,0,0
2199,77463.44473066175,2010-11-02 11:54:40,450.2264917740823,7,7,-1.0993878841400146,3.851598739624024,6.828192219101,6.041006568344435,27.29964686908599,22.056302046254533,-0.0002590179501567,0.0947341993451118,0,0,0
2200,77493.46003944521,2010-11-02 11:55:10,480.2418005876206,7,7,-1.099568486213684,3.843666315078736,6.828192219101,6.050174640221328,27.29964686908599,22.09157709491828,-0.0002266406954731,0.0947341993451118,0,0,0
2201,77523.47528348205,2010-11-02 11:55:40,510.25704459439135,7,7,-1.099568486213684,3.835895776748657,6.828192219101,6.059342704781995,27.29964686908599,22.126780407507862,-0.0001942634553415,0.0947341993451118,0,0,0
2202,77553.49058235578,2010-11-02 11:56:10,540.2723434681185,7,7,-1.099568486213684,3.828287363052368,6.828192219101,6.068510739933738,27.29964686908599,22.16191309818526,-0.0002266406954731,0.0947341993451118,0,0,0
2203,77583.50582903923,2010-11-02 11:56:40,570.2875901515706,7,7,-1.099568486213684,3.82084059715271,6.828192219101,6.077678854640338,27.29964686908599,22.196977301788664,-0.0001942634553415,0.0947341993451118,0,0,0
2204,77613.52111183784,2010-11-02 11:57:10,600.3028729501718,7,7,-1.099568486213684,3.8135557174682617,6.828192219101,6.086846920839467,27.29964686908599,22.231973107187468,-0.0001942634553415,0.0947341993451118,0,0,0
2205,77643.53638346857,2010-11-02 11:57:40,630.3181445808962,7,7,-1.0993878841400146,3.8062708377838135,6.828192219101,6.096014969421375,27.29964686908599,22.266901058425315,-0.0001295089750783,0.0947341993451118,0,0,0
2206,77673.55165667323,2010-11-02 11:58:10,660.3334177855493,7,7,-1.099568486213684,3.798985958099365,6.828192219101,6.105182971160536,27.29964686908599,22.30176239821,-0.0001618862152099,0.0947341993451118,0,0,0
2207,77703.56693405329,2010-11-02 11:58:40,690.3486951656249,7,7,-1.0993878841400146,3.792186737060547,6.828192219101,6.114350989894208,27.29964686908599,22.33655935734576,-0.0001295089750783,0.0947341993451118,0,0,0
2208,77733.58222009499,2010-11-02 11:59:10,720.3639812073214,7,7,-1.0997490882873535,3.785225629806519,6.828192219101,6.123519054776801,27.29964686908599,22.371293074546827,-0.0001618862152099,0.0947341993451118,0,0,0
2209,77763.59749899886,2010-11-02 11:59:40,750.3792601112007,7,7,-1.0993878841400146,3.7784264087677,6.828192219101,6.132686536100935,27.29964686908599,22.405962396012367,-0.0001618862152099,0.0947341993451118,0,0,0
2210,77793.61288414795,2010-11-02 12:00:10,780.3946452602843,7,7,-1.0993878841400146,3.7719509601593018,6.828192219101,6.141854051421413,27.29964686908599,22.44057043137434,-0.0001618862152099,0.0947341993451118,0,0,0
2211,77823.6280301952,2010-11-02 12:00:40,810.4097913075332,7,7,-1.099568486213684,3.765313625335693,6.828192219101,6.151021425853174,27.29964686908599,22.475117966702523,-0.0001942634553415,0.0947341993451118,0,0,0
2212,77853.64331841233,2010-11-02 12:01:10,840.4250795296722,7,7,-1.0993878841400146,3.759161949157715,6.828192219101,6.160188878921261,27.29964686908599,22.50960697017021,-0.0001295089750783,0.0947341993451118,0,0,0
2213,77883.65870855888,2010-11-02 12:01:40,870.4404696712176,7,7,-1.0997490882873535,3.752686738967896,6.828192219101,6.169356947802024,27.29964686908599,22.544041382058417,-0.0001942157687153,0.0947341993451118,0,0,0
2214,77913.67386715746,2010-11-02 12:02:10,900.455628264784,7,7,-1.0993878841400146,3.747020721435547,6.828192219101,6.178524920348768,27.29964686908599,22.57841978269579,-0.0001295089750783,0.0947341993451118,0,0,0
2215,77943.6891615099,2010-11-02 12:02:40,930.470922652313,7,7,-1.099568486213684,3.740869045257568,6.828192219101,6.187692973027017,27.29964686908599,22.61274359075485,-0.0001942634553415,0.0947341993451118,0,0,0
2216,77973.7046459418,2010-11-02 12:03:10,960.4864070541468,7,7,-1.099568486213684,3.7350411415100098,6.828192219101,6.196861175918787,27.29964686908599,22.647013906740742,-0.0001618862152099,0.0947341993451118,0,0,0
2217,78003.71992968778,2010-11-02 12:03:40,990.501690805125,7,7,-1.099568486213684,3.729051351547241,6.828192219101,6.206029267889245,27.29964686908599,22.68123023839351,-0.0001942634553415,0.0947341993451118,0,0,0
2218,78033.73496695349,2010-11-02 12:04:10,1020.516728065826,7,7,-1.0993878841400146,3.723709106445313,6.828192219101,6.215197243066768,27.29964686908599,22.715394091937103,-0.0001295089750783,0.0947341993451118,0,0,0
2219,78063.75025963677,2010-11-02 12:04:40,1050.5320207741634,7,7,-1.099568486213684,3.718204975128174,6.828192219101,6.224365394870916,27.29964686908599,22.749507474752782,-0.0001295089750783,0.0947341993451118,0,0,0
2220,78093.76554444038,2010-11-02 12:05:10,1080.5473055727566,7,7,-1.0997490882873535,3.712700843811035,6.828192219101,6.233533443447221,27.29964686908599,22.78357040059301,-0.0001295089750783,0.0947341993451118,0,0,0
2221,78123.78090955946,2010-11-02 12:05:40,1110.5626706617672,7,7,-1.099568486213684,3.7073585987091056,6.828192219101,6.242701583785899,27.29964686908599,22.81758428213567,-0.0001618862152099,0.0947341993451118,0,0,0
2222,78153.79606796756,2010-11-02 12:06:10,1140.5778291099707,7,7,-1.099568486213684,3.702178239822388,6.828192219101,6.2518696802998,27.29964686908599,22.851550322900312,-0.0001618862152099,0.0947341993451118,0,0,0
2223,78183.81135875109,2010-11-02 12:06:40,1170.593119868441,7,7,-1.099568486213684,3.696997880935669,6.828192219101,6.261037788778244,27.29964686908599,22.88546941065615,-0.0001942634553415,0.0947341993451118,0,0,0
2224,78213.82664853714,2010-11-02 12:07:10,1200.6084096745335,7,7,-1.099568486213684,3.69197940826416,6.828192219101,6.270205990485263,27.29964686908599,22.919341591618384,-0.0001295089750783,0.0947341993451118,0,0,0
2225,78243.8418951053,2010-11-02 12:07:40,1230.6236562426982,7,7,-1.0993878841400146,3.6869609355926514,6.828192219101,6.279374064085142,27.29964686908599,22.953165287071613,-9.713172767078504e-05,0.0947341993451118,0,0,0
2226,78273.85717136259,2010-11-02 12:08:10,1260.638932499971,7,7,-1.099568486213684,3.681618690490722,6.828192219101,6.288542148377064,27.29964686908599,22.986941830831142,-0.0001295089750783,0.0947341993451118,0,0,0
2227,78303.87257077727,2010-11-02 12:08:40,1290.6543318996264,7,7,-1.0993878841400146,3.676762104034424,6.828192219101,6.297710379161421,27.29964686908599,23.02067264385016,-9.713172767078504e-05,0.0947341993451118,0,0,0
2228,78333.88773598234,2010-11-02 12:09:10,1320.669497104696,7,7,-1.099568486213684,3.671581983566284,6.828192219101,6.306878477046447,27.29964686908599,23.05435700219135,-0.0001295089750783,0.0947341993451118,0,0,0
2229,78363.90312363768,2010-11-02 12:09:40,1350.6848847500107,7,7,-1.099568486213684,3.666725397109986,6.828192219101,6.316046635743914,27.29964686908599,23.087996870822693,-0.0001295089750783,0.0947341993451118,0,0,0
2230,78393.9182906673,2010-11-02 12:10:10,1380.700051774622,7,7,-1.099568486213684,3.662030696868897,6.828192219101,6.325214710254204,27.29964686908599,23.121592670515728,-0.0001295089750783,0.0947341993451118,0,0,0
2231,78423.9335580023,2010-11-02 12:10:40,1410.7153191396987,7,7,-1.099568486213684,3.657335996627808,6.828192219101,6.334382863507447,27.29964686908599,23.15514506611266,-9.713172767078504e-05,0.0947341993451118,0,0,0
2232,78453.94886777323,2010-11-02 12:11:10,1440.730628910627,7,7,-1.0997490882873535,3.652641296386719,6.828192219101,6.343550979191821,27.29964686908599,23.18865433283481,-0.0001295089750783,0.0947341993451118,0,0,0
2233,78483.96411024616,2010-11-02 12:11:40,1470.745871383569,7,7,-1.0997490882873535,3.64794659614563,6.828192219101,6.352719075365352,27.29964686908599,23.2221202218248,-0.0001295089750783,0.0947341993451118,0,0,0
2234,78513.9795066283,2010-11-02 12:12:10,1500.761267765692,7,7,-1.0993878841400146,3.643413782119751,6.828192219101,6.361887173999682,27.29964686908599,23.255543297302857,-0.0001295089750783,0.0947341993451118,0,0,0
2235,78543.99467102635,2010-11-02 12:12:40,1530.7764321637474,7,7,-1.099568486213684,3.638719081878662,6.828192219101,6.371055248190485,27.29964686908599,23.28892490008773,-0.0001618862152099,0.0947341993451118,0,0,0
2236,78574.00994698788,2010-11-02 12:13:10,1560.791708125282,7,7,-1.0997490882873535,3.634348154067993,6.828192219101,6.380223359593794,27.29964686908599,23.32226591944204,-0.0001618862152099,0.0947341993451118,0,0,0
2237,78604.0252467388,2010-11-02 12:13:40,1590.8070078611613,7,7,-1.0997490882873535,3.629815340042114,6.828192219101,6.389391454422897,27.29964686908599,23.35556620303464,-0.0001295089750783,0.0947341993451118,0,0,0
2238,78634.04049118166,2010-11-02 12:14:10,1620.822252319058,7,7,-1.099568486213684,3.625930070877075,6.828192219101,6.398559534397503,27.29964686908599,23.388827462818075,-0.0001295089750783,0.0947341993451118,0,0,0
2239,78664.05577044644,2010-11-02 12:14:40,1650.8375315888509,7,7,-1.0997490882873535,3.621721029281616,6.828192219101,6.407727622858047,27.29964686908599,23.422050274436,-9.713172767078504e-05,0.0947341993451118,0,0,0
2240,78694.07107756575,2010-11-02 12:15:10,1680.85283868811,7,7,-1.099568486213684,3.617511987686157,6.828192219101,6.416895747093455,27.29964686908599,23.455235410079275,-0.0001295089750783,0.0947341993451118,0,0,0
2241,78724.0864568101,2010-11-02 12:15:40,1710.8682179224295,7,7,-1.0997490882873535,3.613626718521118,6.828192219101,6.426063949006256,27.29964686908599,23.4883837239586,-9.713172767078504e-05,0.0947341993451118,0,0,0
2242,78754.10173313755,2010-11-02 12:16:10,1740.8834942498777,7,7,-1.099929690361023,3.609741449356079,6.828192219101,6.435232084401918,27.29964686908599,23.521496170373123,-0.0001295089750783,0.0947341993451118,0,0,0
2243,78784.11687216727,2010-11-02 12:16:40,1770.898633304672,7,7,-1.0997490882873535,3.60601806640625,6.828192219101,6.444400178445111,27.29964686908599,23.554573440541205,-6.47544875391759e-05,0.0947341993451118,0,0,0
2244,78814.13217022397,2010-11-02 12:17:10,1800.913931351335,7,7,-1.0993878841400146,3.602294683456421,6.828192219101,6.45356830178032,27.29964686908599,23.587616615474943,-9.713172767078504e-05,0.0947341993451118,0,0,0
2245,78844.1474316091,2010-11-02 12:17:41,1830.9291927465097,7,7,-1.099568486213684,3.598895072937012,6.828192219101,6.462736471246955,27.29964686908599,23.62062675284903,-6.47544875391759e-05,0.0947341993451118,0,0,0
2246,78874.16269942028,2010-11-02 12:18:11,1860.9444605627125,7,7,-1.099568486213684,3.5953335762023926,6.828192219101,6.471904649423008,27.29964686908599,23.653605017300983,-9.713172767078504e-05,0.0947341993451118,0,0,0
2247,78904.17799368752,2010-11-02 12:18:41,1890.9597548249285,7,7,-1.0997490882873535,3.5919342041015625,6.828192219101,6.481072811871814,27.29964686908599,23.68655231911593,-0.0001294612884521,0.0947341993451118,0,0,0
2248,78934.19349520208,2010-11-02 12:19:11,1920.9752563144152,7,7,-1.099568486213684,3.5886964797973637,6.828192219101,6.490241077743825,27.29964686908599,23.719469875009697,-6.47544875391759e-05,0.0947341993451118,0,0,0
2249,78964.2088159805,2010-11-02 12:19:41,1950.9905771880576,7,7,-1.0993878841400146,3.585620641708374,6.828192219101,6.499409285379954,27.29964686908599,23.75235740263452,-6.47544875391759e-05,0.0947341993451118,0,0,0
2250,78994.2238133867,2010-11-02 12:20:11,1981.005574524101,7,7,-1.099568486213684,3.582382917404175,6.828192219101,6.508577394847364,27.29964686908599,23.785215067223582,-6.47544875391759e-05,0.0947341993451118,0,0,0
2251,79024.23910909252,2010-11-02 12:20:41,2011.0208702048576,7,7,-1.099568486213684,3.579307079315185,6.828192219101,6.517745567403865,27.29964686908599,23.818044197572668,-6.47544875391759e-05,0.0947341993451118,0,0,0
2252,79054.25450112879,2010-11-02 12:21:11,2041.0362622411328,7,7,-1.099568486213684,3.5762312412261963,6.828192219101,6.526913788480723,27.29964686908599,23.85084542239061,-6.47544875391759e-05,0.0947341993451118,0,0,0
2253,79084.26962686534,2010-11-02 12:21:41,2071.0513879776827,7,7,-1.099568486213684,3.573155403137207,6.828192219101,6.536081931059872,27.29964686908599,23.88361847844625,-9.713172767078504e-05,0.0947341993451118,0,0,0
2254,79114.28503582887,2010-11-02 12:22:11,2101.066796946224,7,7,-1.099568486213684,3.570241451263428,6.828192219101,6.545250126064909,27.29964686908599,23.91636457559793,-9.713172767078504e-05,0.0947341993451118,0,0,0
2255,79144.30014437251,2010-11-02 12:22:41,2131.081905489857,7,7,-1.0997490882873535,3.5671656131744385,6.828192219101,6.554418212455779,27.29964686908599,23.94908318720088,-9.713172767078504e-05,0.0947341993451118,0,0,0
2256,79174.3153725648,2010-11-02 12:23:11,2161.097133692178,7,7,-1.099568486213684,3.564251661300659,6.828192219101,6.563586420265972,27.29964686908599,23.98177460120984,-9.713172767078504e-05,0.0947341993451118,0,0,0
2257,79204.33068392471,2010-11-02 12:23:41,2191.1124450320226,7,7,-1.0997490882873535,3.56133770942688,6.828192219101,6.572754299700395,27.29964686908599,24.01443778701108,-9.713172767078504e-05,0.0947341993451118,0,0,0
2258,79234.34554643922,2010-11-02 12:24:11,2221.1273076718426,7,7,-1.099568486213684,3.5584237575531006,6.828192219101,6.581917314744736,27.29964686908599,24.04705677070766,-6.47544875391759e-05,0.0947341993451118,0,0,0
2259,79264.34562244432,2010-11-02 12:24:41,2251.127383556647,7,7,-1.099568486213684,3.5551860332489014,6.828192219101,6.591085476102021,27.29964686908599,24.07966637175848,-9.713172767078504e-05,0.0947341993451118,0,0,0
2260,79294.36087083204,2010-11-02 12:25:11,2281.142631969416,7,7,-1.099568486213684,3.552272081375122,6.828192219101,6.600253647871714,27.29964686908599,24.11224794344437,-9.713172767078504e-05,0.0947341993451118,0,0,0
2261,79324.3762330639,2010-11-02 12:25:41,2311.1579941762325,7,7,-1.099568486213684,3.5493581295013428,6.828192219101,6.60942186683293,27.29964686908599,24.144802253093147,-3.237724376958795e-05,0.0947341993451118,0,0,0
2262,79354.39148669971,2010-11-02 12:26:11,2341.173247837101,7,7,-1.099568486213684,3.546120405197144,6.828192219101,6.618590066154945,27.29964686908599,24.17732839383536,-6.47544875391759e-05,0.0947341993451118,0,0,0
2263,79384.40690463061,2010-11-02 12:26:41,2371.1886657429504,7,7,-1.099568486213684,3.5430445671081543,6.828192219101,6.627758317115161,27.29964686908599,24.20982618809436,-9.713172767078504e-05,0.0947341993451118,0,0,0
2264,79414.4220365927,2010-11-02 12:27:11,2401.203797730104,7,7,-1.0997490882873535,3.539968729019165,6.828192219101,6.636926392649822,27.29964686908599,24.242294697915263,-6.47544875391759e-05,0.0947341993451118,0,0,0
2265,79444.43748398717,2010-11-02 12:27:41,2431.219245124561,7,7,-1.1002910137176514,3.536245346069336,6.828192219101,6.646094618625241,27.29964686908599,24.274733907319536,-0.0001295089750783,0.0947341993451118,0,0,0
2266,79474.4526020646,2010-11-02 12:28:11,2461.234363207005,7,7,-1.099568486213684,3.5333313941955566,6.828192219101,6.655262819144639,27.29964686908599,24.30714266005878,-3.237724376958795e-05,0.0947341993451118,0,0,0
2267,79504.46801993035,2010-11-02 12:28:41,2491.24978104268,7,7,-1.099568486213684,3.5299317836761475,6.828192219101,6.664431077136464,27.29964686908599,24.33952106978007,-6.47544875391759e-05,0.0947341993451118,0,0,0
2268,79534.48314000276,2010-11-02 12:29:11,2521.2649011451663,7,7,-1.0997490882873535,3.5263702869415283,6.828192219101,6.673599221268744,27.29964686908599,24.371867659263167,-0.0001295089750783,0.0947341993451118,0,0,0
2269,79564.498430265,2010-11-02 12:29:41,2551.280191377323,7,7,-1.099568486213684,3.522970676422119,6.828192219101,6.682767443091728,27.29964686908599,24.40418276199548,-9.713172767078504e-05,0.0947341993451118,0,0,0
2270,79594.51370853228,2010-11-02 12:30:11,2581.295469644613,7,7,-1.099568486213684,3.51924729347229,6.828192219101,6.691935594911702,27.29964686908599,24.43646430929401,-9.713172767078504e-05,0.0947341993451118,0,0,0
2271,79624.5289742382,2010-11-02 12:30:41,2611.3107353505484,7,7,-1.099568486213684,3.515523910522461,6.828192219101,6.701103776901491,27.29964686908599,24.468711654304013,-9.713172767078504e-05,0.0947341993451118,0,0,0
2272,79654.5442381196,2010-11-02 12:31:11,2641.3259992569915,7,7,-1.0993878841400146,3.511476993560791,6.828192219101,6.710271966324223,27.29964686908599,24.50092270274645,-3.237724376958795e-05,0.0947341993451118,0,0,0
2273,79684.55953513368,2010-11-02 12:31:41,2671.3412962460143,7,7,-1.099568486213684,3.507267951965332,6.828192219101,6.719440187812989,27.29964686908599,24.53309627945861,-6.47544875391759e-05,0.0947341993451118,0,0,0
2274,79714.57479846368,2010-11-02 12:32:11,2701.356559601081,7,7,-1.099568486213684,3.502897024154663,6.828192219101,6.728608385332351,27.29964686908599,24.565230426848284,-6.47544875391759e-05,0.0947341993451118,0,0,0
2275,79744.59020131195,2010-11-02 12:32:41,2731.371962429295,7,7,-1.099568486213684,3.4980404376983643,6.828192219101,6.737776612940116,27.29964686908599,24.59732186957885,-9.713172767078504e-05,0.0947341993451118,0,0,0
2276,79774.60534068756,2010-11-02 12:33:11,2761.38710182494,7,7,-1.099929690361023,3.4922125339508057,6.828192219101,6.746944771984511,27.29964686908599,24.629366801268677,-0.0001942634553415,0.0947341993451118,0,0,0
2277,79804.62064128056,2010-11-02 12:33:41,2791.402402417959,7,7,-1.0997490882873535,3.486546516418457,6.828192219101,6.756112993841724,27.29964686908599,24.661360619630152,-0.0001942634553415,0.0947341993451118,0,0,0
2278,79834.6358930066,2010-11-02 12:34:11,2821.41765414901,7,7,-1.0993878841400146,3.480232954025269,6.828192219101,6.765281158884426,27.29964686908599,24.693296965846567,-0.0001618862152099,0.0947341993451118,0,0,0
2279,79864.65128963433,2010-11-02 12:34:41,2851.433050746672,7,7,-1.099568486213684,3.4724624156951904,6.828192219101,6.774449349961429,27.29964686908599,24.72516906898036,-0.0002266406954731,0.0947341993451118,0,0,0
2280,79894.66644205751,2010-11-02 12:35:11,2881.448203169836,7,7,-1.099568486213684,3.4640443325042725,6.828192219101,6.783617544112705,27.29964686908599,24.756968213569127,-0.0002266406954731,0.0947341993451118,0,0,0
2281,79924.68206291996,2010-11-02 12:35:41,2911.463824032296,7,7,-1.0997490882873535,3.454169273376465,6.828192219101,6.792785854113292,27.29964686908599,24.78868298271167,-0.0002590179501567,0.0947341993451118,0,0,0
2282,79954.69721694713,2010-11-02 12:36:11,2941.4789780644765,7,7,-1.0997490882873535,3.4420278072357178,6.828192219101,6.801954031456797,27.29964686908599,24.82029678211656,-0.0003561496851034,0.0947341993451118,0,0,0
2283,79984.71227512004,2010-11-02 12:36:41,2971.494036257427,7,7,-1.099568486213684,3.4274582862854004,6.828192219101,6.811122170446473,27.29964686908599,24.85178843396953,-0.0003885269106831,0.0947341993451118,0,0,0
2284,80014.72756266047,2010-11-02 12:37:11,3001.509323772802,7,7,-1.099568486213684,3.409003257751465,6.828192219101,6.820290443692713,27.29964686908599,24.883130189186996,-0.0005504131549969,0.0947341993451118,0,0,0
2285,80044.74282583008,2010-11-02 12:37:41,3031.5245869674686,7,7,-1.0997490882873535,3.3855297565460205,6.828192219101,6.829458681338818,27.29964686908599,24.91428134997523,-0.0007122993702068,0.0947341993451118,0,0,0
2286,80074.75821427739,2010-11-02 12:38:11,3061.5399754147857,7,7,-1.0997490882873535,3.355095148086548,6.828192219101,6.838626866998181,27.29964686908599,24.945187696072235,-0.0009389400365762,0.0947341993451118,0,0,0
2287,80104.77345655985,2010-11-02 12:38:41,3091.555217727327,7,7,-1.099568486213684,3.314138174057007,6.828192219101,6.847795131388085,27.29964686908599,24.97577050344472,-0.0012627125252038,0.0947341993451118,0,0,0
2288,80134.78863799544,2010-11-02 12:39:11,3121.570399132835,7,7,-1.0997490882873535,3.2573163509368896,6.828192219101,6.856963301071564,27.29964686908599,25.005909035751017,-0.0017159938579425,0.0947341993451118,0,0,0
2289,80164.80394177642,2010-11-02 12:39:41,3151.585702918824,7,7,-1.0997490882873535,3.1758878231048584,6.828192219101,6.866131505334241,27.29964686908599,25.035423817364308,-0.0025254250504076,0.0947341993451118,0,0,0
2290,80194.8192204046,2010-11-02 12:40:11,3181.600981542003,7,7,-1.0997490882873535,3.049293041229248,6.828192219101,6.875299708795817,27.29964686908599,25.0640089544049,-0.0041766641661524,0.0947341993451118,0,0,0
2291,80219.50639892522,2010-11-02 12:40:36,3206.2881600626174,7,7,-1.099568486213684,2.8488786220550537,6.828192219101,6.882840456743876,27.29964686908599,25.086341663662747,-0.00870943069458,0.0947341993451118,0,0,0
2292,80231.13129055819,2010-11-02 12:40:48,3217.913051695579,7,7,-1.099568486213684,2.699620008468628,6.828192219101,6.886391282830511,27.29964686908599,25.096201745022796,-0.0109110828489065,0.0947341993451118,0,0,0
2293,80291.14919914525,2010-11-02 12:41:48,60.01491268011305,8,7,0.0,3.334697723388672,6.828192219101,6.886391282830511,27.29964686908599,25.096201745022796,0.0012303352123126,0.0947341993451118,0,0,0
2294,80291.34065187818,2010-11-02 12:41:48,0.187746599396185,9,7,-1.9243103452026844e-05,3.3351833820343018,6.828192219101,6.886391283834074,27.29964686908599,25.09620174836986,0.0,0.0931989923119545,0,0,0
2295,80296.1684646967,2010-11-02 12:41:53,5.015559417931683,9,7,0.0007031940040178,3.34279203414917,6.828193075345395,6.886391284000024,27.29964972863307,25.09620174892359,0.0011332035064697,0.0931989923119545,0,0,0
