Data_Point,Test_Time(s),Date_Time,Step_Time(s),Step_Index,Cycle_Index,Current(A),Voltage(V),Charge_Capacity(Ah),Discharge_Capacity(Ah),Charge_Energy(Wh),Discharge_Energy(Wh),dV/dt(V/s),Internal_Resistance(Ohm),Is_FC_Data,AC_Impedance(Ohm),ACI_Phase_Angle(Deg)
8561,299003.5411268947,2010-11-05 01:27:23,30.01543240704682,1,27,0.0,3.337935447692871,25.50844477330355,25.57104650027317,101.89938630694678,93.2171067562985,0.0007122993702068,0.0932833403348922,0,0,0
8562,299033.556347874,2010-11-05 01:27:53,60.03065338633744,1,27,0.0,3.3609230518341064,25.50844477330355,25.57104650027317,101.89938630694678,93.2171067562985,0.0005504131549969,0.0932833403348922,0,0,0
8563,299063.57179555914,2010-11-05 01:28:23,90.04610107152084,1,27,0.0,3.378568649291992,25.50844477330355,25.57104650027317,101.89938630694678,93.2171067562985,0.0004209041653666,0.0932833403348922,0,0,0
8564,299093.5401328245,2010-11-05 01:28:53,120.01443833684851,1,27,0.0,3.392490863800049,25.50844477330355,25.57104650027317,101.89938630694678,93.2171067562985,0.0003237724304199,0.0932833403348922,0,0,0
8565,299123.55500169,2010-11-05 01:29:23,30.015343515159,2,27,0.5501165986061096,3.5555098056793213,25.513031515764364,25.57104650027317,101.9155157256078,93.2171067562985,0.0017807483673095,0.0932833403348922,0,0,0
8566,299153.5703309395,2010-11-05 01:29:53,60.03067276470883,2,27,0.5501165986061096,3.609255790710449,25.5176183192874,25.57104650027317,101.93195463644068,93.2171067562985,0.0012303352123126,0.0932833403348922,0,0,0
8567,299183.5858073664,2010-11-05 01:30:23,90.04614919163603,2,27,0.550297200679779,3.6489179134368896,25.522205167468904,25.57104650027317,101.9486045027581,93.2171067562985,0.0009389400365762,0.0932833403348922,0,0,0
8568,299213.600982411,2010-11-05 01:30:53,120.06132423626669,2,27,0.550297200679779,3.680323600769043,25.526791885368127,25.57104650027317,101.96541537050766,93.2171067562985,0.0007770538213662,0.0932833403348922,0,0,0
8569,299243.6164405022,2010-11-05 01:31:23,150.076782327425,2,27,0.550297200679779,3.705901622772217,25.53137861575293,25.57104650027317,101.98235631158586,93.2171067562985,0.0006151676061563,0.0932833403348922,0,0,0
8570,299273.6316725892,2010-11-05 01:31:53,180.09201441444222,2,27,0.550297200679779,3.7277562618255615,25.53596531649941,25.57104650027317,101.99940528514594,93.2171067562985,0.0005827903514727,0.0932833403348922,0,0,0
8571,299303.6470096533,2010-11-05 01:32:23,210.10735147849823,2,27,0.550297200679779,3.745563745498657,25.540552112239475,25.57104650027317,102.01654524454234,93.2171067562985,0.0004532813909463,0.0932833403348922,0,0,0
8572,299333.6623157551,2010-11-05 01:32:53,240.12265758026768,2,27,0.5499359965324402,3.759485721588135,25.545138851912352,25.57104650027317,102.03375869088782,93.2171067562985,0.0003237724304199,0.0932833403348922,0,0,0
8573,299363.67764762614,2010-11-05 01:33:23,270.1379894513613,2,27,0.5501165986061096,3.768065690994263,25.549725553462167,25.57104650027317,102.0510237789488,93.2171067562985,0.0001618862152099,0.0932833403348922,0,0,0
8574,299393.69300915627,2010-11-05 01:33:53,300.1533509814884,2,27,0.5501165986061096,3.773246049880981,25.554312333577133,25.57104650027317,102.0683201840018,93.2171067562985,6.47544875391759e-05,0.0932833403348922,0,0,0
8575,299423.70832791465,2010-11-05 01:34:23,330.1686697398506,2,27,0.550297200679779,3.77745509147644,25.5588991115988,25.57104650027317,102.08563730854992,93.2171067562985,0.0001295089750783,0.0932833403348922,0,0,0
8576,299453.7236447933,2010-11-05 01:34:53,360.18398661852086,2,27,0.5501165986061096,3.78101658821106,25.56348590634627,25.57104650027317,102.10297206659766,93.2171067562985,9.713172767078504e-05,0.0932833403348922,0,0,0
8577,299483.7391006439,2010-11-05 01:35:23,390.1994424690863,2,27,0.550297200679779,3.7847399711608887,25.568072676478884,25.57104650027317,102.1203232597666,93.2171067562985,0.0001295089750783,0.0932833403348922,0,0,0
8578,299513.7544758732,2010-11-05 01:35:53,420.2148177034212,2,27,0.5501165986061096,3.788301467895508,25.572659435673305,25.57104650027317,102.13769048970808,93.2171067562985,9.713172767078504e-05,0.0932833403348922,0,0,0
8579,299543.7696408126,2010-11-05 01:36:23,450.2299826378152,2,27,0.5501165986061096,3.791377305984497,25.577246182578307,25.57104650027317,102.15507325132351,93.2171067562985,6.47544875391759e-05,0.0932833403348922,0,0,0
8580,299573.7850974,2010-11-05 01:36:53,480.2454392252199,2,27,0.5501165986061096,3.794776916503906,25.58183295433245,25.57104650027317,102.17247124119709,93.2171067562985,9.713172767078504e-05,0.0932833403348922,0,0,0
8581,299603.80032405345,2010-11-05 01:37:23,510.2606658786741,2,27,0.5499359965324402,3.797852754592896,25.586419685720657,25.57104650027317,102.18988394314124,93.2171067562985,9.713172767078504e-05,0.0932833403348922,0,0,0
8582,299633.8156526564,2010-11-05 01:37:53,540.2759944816099,2,27,0.5501165986061096,3.801090478897095,25.591006457334306,25.57104650027317,102.20731127258831,93.2171067562985,9.713172767078504e-05,0.0932833403348922,0,0,0
8583,299663.8310054948,2010-11-05 01:38:23,570.2913473200412,2,27,0.5501165986061096,3.804166316986084,25.59559320080328,25.57104650027317,102.22475267068448,93.2171067562985,6.47544875391759e-05,0.0932833403348922,0,0,0
8584,299693.84634222806,2010-11-05 01:38:53,600.306684088359,2,27,0.550297200679779,3.807242155075073,25.600179982210808,25.57104650027317,102.24220825283516,93.2171067562985,9.713172767078504e-05,0.0932833403348922,0,0,0
8585,299723.86176791834,2010-11-05 01:39:23,630.3221097435521,2,27,0.550297200679779,3.810156106948853,25.604766791707306,25.57104650027317,102.25967783503634,93.2171067562985,9.713172767078504e-05,0.0932833403348922,0,0,0
8586,299753.8769864615,2010-11-05 01:39:53,660.337328286762,2,27,0.5501165986061096,3.813231945037842,25.60935363662878,25.57104650027317,102.277161423823,93.2171067562985,9.713172767078504e-05,0.0932833403348922,0,0,0
8587,299783.89230692416,2010-11-05 01:40:23,690.3526487493783,2,27,0.5501165986061096,3.816307783126831,25.613940390782748,25.57104650027317,102.29465884618,93.2171067562985,6.47544875391759e-05,0.0932833403348922,0,0,0
8588,299813.9076638478,2010-11-05 01:40:54,720.3680056730069,2,27,0.5499359965324402,3.8195455074310303,25.618527168330424,25.57104650027317,102.31217034093166,93.2171067562985,9.713172767078504e-05,0.0932833403348922,0,0,0
8589,299843.9229742102,2010-11-05 01:41:24,750.3833160354116,2,27,0.5501165986061096,3.8224594593048096,25.62311393412022,25.57104650027317,102.32969615918958,93.2171067562985,9.713172767078504e-05,0.0932833403348922,0,0,0
8590,299873.9383203068,2010-11-05 01:41:54,780.3986621320141,2,27,0.5501165986061096,3.825697183609009,25.62770068285381,25.57104650027317,102.34723659692776,93.2171067562985,9.713172767078504e-05,0.0932833403348922,0,0,0
8591,299903.9536489398,2010-11-05 01:42:24,810.4139907499873,2,27,0.5501165986061096,3.829096794128418,25.632287443924884,25.57104650027317,102.36479227766344,93.2171067562985,9.713172767078504e-05,0.0932833403348922,0,0,0
8592,299933.9689669062,2010-11-05 01:42:54,840.4293087314103,2,27,0.5499359965324402,3.832496404647827,25.63687419426836,25.57104650027317,102.38236347405108,93.2171067562985,6.47544875391759e-05,0.0932833403348922,0,0,0
8593,299963.98429854173,2010-11-05 01:43:24,870.4446403669158,2,27,0.5501165986061096,3.836057662963867,25.641460964800725,25.57104650027317,102.39995041599948,93.2171067562985,0.0001295089750783,0.0932833403348922,0,0,0
8594,299993.9999845919,2010-11-05 01:43:54,900.4603264170951,2,27,0.5501165986061096,3.839457273483277,25.64604776851728,25.57104650027317,102.41755333453732,93.2171067562985,9.713172767078504e-05,0.0932833403348922,0,0,0
8595,300024.0149839429,2010-11-05 01:44:24,930.4753257681676,2,27,0.5501165986061096,3.842694997787476,25.65063445499099,25.57104650027317,102.43517160313388,93.2171067562985,3.237724376958795e-05,0.0932833403348922,0,0,0
8596,300054.03040628985,2010-11-05 01:44:54,960.4907481151024,2,27,0.5501165986061096,3.846256494522095,25.655221231068342,25.57104650027317,102.452805700866,93.2171067562985,9.713172767078504e-05,0.0932833403348922,0,0,0
8597,300084.04560714395,2010-11-05 01:45:24,990.5059489641452,2,27,0.550297200679779,3.849656105041504,25.65980795804228,25.57104650027317,102.47045501858553,93.2171067562985,0.0001295089750783,0.0932833403348922,0,0,0
8598,300114.0611266033,2010-11-05 01:45:54,1020.5214684285004,2,27,0.550297200679779,3.852893829345703,25.66439476395904,25.57104650027317,102.48811981241693,93.2171067562985,9.713172767078504e-05,0.0932833403348922,0,0,0
8599,300144.0763235827,2010-11-05 01:46:24,1050.5366654078834,2,27,0.550297200679779,3.855969667434693,25.668981511287893,25.57104650027317,102.50579917647852,93.2171067562985,3.237724376958795e-05,0.0932833403348922,0,0,0
8600,300174.0917750924,2010-11-05 01:46:54,1080.5521169176136,2,27,0.5501165986061096,3.859207391738892,25.67356829620747,25.57104650027317,102.52349324113102,93.2171067562985,9.713172767078504e-05,0.0932833403348922,0,0,0
8601,300204.1070137909,2010-11-05 01:47:24,1110.567355616134,2,27,0.5499359965324402,3.862121343612671,25.678154980851662,25.57104650027317,102.5412010962917,93.2171067562985,6.47544875391759e-05,0.0932833403348922,0,0,0
8602,300234.12247037835,2010-11-05 01:47:54,1140.5828122035389,2,27,0.5497553944587708,3.86503529548645,25.68274172577808,25.57104650027317,102.55892290461992,93.2171067562985,6.47544875391759e-05,0.0932833403348922,0,0,0
8603,300264.1376543051,2010-11-05 01:48:24,1170.5979961303408,2,27,0.5501165986061096,3.8679492473602295,25.687328405305816,25.57104650027317,102.57665769372092,93.2171067562985,6.47544875391759e-05,0.0932833403348922,0,0,0
8604,300294.1530117901,2010-11-05 01:48:54,1200.613353615371,2,27,0.5501165986061096,3.870701313018799,25.691915124467805,25.57104650027317,102.59440536911536,93.2171067562985,6.47544875391759e-05,0.0932833403348922,0,0,0
8605,300324.16831870395,2010-11-05 01:49:24,1230.6286605291668,2,27,0.5501165986061096,3.873453378677368,25.69650195263204,25.57104650027317,102.61216568090995,93.2171067562985,9.713172767078504e-05,0.0932833403348922,0,0,0
8606,300354.18379355693,2010-11-05 01:49:54,1260.6441353821654,2,27,0.5501165986061096,3.8758816719055176,25.7010887769766,25.57104650027317,102.62993744981544,93.2171067562985,0.0001295089750783,0.0932833403348922,0,0,0
8607,300384.19898931833,2010-11-05 01:50:24,1290.659331143508,2,27,0.5499359965324402,3.877986192703247,25.705675565737067,25.57104650027317,102.64772004139397,93.2171067562985,3.237724376958795e-05,0.0932833403348922,0,0,0
8608,300414.214369084,2010-11-05 01:50:54,1320.6747109943667,2,27,0.5501165986061096,3.880090713500977,25.710262355452496,25.57104650027317,102.66551290617384,93.2171067562985,6.47544875391759e-05,0.0932833403348922,0,0,0
8609,300444.2296752058,2010-11-05 01:51:24,1350.6900170309734,2,27,0.5501165986061096,3.882357120513916,25.714849051609985,25.57104650027317,102.68331503353832,93.2171067562985,9.713172767078504e-05,0.0932833403348922,0,0,0
8610,300474.2451292919,2010-11-05 01:51:54,1380.7054711171347,2,27,0.550297200679779,3.8841378688812256,25.719435831430093,25.57104650027317,102.70112658453832,93.2171067562985,6.47544875391759e-05,0.0932833403348922,0,0,0
8611,300504.26031815604,2010-11-05 01:52:24,1410.720659981261,2,27,0.550297200679779,3.886080503463745,25.724022580555467,25.57104650027317,102.71894635819136,93.2171067562985,6.47544875391759e-05,0.0932833403348922,0,0,0
8612,300534.27577041264,2010-11-05 01:52:54,1440.7361122378554,2,27,0.5501165986061096,3.8876993656158447,25.72860936393645,25.57104650027317,102.73677414070794,93.2171067562985,6.47544875391759e-05,0.0932833403348922,0,0,0
8613,300564.2909749058,2010-11-05 01:53:24,1470.7513167309935,2,27,0.5501165986061096,3.889318227767944,25.73319610265928,25.57104650027317,102.75460919855232,93.2171067562985,9.713172767078504e-05,0.0932833403348922,0,0,0
8614,300594.3063018045,2010-11-05 01:53:54,1500.7666436597508,2,27,0.5501165986061096,3.890775203704834,25.73778284953904,25.57104650027317,102.7724512370574,93.2171067562985,6.47544875391759e-05,0.0932833403348922,0,0,0
8615,300624.3216252746,2010-11-05 01:54:24,1530.7819671248617,2,27,0.5501165986061096,3.8920702934265137,25.74236955899195,25.57104650027317,102.790299871823,93.2171067562985,3.237724376958795e-05,0.0932833403348922,0,0,0
8616,300654.3369962132,2010-11-05 01:54:54,1560.7973380634735,2,27,0.5501165986061096,3.8935272693634033,25.74695634153359,25.57104650027317,102.80815527946751,93.2171067562985,3.237724376958795e-05,0.0932833403348922,0,0,0
8617,300684.35244585323,2010-11-05 01:55:24,1590.812787673462,2,27,0.5501165986061096,3.894822359085083,25.751543169595177,25.57104650027317,102.82601718673617,93.2171067562985,3.237724376958795e-05,0.0932833403348922,0,0,0
8618,300714.3677910476,2010-11-05 01:55:54,1620.8281328828498,2,27,0.550297200679779,3.8961174488067623,25.756129971326978,25.57104650027317,102.84388462179552,93.2171067562985,6.47544875391759e-05,0.0932833403348922,0,0,0
8619,300744.38295528025,2010-11-05 01:56:24,1650.8432971054672,2,27,0.5499359965324402,3.897250652313232,25.760716801269485,25.57104650027317,102.86175844785896,93.2171067562985,0.0,0.0932833403348922,0,0,0
8620,300774.3989094647,2010-11-05 01:56:54,1680.8592513300507,2,27,0.5501165986061096,3.898707628250122,25.76530370134829,25.57104650027317,102.87963854362592,93.2171067562985,3.237724376958795e-05,0.0932833403348922,0,0,0
8621,300804.41362947354,2010-11-05 01:57:24,1710.8739713037544,2,27,0.5501165986061096,3.9000027179718018,25.76989042261952,25.57104650027317,102.8975239791464,93.2171067562985,3.237724376958795e-05,0.0932833403348922,0,0,0
8622,300834.4289777255,2010-11-05 01:57:54,1740.8893195507246,2,27,0.550297200679779,3.9014596939086914,25.77447722945281,25.57104650027317,102.91541566215923,93.2171067562985,3.237724376958795e-05,0.0932833403348922,0,0,0
8623,300864.4443553859,2010-11-05 01:58:24,1770.904697241191,2,27,0.550297200679779,3.902754783630371,25.779063965119857,25.57104650027317,102.93331308867036,93.2171067562985,3.237724376958795e-05,0.0932833403348922,0,0,0
8624,300894.4598568503,2010-11-05 01:58:54,1800.92019867554,2,27,0.550297200679779,3.904049873352051,25.78365076888051,25.57104650027317,102.95121683640816,93.2171067562985,6.47544875391759e-05,0.0932833403348922,0,0,0
8625,300924.4749616697,2010-11-05 01:59:24,1830.9353034948776,2,27,0.5501165986061096,3.905183076858521,25.78823754230514,25.57104650027317,102.96912656353132,93.2171067562985,0.0,0.0932833403348922,0,0,0
8626,300954.4905201364,2010-11-05 01:59:54,1860.9508619615888,2,27,0.5501165986061096,3.9064781665802,25.792824397155822,25.57104650027317,102.98704253252129,93.2171067562985,0.0,0.0932833403348922,0,0,0
8627,300984.50562452467,2010-11-05 02:00:24,1890.96596634985,2,27,0.5501165986061096,3.90793514251709,25.79741116531765,25.57104650027317,103.00496434120082,93.2171067562985,3.237724376958795e-05,0.0932833403348922,0,0,0
8628,301014.52096447087,2010-11-05 02:00:54,1920.981306296101,2,27,0.5501165986061096,3.9092302322387695,25.801997920382306,25.57104650027317,103.02289218059413,93.2171067562985,3.237724376958795e-05,0.0932833403348922,0,0,0
8629,301044.5362901866,2010-11-05 02:01:24,1950.9966320118297,2,27,0.5499359965324402,3.910687208175659,25.806584706466747,25.57104650027317,103.04082635192783,93.2171067562985,3.237724376958795e-05,0.0932833403348922,0,0,0
8630,301074.5516547793,2010-11-05 02:01:54,1981.011996604601,2,27,0.550297200679779,3.911982297897339,25.811171453325063,25.57104650027317,103.058766517866,93.2171067562985,6.47544875391759e-05,0.0932833403348922,0,0,0
8631,301104.56697129214,2010-11-05 02:02:24,2011.0273131173583,2,27,0.550297200679779,3.913439273834229,25.815758297622168,25.57104650027317,103.0767133159668,93.2171067562985,6.47544875391759e-05,0.0932833403348922,0,0,0
8632,301134.582292667,2010-11-05 02:02:54,2041.042634492252,2,27,0.5501165986061096,3.914734125137329,25.82034509216525,25.57104650027317,103.09466623654365,93.2171067562985,3.237724376958795e-05,0.0932833403348922,0,0,0
8633,301164.5976360268,2010-11-05 02:03:24,2071.0579778520228,2,27,0.550297200679779,3.9161911010742183,25.82493193423493,25.57104650027317,103.11262555098943,93.2171067562985,6.47544875391759e-05,0.0932833403348922,0,0,0
8634,301194.6129777074,2010-11-05 02:03:54,2101.0733195326025,2,27,0.5499359965324402,3.9174861907958975,25.829518701357262,25.57104650027317,103.13059099840544,93.2171067562985,-3.237724376958795e-05,0.0932833403348922,0,0,0
8635,301224.62829441566,2010-11-05 02:04:24,2131.088636240848,2,27,0.5499359965324402,3.918781280517578,25.834105494429373,25.57104650027317,103.14856291950127,93.2171067562985,0.0,0.0932833403348922,0,0,0
8636,301254.64365164,2010-11-05 02:04:54,2161.1039934652267,2,27,0.5501165986061096,3.920238256454468,25.838692311844408,25.57104650027317,103.166541425084,93.2171067562985,3.237724376958795e-05,0.0932833403348922,0,0,0
8637,301284.65898738574,2010-11-05 02:05:24,2191.119329210992,2,27,0.5501165986061096,3.921857118606568,25.843279089707003,25.57104650027317,103.18452617952477,93.2171067562985,6.47544875391759e-05,0.0932833403348922,0,0,0
8638,301314.6745002387,2010-11-05 02:05:54,2221.1348421089565,2,27,0.5501165986061096,3.923152208328247,25.84786588117141,25.57104650027317,103.20251756537712,93.2171067562985,3.237724376958795e-05,0.0932833403348922,0,0,0
8639,301344.68962518324,2010-11-05 02:06:24,2251.149967008417,2,27,0.5501165986061096,3.9246091842651367,25.85245269312836,25.57104650027317,103.22051561265728,93.2171067562985,3.237724376958795e-05,0.0932833403348922,0,0,0
8640,301374.70495887886,2010-11-05 02:06:54,2281.165300704065,2,27,0.5501165986061096,3.9260661602020255,25.857039540159075,25.57104650027317,103.23852044995078,93.2171067562985,6.47544875391759e-05,0.0932833403348922,0,0,0
8641,301404.7204286642,2010-11-05 02:07:24,2311.180770484402,2,27,0.5501165986061096,3.927523136138916,25.861626353300817,25.57104650027317,103.25653175783468,93.2171067562985,3.237724376958795e-05,0.0932833403348922,0,0,0
8642,301434.7356378089,2010-11-05 02:07:54,2341.195979634164,2,27,0.550297200679779,3.9289801120758057,25.86621376197652,25.57104650027317,103.27455222757624,93.2171067562985,3.237724376958795e-05,0.0932833403348922,0,0,0
8643,301464.7509535097,2010-11-05 02:08:24,2371.2112953348937,2,27,0.5504778623580933,3.930598974227905,25.87080127961772,25.57104650027317,103.29257994628952,93.2171067562985,6.47544875391759e-05,0.0932833403348922,0,0,0
8644,301494.76631500974,2010-11-05 02:08:54,2401.226656834945,2,27,0.5504778623580933,3.932217836380005,25.875388794200767,25.57104650027317,103.31061445363513,93.2171067562985,9.713172767078504e-05,0.0932833403348922,0,0,0
8645,301524.78162349743,2010-11-05 02:09:24,2431.241965322671,2,27,0.550297200679779,3.933512926101685,25.87997624636212,25.57104650027317,103.3286556008086,93.2171067562985,6.47544875391759e-05,0.0932833403348922,0,0,0
8646,301554.7969763008,2010-11-05 02:09:54,2461.257318131027,2,27,0.5499359965324402,3.934808015823364,25.884563062842386,25.57104650027317,103.3467011685124,93.2171067562985,3.237724376958795e-05,0.0932833403348922,0,0,0
8647,301584.81229510927,2010-11-05 02:10:24,2491.2726369595644,2,27,0.5501165986061096,3.936426877975464,25.889149912876263,25.57104650027317,103.36475386986966,93.2171067562985,3.237724376958795e-05,0.0932833403348922,0,0,0
8648,301614.82763404807,2010-11-05 02:10:54,2521.2879758983,2,27,0.5501165986061096,3.938045740127564,25.89373669276711,25.57104650027317,103.3828133149536,93.2171067562985,3.237724376958795e-05,0.0932833403348922,0,0,0
8649,301644.8431056529,2010-11-05 02:11:24,2551.3034474881533,2,27,0.5501165986061096,3.939502716064453,25.898323450490885,25.57104650027317,103.40087979874936,93.2171067562985,0.0,0.0932833403348922,0,0,0
8650,301674.8583309279,2010-11-05 02:11:54,2581.318672778204,2,27,0.5501165986061096,3.9411215782165527,25.90291021063211,25.57104650027317,103.4189535286442,93.2171067562985,0.0,0.0932833403348922,0,0,0
8651,301704.8736445986,2010-11-05 02:12:24,2611.3339864488667,2,27,0.5501165986061096,3.942740440368652,25.90749695834293,25.57104650027317,103.43703436069372,93.2171067562985,6.47544875391759e-05,0.0932833403348922,0,0,0
8652,301734.8889620236,2010-11-05 02:12:55,2641.3493038739007,2,27,0.5499359965324402,3.944197416305542,25.912083707892428,25.57104650027317,103.45512251382924,93.2171067562985,3.237724376958795e-05,0.0932833403348922,0,0,0
8653,301764.9042849574,2010-11-05 02:13:25,2671.3646267826225,2,27,0.5499359965324402,3.945978164672852,25.91667046319725,25.57104650027317,103.47321800756852,93.2171067562985,3.237724376958795e-05,0.0932833403348922,0,0,0
8654,301794.91965778574,2010-11-05 02:13:55,2701.379999631002,2,27,0.5501165986061096,3.947435140609741,25.92125730974557,25.57104650027317,103.49132125140768,93.2171067562985,0.0,0.0932833403348922,0,0,0
8655,301824.9349370254,2010-11-05 02:14:25,2731.395278850669,2,27,0.5499359965324402,3.949054002761841,25.925843973489044,25.57104650027317,103.50943122479994,93.2171067562985,0.0,0.0932833403348922,0,0,0
8656,301854.9502756233,2010-11-05 02:14:55,2761.410617448554,2,27,0.5499359965324402,3.9508347511291504,25.930430752726945,25.57104650027317,103.52754923853942,93.2171067562985,3.237724376958795e-05,0.0932833403348922,0,0,0
8657,301884.96564623615,2010-11-05 02:15:25,2791.4259880914283,2,27,0.5501165986061096,3.95245361328125,25.935017542418606,25.57104650027317,103.54567490804034,93.2171067562985,3.237724376958795e-05,0.0932833403348922,0,0,0
8658,301914.9811981866,2010-11-05 02:15:55,2821.441540036861,2,27,0.5501165986061096,3.9540724754333496,25.9396042310612,25.57104650027317,103.56380784022868,93.2171067562985,0.0,0.0932833403348922,0,0,0
8659,301944.9963123743,2010-11-05 02:16:25,2851.456654224584,2,27,0.550297200679779,3.956015110015869,25.944190860253592,25.57104650027317,103.58194826785008,93.2171067562985,9.713172767078504e-05,0.0932833403348922,0,0,0
8660,301975.0117683702,2010-11-05 02:16:55,2881.4721101954497,2,27,0.5501165986061096,3.957472085952759,25.948777587763708,25.57104650027317,103.60009685373154,93.2171067562985,0.0,0.0932833403348922,0,0,0
8661,302005.02697613154,2010-11-05 02:17:25,2911.487317981808,2,27,0.5501165986061096,3.9594147205352783,25.953364218843447,25.57104650027317,103.61825293647128,93.2171067562985,6.47544875391759e-05,0.0932833403348922,0,0,0
8662,302035.0423284035,2010-11-05 02:17:55,2941.5026702538257,2,27,0.550297200679779,3.961195468902588,25.95795088514074,25.57104650027317,103.6364170980774,93.2171067562985,6.47544875391759e-05,0.0932833403348922,0,0,0
8663,302065.0576487208,2010-11-05 02:18:25,2971.5179905610544,2,27,0.5501165986061096,3.9629762172698975,25.962537601523348,25.57104650027317,103.65458950203774,93.2171067562985,6.47544875391759e-05,0.0932833403348922,0,0,0
8664,302095.0730990175,2010-11-05 02:18:55,3001.533440842719,2,27,0.5499359965324402,3.964433193206787,25.96712433434907,25.57104650027317,103.67277004853426,93.2171067562985,-3.237724376958795e-05,0.0932833403348922,0,0,0
8665,302125.0883603976,2010-11-05 02:19:25,3031.5487022278685,2,27,0.5499359965324402,3.966375827789306,25.97171100900998,25.57104650027317,103.6909585219032,93.2171067562985,3.237724376958795e-05,0.0932833403348922,0,0,0
8666,302155.1036642939,2010-11-05 02:19:55,3061.5640061441827,2,27,0.5501165986061096,3.968156576156616,25.97629778063437,25.57104650027317,103.70915556251012,93.2171067562985,3.237724376958795e-05,0.0932833403348922,0,0,0
8667,302185.1189846663,2010-11-05 02:20:25,3091.579326511561,2,27,0.550297200679779,3.970099210739136,25.980884402200747,25.57104650027317,103.72736023638042,93.2171067562985,9.713172767078504e-05,0.0932833403348922,0,0,0
8668,302215.13445560954,2010-11-05 02:20:55,3121.594797439763,2,27,0.5501165986061096,3.971879959106445,25.985471100254436,25.57104650027317,103.7455735502888,93.2171067562985,3.237724376958795e-05,0.0932833403348922,0,0,0
8669,302245.14965320047,2010-11-05 02:21:25,3151.609995055735,2,27,0.5501165986061096,3.973660707473755,25.990057820832305,25.57104650027317,103.76379541063704,93.2171067562985,6.47544875391759e-05,0.0932833403348922,0,0,0
8670,302275.1650022394,2010-11-05 02:21:55,3181.6253440946825,2,27,0.5501165986061096,3.9756033420562735,25.99464457558141,25.57104650027317,103.78202587970378,93.2171067562985,6.47544875391759e-05,0.0932833403348922,0,0,0
8671,302305.1803159401,2010-11-05 02:22:25,3211.64065779542,2,27,0.550297200679779,3.977384090423584,25.999231335772137,25.57104650027317,103.80026498575964,93.2171067562985,3.237724376958795e-05,0.0932833403348922,0,0,0
8672,302335.1956642021,2010-11-05 02:22:55,3241.656006047403,2,27,0.5501165986061096,3.979326725006104,26.003817459880946,25.57104650027317,103.81850967707202,93.2171067562985,6.47544875391759e-05,0.0932833403348922,0,0,0
8673,302365.21094635414,2010-11-05 02:23:25,3271.671288169315,2,27,0.5501165986061096,3.981269359588623,26.00840326508362,25.57104650027317,103.83676224284562,93.2171067562985,6.47544875391759e-05,0.0932833403348922,0,0,0
8674,302395.22630496195,2010-11-05 02:23:55,3301.686646792185,2,27,0.5501165986061096,3.9830501079559326,26.01298919806554,25.57104650027317,103.8550241548961,93.2171067562985,6.47544875391759e-05,0.0932833403348922,0,0,0
8675,302425.2416198557,2010-11-05 02:24:25,3331.7019617059505,2,27,0.5499359965324402,3.985154628753662,26.017575021756222,25.57104650027317,103.87329454133857,93.2171067562985,9.713172767078504e-05,0.0932833403348922,0,0,0
8676,302455.25707179646,2010-11-05 02:24:55,3361.7174136216945,2,27,0.5501165986061096,3.9870972633361816,26.02216086545234,25.57104650027317,103.89157403688556,93.2171067562985,6.47544875391759e-05,0.0932833403348922,0,0,0
8677,302485.27228511666,2010-11-05 02:25:25,3391.732626951892,2,27,0.5501165986061096,3.989201784133911,26.026746666532237,25.57104650027317,103.90986247224156,93.2171067562985,6.47544875391759e-05,0.0932833403348922,0,0,0
8678,302515.28776918264,2010-11-05 02:25:55,3421.748111007862,2,27,0.550297200679779,3.991144418716431,26.03133291833147,25.57104650027317,103.92816198290836,93.2171067562985,6.47544875391759e-05,0.0932833403348922,0,0,0
8679,302545.3029971193,2010-11-05 02:26:25,3451.763338934494,2,27,0.5499359965324402,3.99308705329895,26.035919563451145,25.57104650027317,103.94647253562566,93.2171067562985,-3.237724376958795e-05,0.0932833403348922,0,0,0
8680,302575.31840905524,2010-11-05 02:26:55,3481.778750880467,2,27,0.550297200679779,3.995353221893311,26.04050629653284,25.57104650027317,103.96479282073324,93.2171067562985,6.47544875391759e-05,0.0932833403348922,0,0,0
8681,302605.3337469514,2010-11-05 02:27:25,3511.7940887766,2,27,0.550297200679779,3.99745774269104,26.045093000881568,25.57104650027317,103.98312255825972,93.2171067562985,9.713172767078504e-05,0.0932833403348922,0,0,0
8682,302635.3491136795,2010-11-05 02:27:55,3541.809455504702,2,27,0.550297200679779,3.99940037727356,26.049679737150846,25.57104650027317,104.00146199181688,93.2171067562985,6.47544875391759e-05,0.0932833403348922,0,0,0
8683,302665.364307902,2010-11-05 02:28:25,3571.8246497572786,2,27,0.5501165986061096,4.001504898071289,26.05426642701505,25.57104650027317,104.01981099869488,93.2171067562985,6.47544875391759e-05,0.0932833403348922,0,0,0
8684,302695.37975055963,2010-11-05 02:28:55,3601.8400924149128,2,27,0.550297200679779,4.0037713050842285,26.058853130507945,25.57104650027317,104.03816995020044,93.2171067562985,9.70840483205393e-05,0.0932833403348922,0,0,0
8685,302725.3949540152,2010-11-05 02:29:25,3631.8552958403866,2,27,0.5501165986061096,4.005876064300537,26.063439851306683,25.57104650027317,104.05653886442296,93.2171067562985,6.47544875391759e-05,0.0932833403348922,0,0,0
8686,302755.4103095704,2010-11-05 02:29:55,3661.8706514256746,2,27,0.5501165986061096,4.008142471313477,26.06802662754912,25.57104650027317,104.07491806820558,93.2171067562985,6.47544875391759e-05,0.0932833403348922,0,0,0
8687,302785.4256772408,2010-11-05 02:30:25,3691.8860190961286,2,27,0.5501165986061096,4.010246753692627,26.072613338631147,25.57104650027317,104.0933070843368,93.2171067562985,3.23295607813634e-05,0.0932833403348922,0,0,0
8688,302815.44117782306,2010-11-05 02:30:55,3721.901519653288,2,27,0.550297200679779,4.012675285339356,26.077200025360607,25.57104650027317,104.11170635152833,93.2171067562985,9.71794142969884e-05,0.0932833403348922,0,0,0
8689,302845.4562918704,2010-11-05 02:31:25,3751.9166337257234,2,27,0.550297200679779,4.014779567718506,26.0817867075868,25.57104650027317,104.1301159347954,93.2171067562985,3.23295607813634e-05,0.0932833403348922,0,0,0
8690,302875.4718443021,2010-11-05 02:31:55,3781.9321861272942,2,27,0.5501165986061096,4.017045974731445,26.086373402104037,25.57104650027317,104.14853603933793,93.2171067562985,3.23295607813634e-05,0.0932833403348922,0,0,0
8691,302905.4869637229,2010-11-05 02:32:25,3811.9473055731423,2,27,0.550297200679779,4.019312381744385,26.090960067142845,25.57104650027317,104.16696649857148,93.2171067562985,3.23295607813634e-05,0.0932833403348922,0,0,0
8692,302935.50229450123,2010-11-05 02:32:55,3841.9626363565208,2,27,0.5501165986061096,4.021902561187744,26.095546768696856,25.57104650027317,104.1854076396936,93.2171067562985,9.70840483205393e-05,0.0932833403348922,0,0,0
8693,302965.5177707377,2010-11-05 02:33:25,3871.9781125729214,2,27,0.5501165986061096,4.024007320404053,26.10013357993821,25.57104650027317,104.2038599815305,93.2171067562985,3.24249267578125e-05,0.0932833403348922,0,0,0
8694,302995.5329722083,2010-11-05 02:33:55,3901.993314033491,2,27,0.550297200679779,4.026435375213623,26.104720335179337,25.57104650027317,104.22232285483211,93.2171067562985,6.47544875391759e-05,0.0932833403348922,0,0,0
8695,303025.5484334022,2010-11-05 02:34:25,3932.0087752273935,2,27,0.5501165986061096,4.0287017822265625,26.10930708026863,25.57104650027317,104.24079657302238,93.2171067562985,3.23295607813634e-05,0.0932833403348922,0,0,0
8696,303055.56363001064,2010-11-05 02:34:55,3962.023971835851,2,27,0.550297200679779,4.031130313873291,26.11389377674877,25.57104650027317,104.25928099996608,93.2171067562985,6.47544875391759e-05,0.0932833403348922,0,0,0
8697,303085.578958388,2010-11-05 02:35:25,3992.039300238287,2,27,0.5499359965324402,4.03372049331665,26.118480387400336,25.57104650027317,104.27777611368654,93.2171067562985,6.47544875391759e-05,0.0932833403348922,0,0,0
8698,303115.5943123342,2010-11-05 02:35:55,4022.0546541844833,2,27,0.5501165986061096,4.035986423492432,26.123067124560123,25.57104650027317,104.29628297520328,93.2171067562985,3.23295607813634e-05,0.0932833403348922,0,0,0
8699,303145.609627248,2010-11-05 02:36:25,4052.0699690982497,2,27,0.5501165986061096,4.038576602935791,26.12765385022215,25.57104650027317,104.31480110968468,93.2171067562985,6.47544875391759e-05,0.0932833403348922,0,0,0
8700,303175.62493146,2010-11-05 02:36:55,4082.085273315314,2,27,0.5501165986061096,4.04100513458252,26.13224055764921,25.57104650027317,104.33333048703636,93.2171067562985,6.47544875391759e-05,0.0932833403348922,0,0,0
8701,303205.6402984989,2010-11-05 02:37:25,4112.100640324116,2,27,0.5501165986061096,4.04343318939209,26.13682725052811,25.57104650027317,104.35187123784657,93.2171067562985,6.47544875391759e-05,0.0932833403348922,0,0,0
8702,303235.6557655073,2010-11-05 02:37:55,4142.116107342559,2,27,0.5501165986061096,4.046185493469238,26.1414140169856,25.57104650027317,104.37042387626082,93.2171067562985,9.71794142969884e-05,0.0932833403348922,0,0,0
8703,303265.67094556446,2010-11-05 02:38:25,4172.131287389677,2,27,0.550297200679779,4.048775672912598,26.146000677774836,25.57104650027317,104.38898776425869,93.2171067562985,6.47544875391759e-05,0.0932833403348922,0,0,0
8704,303295.6864216455,2010-11-05 02:38:55,4202.14676347074,2,27,0.5501165986061096,4.051365852355957,26.15058739920961,25.57104650027317,104.40756369551902,93.2171067562985,9.71794142969884e-05,0.0932833403348922,0,0,0
8705,303325.701756093,2010-11-05 02:39:25,4232.1620979232775,2,27,0.5501165986061096,4.053793907165527,26.15517410608696,25.57104650027317,104.42615141978408,93.2171067562985,3.23295607813634e-05,0.0932833403348922,0,0,0
8706,303355.7169712528,2010-11-05 02:39:55,4262.177313078029,2,27,0.5501165986061096,4.056546211242676,26.159760864585703,25.57104650027317,104.4447514194782,93.2171067562985,6.47544875391759e-05,0.0932833403348922,0,0,0
8707,303385.73230369535,2010-11-05 02:40:25,4292.192645515537,2,27,0.550297200679779,4.059136390686035,26.164347642942342,25.57104650027317,104.46336364784872,93.2171067562985,6.47544875391759e-05,0.0932833403348922,0,0,0
8708,303415.74763034337,2010-11-05 02:40:55,4322.207972168606,2,27,0.5501165986061096,4.0617265701293945,26.16893448592513,25.57104650027317,104.48198816295287,93.2171067562985,9.71794142969884e-05,0.0932833403348922,0,0,0
8709,303445.76301958767,2010-11-05 02:41:25,4352.223361528199,2,27,0.5499359965324402,4.064478397369385,26.173521132763465,25.57104650027317,104.5006240891525,93.2171067562985,9.70840483205393e-05,0.0932833403348922,0,0,0
8710,303475.7783114389,2010-11-05 02:41:55,4382.238653264109,2,27,0.550297200679779,4.067230701446533,26.17810785757929,25.57104650027317,104.5192727258218,93.2171067562985,9.71794142969884e-05,0.0932833403348922,0,0,0
8711,303505.7936300068,2010-11-05 02:42:25,4412.253971837008,2,27,0.5499359965324402,4.069820880889893,26.18269455591929,25.57104650027317,104.53793383593322,93.2171067562985,3.24249267578125e-05,0.0932833403348922,0,0,0
8712,303535.80897025374,2010-11-05 02:42:55,4442.269312104059,2,27,0.550297200679779,4.072896480560303,26.18728129741733,25.57104650027317,104.55660778076684,93.2171067562985,0.0001295089750783,0.0932833403348922,0,0,0
8713,303565.8244244001,2010-11-05 02:43:25,4472.284766235334,2,27,0.550297200679779,4.075486660003662,26.19186809177152,25.57104650027317,104.57529480766006,93.2171067562985,9.70840483205393e-05,0.0932833403348922,0,0,0
8714,303595.8396652841,2010-11-05 02:43:55,4502.300007109285,2,27,0.550297200679779,4.078400611877441,26.196454798754697,25.57104650027317,104.59399441808496,93.2171067562985,6.47544875391759e-05,0.0932833403348922,0,0,0
8715,303625.85497354623,2010-11-05 02:44:25,4532.315315371447,2,27,0.5501165986061096,4.08115291595459,26.201041560212893,25.57104650027317,104.61270729977548,93.2171067562985,6.47544875391759e-05,0.0932833403348922,0,0,0
8716,303655.87032238964,2010-11-05 02:44:56,4562.3306642149055,2,27,0.550297200679779,4.084066867828369,26.20562835780564,25.57104650027317,104.63143336977394,93.2171067562985,9.71794142969884e-05,0.0932833403348922,0,0,0
8717,303685.88565893244,2010-11-05 02:45:26,4592.3460007827225,2,27,0.5499359965324402,4.086818695068359,26.210215030178546,25.57104650027317,104.65017219852936,93.2171067562985,6.47544875391759e-05,0.0932833403348922,0,0,0
8718,303715.90111144463,2010-11-05 02:45:56,4622.361453279918,2,27,0.550297200679779,4.089894771575928,26.21480173260082,25.57104650027317,104.66892453519442,93.2171067562985,9.71794142969884e-05,0.0932833403348922,0,0,0
8719,303745.91629257455,2010-11-05 02:46:26,4652.376634399713,2,27,0.5501165986061096,4.092808723449707,26.21938840629296,25.57104650027317,104.68769020890268,93.2171067562985,9.71794142969884e-05,0.0932833403348922,0,0,0
8720,303775.93175766314,2010-11-05 02:46:56,4682.392099493351,2,27,0.5501165986061096,4.095884323120117,26.223975114366684,25.57104650027317,104.70646952858483,93.2171067562985,9.70840483205393e-05,0.0932833403348922,0,0,0
8721,303805.9469848078,2010-11-05 02:47:26,4712.407326633019,2,27,0.5501165986061096,4.098636627197266,26.22856181788977,25.57104650027317,104.72526247370564,93.2171067562985,9.71794142969884e-05,0.0932833403348922,0,0,0
8722,303835.9625311543,2010-11-05 02:47:56,4742.422872979476,2,27,0.550297200679779,4.101712226867676,26.23314859775942,25.57104650027317,104.7440695131808,93.2171067562985,6.47544875391759e-05,0.0932833403348922,0,0,0
8723,303865.9776518783,2010-11-05 02:48:26,4772.437993733589,2,27,0.550297200679779,4.104949951171875,26.23773528302373,25.57104650027317,104.76289001143614,93.2171067562985,9.70840483205393e-05,0.0932833403348922,0,0,0
8724,303895.9930982201,2010-11-05 02:48:56,4802.453440050356,2,27,0.5501165986061096,4.107863903045654,26.242321971819905,25.57104650027317,104.78172475811986,93.2171067562985,6.47544875391759e-05,0.0932833403348922,0,0,0
8725,303926.00830570573,2010-11-05 02:49:26,4832.4686475259405,2,27,0.5501165986061096,4.1111016273498535,26.2469086234499,25.57104650027317,104.80057357326,93.2171067562985,6.47544875391759e-05,0.0932833403348922,0,0,0
8726,303956.0237801928,2010-11-05 02:49:56,4862.48412202305,2,27,0.5499359965324402,4.114015579223633,26.25149537127843,25.57104650027317,104.81943701158949,93.2171067562985,6.47544875391759e-05,0.0932833403348922,0,0,0
8727,303986.0389820093,2010-11-05 02:50:26,4892.499323834495,2,27,0.5501165986061096,4.117414951324463,26.25608205506381,25.57104650027317,104.83831457878092,93.2171067562985,6.47544875391759e-05,0.0932833403348922,0,0,0
8728,304016.05435393035,2010-11-05 02:50:56,4922.514695755559,2,27,0.5501165986061096,4.120328903198242,26.26066875777261,25.57104650027317,104.85720674610252,93.2171067562985,6.47544875391759e-05,0.0932833403348922,0,0,0
8729,304046.06970144046,2010-11-05 02:51:26,4952.53004326569,2,27,0.5499359965324402,4.123728752136231,26.26525552680992,25.57104650027317,104.87611382827234,93.2171067562985,6.47544875391759e-05,0.0932833403348922,0,0,0
8730,304076.08512207813,2010-11-05 02:51:56,4982.545463918396,2,27,0.550297200679779,4.12696647644043,26.269842221046144,25.57104650027317,104.8950353306194,93.2171067562985,6.47544875391759e-05,0.0932833403348922,0,0,0
8731,304106.1003159999,2010-11-05 02:52:26,5012.560657850172,2,27,0.5499359965324402,4.130204200744629,26.27442891565086,25.57104650027317,104.91397167737732,93.2171067562985,9.71794142969884e-05,0.0932833403348922,0,0,0
8732,304136.11565189605,2010-11-05 02:52:56,5042.575993721251,2,27,0.5501165986061096,4.133279800415039,26.279015706313167,25.57104650027317,104.93292353834046,93.2171067562985,9.70840483205393e-05,0.0932833403348922,0,0,0
8733,304166.1309898623,2010-11-05 02:53:26,5072.591331687559,2,27,0.550297200679779,4.136841297149658,26.283602417524207,25.57104650027317,104.95189016741404,93.2171067562985,9.70840483205393e-05,0.0932833403348922,0,0,0
8734,304196.1463661192,2010-11-05 02:53:56,5102.606707974522,2,27,0.5501165986061096,4.140241146087647,26.28818916902044,25.57104650027317,104.97087219275352,93.2171067562985,0.0001295089750783,0.0932833403348922,0,0,0
8735,304226.1622692713,2010-11-05 02:54:26,5132.622611096545,2,27,0.5499359965324402,4.143478870391846,26.292776027649413,25.57104650027317,104.98987008408312,93.2171067562985,6.47544875391759e-05,0.0932833403348922,0,0,0
8736,304256.1771810588,2010-11-05 02:54:56,5162.6375229943205,2,27,0.5499359965324402,4.147040367126465,26.297362686585988,25.57104650027317,105.0088828180836,93.2171067562985,9.71794142969884e-05,0.0932833403348922,0,0,0
8737,304286.19232726144,2010-11-05 02:55:26,5192.652669091694,2,27,0.5501165986061096,4.150439739227295,26.301949375389352,25.57104650027317,105.0279113500828,93.2171067562985,0.0001295089750783,0.0932833403348922,0,0,0
8738,304316.2078046608,2010-11-05 02:55:56,5222.668146491049,2,27,0.5501165986061096,4.153839588165283,26.306536078426717,25.57104650027317,105.04695564307336,93.2171067562985,9.71794142969884e-05,0.0932833403348922,0,0,0
8739,304346.22299420164,2010-11-05 02:56:26,5252.683336026852,2,27,0.5501165986061096,4.157238960266113,26.31112282671892,25.57104650027317,105.06601588665072,93.2171067562985,9.70840483205393e-05,0.0932833403348922,0,0,0
8740,304376.2383311404,2010-11-05 02:56:56,5282.698672965595,2,27,0.5501165986061096,4.160800457000732,26.31570951598683,25.57104650027317,105.0850917778742,93.2171067562985,0.0001295089750783,0.0932833403348922,0,0,0
8741,304406.25366751273,2010-11-05 02:57:26,5312.714009337925,2,27,0.5499359965324402,4.164038181304932,26.32029625103271,25.57104650027317,105.10418381093268,93.2171067562985,6.47544875391759e-05,0.0932833403348922,0,0,0
8742,304436.2691535887,2010-11-05 02:57:56,5342.72949541895,2,27,0.550297200679779,4.167923450469971,26.32488294907864,25.57104650027317,105.12329153762406,93.2171067562985,0.0001295089750783,0.0932833403348922,0,0,0
8743,304466.2843449942,2010-11-05 02:58:26,5372.744686819407,2,27,0.5501165986061096,4.17116117477417,26.329469579565018,25.57104650027317,105.1424151064199,93.2171067562985,9.70840483205393e-05,0.0932833403348922,0,0,0
8744,304496.29984270426,2010-11-05 02:58:56,5402.76018456956,2,27,0.5499359965324402,4.174722671508789,26.334056278924177,25.57104650027317,105.16155519930882,93.2171067562985,9.70840483205393e-05,0.0932833403348922,0,0,0
8745,304526.3151316231,2010-11-05 02:59:26,5432.775473448338,2,27,0.5497553944587708,4.178122520446777,26.33864295185485,25.57104650027317,105.18071144288211,93.2171067562985,6.47544875391759e-05,0.0932833403348922,0,0,0
8746,304556.33035043697,2010-11-05 02:59:56,5462.790692287287,2,27,0.5499359965324402,4.181845664978027,26.343229659596027,25.57104650027317,105.19988431081067,93.2171067562985,9.70840483205393e-05,0.0932833403348922,0,0,0
8747,304586.3456752805,2010-11-05 03:00:26,5492.806017135851,2,27,0.5499359965324402,4.185569286346436,26.34781637549237,25.57104650027317,105.21907386574404,93.2171067562985,0.0001295089750783,0.0932833403348922,0,0,0
8748,304616.36101972306,2010-11-05 03:00:56,5522.8213615582745,2,27,0.550297200679779,4.1892924308776855,26.3524029968293,25.57104650027317,105.23827986759385,93.2171067562985,9.70840483205393e-05,0.0932833403348922,0,0,0
8749,304646.3763860702,2010-11-05 03:01:26,5552.8367278954,2,27,0.5501165986061096,4.193016052246094,26.356989724284936,25.57104650027317,105.25750324602927,93.2171067562985,0.0001295089750783,0.0932833403348922,0,0,0
8750,304676.39169099403,2010-11-05 03:01:56,5582.852032824242,2,27,0.550297200679779,4.196577072143555,26.36157643351317,25.57104650027317,105.27674342356752,93.2171067562985,9.70840483205393e-05,0.0932833403348922,0,0,0
8751,304702.57896439725,2010-11-05 03:02:22,5609.039306247518,2,27,0.550297200679779,4.200138568878174,26.365578151246016,25.57104650027317,105.29354359541448,93.2171067562985,0.0001295089750783,0.0932833403348922,0,0,0
8752,304732.6016620792,2010-11-05 03:02:52,30.01559812069357,3,27,0.0,4.116119861602783,26.365578151246016,25.57104650027317,105.29354359541448,93.2171067562985,-0.0003885269106831,0.0932833403348922,0,0,0
8753,304762.6167467582,2010-11-05 03:03:22,60.03068278973283,3,27,0.0,4.105921268463135,26.365578151246016,25.57104650027317,105.29354359541448,93.2171067562985,-0.0002266883820993,0.0932833403348922,0,0,0
8754,304792.63221056364,2010-11-05 03:03:52,90.04614659515484,3,27,0.0,4.100093364715576,26.365578151246016,25.57104650027317,105.29354359541448,93.2171067562985,-0.0001295089750783,0.0932833403348922,0,0,0
8755,304822.6008094069,2010-11-05 03:04:22,120.01474543842129,3,27,0.0,4.096208095550537,26.365578151246016,25.57104650027317,105.29354359541448,93.2171067562985,-9.71794142969884e-05,0.0932833403348922,0,0,0
8756,304822.6089471777,2010-11-05 03:04:23,0.01574646058816,4,27,0.9810503721237184,4.199653148651123,26.365582442376905,25.57104650027317,105.29356161667582,93.2171067562985,0.0,0.0932833403348922,0,0,0
8757,304823.5931846809,2010-11-05 03:04:24,0.999983963817375,4,27,0.9302991628646852,4.199814796447754,26.36584199985879,25.57104650027317,105.29465167636756,93.2171067562985,3.23295607813634e-05,0.0932833403348922,0,0,0
8758,304825.79660309723,2010-11-05 03:04:26,3.203402410247117,4,27,0.8797285556793213,4.199653148651123,26.366394832056155,25.57104650027317,105.29697340675476,93.2171067562985,0.0,0.0932833403348922,0,0,0
8759,304829.15587407444,2010-11-05 03:04:29,6.56267338240454,4,27,0.8296997547149658,4.199814796447754,26.36719126794284,25.57104650027317,105.30031820391916,93.2171067562985,3.23295607813634e-05,0.0932833403348922,0,0,0
8760,304833.7025597063,2010-11-05 03:04:34,11.109358989169118,4,27,0.7796710133552551,4.199653148651123,26.36820643081891,25.57104650027317,105.30458157361193,93.2171067562985,0.0,0.0932833403348922,0,0,0
8761,304839.7493208223,2010-11-05 03:04:40,17.156120105185636,4,27,0.7296422123908997,4.199814796447754,26.369472403032,25.57104650027317,105.30989825795572,93.2171067562985,3.23295607813634e-05,0.0932833403348922,0,0,0
8762,304847.68693972524,2010-11-05 03:04:48,25.09373900813955,4,27,0.679613471031189,4.199814796447754,26.371023598289547,25.57104650027317,105.31641279659048,93.2171067562985,3.23295607813634e-05,0.0932833403348922,0,0,0
8763,304858.3741598008,2010-11-05 03:04:58,35.7809590886482,4,27,0.6294040679931641,4.199491024017334,26.37296317498883,25.57104650027317,105.3245584225253,93.2171067562985,-3.24249267578125e-05,0.0932833403348922,0,0,0
8764,304873.51474305586,2010-11-05 03:05:13,50.921542343773496,4,27,0.5793753266334534,4.199814796447754,26.375499388282737,25.57104650027317,105.33520972925044,93.2171067562985,3.23295607813634e-05,0.0932833403348922,0,0,0
8765,304897.3269975565,2010-11-05 03:05:37,74.73379684944342,4,27,0.5293465256690979,4.199653148651123,26.37915378584631,25.57104650027317,105.3505570946274,93.2171067562985,3.24249267578125e-05,0.0932833403348922,0,0,0
8766,304938.8889875277,2010-11-05 03:06:19,116.29578683560118,4,27,0.4791371822357178,4.199814796447754,26.384949466043317,25.57104650027317,105.37489716500528,93.2171067562985,0.0,0.0932833403348922,0,0,0
8767,305011.8883957212,2010-11-05 03:07:32,189.29519502411787,4,27,0.4291084110736847,4.199653148651123,26.394124207158296,25.57104650027317,105.41342830744703,93.2171067562985,0.0,0.0932833403348922,0,0,0
8768,305115.73097550607,2010-11-05 03:09:16,293.13777490929283,4,27,0.3790796399116516,4.199491024017334,26.4057596860495,25.57104650027317,105.46229391114292,93.2171067562985,-6.47544875391759e-05,0.0932833403348922,0,0,0
8769,305241.870550341,2010-11-05 03:11:22,419.2773496338938,4,27,0.3290508687496185,4.199653148651123,26.418151604591447,25.57104650027317,105.51433639964576,93.2171067562985,0.0,0.0932833403348922,0,0,0
8770,305391.41598586,2010-11-05 03:13:51,568.8227851529394,4,27,0.2790220975875854,4.199653148651123,26.43076351864688,25.57104650027317,105.56730275246264,93.2171067562985,-3.23295607813634e-05,0.0932833403348922,0,0,0
8771,305571.69535851944,2010-11-05 03:16:52,749.1021578023605,4,27,0.2289933264255523,4.199814796447754,26.44345876471687,25.57104650027317,105.62061903996218,93.2171067562985,3.23295607813634e-05,0.0932833403348922,0,0,0
8772,305796.6932507786,2010-11-05 03:20:37,974.1000502068624,4,27,0.1789645552635193,4.199814796447754,26.456154234490125,25.57104650027317,105.67393625057127,93.2171067562985,3.23295607813634e-05,0.0932833403348922,0,0,0
8773,306105.90894377,2010-11-05 03:25:46,1283.3157430528513,4,27,0.1289357841014862,4.199653148651123,26.469265575308995,25.57104650027317,105.729000044206,93.2171067562985,-3.23295607813634e-05,0.0932833403348922,0,0,0
8774,306604.5760042961,2010-11-05 03:34:05,1781.9828035789335,4,27,0.0789070129394531,4.199491024017334,26.483363673627757,25.57104650027317,105.78820795958326,93.2171067562985,-6.47544875391759e-05,0.0932833403348922,0,0,0
8775,307114.3210783231,2010-11-05 03:42:34,2291.727877611037,4,27,0.0498289167881011,4.199653148651123,26.49236498940123,25.57104650027317,105.82601081381917,93.2171067562985,0.0,0.0932833403348922,0,0,0
8776,307144.3355947675,2010-11-05 03:43:04,30.015342688094517,5,27,0.0,4.191720962524414,26.49236498940123,25.57104650027317,105.82601081381917,93.2171067562985,-6.47544875391759e-05,0.0932833403348922,0,0,0
8777,307174.33530570625,2010-11-05 03:43:34,60.01505364698806,5,27,0.0,4.190749645233154,26.49236498940123,25.57104650027317,105.82601081381917,93.2171067562985,-3.23295607813634e-05,0.0932833403348922,0,0,0
8778,307174.5225837814,2010-11-05 03:43:35,0.187536785668843,6,27,-1.9243103452026844e-05,4.190587520599365,26.49236498940123,25.571046501275607,105.82601081381917,93.21710676049932,0.0,0.0931148082017898,0,0,0
8779,307179.3507636712,2010-11-05 03:43:40,5.015716700533254,6,27,0.0005225847125984,4.190749645233154,26.492365806884848,25.571046501442453,105.82601423977538,93.21710676119852,0.0,0.0931148082017898,0,0,0
8780,307209.36587629013,2010-11-05 03:44:10,30.015452422007243,7,27,-1.0997490882873535,4.017693519592285,26.492365806884848,25.58021564707437,105.82601423977538,93.25413710961642,-0.0009065627818927,0.0931148082017898,0,0,0
8781,307239.3810870088,2010-11-05 03:44:40,60.03066316574835,7,27,-1.099929690361023,3.9917919635772714,26.492365806884848,25.589384733147465,105.82601423977538,93.2908484510508,-0.000615119934082,0.0931148082017898,0,0,0
8782,307269.39656226785,2010-11-05 03:45:10,90.04613839969771,7,27,-1.0997490882873535,3.973822593688965,26.492365806884848,25.5985537892022,105.82601423977538,93.32736384303196,-0.0004532813909463,0.0931148082017898,0,0,0
8783,307299.41179301654,2010-11-05 03:45:40,120.0613691483742,7,27,-1.0997490882873535,3.959900379180908,26.492365806884848,25.60772276552228,105.82601423977538,93.3637343455971,-0.0003561496851034,0.0931148082017898,0,0,0
8784,307329.42710166465,2010-11-05 03:46:10,150.0766778265748,7,27,-1.0997490882873535,3.947920799255371,26.492365806884848,25.616891748962537,105.82601423977538,93.39998706216932,-0.0003561496851034,0.0931148082017898,0,0,0
8785,307359.4424531748,2010-11-05 03:46:40,180.09202930661536,7,27,-1.099929690361023,3.9372363090515137,26.492365806884848,25.626060776547263,105.82601423977538,93.43613690859044,-0.0002913951757363,0.0931148082017898,0,0,0
8786,307389.45778172754,2010-11-05 03:47:10,210.10735785942603,7,27,-1.099568486213684,3.927523136138916,26.492365806884848,25.635229741704656,105.82601423977538,93.47219254494368,-0.0002266406954731,0.0931148082017898,0,0,0
8787,307419.4731054634,2010-11-05 03:47:40,240.12268159521267,7,27,-1.0997490882873535,3.9178099632263184,26.492365806884848,25.64439880767322,105.82601423977538,93.50815992723984,-0.0002913951757363,0.0931148082017898,0,0,0
8788,307449.48843885824,2010-11-05 03:48:10,270.1380149901099,7,27,-1.0997490882873535,3.9089064598083496,26.492365806884848,25.653567889585847,105.82601423977538,93.5440428467982,-0.0002266406954731,0.0931148082017898,0,0,0
8789,307479.50378088467,2010-11-05 03:48:40,300.1533570165529,7,27,-1.099568486213684,3.900164604187012,26.492365806884848,25.662736966538898,105.82601423977538,93.57984435365717,-0.0002266406954731,0.0931148082017898,0,0,0
8790,307509.51915933203,2010-11-05 03:49:10,330.16873550400805,7,27,-1.0997490882873535,3.8917465209960938,26.492365806884848,25.67190600151293,105.82601423977538,93.61556647556952,-0.0001942634553415,0.0931148082017898,0,0,0
8791,307539.5344697345,2010-11-05 03:49:40,360.1840458914753,7,27,-1.0997490882873535,3.8834903240203857,26.492365806884848,25.681075043258264,105.82601423977538,93.65121173346031,-0.0001942634553415,0.0931148082017898,0,0,0
8792,307569.5498306431,2010-11-05 03:50:10,390.19940686020107,7,27,-1.0997490882873535,3.8752341270446777,26.492365806884848,25.690244092737704,105.82601423977538,93.68678117842862,-0.0001942634553415,0.0931148082017898,0,0,0
8793,307599.56512707577,2010-11-05 03:50:40,420.2147032126346,7,27,-1.0997490882873535,3.86713981628418,26.492365806884848,25.699413126434127,105.82601423977538,93.72227591447071,-0.0001942634553415,0.0931148082017898,0,0,0
8794,307629.5804766411,2010-11-05 03:51:10,450.230052772883,7,27,-1.0997490882873535,3.859207391738892,26.492365806884848,25.708582145850173,105.82601423977538,93.7576970636187,-0.0001942634553415,0.0931148082017898,0,0,0
8795,307659.5957973493,2010-11-05 03:51:40,480.2453734811125,7,27,-1.099568486213684,3.851274967193604,26.492365806884848,25.71775117967601,105.82601423977538,93.7930456547901,-0.0002266406954731,0.0931148082017898,0,0,0
8796,307689.6111354509,2010-11-05 03:52:10,510.2607115827586,7,27,-1.0997490882873535,3.843666315078736,26.492365806884848,25.7269202594199,105.82601423977538,93.82832332008246,-0.0001942634553415,0.0931148082017898,0,0,0
8797,307719.6265124196,2010-11-05 03:52:40,540.2760894185872,7,27,-1.099568486213684,3.836219549179077,26.492365806884848,25.73608933102785,105.82601423977538,93.86353136255347,-0.0001618862152099,0.0931148082017898,0,0,0
8798,307749.6418204311,2010-11-05 03:53:10,570.2913965579465,7,27,-1.0997490882873535,3.828611135482788,26.492365806884848,25.745258398146483,105.82601423977538,93.8986708116353,-0.0001942634553415,0.0931148082017898,0,0,0
8799,307779.65713937493,2010-11-05 03:53:40,600.3067155067843,7,27,-1.099929690361023,3.82132625579834,26.492365806884848,25.754427489878168,105.82601423977538,93.93374270953082,-0.0001942634553415,0.0931148082017898,0,0,0
8800,307809.67247205303,2010-11-05 03:54:10,630.3220481848923,7,27,-1.0997490882873535,3.8142032623291016,26.492365806884848,25.763596539518808,105.82601423977538,93.96874770017229,-0.0001618862152099,0.0931148082017898,0,0,0
8801,307839.68793626444,2010-11-05 03:54:40,660.3375123963278,7,27,-1.0997490882873535,3.806918382644653,26.492365806884848,25.77276556659423,105.82601423977538,94.00368591682502,-0.0001618862152099,0.0931148082017898,0,0,0
8802,307869.703154913,2010-11-05 03:55:10,690.3527310698629,7,27,-1.0997490882873535,3.799957275390625,26.492365806884848,25.781934577146018,105.82601423977538,94.03855949911969,-0.0001618862152099,0.0931148082017898,0,0,0
8803,307899.7184830347,2010-11-05 03:55:40,720.368059166535,7,27,-1.0997490882873535,3.793158054351807,26.492365806884848,25.79110366774525,105.82601423977538,94.07336977611504,-0.0001295089750783,0.0931148082017898,0,0,0
8804,307929.7339507148,2010-11-05 03:56:10,750.3835268366037,7,27,-1.099568486213684,3.786358833312988,26.492365806884848,25.800272779256986,105.82601423977538,94.10811796645604,-0.0001618862152099,0.0931148082017898,0,0,0
8805,307959.7491488019,2010-11-05 03:56:40,780.398724933777,7,27,-1.099568486213684,3.77972149848938,26.492365806884848,25.809441818867704,105.82601423977538,94.14280467481632,-0.0001942634553415,0.0931148082017898,0,0,0
8806,307989.76461842185,2010-11-05 03:57:10,810.414194583788,7,27,-1.0997490882873535,3.773246049880981,26.492365806884848,25.81861097356525,105.82601423977538,94.17743251875496,-0.0001618862152099,0.0931148082017898,0,0,0
8807,308019.779815707,2010-11-05 03:57:40,840.4293918388591,7,27,-1.099568486213684,3.767256259918213,26.492365806884848,25.8277799890918,105.82601423977538,94.21200192521124,-0.0001618862152099,0.0931148082017898,0,0,0
8808,308049.79556756146,2010-11-05 03:58:10,870.4451436983085,7,27,-1.099929690361023,3.760942697525024,26.492365806884848,25.836949200342517,105.82601423977538,94.24651557671145,-0.0001942634553415,0.0931148082017898,0,0,0
8809,308079.810515419,2010-11-05 03:58:40,900.4600915508327,7,27,-1.0997490882873535,3.755114793777466,26.492365806884848,25.84611815445669,105.82601423977538,94.28097256254412,-0.0001295089750783,0.0931148082017898,0,0,0
8810,308109.8261741911,2010-11-05 03:59:10,930.4757503229214,7,27,-1.0997490882873535,3.7489633560180655,26.492365806884848,25.85528736957397,105.82601423977538,94.31537595221155,-0.0001942634553415,0.0931148082017898,0,0,0
8811,308139.8411790058,2010-11-05 03:59:40,960.490755167707,7,27,-1.099929690361023,3.7432973384857178,26.492365806884848,25.864456369581617,105.82601423977538,94.34972490575798,-0.0001942634553415,0.0931148082017898,0,0,0
8812,308169.8566302197,2010-11-05 04:00:10,990.506206351624,7,27,-1.0997490882873535,3.737631320953369,26.492365806884848,25.87362553504705,105.82601423977538,94.38402149516357,-0.0001295089750783,0.0931148082017898,0,0,0
8813,308199.8718298858,2010-11-05 04:00:40,1020.5214060177136,7,27,-1.099929690361023,3.731965303421021,26.492365806884848,25.882794577735496,105.82601423977538,94.41826582194484,-0.0001618862152099,0.0931148082017898,0,0,0
8814,308229.88730841805,2010-11-05 04:01:10,1050.5368845498958,7,27,-1.099568486213684,3.726623058319092,26.492365806884848,25.891963706452486,105.82601423977538,94.45245997160278,-0.0001295089750783,0.0931148082017898,0,0,0
8815,308259.90251653525,2010-11-05 04:01:40,1080.552092692143,7,27,-1.0997490882873535,3.720957040786743,26.492365806884848,25.901132742747578,105.82601423977538,94.4866036374006,-0.0002266406954731,0.0931148082017898,0,0,0
8816,308289.9179783857,2010-11-05 04:02:10,1110.5675545176227,7,27,-1.099568486213684,3.715776681900024,26.492365806884848,25.9103019142626,105.82601423977538,94.52069823207972,-9.713172767078504e-05,0.0931148082017898,0,0,0
8817,308319.9331747286,2010-11-05 04:02:40,1140.582750860417,7,27,-1.0997490882873535,3.7102725505828857,26.492365806884848,25.919470888126305,105.82601423977538,94.55474276571924,-0.0001295089750783,0.0931148082017898,0,0,0
8818,308349.9486663334,2010-11-05 04:03:10,1170.5982424652304,7,27,-1.0997490882873535,3.704606533050537,26.492365806884848,25.928640015629817,105.82601423977538,94.58873712185176,-0.0001618862152099,0.0931148082017898,0,0,0
8819,308379.96384415,2010-11-05 04:03:40,1200.6134202817802,7,27,-1.099929690361023,3.699264287948608,26.492365806884848,25.937809462648648,105.82601423977538,94.62268193314048,-0.0001618862152099,0.0931148082017898,0,0,0
8820,308409.979169981,2010-11-05 04:04:10,1230.628746122822,7,27,-1.0997490882873535,3.69359827041626,26.492365806884848,25.946979308616868,105.82601423977538,94.65657810311544,-0.0001942634553415,0.0931148082017898,0,0,0
8821,308439.9944938972,2010-11-05 04:04:40,1260.644070039059,7,27,-1.099929690361023,3.688256025314331,26.492365806884848,25.95614902472824,105.82601423977538,94.6904238718502,-0.0001618862152099,0.0931148082017898,0,0,0
8822,308470.00992724154,2010-11-05 04:05:10,1290.659503483696,7,27,-1.0997490882873535,3.683075666427612,26.492365806884848,25.965318722469277,105.82601423977538,94.72422041623344,-0.0001295089750783,0.0931148082017898,0,0,0
8823,308500.02516445634,2010-11-05 04:05:40,1320.6747405882377,7,27,-1.099568486213684,3.6778953075408936,26.492365806884848,25.97448780507392,105.82601423977538,94.75796637919797,-0.0001295089750783,0.0931148082017898,0,0,0
8824,308530.04060360027,2010-11-05 04:06:10,1350.6901797220755,7,27,-1.0997490882873535,3.672714948654175,26.492365806884848,25.983656418783152,105.82601423977538,94.79166355865874,-0.0001295089750783,0.0931148082017898,0,0,0
8825,308560.0559555064,2010-11-05 04:06:40,1380.705531653242,7,27,-1.099568486213684,3.667696714401245,26.492365806884848,25.99282527919829,105.82601423977538,94.82531524573754,-0.0001295089750783,0.0931148082017898,0,0,0
8826,308590.0712676984,2010-11-05 04:07:10,1410.720843830176,7,27,-1.099568486213684,3.6628401279449454,26.492365806884848,26.001993977535182,105.82601423977538,94.85892077367872,-0.0001618862152099,0.0931148082017898,0,0,0
8827,308620.0864331641,2010-11-05 04:07:40,1440.7360092858712,7,27,-1.0997490882873535,3.657659769058228,26.492365806884848,26.01116265728507,105.82601423977538,94.8924811001802,-0.0001942634553415,0.0931148082017898,0,0,0
8828,308650.1018802978,2010-11-05 04:08:10,1470.7514564347157,7,27,-1.0997490882873535,3.6529650688171382,26.492365806884848,26.020331369262717,105.82601423977538,94.92599672763278,-0.0001618862152099,0.0931148082017898,0,0,0
8829,308680.1170731168,2010-11-05 04:08:40,1500.7666492436892,7,27,-1.0997490882873535,3.64810848236084,26.492365806884848,26.029499964530373,105.82601423977538,94.95946753770302,-0.0001295089750783,0.0931148082017898,0,0,0
8830,308710.1325188372,2010-11-05 04:09:10,1530.7820949589552,7,27,-1.0997490882873535,3.643413782119751,26.492365806884848,26.03866856622217,105.82601423977538,94.99289419789493,-0.0001618862152099,0.0931148082017898,0,0,0
8831,308740.147701596,2010-11-05 04:09:40,1560.7972777529294,7,27,-1.099568486213684,3.638880968093872,26.492365806884848,26.04783712109171,105.82601423977538,95.02627799543036,-0.0001295089750783,0.0931148082017898,0,0,0
8832,308770.16304217884,2010-11-05 04:10:10,1590.8126183006812,7,27,-1.0997490882873535,3.634348154067993,26.492365806884848,26.05700575365311,105.82601423977538,95.05962015680248,-0.0001295089750783,0.0931148082017898,0,0,0
8833,308800.1784485058,2010-11-05 04:10:40,1620.8280246326406,7,27,-1.099568486213684,3.629977226257324,26.492365806884848,26.06617435970472,105.82601423977538,95.09292112006798,-9.713172767078504e-05,0.0931148082017898,0,0,0
8834,308830.19364796137,2010-11-05 04:11:10,1650.8432240882048,7,27,-1.099568486213684,3.6256062984466553,26.492365806884848,26.075342825254705,105.82601423977538,95.12618141574757,-9.713172767078504e-05,0.0931148082017898,0,0,0
8835,308860.2089373965,2010-11-05 04:11:40,1680.8585135333967,7,27,-1.099568486213684,3.6212353706359854,26.492365806884848,26.08451136226639,105.82601423977538,95.15940271843832,-0.0001295089750783,0.0931148082017898,0,0,0
8836,308890.2242432577,2010-11-05 04:12:11,1710.8738194096034,7,27,-1.099568486213684,3.6173501014709473,26.492365806884848,26.09367991276577,105.82601423977538,95.19258553486328,-6.47544875391759e-05,0.0931148082017898,0,0,0
8837,308920.2395417906,2010-11-05 04:12:41,1740.8891179124046,7,27,-1.099568486213684,3.613141059875488,26.492365806884848,26.102848358523605,105.82601423977538,95.22573058919652,-6.47544875391759e-05,0.0931148082017898,0,0,0
8838,308950.2548620828,2010-11-05 04:13:11,1770.9044382096076,7,27,-1.0997490882873535,3.6090939044952393,26.492365806884848,26.112016881091623,105.82601423977538,95.25883922932404,-9.713172767078504e-05,0.0931148082017898,0,0,0
8839,308980.27016354294,2010-11-05 04:13:41,1800.9197396748036,7,27,-1.0997490882873535,3.6052086353302,26.492365806884848,26.1211853661038,105.82601423977538,95.29191175866868,-6.47544875391759e-05,0.0931148082017898,0,0,0
8840,309010.285456928,2010-11-05 04:14:11,1830.9350330548173,7,27,-1.0993878841400146,3.601647138595581,26.492365806884848,26.130353806392225,105.82601423977538,95.32494923828284,-6.47544875391759e-05,0.0931148082017898,0,0,0
8841,309040.30076154607,2010-11-05 04:14:41,1860.9503376728835,7,27,-1.0997490882873535,3.597761869430542,26.492365806884848,26.13952238341534,105.82601423977538,95.35795376074616,-0.0001295089750783,0.0931148082017898,0,0,0
8842,309070.3162823538,2010-11-05 04:15:11,1890.965858500642,7,27,-1.099568486213684,3.5945241451263428,26.492365806884848,26.14869094760581,105.82601423977538,95.39092514363143,-6.47544875391759e-05,0.0931148082017898,0,0,0
8843,309100.3313588775,2010-11-05 04:15:41,1920.9809350042992,7,27,-1.099568486213684,3.5908010005950928,26.492365806884848,26.1578593597936,105.82601423977538,95.42386372172392,-9.713172767078504e-05,0.0931148082017898,0,0,0
8844,309130.3466612649,2010-11-05 04:16:11,1950.9962374218724,7,27,-1.0997490882873535,3.587401390075684,26.492365806884848,26.16702787066769,105.82601423977538,95.45677128022068,-0.0001618862152099,0.0931148082017898,0,0,0
8845,309160.3619498179,2010-11-05 04:16:41,1981.0115259397496,7,27,-1.0997490882873535,3.5840017795562744,26.492365806884848,26.1761963792634,105.82601423977538,95.4896477285146,-9.713172767078504e-05,0.0931148082017898,0,0,0
8846,309190.37726366904,2010-11-05 04:17:11,2011.0268398209373,7,27,-1.099568486213684,3.580925941467285,26.492365806884848,26.18536482221947,105.82601423977538,95.5224936646171,-6.47544875391759e-05,0.0931148082017898,0,0,0
8847,309220.3925405278,2010-11-05 04:17:41,2041.042116659662,7,27,-1.0997490882873535,3.577688217163086,26.492365806884848,26.19453331480264,105.82601423977538,95.55530969614706,-9.713172767078504e-05,0.0931148082017898,0,0,0
8848,309250.4078787948,2010-11-05 04:18:11,2071.0574549517837,7,27,-1.0997490882873535,3.5744504928588867,26.492365806884848,26.203701829682608,105.82601423977538,95.58809657282174,-6.47544875391759e-05,0.0931148082017898,0,0,0
8849,309280.42328869575,2010-11-05 04:18:41,2101.0728648275885,7,27,-1.0997490882873535,3.5712127685546875,26.492365806884848,26.21287033053365,105.82601423977538,95.62085419236986,-9.713172767078504e-05,0.0931148082017898,0,0,0
8850,309310.4384850736,2010-11-05 04:19:11,2131.0880612104834,7,27,-1.0997490882873535,3.5679750442504883,26.492365806884848,26.222038828150176,105.82601423977538,95.65358263932798,-9.713172767078504e-05,0.0931148082017898,0,0,0
8851,309340.4537707995,2010-11-05 04:19:41,2161.103346931379,7,27,-1.0997490882873535,3.565061092376709,26.492365806884848,26.23120729344792,105.82601423977538,95.68628201583611,-3.237724376958795e-05,0.0931148082017898,0,0,0
8852,309370.469063152,2010-11-05 04:20:11,2191.118639283828,7,27,-1.099929690361023,3.5618233680725098,26.492365806884848,26.240375745442226,105.82601423977538,95.71895273875398,-9.713172767078504e-05,0.0931148082017898,0,0,0
8853,309400.4843724066,2010-11-05 04:20:41,2221.1339485384674,7,27,-1.099568486213684,3.5587475299835205,26.492365806884848,26.24954422413392,105.82601423977538,95.75159535563849,-3.237724376958795e-05,0.0931148082017898,0,0,0
8854,309430.4996824332,2010-11-05 04:21:11,2251.149258565033,7,27,-1.0997490882873535,3.5555098056793213,26.492365806884848,26.258712668913017,105.82601423977538,95.78420899807072,-0.0001295089750783,0.0931148082017898,0,0,0
8855,309460.5149557932,2010-11-05 04:21:41,2281.1645319351,7,27,-1.0997490882873535,3.552433967590332,26.492365806884848,26.267881106082765,105.82601423977538,95.81679372232304,-9.713172767078504e-05,0.0931148082017898,0,0,0
8856,309490.5172544715,2010-11-05 04:22:11,2311.1668306885263,7,27,-1.099568486213684,3.5495200157165527,26.492365806884848,26.277045540792844,105.82601423977538,95.84933546313204,-3.237724376958795e-05,0.0931148082017898,0,0,0
8857,309520.52996191656,2010-11-05 04:22:41,2341.179538133649,7,27,-1.0997490882873535,3.5459585189819336,26.492365806884848,26.28621319235245,105.82601423977538,95.88185934202012,-0.0001295089750783,0.0931148082017898,0,0,0
8858,309550.54526417376,2010-11-05 04:23:11,2371.194840305609,7,27,-1.0997490882873535,3.5427207946777344,26.492365806884848,26.295381667587925,105.82601423977538,95.91435604471422,-9.713172767078504e-05,0.0931148082017898,0,0,0
8859,309580.5605381704,2010-11-05 04:23:41,2401.2101143273017,7,27,-1.0997490882873535,3.539321184158325,26.492365806884848,26.304550129208128,105.82601423977538,95.94682249999198,-6.47544875391759e-05,0.0931148082017898,0,0,0
8860,309610.5758087736,2010-11-05 04:24:11,2431.225384905398,7,27,-1.0997490882873535,3.535921573638916,26.492365806884848,26.313718600850184,105.82601423977538,95.97925788783796,-9.713172767078504e-05,0.0931148082017898,0,0,0
8861,309640.59111576254,2010-11-05 04:24:41,2461.2406918943825,7,27,-1.0993878841400146,3.532521963119507,26.492365806884848,26.322887029471563,105.82601423977538,96.0116613326347,-9.713172767078504e-05,0.0931148082017898,0,0,0
8862,309670.6063791426,2010-11-05 04:25:11,2491.255955274512,7,27,-1.099568486213684,3.5291223526000977,26.492365806884848,26.33205550087239,105.82601423977538,96.04403313054011,-9.713172767078504e-05,0.0931148082017898,0,0,0
8863,309700.6218842161,2010-11-05 04:25:41,2521.2714604933085,7,27,-1.0997490882873535,3.525398969650269,26.492365806884848,26.341224019409424,105.82601423977538,96.07637258218742,-6.47544875391759e-05,0.0931148082017898,0,0,0
8864,309730.6369640731,2010-11-05 04:26:11,2551.286540235048,7,27,-1.099568486213684,3.5216755867004395,26.492365806884848,26.350392378269497,105.82601423977538,96.108677500553,-0.0001295089750783,0.0931148082017898,0,0,0
8865,309760.65245408897,2010-11-05 04:26:41,2581.3020302809705,7,27,-1.0997490882873535,3.5177903175354004,26.492365806884848,26.359560854035045,105.82601423977538,96.1409480009029,-9.713172767078504e-05,0.0931148082017898,0,0,0
8866,309790.6676767825,2010-11-05 04:27:11,2611.31725291439,7,27,-1.0997490882873535,3.513743162155152,26.492365806884848,26.36872926157902,105.82601423977538,96.17318108068405,-6.47544875391759e-05,0.0931148082017898,0,0,0
8867,309820.6829775861,2010-11-05 04:27:41,2641.3325537279597,7,27,-1.0997490882873535,3.509372472763061,26.492365806884848,26.377897766912728,105.82601423977538,96.20537586732364,-0.0001295089750783,0.0931148082017898,0,0,0
8868,309850.6981409215,2010-11-05 04:28:11,2671.347717053337,7,27,-1.0997490882873535,3.5046777725219727,26.492365806884848,26.387066221077017,105.82601423977538,96.23752991124267,-0.0001295089750783,0.0931148082017898,0,0,0
8869,309880.71354806045,2010-11-05 04:28:41,2701.3631242173733,7,27,-1.0993878841400146,3.499983072280884,26.492365806884848,26.39623469213085,105.82601423977538,96.26964060885727,-9.713172767078504e-05,0.0931148082017898,0,0,0
8870,309910.72871484945,2010-11-05 04:29:11,2731.378290981334,7,27,-1.0997490882873535,3.494640827178955,26.492365806884848,26.405403081180868,105.82601423977538,96.30170506682002,-0.0001618862152099,0.0931148082017898,0,0,0
8871,309940.7440237031,2010-11-05 04:29:41,2761.3935998349725,7,27,-1.0997490882873535,3.4891366958618164,26.492365806884848,26.414571520636137,105.82601423977538,96.33372033170112,-0.0001618862152099,0.0931148082017898,0,0,0
8872,309970.75932714826,2010-11-05 04:30:11,2791.4089032851234,7,27,-1.0997490882873535,3.482823133468628,26.492365806884848,26.42373996461224,105.82601423977538,96.36568143753723,-0.0001618862152099,0.0931148082017898,0,0,0
8873,310000.77481635706,2010-11-05 04:30:41,2821.4243924939565,7,27,-1.099568486213684,3.4758620262146,26.492365806884848,26.43290847378092,105.82601423977538,96.39758190622004,-0.0001942634553415,0.0931148082017898,0,0,0
8874,310030.7898882342,2010-11-05 04:31:11,2851.439464366052,7,27,-1.0997490882873535,3.467605829238892,26.492365806884848,26.442076828542927,105.82601423977538,96.42941301680288,-0.0002590179501567,0.0931148082017898,0,0,0
8875,310060.8053760746,2010-11-05 04:31:41,2881.4549522114817,7,27,-1.0997490882873535,3.458378314971924,26.492365806884848,26.451245329431583,105.82601423977538,96.46116564908846,-0.0002590179501567,0.0931148082017898,0,0,0
8876,310090.82046912453,2010-11-05 04:32:11,2911.4700452564284,7,27,-1.099568486213684,3.4476938247680664,26.492365806884848,26.46041369004076,105.82601423977538,96.49282626458157,-0.0002913951757363,0.0931148082017898,0,0,0
8877,310120.8357525297,2010-11-05 04:32:41,2941.485328661544,7,27,-1.0997490882873535,3.43458104133606,26.492365806884848,26.46958206084357,105.82601423977538,96.52437843406048,-0.0003885269106831,0.0931148082017898,0,0,0
8878,310150.85116574884,2010-11-05 04:33:11,2971.5007418806945,7,27,-1.099929690361023,3.4187164306640625,26.492365806884848,26.478750532575127,105.82601423977538,96.55579999768044,-0.0004856586456298,0.0931148082017898,0,0,0
8879,310180.86635189614,2010-11-05 04:33:41,3001.515928028039,7,27,-1.0997490882873535,3.3988044261932373,26.492365806884848,26.48791900235001,105.82601423977538,96.58705763447054,-0.0006151676061563,0.0931148082017898,0,0,0
8880,310210.8816381685,2010-11-05 04:34:11,3031.5312143253736,7,27,-1.099568486213684,3.3732264041900635,26.492365806884848,26.497087401544235,105.82601423977538,96.61810730509276,-0.0007446765666827,0.0931148082017898,0,0,0
8881,310240.89692016505,2010-11-05 04:34:41,3061.546496321973,7,27,-1.099568486213684,3.339230537414551,26.492365806884848,26.506255831111016,105.82601423977538,96.64888515931544,-0.0009713172912597,0.0931148082017898,0,0,0
8882,310270.91220505384,2010-11-05 04:35:11,3091.561781210792,7,27,-1.099568486213684,3.292931079864502,26.492365806884848,26.515424224790767,105.82601423977538,96.6792981746064,-0.0013922214275225,0.0931148082017898,0,0,0
8883,310300.92751616315,2010-11-05 04:35:41,3121.577092294998,7,27,-1.0993878841400146,3.228338718414306,26.492365806884848,26.524592626188664,105.82601423977538,96.70921018497644,-0.0020073889754712,0.0931148082017898,0,0,0
8884,310330.94289615937,2010-11-05 04:36:11,3151.592472291219,7,27,-1.0997490882873535,3.1342830657958984,26.492365806884848,26.533761136317317,105.82601423977538,96.73840746893744,-0.0029463290702551,0.0931148082017898,0,0,0
8885,310360.95806975034,2010-11-05 04:36:41,3181.607645907284,7,27,-1.099568486213684,2.979034662246704,26.492365806884848,26.54292953322201,105.82601423977538,96.76650827019076,-0.0055041313171386,0.0931148082017898,0,0,0
8886,310380.8953724552,2010-11-05 04:37:01,3201.544948597075,7,27,-1.099568486213684,2.77878212928772,26.492365806884848,26.549019601729707,105.82601423977538,96.7840987695972,-0.0098750116303563,0.0931148082017898,0,0,0
8887,310386.7859024192,2010-11-05 04:37:07,3207.4354785611004,7,27,-1.099568486213684,2.699943780899048,26.492365806884848,26.55081893824937,105.82601423977538,96.7890287744072,-0.0108787063509225,0.0931148082017898,0,0,0
8888,310446.7870613683,2010-11-05 04:38:07,60.01496746686922,8,27,0.0,3.3227181434631348,26.492365806884848,26.55081893824937,105.82601423977538,96.7890287744072,0.0011979580158367,0.0931148082017898,0,0,0
8889,310446.9763918715,2010-11-05 04:38:08,0.20247644736284,9,27,-1.9243103452026844e-05,3.3228800296783447,26.492365806884848,26.55081893925109,105.82601423977538,96.78902877773577,0.0,0.0954576581716537,0,0,0
8890,310451.78960598947,2010-11-05 04:38:12,5.01569056529568,9,27,0.0001613661734154,3.330326795578003,26.492366619957288,26.55081893933523,105.82601694520818,96.78902877801588,0.0010684489971026,0.0954576581716537,0,0,0
