Data_Point,Test_Time(s),Date_Time,Step_Time(s),Step_Index,Cycle_Index,Current(A),Voltage(V),Charge_Capacity(Ah),Discharge_Capacity(Ah),Charge_Energy(Wh),Discharge_Energy(Wh),dV/dt(V/s),Internal_Resistance(Ohm),Is_FC_Data,AC_Impedance(Ohm),ACI_Phase_Angle(Deg)
14844,517053.2453828628,2010-11-07 14:01:55,30.015390672871906,1,46,0.0,3.324984550476074,44.17406020880832,44.24109425625794,176.38115319083093,161.3900542298452,0.0007122993702068,0.0924721807241439,0,0,0
14845,517083.2633686584,2010-11-07 14:02:25,60.033376553782325,1,46,0.0,3.3478105068206787,44.17406020880832,44.24109425625794,176.38115319083093,161.3900542298452,0.0005180359003134,0.0924721807241439,0,0,0
14846,517113.2763946538,2010-11-07 14:02:55,90.04640255908016,1,46,0.0,3.3652939796447754,44.17406020880832,44.24109425625794,176.38115319083093,161.3900542298452,0.0003885269106831,0.0924721807241439,0,0,0
14847,517143.2446797488,2010-11-07 14:03:25,120.0146875589452,1,46,0.0,3.379216194152832,44.17406020880832,44.24109425625794,176.38115319083093,161.3900542298452,0.0002913951757363,0.0924721807241439,0,0,0
14848,517173.27301462623,2010-11-07 14:03:55,30.015500471947284,2,46,0.5499359965324402,3.5425589084625244,44.17864712283133,44.24109425625794,176.39721993672416,161.3900542298452,0.0018131255637854,0.0924721807241439,0,0,0
14849,517203.2884387125,2010-11-07 14:04:25,60.030924563236695,2,46,0.550297200679779,3.597276210784912,44.18323398195574,44.24109425625794,176.41360173532988,161.3900542298452,0.0012626647949218,0.0924721807241439,0,0,0
14850,517233.3037774406,2010-11-07 14:04:55,90.04626328643421,2,46,0.5499359965324402,3.637585878372192,44.18782082521479,44.24109425625794,176.43019859124396,161.3900542298452,0.0009389400365762,0.0924721807241439,0,0,0
14851,517263.318995663,2010-11-07 14:05:25,120.06148150383072,2,46,0.550297200679779,3.669963121414185,44.19240772995921,44.24109425625794,176.44696115126155,161.3900542298452,0.0008094310760498,0.0924721807241439,0,0,0
14852,517293.33438045625,2010-11-07 14:05:55,150.07686629702604,2,46,0.5501165986061096,3.696512222290039,44.19699459905852,44.24109425625794,176.4638573929346,161.3900542298452,0.0006799221155233,0.0924721807241439,0,0,0
14853,517323.3497454902,2010-11-07 14:06:25,180.09223135596162,2,46,0.550297200679779,3.7188525199890137,44.20158147931862,44.24109425625794,176.48086520546707,161.3900542298452,0.0005504131549969,0.0924721807241439,0,0,0
14854,517353.3651198273,2010-11-07 14:06:55,210.1076056679943,2,46,0.550297200679779,3.737631320953369,44.20616832751087,44.24109425625794,176.49796681440824,161.3900542298452,0.0004856586456298,0.0924721807241439,0,0,0
14855,517383.3804946556,2010-11-07 14:07:25,240.12298052639088,2,46,0.550297200679779,3.752686738967896,44.21075516857452,44.24109425625794,176.51514619923023,161.3900542298452,0.0003885269106831,0.0924721807241439,0,0,0
14856,517413.3960795181,2010-11-07 14:07:55,270.1385653589151,2,46,0.550297200679779,3.762723445892334,44.215342102769874,44.24109425625794,176.5323838343993,161.3900542298452,0.0001942634553415,0.0924721807241439,0,0,0
14857,517443.41139218136,2010-11-07 14:08:25,300.1538780220628,2,46,0.5501165986061096,3.7685513496398926,44.21992897748567,44.24109425625794,176.549656986634,161.3900542298452,0.0001295089750783,0.0924721807241439,0,0,0
14858,517473.4267503681,2010-11-07 14:08:55,330.1692362188694,2,46,0.5501165986061096,3.772760391235352,44.22451590020967,44.24109425625794,176.56695286109817,161.3900542298452,0.0001295089750783,0.0924721807241439,0,0,0
14859,517503.4419905905,2010-11-07 14:09:25,360.18447643116855,2,46,0.5501165986061096,3.7764837741851807,44.229102721742535,44.24109425625794,176.5842662788744,161.3900542298452,9.713172767078504e-05,0.0924721807241439,0,0,0
14860,517533.4574561904,2010-11-07 14:09:55,390.1999421463576,2,46,0.5499359965324402,3.77988338470459,44.23368959611242,44.24109425625794,176.60159652110076,161.3900542298452,6.47544875391759e-05,0.0924721807241439,0,0,0
14861,517563.47273844254,2010-11-07 14:10:25,420.2152242833071,2,46,0.5501165986061096,3.783444881439209,44.2382764728344,44.24109425625794,176.61894268377725,161.3900542298452,9.713172767078504e-05,0.0924721807241439,0,0,0
14862,517593.4881334312,2010-11-07 14:10:55,450.2306192719519,2,46,0.5501165986061096,3.786682605743408,44.24286327094909,44.24109425625794,176.63630395017114,161.3900542298452,9.713172767078504e-05,0.0924721807241439,0,0,0
14863,517623.50352184346,2010-11-07 14:11:25,480.24600768418094,2,46,0.550297200679779,3.7900822162628174,44.24745009109103,44.24109425625794,176.65368022776462,161.3900542298452,0.0001295089750783,0.0924721807241439,0,0,0
14864,517653.5190188517,2010-11-07 14:11:55,510.26150470250747,2,46,0.550297200679779,3.793158054351807,44.252036939052445,44.24109425625794,176.67107107094043,161.3900542298452,0.0001295089750783,0.0924721807241439,0,0,0
14865,517683.5343630787,2010-11-07 14:12:25,540.2768489194181,2,46,0.550297200679779,3.796233892440796,44.25662379900204,44.24109425625794,176.68847614060388,161.3900542298452,0.0001295089750783,0.0924721807241439,0,0,0
14866,517713.5496171155,2010-11-07 14:12:55,570.2921029662504,2,46,0.5501165986061096,3.798985958099365,44.26121064013504,44.24109425625794,176.70589500837465,161.3900542298452,6.47544875391759e-05,0.0924721807241439,0,0,0
14867,517743.56497901154,2010-11-07 14:13:25,600.3074648773284,2,46,0.5501165986061096,3.801899909973145,44.26579750080869,44.24109425625794,176.72332761867355,161.3900542298452,6.47544875391759e-05,0.0924721807241439,0,0,0
14868,517773.5804903155,2010-11-07 14:13:56,630.3229761562516,2,46,0.5501165986061096,3.804975748062134,44.27038444087964,44.24109425625794,176.7407739535602,161.3900542298452,9.713172767078504e-05,0.0924721807241439,0,0,0
14869,517803.59573146014,2010-11-07 14:14:26,660.3382173008779,2,46,0.5501165986061096,3.808051586151123,44.27497125891245,44.24109425625794,176.7582332736276,161.3900542298452,0.0001295089750783,0.0924721807241439,0,0,0
14870,517833.6110933712,2010-11-07 14:14:56,690.353579211956,2,46,0.550297200679779,3.810803651809693,44.279558336141605,44.24109425625794,176.77570716086936,161.3900542298452,6.47544875391759e-05,0.0924721807241439,0,0,0
14871,517863.6264380242,2010-11-07 14:15:26,720.3689238649551,2,46,0.550297200679779,3.8138794898986816,44.28414597991909,44.24109425625794,176.7931971093704,161.3900542298452,6.47544875391759e-05,0.0924721807241439,0,0,0
14872,517893.64183664194,2010-11-07 14:15:56,750.3843224826587,2,46,0.550297200679779,3.816955327987671,44.28873345872678,44.24109425625794,176.81070070844774,161.3900542298452,6.47544875391759e-05,0.0924721807241439,0,0,0
14873,517923.6573327079,2010-11-07 14:16:26,780.3998185486079,2,46,0.550297200679779,3.82035493850708,44.29332113370767,44.24109425625794,176.82821948696855,161.3900542298452,9.713172767078504e-05,0.0924721807241439,0,0,0
14874,517953.6725778926,2010-11-07 14:16:56,810.4150637333189,2,46,0.5501165986061096,3.8235926628112793,44.29790871689125,44.24109425625794,176.84575286709884,161.3900542298452,6.47544875391759e-05,0.0924721807241439,0,0,0
14875,517983.6879518787,2010-11-07 14:17:26,840.4304377195383,2,46,0.550297200679779,3.8271541595458975,44.30249627865032,44.24109425625794,176.86330145917077,161.3900542298452,0.0001618862152099,0.0924721807241439,0,0,0
14876,518013.70334741886,2010-11-07 14:17:56,870.4458332595593,2,46,0.5499359965324402,3.830229997634888,44.3070838625613,44.24109425625794,176.88086570856711,161.3900542298452,9.713172767078504e-05,0.0924721807241439,0,0,0
14877,518043.71882526425,2010-11-07 14:18:26,900.4613111050276,2,46,0.550297200679779,3.833791255950928,44.31167091251914,44.24109425625794,176.89844363037804,161.3900542298452,9.713172767078504e-05,0.0924721807241439,0,0,0
14878,518073.734058444,2010-11-07 14:18:56,930.4765442847724,2,46,0.5501165986061096,3.837352752685547,44.316257825883696,44.24109425625794,176.91603682480675,161.3900542298452,0.0001295089750783,0.0924721807241439,0,0,0
14879,518103.7494401244,2010-11-07 14:19:26,960.4919259752228,2,46,0.550297200679779,3.840752363204956,44.320844797000326,44.24109425625794,176.93364588453807,161.3900542298452,0.0001295089750783,0.0924721807241439,0,0,0
14880,518133.76486772456,2010-11-07 14:19:56,990.5073535652456,2,46,0.550297200679779,3.8439900875091553,44.32543175537802,44.24109425625794,176.9512702689324,161.3900542298452,0.0001295089750783,0.0924721807241439,0,0,0
14881,518163.7802563423,2010-11-07 14:20:26,1020.5227421829876,2,46,0.5501165986061096,3.847389698028565,44.33001867229182,44.24109425625794,176.96890964653434,161.3900542298452,0.0001618862152099,0.0924721807241439,0,0,0
14882,518193.7956053612,2010-11-07 14:20:56,1050.5380912018848,2,46,0.5501165986061096,3.8504655361175537,44.334605612423104,44.24109425625794,176.98656408095457,161.3900542298452,6.47544875391759e-05,0.0924721807241439,0,0,0
14883,518223.81098596886,2010-11-07 14:21:26,1080.5534718096326,2,46,0.5499359965324402,3.853379487991333,44.33919254704436,44.24109425625794,177.004233081872,161.3900542298452,3.237724376958795e-05,0.0924721807241439,0,0,0
14884,518253.82649079175,2010-11-07 14:21:56,1110.5689766374526,2,46,0.5501165986061096,3.856617212295532,44.34377946473461,44.24109425625794,177.02191619879488,161.3900542298452,9.713172767078504e-05,0.0924721807241439,0,0,0
14885,518283.84171050286,2010-11-07 14:22:26,1140.5841963435653,2,46,0.5501165986061096,3.859531164169312,44.34836639763263,44.24109425625794,177.03961323272466,161.3900542298452,3.237724376958795e-05,0.0924721807241439,0,0,0
14886,518313.85721306497,2010-11-07 14:22:56,1170.5996989157552,2,46,0.5501165986061096,3.862445116043091,44.3529533913507,44.24109425625794,177.05732380309183,161.3900542298452,6.47544875391759e-05,0.0924721807241439,0,0,0
14887,518343.8724632572,2010-11-07 14:23:26,1200.6149490979408,2,46,0.5501165986061096,3.86519718170166,44.35754037330342,44.24109425625794,177.0750470963127,161.3900542298452,6.47544875391759e-05,0.0924721807241439,0,0,0
14888,518373.887848672,2010-11-07 14:23:56,1230.6303345126876,2,46,0.550297200679779,3.86778736114502,44.36212734506525,44.24109425625794,177.09278262948465,161.3900542298452,6.47544875391759e-05,0.0924721807241439,0,0,0
14889,518403.8881432125,2010-11-07 14:24:26,1260.6306290432658,2,46,0.5501165986061096,3.870215654373169,44.36671201786592,44.24109425625794,177.11052096376235,161.3900542298452,6.47544875391759e-05,0.0924721807241439,0,0,0
14890,518433.9029611207,2010-11-07 14:24:56,1290.645446961454,2,46,0.5501165986061096,3.8726439476013184,44.37129894679988,44.24109425625794,177.12827909464096,161.3900542298452,9.713172767078504e-05,0.0924721807241439,0,0,0
14891,518463.9183752321,2010-11-07 14:25:26,1320.6608610728315,2,46,0.5501165986061096,3.874910354614258,44.37588588088931,44.24109425625794,177.1460476813,161.3900542298452,6.47544875391759e-05,0.0924721807241439,0,0,0
14892,518493.9337077147,2010-11-07 14:25:56,1350.6761935604643,2,46,0.5499359965324402,3.8770148754119873,44.38047281647883,44.24109425625794,177.16382609442144,161.3900542298452,6.47544875391759e-05,0.0924721807241439,0,0,0
14893,518523.9491142371,2010-11-07 14:26:26,1380.6916000979368,2,46,0.5501165986061096,3.878795623779297,44.38505975975411,44.24109425625794,177.1816137580918,161.3900542298452,3.237724376958795e-05,0.0924721807241439,0,0,0
14894,518553.9491407738,2010-11-07 14:26:56,1410.6916266245355,2,46,0.5501165986061096,3.8805763721466064,44.389644335917815,44.24109425625794,177.1994007738836,161.3900542298452,3.237724376958795e-05,0.0924721807241439,0,0,0
14895,518583.9642268664,2010-11-07 14:27:26,1440.7067127071034,2,46,0.5501165986061096,3.882357120513916,44.39423128730687,44.24109425625794,177.2172050437951,161.3900542298452,6.47544875391759e-05,0.0924721807241439,0,0,0
14896,518613.979609033,2010-11-07 14:27:56,1470.7220948737424,2,46,0.5501165986061096,3.883975982666016,44.39881828165292,44.24109425625794,177.23501713559017,161.3900542298452,3.237724376958795e-05,0.0924721807241439,0,0,0
14897,518643.99500146025,2010-11-07 14:28:26,1500.7374873009935,2,46,0.5501165986061096,3.8855948448181152,44.40340526684761,44.24109425625794,177.25283632935717,161.3900542298452,9.713172767078504e-05,0.0924721807241439,0,0,0
14898,518674.0104742731,2010-11-07 14:28:56,1530.7529601138997,2,46,0.5499359965324402,3.886889934539795,44.407992212436575,44.24109425625794,177.27066226326224,161.3900542298452,3.237724376958795e-05,0.0924721807241439,0,0,0
14899,518704.0258370513,2010-11-07 14:29:26,1560.7683229172048,2,46,0.550297200679779,3.888346910476685,44.41257917839854,44.24109425625794,177.28849488349644,161.3900542298452,3.237724376958795e-05,0.0924721807241439,0,0,0
14900,518734.04108451685,2010-11-07 14:29:56,1590.7835703625587,2,46,0.550297200679779,3.889965772628784,44.4171661355564,44.24109425625794,177.30633392711462,161.3900542298452,6.47544875391759e-05,0.0924721807241439,0,0,0
14901,518764.0564751797,2010-11-07 14:30:26,1620.798961020393,2,46,0.5501165986061096,3.891260862350464,44.42175317900101,44.24109425625794,177.3241795406929,161.3900542298452,9.713172767078504e-05,0.0924721807241439,0,0,0
14902,518794.0718358827,2010-11-07 14:30:56,1650.8143217234558,2,46,0.550297200679779,3.892555952072144,44.4263401882842,44.24109425625794,177.34203120300597,161.3900542298452,3.237724376958795e-05,0.0924721807241439,0,0,0
14903,518824.08719830506,2010-11-07 14:31:26,1680.82968414581,2,46,0.550297200679779,3.8938510417938232,44.43092717865637,44.24109425625794,177.35988893392516,161.3900542298452,6.47544875391759e-05,0.0924721807241439,0,0,0
14904,518854.1025784968,2010-11-07 14:31:56,1710.845064342532,2,46,0.550297200679779,3.894984245300293,44.435514190865085,44.24109425625794,177.37775273960008,161.3900542298452,0.0,0.0924721807241439,0,0,0
14905,518884.1185394732,2010-11-07 14:32:26,1740.8610253139566,2,46,0.5501165986061096,3.8962793350219727,44.44010124409964,44.24109425625794,177.3956222625628,161.3900542298452,3.237724376958795e-05,0.0924721807241439,0,0,0
14906,518914.1203577322,2010-11-07 14:32:56,1770.8628436582085,2,46,0.5501165986061096,3.8977363109588623,44.44468613666073,44.24109425625794,177.41348957373836,161.3900542298452,6.47544875391759e-05,0.0924721807241439,0,0,0
14907,518944.13338614855,2010-11-07 14:33:26,1800.8758719993368,2,46,0.550297200679779,3.899031400680542,44.449272735158,44.24109425625794,177.4313695375707,161.3900542298452,3.237724376958795e-05,0.0924721807241439,0,0,0
14908,518974.1484479004,2010-11-07 14:33:56,1830.8909337411465,2,46,0.5501165986061096,3.900164604187012,44.45385965066336,44.24109425625794,177.44925672554416,161.3900542298452,0.0,0.0924721807241439,0,0,0
14909,519004.1638347387,2010-11-07 14:34:26,1860.9063205794464,2,46,0.5501165986061096,3.9014596939086914,44.458446628422855,44.24109425625794,177.46715019892045,161.3900542298452,0.0,0.0924721807241439,0,0,0
14910,519034.1791941937,2010-11-07 14:34:56,1890.9216800343936,2,46,0.5501165986061096,3.902916669845581,44.46303360456328,44.24109425625794,177.48504979401855,161.3900542298452,3.237724376958795e-05,0.0924721807241439,0,0,0
14911,519064.1792246601,2010-11-07 14:35:26,1920.9217106161148,2,46,0.550297200679779,3.904373645782471,44.46761827782338,44.24109425625794,177.50294647567384,161.3900542298452,6.47544875391759e-05,0.0924721807241439,0,0,0
14912,519094.19432836166,2010-11-07 14:35:56,1950.936814197362,2,46,0.5501165986061096,3.9056687355041504,44.47220526590847,44.24109425625794,177.52085830507693,161.3900542298452,6.47544875391759e-05,0.0924721807241439,0,0,0
14913,519124.2098339363,2010-11-07 14:36:26,1980.9523197770588,2,46,0.5501165986061096,3.90696382522583,44.47679225161058,44.24109425625794,177.53877625849327,161.3900542298452,3.237724376958795e-05,0.0924721807241439,0,0,0
14914,519154.2250711962,2010-11-07 14:36:56,2010.9675570369884,2,46,0.550297200679779,3.90842080116272,44.48137921192512,44.24109425625794,177.55670033814602,161.3900542298452,3.237724376958795e-05,0.0924721807241439,0,0,0
14915,519184.2404523103,2010-11-07 14:37:26,2040.982938151,2,46,0.5501165986061096,3.9095540046691895,44.4859661755707,44.24109425625794,177.57463072950534,161.3900542298452,0.0,0.0924721807241439,0,0,0
14916,519214.255951088,2010-11-07 14:37:56,2070.998436928718,2,46,0.5501165986061096,3.911010980606079,44.49055320302546,44.24109425625794,177.59256765629064,161.3900542298452,3.237724376958795e-05,0.0924721807241439,0,0,0
14917,519244.271302172,2010-11-07 14:38:26,2101.0137879927206,2,46,0.5501165986061096,3.9124679565429688,44.49514020262042,44.24109425625794,177.61051082484514,161.3900542298452,3.237724376958795e-05,0.0924721807241439,0,0,0
14918,519274.2866033014,2010-11-07 14:38:56,2131.029089142128,2,46,0.5499359965324402,3.913762807846069,44.499727201932735,44.24109425625794,177.62846037633324,161.3900542298452,0.0,0.0924721807241439,0,0,0
14919,519304.302063548,2010-11-07 14:39:26,2161.0445493886664,2,46,0.550297200679779,3.915219783782959,44.50431420159749,44.24109425625794,177.6464163546468,161.3900542298452,3.237724376958795e-05,0.0924721807241439,0,0,0
14920,519334.3173243567,2010-11-07 14:39:56,2191.059810197377,2,46,0.5501165986061096,3.9166767597198486,44.50890121710081,44.24109425625794,177.66437872718623,161.3900542298452,3.237724376958795e-05,0.0924721807241439,0,0,0
14921,519364.33268667874,2010-11-07 14:40:26,2221.0751725194814,2,46,0.5499359965324402,3.917971849441528,44.513488175471934,44.24109425625794,177.68234743662856,161.3900542298452,3.237724376958795e-05,0.0924721807241439,0,0,0
14922,519394.3480607552,2010-11-07 14:40:56,2251.0905466009385,2,46,0.5501165986061096,3.919428825378418,44.51807515533134,44.24109425625794,177.70032279482908,161.3900542298452,3.237724376958795e-05,0.0924721807241439,0,0,0
14923,519424.3634320547,2010-11-07 14:41:26,2281.1059178954392,2,46,0.5501165986061096,3.9210476875305176,44.52266207925362,44.24109425625794,177.7183045478285,161.3900542298452,6.47544875391759e-05,0.0924721807241439,0,0,0
14924,519454.3790121905,2010-11-07 14:41:56,2311.1214980312398,2,46,0.5501165986061096,3.9221808910369873,44.52724909314148,44.24109425625794,177.73629328108802,161.3900542298452,0.0,0.0924721807241439,0,0,0
14925,519484.394334227,2010-11-07 14:42:26,2341.136820067785,2,46,0.5501165986061096,3.923799753189087,44.53183604448304,44.24109425625794,177.75428846717654,161.3900542298452,6.47544875391759e-05,0.0924721807241439,0,0,0
14926,519514.40958734654,2010-11-07 14:42:56,2371.1520731873024,2,46,0.5499359965324402,3.925256729125977,44.53642298180081,44.24109425625794,177.77229036039563,161.3900542298452,3.237724376958795e-05,0.0924721807241439,0,0,0
14927,519544.4249303053,2010-11-07 14:43:26,2401.167416146072,2,46,0.550297200679779,3.926713705062866,44.54100992703203,44.24109425625794,177.7902989602959,161.3900542298452,3.237724376958795e-05,0.0924721807241439,0,0,0
14928,519574.4404455342,2010-11-07 14:43:56,2431.182931374855,2,46,0.5501165986061096,3.928332567214966,44.54559690662039,44.24109425625794,177.80831454488597,161.3900542298452,6.47544875391759e-05,0.0924721807241439,0,0,0
14929,519604.4556821725,2010-11-07 14:44:26,2461.198168013233,2,46,0.550297200679779,3.929789543151856,44.55018377971087,44.24109425625794,177.8263365784713,161.3900542298452,3.237724376958795e-05,0.0924721807241439,0,0,0
14930,519634.4710536574,2010-11-07 14:44:56,2491.213539498209,2,46,0.5501165986061096,3.931246519088745,44.55477074493909,44.24109425625794,177.844365977638,161.3900542298452,0.0,0.0924721807241439,0,0,0
14931,519664.4864724856,2010-11-07 14:45:26,2521.228958336386,2,46,0.5499359965324402,3.9327034950256343,44.55935767692649,44.24109425625794,177.8624022668782,161.3900542298452,3.237724376958795e-05,0.0924721807241439,0,0,0
14932,519694.50200811535,2010-11-07 14:45:56,2551.2444939861425,2,46,0.5501165986061096,3.934484243392944,44.563944767587486,44.24109425625794,177.88044630126558,161.3900542298452,3.237724376958795e-05,0.0924721807241439,0,0,0
14933,519724.5173238361,2010-11-07 14:46:26,2581.25980970191,2,46,0.5501165986061096,3.935941219329834,44.56853169934292,44.24109425625794,177.89849691241142,161.3900542298452,3.237724376958795e-05,0.0924721807241439,0,0,0
14934,519754.5325619632,2010-11-07 14:46:56,2611.2750478089542,2,46,0.5501165986061096,3.9375600814819336,44.573118675045365,44.24109425625794,177.91655479501398,161.3900542298452,3.237724376958795e-05,0.0924721807241439,0,0,0
14935,519784.54793888674,2010-11-07 14:47:26,2641.290424727493,2,46,0.550297200679779,3.939502716064453,44.57770570951751,44.24109425625794,177.934620324828,161.3900542298452,9.713172767078504e-05,0.0924721807241439,0,0,0
14936,519814.5633154494,2010-11-07 14:47:57,2671.305801275106,2,46,0.5501165986061096,3.940797805786133,44.58229272288971,44.24109425625794,177.95269314193607,161.3900542298452,3.237724376958795e-05,0.0924721807241439,0,0,0
14937,519844.5786797464,2010-11-07 14:48:27,2701.321165587177,2,46,0.550297200679779,3.942416667938232,44.58687975712236,44.24109425625794,177.97077348584486,161.3900542298452,3.237724376958795e-05,0.0924721807241439,0,0,0
14938,519874.59405522136,2010-11-07 14:48:57,2731.3365410621127,2,46,0.5501165986061096,3.944035530090332,44.59146665211375,44.24109425625794,177.9888608007023,161.3900542298452,3.237724376958795e-05,0.0924721807241439,0,0,0
14939,519904.6094447113,2010-11-07 14:49:27,2761.351930552032,2,46,0.5501165986061096,3.945654392242432,44.59605362857238,44.24109425625794,178.0069560097985,161.3900542298452,3.237724376958795e-05,0.0924721807241439,0,0,0
14940,519934.62480620126,2010-11-07 14:49:57,2791.367292042059,2,46,0.5501165986061096,3.947435140609741,44.60064065417555,44.24109425625794,178.02505898771238,161.3900542298452,3.237724376958795e-05,0.0924721807241439,0,0,0
14941,519964.6401656212,2010-11-07 14:50:27,2821.3826514619186,2,46,0.5499359965324402,3.949054002761841,44.60522756659252,44.24109425625794,178.04316923926484,161.3900542298452,3.237724376958795e-05,0.0924721807241439,0,0,0
14942,519994.6555505197,2010-11-07 14:50:57,2851.3980363603764,2,46,0.550297200679779,3.9508347511291504,44.60981450789675,44.24109425625794,178.06128728404462,161.3900542298452,6.47544875391759e-05,0.0924721807241439,0,0,0
14943,520024.6709212627,2010-11-07 14:51:27,2881.413407103501,2,46,0.5501165986061096,3.95245361328125,44.61440156721919,44.24109425625794,178.07941360152728,161.3900542298452,3.237724376958795e-05,0.0924721807241439,0,0,0
14944,520054.6863169983,2010-11-07 14:51:57,2911.4288028440224,2,46,0.5501165986061096,3.95423436164856,44.6189885352564,44.24109425625794,178.09754739208577,161.3900542298452,6.47544875391759e-05,0.0924721807241439,0,0,0
14945,520084.7016697916,2010-11-07 14:52:27,2941.444155632328,2,46,0.550297200679779,3.956015110015869,44.62357555211284,44.24109425625794,178.11568930842736,161.3900542298452,6.47544875391759e-05,0.0924721807241439,0,0,0
14946,520114.7170642539,2010-11-07 14:52:57,2971.45955009466,2,46,0.5501165986061096,3.957472085952759,44.62816259428895,44.24109425625794,178.13383928396078,161.3900542298452,3.237724376958795e-05,0.0924721807241439,0,0,0
14947,520144.732422927,2010-11-07 14:53:27,3001.4749087676546,2,46,0.5501165986061096,3.9594147205352783,44.63274952554213,44.24109425625794,178.15199690046862,161.3900542298452,3.237724376958795e-05,0.0924721807241439,0,0,0
14948,520174.747804046,2010-11-07 14:53:57,3031.4902898866785,2,46,0.5499359965324402,3.961195468902588,44.63733655097827,44.24109425625794,178.1701630511961,161.3900542298452,3.237724376958795e-05,0.0924721807241439,0,0,0
14949,520204.7631650297,2010-11-07 14:54:27,3061.505650870442,2,46,0.5501165986061096,3.9631381034851074,44.64192355306984,44.24109425625794,178.18833732439597,161.3900542298452,6.47544875391759e-05,0.0924721807241439,0,0,0
14950,520234.7785385297,2010-11-07 14:54:57,3091.521024370448,2,46,0.5501165986061096,3.964756965637207,44.64651055412954,44.24109425625794,178.20651995495308,161.3900542298452,3.237724376958795e-05,0.0924721807241439,0,0,0
14951,520264.7940395581,2010-11-07 14:55:27,3121.536525398784,2,46,0.5501165986061096,3.966699600219727,44.65109753335019,44.24109425625794,178.22471085923323,161.3900542298452,3.237724376958795e-05,0.0924721807241439,0,0,0
14952,520294.80930112366,2010-11-07 14:55:57,3151.5517869643845,2,46,0.5499359965324402,3.968480348587036,44.65568454081648,44.24109425625794,178.24291024626928,161.3900542298452,6.47544875391759e-05,0.0924721807241439,0,0,0
14953,520324.8246893856,2010-11-07 14:56:27,3181.567175226238,2,46,0.550297200679779,3.970422983169556,44.660271530626616,44.24109425625794,178.26111806565464,161.3900542298452,6.47544875391759e-05,0.0924721807241439,0,0,0
14954,520354.8401158527,2010-11-07 14:56:57,3211.582601693458,2,46,0.5501165986061096,3.972203731536865,44.66485858474415,44.24109425625794,178.27933482843832,161.3900542298452,6.47544875391759e-05,0.0924721807241439,0,0,0
14955,520384.855538706,2010-11-07 14:57:27,3241.5980245466567,2,46,0.5501165986061096,3.9743082523345943,44.669445634216,44.24109425625794,178.2975601755307,161.3900542298452,6.47544875391759e-05,0.0924721807241439,0,0,0
14956,520414.871019198,2010-11-07 14:57:57,3271.613505098882,2,46,0.5501165986061096,3.976089000701904,44.6740326836712,44.24109425625794,178.31579433267032,161.3900542298452,6.47544875391759e-05,0.0924721807241439,0,0,0
14957,520444.8862970141,2010-11-07 14:58:27,3301.628782854896,2,46,0.5501165986061096,3.977869749069214,44.67861970537752,44.24109425625794,178.33403718450415,161.3900542298452,3.237724376958795e-05,0.0924721807241439,0,0,0
14958,520474.90155985794,2010-11-07 14:58:57,3331.6440456986866,2,46,0.5501165986061096,3.980136156082153,44.683206638147006,44.24109425625794,178.35228848555772,161.3900542298452,0.0001295089750783,0.0924721807241439,0,0,0
14959,520504.9170638437,2010-11-07 14:59:27,3361.6595496894174,2,46,0.550297200679779,3.982078790664673,44.687793567551694,44.24109425625794,178.37054913977434,161.3900542298452,3.237724376958795e-05,0.0924721807241439,0,0,0
14960,520534.9324619952,2010-11-07 14:59:57,3391.6749478359443,2,46,0.550297200679779,3.9841833114624015,44.69238053788729,44.24109425625794,178.3888190998931,161.3900542298452,9.713172767078504e-05,0.0924721807241439,0,0,0
14961,520564.94765616255,2010-11-07 15:00:27,3421.690142003308,2,46,0.5501165986061096,3.985964059829712,44.69696745023776,44.24109425625794,178.40709810475244,161.3900542298452,3.237724376958795e-05,0.0924721807241439,0,0,0
14962,520594.963113607,2010-11-07 15:00:57,3451.705599533065,2,46,0.550297200679779,3.9880685806274414,44.70155441488618,44.24109425625794,178.42538676998836,161.3900542298452,3.237724376958795e-05,0.0924721807241439,0,0,0
14963,520624.97841733793,2010-11-07 15:01:27,3481.720903178704,2,46,0.5501165986061096,3.990334987640381,44.70614136919493,44.24109425625794,178.44368480470737,161.3900542298452,9.713172767078504e-05,0.0924721807241439,0,0,0
14964,520654.9938227176,2010-11-07 15:01:57,3511.7363085582856,2,46,0.5501165986061096,3.992277622222901,44.71072830197324,44.24109425625794,178.4619922874233,161.3900542298452,6.47544875391759e-05,0.0924721807241439,0,0,0
14965,520685.0092915807,2010-11-07 15:02:27,3541.7517774413823,2,46,0.5501165986061096,3.994381904602051,44.715315326554204,44.24109425625794,178.4803098091122,161.3900542298452,6.47544875391759e-05,0.0924721807241439,0,0,0
14966,520715.02456357726,2010-11-07 15:02:57,3571.7670494179706,2,46,0.5501165986061096,3.99648642539978,44.7199022426742,44.24109425625794,178.4986366696548,161.3900542298452,3.237724376958795e-05,0.0924721807241439,0,0,0
14967,520745.0399385159,2010-11-07 15:03:27,3601.782424366592,2,46,0.5501165986061096,3.99875283241272,44.724489207591134,44.24109425625794,178.5169736143448,161.3900542298452,9.713172767078504e-05,0.0924721807241439,0,0,0
14968,520775.0553017151,2010-11-07 15:03:57,3631.797787555861,2,46,0.5501165986061096,4.001019477844238,44.72907609801019,44.24109425625794,178.53532024099843,161.3900542298452,9.71794142969884e-05,0.0924721807241439,0,0,0
14969,520805.0706533556,2010-11-07 15:04:27,3661.8131391963016,2,46,0.550297200679779,4.002962112426758,44.73366300322663,44.24109425625794,178.5536770954148,161.3900542298452,0.0,0.0924721807241439,0,0,0
14970,520835.08603957726,2010-11-07 15:04:57,3691.8285254180623,2,46,0.550297200679779,4.005390167236328,44.73824989013562,44.24109425625794,178.57204405356518,161.3900542298452,6.47544875391759e-05,0.0924721807241439,0,0,0
14971,520865.1040378141,2010-11-07 15:05:27,3721.846523740028,2,46,0.5501165986061096,4.007656574249268,44.74283719563932,44.24109425625794,178.5904229921573,161.3900542298452,9.70840483205393e-05,0.0924721807241439,0,0,0
14972,520895.117070887,2010-11-07 15:05:57,3751.8595567528178,2,46,0.5501165986061096,4.009922981262207,44.74742378014189,44.24109425625794,178.60880939357708,161.3900542298452,6.47544875391759e-05,0.0924721807241439,0,0,0
14973,520925.13216101966,2010-11-07 15:06:27,3781.874646865445,2,46,0.5501165986061096,4.0121893882751465,44.752010710382784,44.24109425625794,178.62720762956184,161.3900542298452,6.47544875391759e-05,0.0924721807241439,0,0,0
14974,520955.14755993313,2010-11-07 15:06:57,3811.8900457738746,2,46,0.550297200679779,4.014455795288086,44.75659751701683,44.24109425625794,178.6456158750369,161.3900542298452,6.47544875391759e-05,0.0924721807241439,0,0,0
14975,520985.16292365873,2010-11-07 15:07:27,3841.9054094994817,2,46,0.5499359965324402,4.016884326934815,44.76118360897587,44.24109425625794,178.66403173382136,161.3900542298452,9.71794142969884e-05,0.0924721807241439,0,0,0
14976,521015.1782867076,2010-11-07 15:07:57,3871.9207725584247,2,46,0.5499359965324402,4.018988609313965,44.76576969258108,44.24109425625794,178.68245829374644,161.3900542298452,3.23295607813634e-05,0.0924721807241439,0,0,0
14977,521045.19366067887,2010-11-07 15:08:27,3901.936146514569,2,46,0.5499359965324402,4.021417140960693,44.770355730768365,44.24109425625794,178.70089532327165,161.3900542298452,6.47544875391759e-05,0.0924721807241439,0,0,0
14978,521075.20915675984,2010-11-07 15:08:57,3931.951642595556,2,46,0.5501165986061096,4.024007320404053,44.77494194452074,44.24109425625794,178.71934412162662,161.3900542298452,9.71794142969884e-05,0.0924721807241439,0,0,0
14979,521105.2244197189,2010-11-07 15:09:27,3961.966905549622,2,46,0.550297200679779,4.026273727416992,44.77952884269968,44.24109425625794,178.7378067756445,161.3900542298452,9.71794142969884e-05,0.0924721807241439,0,0,0
14980,521135.2397919056,2010-11-07 15:09:57,3991.9822777413615,2,46,0.5501165986061096,4.028863906860352,44.78411577884797,44.24109425625794,178.7562807429844,161.3900542298452,6.47544875391759e-05,0.0924721807241439,0,0,0
14981,521165.255272097,2010-11-07 15:10:27,4021.997757937698,2,46,0.550297200679779,4.031130313873291,44.78870272214211,44.24109425625794,178.77476595014951,161.3900542298452,6.47544875391759e-05,0.0924721807241439,0,0,0
14982,521195.2705312966,2010-11-07 15:10:57,4052.013017132381,2,46,0.5501165986061096,4.033558368682861,44.79328960072264,44.24109425625794,178.79326227726096,161.3900542298452,6.47544875391759e-05,0.0924721807241439,0,0,0
14983,521225.2859009771,2010-11-07 15:11:27,4082.028386812852,2,46,0.5501165986061096,4.036310195922852,44.797876497109286,44.24109425625794,178.81177009701716,161.3900542298452,6.47544875391759e-05,0.0924721807241439,0,0,0
14984,521255.30126364005,2010-11-07 15:11:57,4112.043749475807,2,46,0.5501165986061096,4.03873872756958,44.80246347102288,44.24109425625794,178.83028968172607,161.3900542298452,9.71794142969884e-05,0.0924721807241439,0,0,0
14985,521285.31662876427,2010-11-07 15:12:27,4142.059114599905,2,46,0.5501165986061096,4.04132890701294,44.80705042449837,44.24109425625794,178.84882074607344,161.3900542298452,9.71794142969884e-05,0.0924721807241439,0,0,0
14986,521315.3320078882,2010-11-07 15:12:57,4172.074493718937,2,46,0.5499359965324402,4.04375696182251,44.81163732646698,44.24109425625794,178.8673633702508,161.3900542298452,6.47544875391759e-05,0.0924721807241439,0,0,0
14987,521345.3473706414,2010-11-07 15:13:27,4202.08985647713,2,46,0.5501165986061096,4.046509265899658,44.816224261718446,44.24109425625794,178.88591797508695,161.3900542298452,9.71794142969884e-05,0.0924721807241439,0,0,0
14988,521375.362979579,2010-11-07 15:13:57,4232.105465419836,2,46,0.5501165986061096,4.0489373207092285,44.820811253298125,44.24109425625794,178.90448465606192,161.3900542298452,6.47544875391759e-05,0.0924721807241439,0,0,0
14989,521405.37825893407,2010-11-07 15:14:27,4262.120744764817,2,46,0.5501165986061096,4.051689624786377,44.82539823300134,44.24109425625794,178.92306323128454,161.3900542298452,9.71794142969884e-05,0.0924721807241439,0,0,0
14990,521435.39350284566,2010-11-07 15:14:57,4292.135988681362,2,46,0.5501165986061096,4.054279804229736,44.82998532109007,44.24109425625794,178.9416544043202,161.3900542298452,6.47544875391759e-05,0.0924721807241439,0,0,0
14991,521465.4088911376,2010-11-07 15:15:27,4322.151376968279,2,46,0.550297200679779,4.057193756103516,44.83457238089724,44.24109425625794,178.96025774027308,161.3900542298452,9.71794142969884e-05,0.0924721807241439,0,0,0
14992,521495.42428774526,2010-11-07 15:15:57,4352.166773580977,2,46,0.5501165986061096,4.059783935546875,44.83915944188438,44.24109425625794,178.97887338233505,161.3900542298452,9.71794142969884e-05,0.0924721807241439,0,0,0
14993,521525.4396297466,2010-11-07 15:16:27,4382.182115577345,2,46,0.5501165986061096,4.062211990356445,44.84374653055972,44.24109425625794,178.9975012294485,161.3900542298452,3.23295607813634e-05,0.0924721807241439,0,0,0
14994,521555.45500822907,2010-11-07 15:16:57,4412.197494064801,2,46,0.5501165986061096,4.064964294433594,44.84833346180769,44.24109425625794,179.016140842701,161.3900542298452,9.71794142969884e-05,0.0924721807241439,0,0,0
14995,521585.4704179645,2010-11-07 15:17:27,4442.212903800256,2,46,0.550297200679779,4.067878246307373,44.8529204887352,44.24109425625794,179.03479350136615,161.3900542298452,9.71794142969884e-05,0.0924721807241439,0,0,0
14996,521615.48579953966,2010-11-07 15:17:57,4472.2282853704055,2,46,0.5501165986061096,4.070630073547363,44.85750750026907,44.24109425625794,179.0534587813713,161.3900542298452,9.70840483205393e-05,0.0924721807241439,0,0,0
14997,521645.5012672399,2010-11-07 15:18:27,4502.243753085587,2,46,0.550297200679779,4.073544025421143,44.86209456475496,44.24109425625794,179.07213714767076,161.3900542298452,0.0001295089750783,0.0924721807241439,0,0,0
14998,521675.516517016,2010-11-07 15:18:57,4532.259002851734,2,46,0.550297200679779,4.076296329498291,44.86668156301034,44.24109425625794,179.09082834251694,161.3900542298452,6.47544875391759e-05,0.0924721807241439,0,0,0
14999,521705.53204235504,2010-11-07 15:19:27,4562.274528185741,2,46,0.5501165986061096,4.079048156738281,44.87126858204728,44.24109425625794,179.10953276668565,161.3900542298452,6.47544875391759e-05,0.0924721807241439,0,0,0
15000,521735.54725319904,2010-11-07 15:19:58,4592.2897390397575,2,46,0.5501165986061096,4.08212423324585,44.87585563069014,44.24109425625794,179.12825058552693,161.3900542298452,9.71794142969884e-05,0.0924721807241439,0,0,0
15001,521765.5627418264,2010-11-07 15:20:28,4622.305227667138,2,46,0.550297200679779,4.085038185119629,44.8804426549296,44.24109425625794,179.14698165331578,161.3900542298452,9.71794142969884e-05,0.0924721807241439,0,0,0
15002,521795.5780685546,2010-11-07 15:20:58,4652.3205543953945,2,46,0.5501165986061096,4.087790012359619,44.88502962054497,44.24109425625794,179.16572598296398,161.3900542298452,6.47544875391759e-05,0.0924721807241439,0,0,0
15003,521825.59341758856,2010-11-07 15:21:28,4682.33590342933,2,46,0.5501165986061096,4.090866088867188,44.88961661009152,44.24109425625794,179.18448406711275,161.3900542298452,9.71794142969884e-05,0.0924721807241439,0,0,0
15004,521855.6088050936,2010-11-07 15:21:58,4712.3512909342935,2,46,0.5501165986061096,4.093780040740967,44.89420358354168,44.24109425625794,179.20325573325866,161.3900542298452,6.47544875391759e-05,0.0924721807241439,0,0,0
15005,521885.62417482416,2010-11-07 15:22:28,4742.366660664891,2,46,0.5499359965324402,4.096855640411377,44.89879062730065,44.24109425625794,179.22204148310206,161.3900542298452,6.47544875391759e-05,0.0924721807241439,0,0,0
15006,521915.639578314,2010-11-07 15:22:58,4772.382064154755,2,46,0.5501165986061096,4.099769592285156,44.90337766186207,44.24109425625794,179.24084110484708,161.3900542298452,3.23295607813634e-05,0.0924721807241439,0,0,0
15007,521945.6549260046,2010-11-07 15:23:28,4802.397411845337,2,46,0.550297200679779,4.1031694412231445,44.90796473745698,44.24109425625794,179.25965497599108,161.3900542298452,9.71794142969884e-05,0.0924721807241439,0,0,0
15008,521975.6703132739,2010-11-07 15:23:58,4832.412799114713,2,46,0.5501165986061096,4.106083393096924,44.91255171639813,44.24109425625794,179.27848268816754,161.3900542298452,6.47544875391759e-05,0.0924721807241439,0,0,0
15009,522005.6856961624,2010-11-07 15:24:28,4862.428182003155,2,46,0.550297200679779,4.109321117401123,44.91713868924138,44.24109425625794,179.29732463304973,161.3900542298452,9.71794142969884e-05,0.0924721807241439,0,0,0
15010,522035.7010588354,2010-11-07 15:24:58,4892.443544676134,2,46,0.5501165986061096,4.112235069274902,44.92172572778767,44.24109425625794,179.31618120990967,161.3900542298452,6.47544875391759e-05,0.0924721807241439,0,0,0
15011,522065.7164382853,2010-11-07 15:25:28,4922.458924125992,2,46,0.5501165986061096,4.115634441375732,44.92631268025676,44.24109425625794,179.33505180667547,161.3900542298452,0.0001295089750783,0.0924721807241439,0,0,0
15012,522095.7318268278,2010-11-07 15:25:58,4952.474312668546,2,46,0.5501165986061096,4.118872165679932,44.93089961930141,44.24109425625794,179.35393687337947,161.3900542298452,6.47544875391759e-05,0.0924721807241439,0,0,0
15013,522125.747228052,2010-11-07 15:26:28,4982.489713927843,2,46,0.550297200679779,4.121947765350342,44.93548651439673,44.24109425625794,179.37283636198455,161.3900542298452,6.47544875391759e-05,0.0924721807241439,0,0,0
15014,522155.7625684945,2010-11-07 15:26:58,5012.505054325219,2,46,0.5501165986061096,4.125185489654541,44.94007352926451,44.24109425625794,179.39175111645343,161.3900542298452,6.47544875391759e-05,0.0924721807241439,0,0,0
15015,522185.7780709364,2010-11-07 15:27:28,5042.520556777109,2,46,0.550297200679779,4.12842321395874,44.944660551029,44.24109425625794,179.41068074703975,161.3900542298452,0.0001295089750783,0.0924721807241439,0,0,0
15016,522215.7933396649,2010-11-07 15:27:58,5072.535825505589,2,46,0.5501165986061096,4.1318230628967285,44.949247567874565,44.24109425625794,179.42962547352323,161.3900542298452,0.0001295089750783,0.0924721807241439,0,0,0
15017,522245.8088333248,2010-11-07 15:28:28,5102.5513191605205,2,46,0.550297200679779,4.135060787200928,44.95383462890669,44.24109425625794,179.44858553644147,161.3900542298452,9.71794142969884e-05,0.0924721807241439,0,0,0
15018,522275.82408188295,2010-11-07 15:28:58,5132.566567723665,2,46,0.5501165986061096,4.138460159301758,44.95842167733768,44.24109425625794,179.46756071963893,161.3900542298452,9.70840483205393e-05,0.0924721807241439,0,0,0
15019,522305.8394675433,2010-11-07 15:29:28,5162.581953384024,2,46,0.5501165986061096,4.141536235809326,44.963008767093605,44.24109425625794,179.48655148689383,161.3900542298452,3.24249267578125e-05,0.0924721807241439,0,0,0
15020,522335.85505711264,2010-11-07 15:29:58,5192.597542953372,2,46,0.550297200679779,4.145097732543945,44.967595890636055,44.24109425625794,179.5055579641264,161.3900542298452,6.47544875391759e-05,0.0924721807241439,0,0,0
15021,522365.8702537862,2010-11-07 15:30:28,5222.612739632005,2,46,0.5501165986061096,4.148497104644775,44.97218290375276,44.24109425625794,179.52457987001358,161.3900542298452,3.23295607813634e-05,0.0924721807241439,0,0,0
15022,522395.8856038929,2010-11-07 15:30:58,5252.628089733605,2,46,0.5501165986061096,4.1520586013793945,44.97676991968845,44.24109425625794,179.54361735499364,161.3900542298452,9.70840483205393e-05,0.0924721807241439,0,0,0
15023,522425.90100585896,2010-11-07 15:31:28,5282.643491724729,2,46,0.550297200679779,4.155458450317383,44.98135695502285,44.24109425625794,179.5626706415375,161.3900542298452,9.71794142969884e-05,0.0924721807241439,0,0,0
15024,522455.9163891183,2010-11-07 15:31:58,5312.658874959032,2,46,0.550297200679779,4.159019947052002,44.98594396657536,44.24109425625794,179.58173974100853,161.3900542298452,9.71794142969884e-05,0.0924721807241439,0,0,0
15025,522485.93176146544,2010-11-07 15:32:28,5342.67424730616,2,46,0.550297200679779,4.162419319152832,44.99053102052987,44.24109425625794,179.60082500419273,161.3900542298452,9.70840483205393e-05,0.0924721807241439,0,0,0
15026,522515.9471138276,2010-11-07 15:32:58,5372.689599668403,2,46,0.5499359965324402,4.165980815887451,44.99511802946025,44.24109425625794,179.61992622168748,161.3900542298452,0.0001295089750783,0.0924721807241439,0,0,0
15027,522545.96256974334,2010-11-07 15:33:28,5402.705055609194,2,46,0.550297200679779,4.16954231262207,44.99970496936887,44.24109425625794,179.63904334752067,161.3900542298452,9.70840483205393e-05,0.0924721807241439,0,0,0
15028,522575.9778840457,2010-11-07 15:33:58,5432.7203698863705,2,46,0.550297200679779,4.173265933990479,45.004291962668255,44.24109425625794,179.6581768949503,161.3900542298452,0.0001295089750783,0.0924721807241439,0,0,0
15029,522605.9933918459,2010-11-07 15:34:28,5462.735877691623,2,46,0.550297200679779,4.176827430725098,45.00887898996736,44.24109425625794,179.6773270865903,161.3900542298452,0.0001295089750783,0.0924721807241439,0,0,0
15030,522636.0086481935,2010-11-07 15:34:58,5492.751134034185,2,46,0.5501165986061096,4.180226802825928,45.0134659992815,44.24109425625794,179.69649382342024,161.3900542298452,3.23295607813634e-05,0.0924721807241439,0,0,0
15031,522666.02400328754,2010-11-07 15:35:28,5522.766489128247,2,46,0.5501165986061096,4.183788299560547,45.01805303972846,44.24109425625794,179.71567738363822,161.3900542298452,6.47544875391759e-05,0.0924721807241439,0,0,0
15032,522696.0394240054,2010-11-07 15:35:58,5552.781909906266,2,46,0.5501165986061096,4.187511920928955,45.02263998116513,44.24109425625794,179.73487708161332,161.3900542298452,6.47544875391759e-05,0.0924721807241439,0,0,0
15033,522726.05476092914,2010-11-07 15:36:28,5582.797246769821,2,46,0.550297200679779,4.191235065460205,45.02722704088469,44.24109425625794,179.75409411281112,161.3900542298452,9.70840483205393e-05,0.0924721807241439,0,0,0
15034,522756.07013674994,2010-11-07 15:36:58,5612.81262259062,2,46,0.5501165986061096,4.195120334625244,45.03181406670631,44.24109425625794,179.77332798941876,161.3900542298452,0.0001295089750783,0.0924721807241439,0,0,0
15035,522786.0866575788,2010-11-07 15:37:28,5642.829143419536,2,46,0.5501165986061096,4.198681831359863,45.03640129023073,44.24109425625794,179.79257975142923,161.3900542298452,9.71794142969884e-05,0.0924721807241439,0,0,0
15036,522794.8354355045,2010-11-07 15:37:37,5651.577921345204,2,46,0.5504778623580933,4.200138568878174,45.03773826402307,44.24109425625794,179.79819402514238,161.3900542298452,0.0001618385285837,0.0924721807241439,0,0,0
15037,522824.8639118965,2010-11-07 15:38:07,30.015380241834425,3,46,0.0,4.118386268615723,45.03773826402307,44.24109425625794,179.79819402514238,161.3900542298452,-0.0003561973571777,0.0924721807241439,0,0,0
15038,522854.8794267894,2010-11-07 15:38:37,60.03089513979125,3,46,0.0,4.108511447906494,45.03773826402307,44.24109425625794,179.79819402514238,161.3900542298452,-0.0001942634553415,0.0924721807241439,0,0,0
15039,522884.8946683851,2010-11-07 15:39:07,90.04613673053122,3,46,0.0,4.102845668792725,45.03773826402307,44.24109425625794,179.79819402514238,161.3900542298452,-0.0001295089750783,0.0924721807241439,0,0,0
15040,522914.86317608086,2010-11-07 15:39:37,120.01464442627945,3,46,0.0,4.0992841720581055,45.03773826402307,44.24109425625794,179.79819402514238,161.3900542298452,-6.47544875391759e-05,0.0924721807241439,0,0,0
15041,522914.8772413145,2010-11-07 15:39:37,0.015623132742885,4,46,0.9752708673477172,4.199653148651123,45.0377424964635,44.24109425625794,179.79821179992416,161.3900542298452,0.0,0.0924721807241439,0,0,0
15042,522915.89284239104,2010-11-07 15:39:38,1.031224209276232,4,46,0.9247002601623536,4.199814796447754,45.03800887832066,44.24109425625794,179.79933050037198,161.3900542298452,3.23295607813634e-05,0.0924721807241439,0,0,0
15043,522918.0959583323,2010-11-07 15:39:40,3.234340170656755,4,46,0.8744908571243286,4.199814796447754,45.038558171210646,44.24109425625794,179.80163731533722,161.3900542298452,3.23295607813634e-05,0.0924721807241439,0,0,0
15044,522921.4552945775,2010-11-07 15:39:44,6.593676395695409,4,46,0.8244621157646179,4.199653148651123,45.03934953520281,44.24109425625794,179.8049607543103,161.3900542298452,0.0,0.0924721807241439,0,0,0
15045,522926.06484905456,2010-11-07 15:39:48,11.20323087283257,4,46,0.7744333148002625,4.199814796447754,45.04037172452409,44.24109425625794,179.80925358663688,161.3900542298452,3.23295607813634e-05,0.0924721807241439,0,0,0
15046,522932.1427055094,2010-11-07 15:39:54,17.281087327598506,4,46,0.7242239713668823,4.199653148651123,45.04163514608577,44.24109425625794,179.8145594965913,161.3900542298452,0.0,0.0924721807241439,0,0,0
15047,522940.14264433744,2010-11-07 15:40:02,25.2810261556732,4,46,0.6741951704025269,4.199814796447754,45.043186605477416,44.24109425625794,179.82107508130616,161.3900542298452,3.23295607813634e-05,0.0924721807241439,0,0,0
15048,522950.9550997847,2010-11-07 15:40:13,36.09348160793674,4,46,0.6241664290428162,4.199653148651123,45.04513273934177,44.24109425625794,179.82924818517554,161.3900542298452,3.24249267578125e-05,0.0924721807241439,0,0,0
15049,522966.4549370231,2010-11-07 15:40:29,51.59331884126146,4,46,0.5739570260047913,4.199653148651123,45.0477059988935,44.24109425625794,179.8400549998359,161.3900542298452,-3.23295607813634e-05,0.0924721807241439,0,0,0
15050,522991.0643134026,2010-11-07 15:40:53,76.2026952207626,4,46,0.5239282846450806,4.199653148651123,45.05144598677682,44.24109425625794,179.85576168445505,161.3900542298452,0.0,0.0924721807241439,0,0,0
15051,523033.3919901005,2010-11-07 15:41:36,118.53037192376355,4,46,0.4738995134830475,4.199653148651123,45.0572856333109,44.24109425625794,179.88028618948553,161.3900542298452,3.24249267578125e-05,0.0924721807241439,0,0,0
15052,523105.6881649504,2010-11-07 15:42:48,190.82654676866483,4,46,0.4238707423210144,4.199491024017334,45.06626628288854,44.24109425625794,179.91800184942036,161.3900542298452,0.0,0.0924721807241439,0,0,0
15053,523206.9685815218,2010-11-07 15:44:29,292.106963345042,4,46,0.3738419711589813,4.199491024017334,45.07746566619895,44.24109425625794,179.96503544302632,161.3900542298452,-3.24249267578125e-05,0.0924721807241439,0,0,0
15054,523328.2176101158,2010-11-07 15:46:30,413.35599193409706,4,46,0.3238131999969482,4.199491024017334,45.089197609923154,44.24109425625794,180.0143052765545,161.3900542298452,-3.24249267578125e-05,0.0924721807241439,0,0,0
15055,523473.0446724495,2010-11-07 15:48:55,558.183054262756,4,46,0.2736037969589233,4.199653148651123,45.10120554146132,44.24109425625794,180.06473450648892,161.3900542298452,0.0,0.0924721807241439,0,0,0
15056,523647.1995032753,2010-11-07 15:51:49,732.3378850935604,4,46,0.2235750406980514,4.199653148651123,45.11320837502583,44.24109425625794,180.1151425418894,161.3900542298452,-3.23295607813634e-05,0.0924721807241439,0,0,0
15057,523867.90068850265,2010-11-07 15:55:30,953.039070345979,4,46,0.1735462695360183,4.199491024017334,45.12532957740064,44.24109425625794,180.16604770984137,161.3900542298452,-3.24249267578125e-05,0.0924721807241439,0,0,0
15058,524178.72625568765,2010-11-07 16:00:41,1263.8646375059284,4,46,0.1235175058245658,4.199653148651123,45.13804239313767,44.24109425625794,180.2194372896636,161.3900542298452,3.24249267578125e-05,0.0924721807241439,0,0,0
15059,524697.8626453936,2010-11-07 16:09:20,1783.0010272268084,4,46,0.0734887346625328,4.199653148651123,45.15192537955882,44.24109425625794,180.27774130564111,161.3900542298452,0.0,0.0924721807241439,0,0,0
15060,525124.3278377187,2010-11-07 16:16:27,2209.466219536844,4,46,0.0496483072638511,4.199491024017334,45.15916863786249,44.24109425625794,180.308160614683,161.3900542298452,-6.47544875391759e-05,0.0924721807241439,0,0,0
15061,525154.3598976305,2010-11-07 16:16:57,30.015469790361323,5,46,0.0,4.192044734954834,45.15916863786249,44.24109425625794,180.308160614683,161.3900542298452,-6.47544875391759e-05,0.0924721807241439,0,0,0
15062,525184.3595192113,2010-11-07 16:17:27,60.01509137115338,5,46,0.0,4.190911293029785,45.15916863786249,44.24109425625794,180.308160614683,161.3900542298452,-3.24249267578125e-05,0.0924721807241439,0,0,0
15063,525184.5171541547,2010-11-07 16:17:27,0.187412560583919,6,46,-1.9243103452026844e-05,4.190911293029785,45.15916863786249,44.24109425725972,180.308160614683,161.39005423404356,0.0,0.0931148082017898,0,0,0
15064,525189.3452460399,2010-11-07 16:17:32,5.015504445712567,6,46,0.0008838032954372,4.190911293029785,45.15916945490236,44.241094257344045,180.3081640390313,161.39005423439698,-6.47544875391759e-05,0.0931148082017898,0,0,0
15065,525219.3779224294,2010-11-07 16:18:02,30.01555158954467,7,46,-1.0997490882873535,4.023197650909424,45.15916945490236,44.25026410371823,180.3081640390313,161.4271315323267,-0.0008418083307333,0.0931148082017898,0,0,0
15066,525249.3932671476,2010-11-07 16:18:32,60.03089630770654,7,46,-1.099929690361023,3.9985909461975098,45.15916945490236,44.25943389114887,180.3081640390313,161.46390215796748,-0.0005504608270712,0.0931148082017898,0,0,0
15067,525279.4086351838,2010-11-07 16:19:02,90.04626434407426,7,46,-1.0997490882873535,3.981431245803833,45.15916945490236,44.26860366375102,180.3081640390313,161.50048570846508,-0.0004209041653666,0.0931148082017898,0,0,0
15068,525309.4238531807,2010-11-07 16:19:32,120.06148235595776,7,46,-1.099929690361023,3.967832803726196,45.15916945490236,44.27777332913058,180.3081640390313,161.5369296325298,-0.0003237724304199,0.0931148082017898,0,0,0
15069,525339.4392500089,2010-11-07 16:20:02,150.07687915913183,7,46,-1.099929690361023,3.956176996231079,45.15916945490236,44.28694298452736,180.3081640390313,161.57325880498493,-0.0002913951757363,0.0931148082017898,0,0,0
15070,525369.4546705213,2010-11-07 16:20:32,180.0922996915377,7,46,-1.099929690361023,3.945654392242432,45.15916945490236,44.29611266798286,180.3081640390313,161.60948656851403,-0.0002266406954731,0.0931148082017898,0,0,0
15071,525399.4700269587,2010-11-07 16:21:02,210.1076561089026,7,46,-1.099929690361023,3.935779333114624,45.15916945490236,44.305282314096175,180.3081640390313,161.64562042844193,-0.0002590179501567,0.0931148082017898,0,0,0
15072,525429.4880525037,2010-11-07 16:21:32,240.1256817390332,7,46,-1.0997490882873535,3.926228046417236,45.15916945490236,44.31445283992974,180.3081640390313,161.68166958556046,-0.0002913951757363,0.0931148082017898,0,0,0
15073,525459.5012161926,2010-11-07 16:22:02,270.13884543803573,7,46,-1.0997490882873535,3.917324304580689,45.15916945490236,44.32362184751637,180.3081640390313,161.71762835387688,-0.0002266406954731,0.0931148082017898,0,0,0
15074,525489.5161749824,2010-11-07 16:22:32,300.1538041426484,7,46,-1.0997490882873535,3.9085826873779297,45.15916945490236,44.33279135759258,180.3081640390313,161.75350802701274,-0.0002590179501567,0.0931148082017898,0,0,0
15075,525519.5315325577,2010-11-07 16:23:02,330.16916171790353,7,46,-1.0997490882873535,3.9000027179718018,45.15916945490236,44.341961048211225,180.3081640390313,161.78930916710036,-0.0002266406954731,0.0931148082017898,0,0,0
15076,525549.5469217218,2010-11-07 16:23:32,360.1845508769968,7,46,-1.0997490882873535,3.891584634780884,45.15916945490236,44.35113071335398,180.3081640390313,161.82503196648423,-0.0002590179501567,0.0931148082017898,0,0,0
15077,525579.5623149661,2010-11-07 16:24:02,390.1999441262999,7,46,-1.0997490882873535,3.8834903240203857,45.15916945490236,44.360300398967446,180.3081640390313,161.8606792972318,-0.0002266406954731,0.0931148082017898,0,0,0
15078,525609.5776678196,2010-11-07 16:24:32,420.2152969897938,7,46,-1.099929690361023,3.8752341270446777,45.15916945490236,44.36947013465642,180.3081640390313,161.89625281278376,-0.0002913951757363,0.0931148082017898,0,0,0
15079,525639.5930438458,2010-11-07 16:25:02,450.2306729960556,7,46,-1.0997490882873535,3.8676254749298096,45.15916945490236,44.37863985697154,180.3081640390313,161.93175249234793,-0.0001942634553415,0.0931148082017898,0,0,0
15080,525669.6084272055,2010-11-07 16:25:32,480.2460563757225,7,46,-1.099568486213684,3.8596930503845215,45.15916945490236,44.38780963237454,180.3081640390313,161.9671807779771,-0.0001618862152099,0.0931148082017898,0,0,0
15081,525699.6238164598,2010-11-07 16:26:02,510.2614456100034,7,46,-1.099929690361023,3.8519225120544434,45.15916945490236,44.39697937100586,180.3081640390313,162.0025366988176,-0.0001618862152099,0.0931148082017898,0,0,0
15082,525729.6392636838,2010-11-07 16:26:32,540.2768928791484,7,46,-1.099929690361023,3.844151973724365,45.15916945490236,44.406149185817554,180.3081640390313,162.0378218621249,-0.0002266406954731,0.0931148082017898,0,0,0
15083,525759.6545573596,2010-11-07 16:27:02,570.2921865097879,7,46,-1.0997490882873535,3.836867094039917,45.15916945490236,44.41531891527979,180.3081640390313,162.07303762937815,-0.0001618862152099,0.0931148082017898,0,0,0
15084,525789.6699399825,2010-11-07 16:27:32,600.3075691576281,7,46,-1.0997490882873535,3.829420566558838,45.15916945490236,44.424488666620704,180.3081640390313,162.10818491698132,-0.0001618862152099,0.0931148082017898,0,0,0
15085,525819.6853185951,2010-11-07 16:28:02,630.3229477553585,7,46,-1.099929690361023,3.8218119144439697,45.15916945490236,44.43365841543003,180.3081640390313,162.14326449644673,-0.0002266406954731,0.0931148082017898,0,0,0
15086,525849.700677198,2010-11-07 16:28:32,660.3383063631912,7,46,-1.0997490882873535,3.814850807189941,45.15916945490236,44.4428281260718,180.3081640390313,162.17827788433067,-0.0001942634553415,0.0931148082017898,0,0,0
15087,525879.7160578409,2010-11-07 16:29:02,690.353687001014,7,46,-1.0997490882873535,3.807727813720703,45.15916945490236,44.45199789989032,180.3081640390313,162.21322589886978,-0.0001942634553415,0.0931148082017898,0,0,0
15088,525909.7314271003,2010-11-07 16:29:32,720.3690562504097,7,46,-1.099929690361023,3.800766706466675,45.15916945490236,44.46116762565025,180.3081640390313,162.24810980524165,-0.0001618862152099,0.0931148082017898,0,0,0
15089,525939.7471636365,2010-11-07 16:30:02,750.3847927866096,7,46,-1.0997490882873535,3.793967485427856,45.15916945490236,44.47033742134449,180.3081640390313,162.28293134919042,-0.0001942634553415,0.0931148082017898,0,0,0
15090,525969.7623074632,2010-11-07 16:30:32,780.3999366133157,7,46,-1.099929690361023,3.787168264389038,45.15916945490236,44.47950702300819,180.3081640390313,162.3176906962283,-0.0002266406954731,0.0931148082017898,0,0,0
15091,525999.7775803821,2010-11-07 16:31:02,810.4152095573181,7,46,-1.099929690361023,3.78101658821106,45.15916945490236,44.48867675601842,180.3081640390313,162.35239097370456,-0.0001618862152099,0.0931148082017898,0,0,0
15092,526029.7929452755,2010-11-07 16:31:32,840.4305744458284,7,46,-1.0997490882873535,3.774541139602661,45.15916945490236,44.497846478440806,180.3081640390313,162.387032459034,-0.0001942634553415,0.0931148082017898,0,0,0
15093,526059.8083280588,2010-11-07 16:32:02,870.4459572039436,7,46,-1.0997490882873535,3.7683894634246826,45.15916945490236,44.50701621653444,180.3081640390313,162.42161640201212,-0.0001942634553415,0.0931148082017898,0,0,0
15094,526089.8237039297,2010-11-07 16:32:32,900.4613331049427,7,46,-1.0997490882873535,3.762399673461914,45.15916945490236,44.51618597568984,180.3081640390313,162.45614410340497,-0.0001618862152099,0.0931148082017898,0,0,0
15095,526119.8391028582,2010-11-07 16:33:02,930.476732013372,7,46,-1.0997490882873535,3.7564098834991455,45.15916945490236,44.525355833896135,180.3081640390313,162.49061697608352,-0.0001618862152099,0.0931148082017898,0,0,0
15096,526149.8544948493,2010-11-07 16:33:32,960.4921240045344,7,46,-1.099929690361023,3.750582218170166,45.15916945490236,44.53452561316,180.3081640390313,162.52503547271203,-0.0001618862152099,0.0931148082017898,0,0,0
15097,526179.8698519935,2010-11-07 16:34:02,990.5074811437012,7,46,-1.0997490882873535,3.744754314422608,45.15916945490236,44.54369537906979,180.3081640390313,162.55940074937322,-0.0001618862152099,0.0931148082017898,0,0,0
15098,526209.885433999,2010-11-07 16:34:32,1020.5230632794938,7,46,-1.099929690361023,3.739088296890259,45.15916945490236,44.55286516022555,180.3081640390313,162.59371378894153,-0.0001942634553415,0.0931148082017898,0,0,0
15099,526239.9005906878,2010-11-07 16:35:02,1050.53821983798,7,46,-1.0997490882873535,3.73358416557312,45.15916945490236,44.56203484373697,180.3081640390313,162.62797544081894,-0.0001942634553415,0.0931148082017898,0,0,0
15100,526269.9159657317,2010-11-07 16:35:32,1080.5535948818397,7,46,-1.0997490882873535,3.728241920471192,45.15916945490236,44.5712046611178,180.3081640390313,162.66218705239066,-0.0001618862152099,0.0931148082017898,0,0,0
15101,526299.9313529208,2010-11-07 16:36:03,1110.568982076028,7,46,-1.0997490882873535,3.722899675369263,45.15916945490236,44.58037442217874,180.3081640390313,162.69634898874415,-0.0001295089750783,0.0931148082017898,0,0,0
15102,526329.946802972,2010-11-07 16:36:33,1140.5844322674675,7,46,-1.0997490882873535,3.717395544052124,45.15916945490236,44.5895442006982,180.3081640390313,162.73046146644754,-0.0001618862152099,0.0931148082017898,0,0,0
15103,526359.9620977003,2010-11-07 16:37:03,1170.5997268504846,7,46,-1.0997490882873535,3.7120532989501953,45.15916945490236,44.59871396110001,180.3081640390313,162.7645255721033,-0.0001618862152099,0.0931148082017898,0,0,0
15104,526389.9775849242,2010-11-07 16:37:33,1200.6152140994252,7,46,-1.0997490882873535,3.7070348262786874,45.15916945490236,44.607883736191575,180.3081640390313,162.79854177254452,-0.0001618862152099,0.0931148082017898,0,0,0
15105,526419.9928804596,2010-11-07 16:38:03,1230.6305096097567,7,46,-1.099929690361023,3.7020163536071777,45.15916945490236,44.61705350029966,180.3081640390313,162.83251117937783,-0.0001295089750783,0.0931148082017898,0,0,0
15106,526450.0082307567,2010-11-07 16:38:33,1260.6458599268944,7,46,-1.0997490882873535,3.696997880935669,45.15916945490236,44.626223256025874,180.3081640390313,162.86643441140228,-9.713172767078504e-05,0.0931148082017898,0,0,0
15107,526480.0236075198,2010-11-07 16:39:03,1290.6612366699956,7,46,-1.0997490882873535,3.69197940826416,45.15916945490236,44.63539299239338,180.3081640390313,162.90031183440755,-0.0001618862152099,0.0931148082017898,0,0,0
15108,526510.0389844534,2010-11-07 16:39:33,1320.6766136236222,7,46,-1.0997490882873535,3.687122821807861,45.15916945490236,44.6445627608079,180.3081640390313,162.93414433652296,-0.0001295089750783,0.0931148082017898,0,0,0
15109,526540.0545048,2010-11-07 16:40:03,1350.6921339551418,7,46,-1.099929690361023,3.682428121566773,45.15916945490236,44.65373259466776,180.3081640390313,162.96793275950162,-9.713172767078504e-05,0.0931148082017898,0,0,0
15110,526570.069734897,2010-11-07 16:40:33,1380.707364057204,7,46,-1.0997490882873535,3.6775715351104736,45.15916945490236,44.662902290513095,180.3081640390313,163.00167685639704,-0.0001295089750783,0.0931148082017898,0,0,0
15111,526600.0851337854,2010-11-07 16:41:03,1410.722762960621,7,46,-1.0997490882873535,3.6730387210845943,45.15916945490236,44.672072108465294,180.3081640390313,163.0353782766657,-6.47544875391759e-05,0.0931148082017898,0,0,0
15112,526630.1005119069,2010-11-07 16:41:33,1440.738141087175,7,46,-1.099929690361023,3.668182373046875,45.15916945490236,44.681241890532,180.3081640390313,163.0690370066063,-0.0001295089750783,0.0931148082017898,0,0,0
15113,526660.116003191,2010-11-07 16:42:03,1470.7536323461256,7,46,-1.0997490882873535,3.663811445236206,45.15916945490236,44.690411675228574,180.3081640390313,163.10265390357304,-0.0001295089750783,0.0931148082017898,0,0,0
15114,526690.1312535135,2010-11-07 16:42:33,1500.7688826786864,7,46,-1.099929690361023,3.659278631210327,45.15916945490236,44.699581507356086,180.3081640390313,163.1362296338972,-9.713172767078504e-05,0.0931148082017898,0,0,0
15115,526720.1467191835,2010-11-07 16:43:03,1530.7843484490131,7,46,-1.099929690361023,3.654907703399658,45.15916945490236,44.7087512622886,180.3081640390313,163.16976460672078,-9.713172767078504e-05,0.0931148082017898,0,0,0
15116,526750.1623547227,2010-11-07 16:43:33,1560.7999840131713,7,46,-1.099929690361023,3.650698661804199,45.15916945490236,44.71792112983582,180.3081640390313,163.20326021243346,-6.47544875391759e-05,0.0931148082017898,0,0,0
15117,526780.1773826049,2010-11-07 16:44:03,1590.8150117551118,7,46,-1.0997490882873535,3.6463277339935294,45.15916945490236,44.727090740388434,180.3081640390313,163.2367156542743,-0.0001295089750783,0.0931148082017898,0,0,0
15118,526810.1928976383,2010-11-07 16:44:33,1620.8305267934188,7,46,-1.0997490882873535,3.642280578613281,45.15916945490236,44.73626041152158,180.3081640390313,163.27013288765212,-0.0001295089750783,0.0931148082017898,0,0,0
15119,526840.208272607,2010-11-07 16:45:03,1650.8459017671032,7,46,-1.099929690361023,3.638233423233032,45.15916945490236,44.74543013546523,180.3081640390313,163.30351258255055,-9.713172767078504e-05,0.0931148082017898,0,0,0
15120,526870.2235033155,2010-11-07 16:45:33,1680.8611324656547,7,46,-1.099568486213684,3.634186267852783,45.15916945490236,44.754599757228576,180.3081640390313,163.33685469340077,-9.713172767078504e-05,0.0931148082017898,0,0,0
15121,526900.2391054111,2010-11-07 16:46:03,1710.8767345612705,7,46,-1.0997490882873535,3.630300998687744,45.15916945490236,44.76376887701185,180.3081640390313,163.37015861191364,-6.47544875391759e-05,0.0931148082017898,0,0,0
15122,526930.2542987464,2010-11-07 16:46:33,1740.891927896557,7,46,-1.0997490882873535,3.626253843307495,45.15916945490236,44.7729380324847,180.3081640390313,163.40342725262465,-0.0001295089750783,0.0931148082017898,0,0,0
15123,526960.2696647026,2010-11-07 16:47:03,1770.9072938527322,7,46,-1.099929690361023,3.622692346572876,45.15916945490236,44.782107792923945,180.3081640390313,163.43666348620576,-9.713172767078504e-05,0.0931148082017898,0,0,0
15124,526990.2850526536,2010-11-07 16:47:33,1800.92268180381,7,46,-1.099929690361023,3.618968963623047,45.15916945490236,44.79127762673138,180.3081640390313,163.46986648618838,-0.0001295089750783,0.0931148082017898,0,0,0
15125,527020.300427462,2010-11-07 16:48:03,1830.9380566120817,7,46,-1.099929690361023,3.6155693531036377,45.15916945490236,44.8004474699345,180.3081640390313,163.5030368829745,-0.0001295089750783,0.0931148082017898,0,0,0
15126,527050.315819859,2010-11-07 16:48:33,1860.953449029308,7,46,-1.0997490882873535,3.612169742584229,45.15916945490236,44.8096171954936,180.3081640390313,163.5361750656098,-6.47544875391759e-05,0.0931148082017898,0,0,0
15127,527080.3311766423,2010-11-07 16:49:03,1890.968805792536,7,46,-1.0997490882873535,3.608932018280029,45.15916945490236,44.81878698139106,180.3081640390313,163.56928260210245,-9.713172767078504e-05,0.0931148082017898,0,0,0
15128,527110.346552759,2010-11-07 16:49:33,1920.9841819090727,7,46,-1.0997490882873535,3.60553240776062,45.15916945490236,44.82795680626428,180.3081640390313,163.60235997747353,-0.0001295089750783,0.0931148082017898,0,0,0
15129,527140.3620750202,2010-11-07 16:50:03,1950.9997041804347,7,46,-1.0997490882873535,3.602294683456421,45.15916945490236,44.83712663902875,180.3081640390313,163.63540789069486,-9.713172767078504e-05,0.0931148082017898,0,0,0
15130,527170.3776606347,2010-11-07 16:50:33,1981.015289900174,7,46,-1.0997490882873535,3.5993807315826416,45.15916945490236,44.84629652056022,180.3081640390313,163.66842737736755,-6.47544875391759e-05,0.0931148082017898,0,0,0
15131,527200.3926819556,2010-11-07 16:51:03,2011.0303111057988,7,46,-1.0997490882873535,3.5964667797088623,45.15916945490236,44.85546624268298,180.3081640390313,163.7014182935858,-6.47544875391759e-05,0.0931148082017898,0,0,0
15132,527230.4080546085,2010-11-07 16:51:33,2041.04568375869,7,46,-1.0997490882873535,3.593390941619873,45.15916945490236,44.86463600787391,180.3081640390313,163.73438179296355,-6.47544875391759e-05,0.0931148082017898,0,0,0
15133,527260.423453903,2010-11-07 16:52:03,2071.0610830530823,7,46,-1.099568486213684,3.590315341949463,45.15916945490236,44.87380585282399,180.3081640390313,163.76731851106905,-9.713172767078504e-05,0.0931148082017898,0,0,0
15134,527290.4388117037,2010-11-07 16:52:33,2101.0764408639257,7,46,-1.099929690361023,3.587401390075684,45.15916945490236,44.882975764603614,180.3081640390313,163.800228584882,-6.47544875391759e-05,0.0931148082017898,0,0,0
15135,527320.454188121,2010-11-07 16:53:03,2131.0918172762013,7,46,-1.099568486213684,3.5846493244171143,45.15916945490236,44.892145698798174,180.3081640390313,163.8331121936418,-6.47544875391759e-05,0.0931148082017898,0,0,0
15136,527350.4721397766,2010-11-07 16:53:33,2161.10976901188,7,46,-1.0997490882873535,3.581735372543335,45.15916945490236,44.90131635178015,180.3081640390313,163.8659719844272,-9.713172767078504e-05,0.0931148082017898,0,0,0
15137,527380.4852881022,2010-11-07 16:54:03,2191.1229172873827,7,46,-1.0997490882873535,3.578821420669556,45.15916945490236,44.91048551851728,180.3081640390313,163.8988001689938,-6.47544875391759e-05,0.0931148082017898,0,0,0
15138,527410.500340676,2010-11-07 16:54:33,2221.137969831233,7,46,-1.0997490882873535,3.5759074687957764,45.15916945490236,44.91965533479614,180.3081640390313,163.93160406718766,-9.713172767078504e-05,0.0931148082017898,0,0,0
15139,527440.5157001059,2010-11-07 16:55:03,2251.153329256105,7,46,-1.0997490882873535,3.572993516921997,45.15916945490236,44.92882527711632,180.3081640390313,163.96438175758598,-9.713172767078504e-05,0.0931148082017898,0,0,0
15140,527470.531073641,2010-11-07 16:55:33,2281.168702801223,7,46,-1.0997490882873535,3.5700795650482178,45.15916945490236,44.93799493409714,180.3081640390313,163.99713152235066,-3.237724376958795e-05,0.0931148082017898,0,0,0
15141,527500.5464372062,2010-11-07 16:56:03,2311.1840663564053,7,46,-1.0997490882873535,3.5671656131744385,45.15916945490236,44.94716452478156,180.3081640390313,164.02985382031358,-6.47544875391759e-05,0.0931148082017898,0,0,0
15142,527530.5618083804,2010-11-07 16:56:33,2341.199437535618,7,46,-1.0997490882873535,3.564089775085449,45.15916945490236,44.95633417468683,180.3081640390313,164.06254879750682,-9.713172767078504e-05,0.0931148082017898,0,0,0
15143,527560.5771750434,2010-11-07 16:57:03,2371.214804188532,7,46,-1.0997490882873535,3.56101393699646,45.15916945490236,44.96550365434572,180.3081640390313,164.09521537951127,-6.47544875391759e-05,0.0931148082017898,0,0,0
15144,527590.5925688591,2010-11-07 16:57:33,2401.2301980092616,7,46,-1.099929690361023,3.5577762126922607,45.15916945490236,44.97467338940109,180.3081640390313,164.12785443838405,-0.0001295089750783,0.0931148082017898,0,0,0
15145,527620.6079486948,2010-11-07 16:58:03,2431.2455778450826,7,46,-1.0997490882873535,3.554538488388061,45.15916945490236,44.9838432292095,180.3081640390313,164.1604644472231,-9.713172767078504e-05,0.0931148082017898,0,0,0
15146,527650.6233777285,2010-11-07 16:58:33,2461.261006878709,7,46,-1.0997490882873535,3.5513007640838623,45.15916945490236,44.99301305009903,180.3081640390313,164.19304421757263,-9.713172767078504e-05,0.0931148082017898,0,0,0
15147,527680.6387463263,2010-11-07 16:59:03,2491.276375476478,7,46,-1.0997490882873535,3.547739267349243,45.15916945490236,45.00218292843002,180.3081640390313,164.2255932047948,-0.0001295089750783,0.0931148082017898,0,0,0
15148,527710.6540938816,2010-11-07 16:59:33,2521.2917230317216,7,46,-1.0997490882873535,3.544501543045044,45.15916945490236,45.011352774773975,180.3081640390313,164.25811030478175,-3.237724376958795e-05,0.0931148082017898,0,0,0
15149,527740.6694920181,2010-11-07 17:00:03,2551.307121168224,7,46,-1.0997490882873535,3.540616273880005,45.15916945490236,45.02052262946312,180.3081640390313,164.29059422087334,-9.713172767078504e-05,0.0931148082017898,0,0,0
15150,527770.6848329868,2010-11-07 17:00:33,2581.322462137027,7,46,-1.0997490882873535,3.536731004714966,45.15916945490236,45.02969247818822,180.3081640390313,164.32304362526406,-9.713172767078504e-05,0.0931148082017898,0,0,0
15151,527800.7002012689,2010-11-07 17:01:03,2611.337830419008,7,46,-1.0997490882873535,3.532683849334717,45.15916945490236,45.03886233983015,180.3081640390313,164.355457117887,-0.0001295089750783,0.0931148082017898,0,0,0
15152,527830.7155741523,2010-11-07 17:01:33,2641.3532033024744,7,46,-1.0997490882873535,3.528636693954468,45.15916945490236,45.04803218708564,180.3081640390313,164.38783336144655,-9.713172767078504e-05,0.0931148082017898,0,0,0
15153,527860.7311653658,2010-11-07 17:02:03,2671.368794546001,7,46,-1.0997490882873535,3.524427652359009,45.15916945490236,45.05720218170104,180.3081640390313,164.4201713998246,-9.713172767078504e-05,0.0931148082017898,0,0,0
15154,527890.7464818434,2010-11-07 17:02:33,2701.384110993595,7,46,-1.0997490882873535,3.51989483833313,45.15916945490236,45.06637207287352,180.3081640390313,164.45246884435272,-9.713172767078504e-05,0.0931148082017898,0,0,0
15155,527920.7617139806,2010-11-07 17:03:03,2731.399343130738,7,46,-1.099929690361023,3.515038251876831,45.15916945490236,45.0755419734462,180.3081640390313,164.4847240141985,-0.0001295089750783,0.0931148082017898,0,0,0
15156,527950.777080839,2010-11-07 17:03:33,2761.414709989165,7,46,-1.0997490882873535,3.5101819038391118,45.15916945490236,45.08471192104386,180.3081640390313,164.51693454772993,-0.0001295089750783,0.0931148082017898,0,0,0
15157,527980.7924798176,2010-11-07 17:04:03,2791.430108967769,7,46,-1.0997490882873535,3.5046777725219727,45.15916945490236,45.09388179018005,180.3081640390313,164.54909692954735,-0.0001295089750783,0.0931148082017898,0,0,0
15158,528010.8078383402,2010-11-07 17:04:33,2821.445467490389,7,46,-1.099929690361023,3.498687982559204,45.15916945490236,45.10305172851581,180.3081640390313,164.58120722333592,-0.0001618862152099,0.0931148082017898,0,0,0
15159,528040.8232184116,2010-11-07 17:05:03,2851.4608475617983,7,46,-1.099929690361023,3.491726875305176,45.15916945490236,45.11222160021198,180.3081640390313,164.61325899597966,-0.0002266406954731,0.0931148082017898,0,0,0
15160,528070.8386073201,2010-11-07 17:05:33,2881.476236470266,7,46,-1.099929690361023,3.4842801094055176,45.15916945490236,45.1213915005938,180.3081640390313,164.64524511541066,-0.0002590179501567,0.0931148082017898,0,0,0
15161,528100.85400284,2010-11-07 17:06:03,2911.491631995249,7,46,-1.099929690361023,3.47505259513855,45.15916945490236,45.13056138003308,180.3081640390313,164.67715501033416,-0.0002913951757363,0.0931148082017898,0,0,0
15162,528130.8694806104,2010-11-07 17:06:33,2941.507109755505,7,46,-1.0997490882873535,3.4646918773651123,45.15916945490236,45.13973139768316,180.3081640390313,164.7089758392964,-0.0002913951757363,0.0931148082017898,0,0,0
15163,528160.884729354,2010-11-07 17:07:03,2971.522358504112,7,46,-1.099929690361023,3.4517409801483154,45.15916945490236,45.148901295666406,180.3081640390313,164.74068886520965,-0.0003561496851034,0.0931148082017898,0,0,0
15164,528190.9001070244,2010-11-07 17:07:33,3001.537736174528,7,46,-1.099929690361023,3.4353904724121094,45.15916945490236,45.15807120013064,180.3081640390313,164.77226928748448,-0.0005180359003134,0.0931148082017898,0,0,0
15165,528220.9154945193,2010-11-07 17:08:04,3031.553123669468,7,46,-1.099568486213684,3.4148311614990234,45.15916945490236,45.16724116668606,180.3081640390313,164.8036814844396,-0.0006151676061563,0.0931148082017898,0,0,0
15166,528250.9308594629,2010-11-07 17:08:34,3061.5684886131157,7,46,-1.0997490882873535,3.38698673248291,45.15916945490236,45.17641112996242,180.3081640390313,164.8348729599802,-0.0008094310760498,0.0931148082017898,0,0,0
15167,528280.9462408125,2010-11-07 17:09:04,3091.583869967727,7,46,-1.099929690361023,3.3486199378967285,45.15916945490236,45.18558105456021,180.3081640390313,164.86576508750042,-0.0011979102855548,0.0931148082017898,0,0,0
15168,528310.9616496657,2010-11-07 17:09:34,3121.59927882098,7,46,-1.0997490882873535,3.295359373092652,45.15916945490236,45.19475093291691,180.3081640390313,164.8962411840858,-0.0016512393485754,0.0931148082017898,0,0,0
15169,528340.977005662,2010-11-07 17:10:04,3151.6146348122816,7,46,-1.0997490882873535,3.2197587490081787,45.15916945490236,45.20392074296948,180.3081640390313,164.92613296453337,-0.0023635388351976,0.0931148082017898,0,0,0
15170,528370.9923731672,2010-11-07 17:10:34,3181.630002317323,7,46,-1.0997490882873535,3.106600761413574,45.15916945490236,45.213090617414686,180.3081640390313,164.95517627253824,-0.003593826200813,0.0931148082017898,0,0,0
15171,528399.4297683806,2010-11-07 17:11:02,3210.067397535772,7,46,-1.099929690361023,2.9065098762512207,45.15916945490236,45.22177842591802,180.3081640390313,164.98142235649493,-0.0081914421170949,0.0931148082017898,0,0,0
15172,528414.242172826,2010-11-07 17:11:17,3224.879801981099,7,46,-1.099929690361023,2.7060954570770264,45.15916945490236,45.22630369445698,180.3081640390313,164.99414581464535,-0.0118824001401662,0.0931148082017898,0,0,0
15173,528414.6484214499,2010-11-07 17:11:17,3225.286050610177,7,46,-1.0997490882873535,2.699943780899048,45.15916945490236,45.22642780980153,180.3081640390313,164.99448131393558,-0.0118824001401662,0.0931148082017898,0,0,0
15174,528474.6916058275,2010-11-07 17:12:17,60.01522854856931,8,46,0.0,3.284027338027954,45.15916945490236,45.22642780980153,180.3081640390313,164.99448131393558,0.0012303352123126,0.0931148082017898,0,0,0
15175,528474.9076206493,2010-11-07 17:12:18,0.187530018777641,9,46,-1.9243103452026844e-05,3.284189224243164,45.15916945490236,45.22642781080393,180.3081640390313,164.99448131722767,0.0,0.0938397273421287,0,0,0
15176,528479.7355662644,2010-11-07 17:12:23,5.015475518505808,9,46,0.0007031940040178,3.2916359901428223,45.15917020914066,45.226427810887046,180.3081665193385,164.99448131750063,0.0010684489971026,0.0938397273421287,0,0,0
