Data_Point,Test_Time(s),Date_Time,Step_Time(s),Step_Index,Cycle_Index,Current(A),Voltage(V),Charge_Capacity(Ah),Discharge_Capacity(Ah),Charge_Energy(Wh),Discharge_Energy(Wh),dV/dt(V/s),Internal_Resistance(Ohm),Is_FC_Data,AC_Impedance(Ohm),ACI_Phase_Angle(Deg)
317,11180.763361120547,2010-11-01 17:29:50,30.015260357584896,1,2,0.0,3.395728588104248,0.923459658422289,0.980762635387361,3.710490196905901,3.572994817108426,0.0008094310760498,0.0922218039631843,0,0,0
318,11210.77864254572,2010-11-01 17:30:20,60.03054178275773,1,2,0.0,3.420335292816162,0.923459658422289,0.980762635387361,3.710490196905901,3.572994817108426,0.0005827903514727,0.0922218039631843,0,0,0
319,11240.793916256636,2010-11-01 17:30:50,90.0458154986871,1,2,0.0,3.4387900829315186,0.923459658422289,0.980762635387361,3.710490196905901,3.572994817108426,0.0004532813909463,0.0922218039631843,0,0,0
320,11270.762318494144,2010-11-01 17:31:20,120.01421773118284,1,2,0.0,3.453845500946045,0.923459658422289,0.980762635387361,3.710490196905901,3.572994817108426,0.0003885269106831,0.0922218039631843,0,0,0
321,11300.777872827004,2010-11-01 17:31:50,30.01537641728777,2,2,0.5501165986061096,3.6113603115081783,0.928046161203986,0.980762635387361,3.726891228789481,3.572994817108426,0.0016188621520996,0.0922218039631843,0,0,0
322,11330.7930539869,2010-11-01 17:32:20,60.030557577183046,2,2,0.5501165986061096,3.658469200134277,0.932632526730626,0.980762635387361,3.743569446009714,3.572994817108426,0.0010360718006268,0.0922218039631843,0,0,0
323,11360.808310149012,2010-11-01 17:32:50,90.0458137392954,2,2,0.5501165986061096,3.69197940826416,0.937218923292723,0.980762635387361,3.760428985117329,3.572994817108426,0.0008094310760498,0.0922218039631843,0,0,0
324,11390.82360425584,2010-11-01 17:33:20,120.0611078461236,2,2,0.5501165986061096,3.717557430267334,0.941805280955948,0.980762635387361,3.77742222940277,3.572994817108426,0.0006475448608398,0.0922218039631843,0,0,0
325,11420.838859300162,2010-11-01 17:33:50,150.07636289545826,2,2,0.5501165986061096,3.738116979598999,0.946391631515155,0.980762635387361,3.794520696616549,3.572994817108426,0.0005504131549969,0.0922218039631843,0,0,0
326,11450.854275602009,2010-11-01 17:34:20,180.0917791922915,2,2,0.5501165986061096,3.754952907562256,0.950977985722453,0.980762635387361,3.811704761149798,3.572994817108426,0.0004208564641885,0.0922218039631843,0,0,0
327,11480.869442391033,2010-11-01 17:34:50,210.1069459813149,2,2,0.5499359965324402,3.7677419185638423,0.955564373337176,0.980762635387361,3.828957104940238,3.572994817108426,0.0002913951757363,0.0922218039631843,0,0,0
328,11510.88468751058,2010-11-01 17:35:20,240.1221911008633,2,2,0.5501165986061096,3.775674343109131,0.960150820292511,0.980762635387361,3.846257134323377,3.572994817108426,0.0001618862152099,0.0922218039631843,0,0,0
329,11540.900086253594,2010-11-01 17:35:51,270.13758984889205,2,2,0.5501165986061096,3.7805309295654297,0.96473718458874,0.980762635387361,3.86358567062163,3.572994817108426,9.713172767078504e-05,0.0922218039631843,0,0,0
330,11570.915245208062,2010-11-01 17:36:21,300.1527487983467,2,2,0.5501165986061096,3.7844161987304688,0.969323526809924,0.980762635387361,3.880933754458797,3.572994817108426,9.713172767078504e-05,0.0922218039631843,0,0,0
331,11600.930513976642,2010-11-01 17:36:51,330.16801756692666,2,2,0.550297200679779,3.787977695465088,0.973909920078671,0.980762635387361,3.898298893291156,3.572994817108426,6.47544875391759e-05,0.0922218039631843,0,0,0
332,11630.948377762785,2010-11-01 17:37:21,360.1858814382825,2,2,0.5501165986061096,3.791377305984497,0.978496653102149,0.980762635387361,3.915681375752955,3.572994817108426,6.47544875391759e-05,0.0922218039631843,0,0,0
333,11660.96110031562,2010-11-01 17:37:51,390.1986039911162,2,2,0.5497553944587708,3.794615030288696,0.983082639813495,0.980762635387361,3.9330767621529,3.572994817108426,3.237724376958795e-05,0.0922218039631843,0,0,0
334,11690.976373590447,2010-11-01 17:38:21,420.2138771807319,2,2,0.5501165986061096,3.798176527023315,0.987668965457235,0.980762635387361,3.950489040473608,3.572994817108426,6.47544875391759e-05,0.0922218039631843,0,0,0
335,11720.991625055836,2010-11-01 17:38:51,450.2291286461205,2,2,0.550297200679779,3.8015761375427246,0.992255297133227,0.980762635387361,3.967916687861641,3.572994817108426,9.713172767078504e-05,0.0922218039631843,0,0,0
336,11751.00690332814,2010-11-01 17:39:21,480.2444069184233,2,2,0.5501165986061096,3.804813861846924,0.996841751323668,0.980762635387361,3.985359760386364,3.572994817108426,6.47544875391759e-05,0.0922218039631843,0,0,0
337,11781.022302732808,2010-11-01 17:39:51,510.25980633311616,2,2,0.5501165986061096,3.808051586151123,1.001428159799703,0.980762635387361,4.002817419220405,3.572994817108426,0.0001295089750783,0.0922218039631843,0,0,0
338,11811.03745670985,2010-11-01 17:40:21,540.2749603001338,2,2,0.5501165986061096,3.811127424240112,1.0060146479447,0.980762635387361,4.020289831085862,3.572994817108426,9.713172767078504e-05,0.0922218039631843,0,0,0
339,11841.052849302514,2010-11-01 17:40:51,570.2903528978103,2,2,0.5501165986061096,3.814365148544312,1.010601101646336,0.980762635387361,4.037776492363752,3.572994817108426,0.0001295089750783,0.0922218039631843,0,0,0
340,11871.06800504396,2010-11-01 17:41:21,600.3055086392571,2,2,0.5501165986061096,3.817117214202881,1.015187433560128,0.980762635387361,4.05527696127684,3.572994817108426,3.237724376958795e-05,0.0922218039631843,0,0,0
341,11901.083326799804,2010-11-01 17:41:51,630.3208312372037,2,2,0.5501165986061096,3.82035493850708,1.01977385295314,0.980762635387361,4.072791684704093,3.572994817108426,6.47544875391759e-05,0.0922218039631843,0,0,0
342,11931.098564455724,2010-11-01 17:42:21,660.3360680460072,2,2,0.5501165986061096,3.823430776596069,1.024360229798267,0.980762635387361,4.090320152899065,3.572994817108426,9.713172767078504e-05,0.0922218039631843,0,0,0
343,11961.113838342078,2010-11-01 17:42:51,690.351341932362,2,2,0.5501165986061096,3.8265066146850586,1.028946620152074,0.980762635387361,4.107862666957507,3.572994817108426,6.47544875391759e-05,0.0922218039631843,0,0,0
344,11991.129102845009,2010-11-01 17:43:21,720.3666064603568,2,2,0.5501165986061096,3.829582452774048,1.033533077139805,0.980762635387361,4.125419534783068,3.572994817108426,9.713172767078504e-05,0.0922218039631843,0,0,0
345,12021.14438077145,2010-11-01 17:43:51,750.3818843617338,2,2,0.5501165986061096,3.832658290863037,1.038119497717354,0.980762635387361,4.142990576097488,3.572994817108426,6.47544875391759e-05,0.0922218039631843,0,0,0
346,12051.15967699356,2010-11-01 17:44:21,780.397180603892,2,2,0.5501165986061096,3.835895776748657,1.042705918759074,0.980762635387361,4.160576147195909,3.572994817108426,0.0001295089750783,0.0922218039631843,0,0,0
347,12081.17493263938,2010-11-01 17:44:51,810.4124362296656,2,2,0.5501165986061096,3.8392953872680655,1.047292305142728,0.980762635387361,4.178176490948604,3.572994817108426,0.0001295089750783,0.0922218039631843,0,0,0
348,12111.190230991806,2010-11-01 17:45:21,840.4277345820915,2,2,0.5501165986061096,3.8425331115722656,1.05187872231714,0.980762635387361,4.195792060144777,3.572994817108426,9.713172767078504e-05,0.0922218039631843,0,0,0
349,12141.205517354305,2010-11-01 17:45:51,870.4430209445886,2,2,0.5501165986061096,3.845770835876465,1.056465093685137,0.980762635387361,4.213422583961995,3.572994817108426,6.47544875391759e-05,0.0922218039631843,0,0,0
350,12171.220906172548,2010-11-01 17:46:21,900.458409762831,2,2,0.550297200679779,3.849170446395874,1.061051512477976,0.980762635387361,4.231068488967435,3.572994817108426,9.713172767078504e-05,0.0922218039631843,0,0,0
351,12201.236039713578,2010-11-01 17:46:51,930.4735433088748,2,2,0.5501165986061096,3.852408170700073,1.065637906956382,0.980762635387361,4.248729336380755,3.572994817108426,6.47544875391759e-05,0.0922218039631843,0,0,0
352,12231.251312562345,2010-11-01 17:47:21,960.4888161526272,2,2,0.550297200679779,3.8558077812194815,1.070224370885977,0.980762635387361,4.266405232075234,3.572994817108426,9.713172767078504e-05,0.0922218039631843,0,0,0
353,12261.266585636671,2010-11-01 17:47:51,990.5040892319672,2,2,0.5501165986061096,3.858559846878052,1.074810817521061,0.980762635387361,4.284095586724477,3.572994817108426,6.47544875391759e-05,0.0922218039631843,0,0,0
354,12291.281880761038,2010-11-01 17:48:21,1020.5193843513232,2,2,0.5499359965324402,3.861635684967041,1.079397218908352,0.980762635387361,4.301799862547391,3.572994817108426,6.47544875391759e-05,0.0922218039631843,0,0,0
355,12321.297177098437,2010-11-01 17:48:51,1050.5346806937316,2,2,0.5501165986061096,3.8647115230560303,1.083983578876815,0.980762635387361,4.319517822805237,3.572994817108426,6.47544875391759e-05,0.0922218039631843,0,0,0
356,12351.312427561325,2010-11-01 17:49:21,1080.5499311816804,2,2,0.5501165986061096,3.8676254749298096,1.088569943629502,0.980762635387361,4.337249224787989,3.572994817108426,9.713172767078504e-05,0.0922218039631843,0,0,0
357,12381.32768654548,2010-11-01 17:49:51,1110.565190135762,2,2,0.5499359965324402,3.870377540588379,1.093156439399513,0.980762635387361,4.354994247972477,3.572994817108426,3.237724376958795e-05,0.0922218039631843,0,0,0
358,12411.34310710796,2010-11-01 17:50:21,1140.5806106982427,2,2,0.550297200679779,3.873129606246948,1.097742854325083,0.980762635387361,4.372751564508659,3.572994817108426,6.47544875391759e-05,0.0922218039631843,0,0,0
359,12441.358221400944,2010-11-01 17:50:51,1170.5957250363408,2,2,0.5501165986061096,3.875719785690308,1.102329273805433,0.980762635387361,4.390520981928584,3.572994817108426,6.47544875391759e-05,0.0922218039631843,0,0,0
360,12471.373494119383,2010-11-01 17:51:21,1200.6109977096676,2,2,0.5499359965324402,3.878148078918457,1.106915661201074,0.980762635387361,4.408301920222449,3.572994817108426,3.237724376958795e-05,0.0922218039631843,0,0,0
361,12501.388764441845,2010-11-01 17:51:51,1230.6262680221014,2,2,0.5499359965324402,3.880414485931397,1.111502046106787,0.980762635387361,4.426093978281593,3.572994817108426,3.237724376958795e-05,0.0922218039631843,0,0,0
362,12531.404068909533,2010-11-01 17:52:21,1260.6415724948044,2,2,0.5497553944587708,3.882519006729126,1.116088544258269,0.980762635387361,4.443897109244986,3.572994817108426,0.0,0.0922218039631843,0,0,0
363,12561.41932270574,2010-11-01 17:52:51,1290.6568262960236,2,2,0.5497553944587708,3.884623527526856,1.120675009879225,0.980762635387361,4.461710157272429,3.572994817108426,0.0,0.0922218039631843,0,0,0
364,12591.43483290196,2010-11-01 17:53:21,1320.6723365072814,2,2,0.5501165986061096,3.886889934539795,1.125261542844974,0.980762635387361,4.47953296748003,3.572994817108426,6.47544875391759e-05,0.0922218039631843,0,0,0
365,12621.450108748208,2010-11-01 17:53:51,1350.687612338491,2,2,0.5501165986061096,3.888670682907105,1.12984804386677,0.980762635387361,4.497364565639123,3.572994817108426,3.237724376958795e-05,0.0922218039631843,0,0,0
366,12651.465163357212,2010-11-01 17:54:21,1380.7026669474958,2,2,0.5499359965324402,3.890451431274414,1.134434509792105,0.980762635387361,4.515204414346646,3.572994817108426,6.47544875391759e-05,0.0922218039631843,0,0,0
367,12681.480425569427,2010-11-01 17:54:51,1410.71792915971,2,2,0.550297200679779,3.892232179641724,1.139020986873799,0.980762635387361,4.533052178288409,3.572994817108426,6.47544875391759e-05,0.0922218039631843,0,0,0
368,12711.49569755604,2010-11-01 17:55:21,1440.7332011463227,2,2,0.550297200679779,3.893689155578613,1.143607483395634,0.980762635387361,4.550907416929444,3.572994817108426,0.0,0.0922218039631843,0,0,0
369,12741.5109953621,2010-11-01 17:55:51,1470.748498952385,2,2,0.5501165986061096,3.895146131515503,1.148194093358103,0.980762635387361,4.568769947045634,3.572994817108426,3.237724376958795e-05,0.0922218039631843,0,0,0
370,12771.526261849987,2010-11-01 17:56:21,1500.7637654452844,2,2,0.5501165986061096,3.896441221237183,1.152780558652012,0.980762635387361,4.586638257346722,3.572994817108426,3.237724376958795e-05,0.0922218039631843,0,0,0
371,12801.541522999549,2010-11-01 17:56:51,1530.7790265898338,2,2,0.5501165986061096,3.897898197174072,1.157367006341412,0.980762635387361,4.60451292060783,3.572994817108426,0.0,0.0922218039631843,0,0,0
372,12831.556819336944,2010-11-01 17:57:21,1560.7943229272298,2,2,0.5499359965324402,3.899193286895752,1.161953517664097,0.980762635387361,4.622394073525742,3.572994817108426,0.0,0.0922218039631843,0,0,0
373,12861.572069238428,2010-11-01 17:57:51,1590.809572833727,2,2,0.550297200679779,3.9006502628326416,1.166540030230474,0.980762635387361,4.640281182867561,3.572994817108426,3.237724376958795e-05,0.0922218039631843,0,0,0
374,12891.587365460538,2010-11-01 17:58:21,1620.8248690508228,2,2,0.5501165986061096,3.901945352554321,1.171126500411692,0.980762635387361,4.658174076023793,3.572994817108426,3.237724376958795e-05,0.0922218039631843,0,0,0
375,12921.602620554986,2010-11-01 17:58:51,1650.8401241452702,2,2,0.5499359965324402,3.903078556060791,1.175712987322279,0.980762635387361,4.676072858753813,3.572994817108426,3.237724376958795e-05,0.0922218039631843,0,0,0
376,12951.617925483828,2010-11-01 17:59:21,1680.855429074112,2,2,0.5501165986061096,3.904373645782471,1.180299410425207,0.980762635387361,4.693977234370798,3.572994817108426,3.237724376958795e-05,0.0922218039631843,0,0,0
377,12981.633299264531,2010-11-01 17:59:51,1710.8708028548183,2,2,0.550297200679779,3.905506849288941,1.184885925528347,0.980762635387361,4.711887670366909,3.572994817108426,0.0,0.0922218039631843,0,0,0
378,13011.648454569891,2010-11-01 18:00:21,1740.8859581601766,2,2,0.5499359965324402,3.90680193901062,1.189472385220605,0.980762635387361,4.729803677975652,3.572994817108426,0.0,0.0922218039631843,0,0,0
379,13041.66384709238,2010-11-01 18:00:51,1770.9013506826657,2,2,0.5501165986061096,3.9080970287323,1.194058890630019,0.980762635387361,4.747725595412941,3.572994817108426,3.237724376958795e-05,0.0922218039631843,0,0,0
380,13071.678991239887,2010-11-01 18:01:21,1800.9164948301725,2,2,0.5499359965324402,3.90939211845398,1.198645318598732,0.980762635387361,4.765652986918538,3.572994817108426,6.47544875391759e-05,0.0922218039631843,0,0,0
381,13101.694406965296,2010-11-01 18:01:51,1830.9319105555792,2,2,0.5501165986061096,3.910687208175659,1.203231875242467,0.980762635387361,4.783586717144463,3.572994817108426,3.237724376958795e-05,0.0922218039631843,0,0,0
382,13131.709702525752,2010-11-01 18:02:21,1860.9472061260608,2,2,0.5499359965324402,3.911982297897339,1.207818301449394,0.980762635387361,4.801525750673113,3.572994817108426,3.237724376958795e-05,0.0922218039631843,0,0,0
383,13161.724944517491,2010-11-01 18:02:51,1890.9624481178016,2,2,0.5501165986061096,3.9132773876190186,1.212404786975093,0.980762635387361,4.819470886223826,3.572994817108426,3.237724376958795e-05,0.0922218039631843,0,0,0
384,13191.740120599714,2010-11-01 18:03:21,1920.97762419501,2,2,0.5499359965324402,3.914572238922119,1.216991158220022,0.980762635387361,4.83742145691225,3.572994817108426,3.237724376958795e-05,0.0922218039631843,0,0,0
385,13221.755405257956,2010-11-01 18:03:51,1950.9929088482404,2,2,0.550297200679779,3.915705442428589,1.221577573907854,0.980762635387361,4.855378074188622,3.572994817108426,3.237724376958795e-05,0.0922218039631843,0,0,0
386,13251.770685404936,2010-11-01 18:04:21,1981.0081889952228,2,2,0.5501165986061096,3.9171624183654794,1.226163990745953,0.980762635387361,4.873340603082058,3.572994817108426,6.47544875391759e-05,0.0922218039631843,0,0,0
387,13281.785947396602,2010-11-01 18:04:51,2011.0234509868865,2,2,0.550297200679779,3.918457508087158,1.230750454922933,0.980762635387361,4.891309389325349,3.572994817108426,3.237724376958795e-05,0.0922218039631843,0,0,0
388,13311.801306425486,2010-11-01 18:05:21,2041.038810131058,2,2,0.550297200679779,3.919914484024048,1.235336907825453,0.980762635387361,4.909284230155101,3.572994817108426,9.713172767078504e-05,0.0922218039631843,0,0,0
389,13341.816505590325,2010-11-01 18:05:51,2071.054009190633,2,2,0.5501165986061096,3.9210476875305176,1.239923346996055,0.980762635387361,4.927265150961656,3.572994817108426,6.47544875391759e-05,0.0922218039631843,0,0,0
390,13371.83192757636,2010-11-01 18:06:21,2101.069431171655,2,2,0.5501165986061096,3.922342777252197,1.244509840790074,0.980762635387361,4.945252461567304,3.572994817108426,-3.237724376958795e-05,0.0922218039631843,0,0,0
391,13401.84704701218,2010-11-01 18:06:51,2131.084550607478,2,2,0.5501165986061096,3.923961639404297,1.249096321751947,0.980762635387361,4.963245976187046,3.572994817108426,9.713172767078504e-05,0.0922218039631843,0,0,0
392,13431.862323174217,2010-11-01 18:07:21,2161.099826769513,2,2,0.5501165986061096,3.925256729125977,1.253682806145522,0.980762635387361,4.981245741848343,3.572994817108426,3.237724376958795e-05,0.0922218039631843,0,0,0
393,13461.877592579383,2010-11-01 18:07:52,2191.11509616967,2,2,0.5501165986061096,3.926713705062866,1.258269359274258,0.980762635387361,4.999252052879151,3.572994817108426,6.47544875391759e-05,0.0922218039631843,0,0,0
394,13491.892884179955,2010-11-01 18:08:22,2221.130387770242,2,2,0.5501165986061096,3.928008794784546,1.262855815202473,0.980762635387361,5.017264282948575,3.572994817108426,6.47544875391759e-05,0.0922218039631843,0,0,0
395,13521.908140106483,2010-11-01 18:08:52,2251.1456436967665,2,2,0.5501165986061096,3.9293038845062256,1.267442326874921,0.980762635387361,5.035283140976586,3.572994817108426,3.237724376958795e-05,0.0922218039631843,0,0,0
396,13551.92615627299,2010-11-01 18:09:22,2281.163659948487,2,2,0.5501165986061096,3.9307608604431152,1.272029849429057,0.980762635387361,5.053312487263,3.572994817108426,3.237724376958795e-05,0.0922218039631843,0,0,0
397,13581.938757232308,2010-11-01 18:09:52,2311.1762609078046,2,2,0.550297200679779,3.932217836380005,1.276616562474928,0.980762635387361,5.071345116526782,3.572994817108426,3.237724376958795e-05,0.0922218039631843,0,0,0
398,13611.954001173915,2010-11-01 18:10:22,2341.1915047692128,2,2,0.550297200679779,3.933512926101685,1.281203743048069,0.980762635387361,5.089386208531399,3.572994817108426,0.0,0.0922218039631843,0,0,0
399,13641.969236238368,2010-11-01 18:10:52,2371.206739828649,2,2,0.550297200679779,3.935131788253784,1.285790918399103,0.980762635387361,5.107433835360303,3.572994817108426,6.47544875391759e-05,0.0922218039631843,0,0,0
400,13671.984519823933,2010-11-01 18:11:22,2401.2220234142146,2,2,0.5501165986061096,3.936426877975464,1.290377470424038,0.980762635387361,5.125485671851666,3.572994817108426,3.237724376958795e-05,0.0922218039631843,0,0,0
401,13701.999788808049,2010-11-01 18:11:52,2431.237292398333,2,2,0.550297200679779,3.938207626342773,1.294963959414907,0.980762635387361,5.143543970746933,3.572994817108426,6.47544875391759e-05,0.0922218039631843,0,0,0
402,13732.015085506346,2010-11-01 18:12:22,2461.252589096629,2,2,0.5499359965324402,3.939502716064453,1.299550470102272,0.980762635387361,5.161609159189873,3.572994817108426,3.237724376958795e-05,0.0922218039631843,0,0,0
403,13762.030343994264,2010-11-01 18:12:52,2491.267847584548,2,2,0.5501165986061096,3.9411215782165527,1.304136951922994,0.980762635387361,5.179681099782453,3.572994817108426,6.47544875391759e-05,0.0922218039631843,0,0,0
404,13792.045637324152,2010-11-01 18:13:22,2521.2831409144364,2,2,0.5499359965324402,3.9425785541534415,1.308723308821344,0.980762635387361,5.197759327701946,3.572994817108426,6.47544875391759e-05,0.0922218039631843,0,0,0
405,13822.060892553936,2010-11-01 18:13:52,2551.298396159259,2,2,0.550297200679779,3.944197416305542,1.313309682390578,0.980762635387361,5.215844584649197,3.572994817108426,6.47544875391759e-05,0.0922218039631843,0,0,0
406,13852.076174520462,2010-11-01 18:14:22,2581.313678110745,2,2,0.5501165986061096,3.9454925060272217,1.31789611319509,0.980762635387361,5.233937051639163,3.572994817108426,0.0,0.0922218039631843,0,0,0
407,13882.091434151233,2010-11-01 18:14:52,2611.328937736504,2,2,0.5501165986061096,3.947111368179321,1.322482621305088,0.980762635387361,5.25203687958425,3.572994817108426,6.47544875391759e-05,0.0922218039631843,0,0,0
408,13912.106709746857,2010-11-01 18:15:22,2641.3442133371377,2,2,0.5501165986061096,3.948568344116211,1.3270690612548,0.980762635387361,5.270143534878567,3.572994817108426,0.0,0.0922218039631843,0,0,0
409,13942.121996750951,2010-11-01 18:15:52,2671.359500361287,2,2,0.5499359965324402,3.9500253200531006,1.331655438832895,0.980762635387361,5.288257066054809,3.572994817108426,-3.237724376958795e-05,0.0922218039631843,0,0,0
410,13972.137274757592,2010-11-01 18:16:22,2701.374778347876,2,2,0.5501165986061096,3.95180606842041,1.336241810026847,0.980762635387361,5.30637783251487,3.572994817108426,3.237724376958795e-05,0.0922218039631843,0,0,0
411,14002.152565701526,2010-11-01 18:16:52,2731.3900693018345,2,2,0.5501165986061096,3.95358681678772,1.340828275475618,0.980762635387361,5.324506241543965,3.572994817108426,6.47544875391759e-05,0.0922218039631843,0,0,0
412,14032.167810520325,2010-11-01 18:17:22,2761.4053141005816,2,2,0.5501165986061096,3.9552056789398193,1.345414693969615,0.980762635387361,5.342641901833352,3.572994817108426,9.713172767078504e-05,0.0922218039631843,0,0,0
413,14062.183150652036,2010-11-01 18:17:52,2791.4206543275327,2,2,0.5501165986061096,3.956662654876709,1.350001131712205,0.980762635387361,5.360785117454371,3.572994817108426,3.237724376958795e-05,0.0922218039631843,0,0,0
414,14092.198381551088,2010-11-01 18:18:22,2821.435885141372,2,2,0.5501165986061096,3.9582815170288086,1.354587598134166,0.980762635387361,5.378935811700324,3.572994817108426,6.47544875391759e-05,0.0922218039631843,0,0,0
415,14122.213781512144,2010-11-01 18:18:52,2851.4512851024288,2,2,0.5501165986061096,3.960062265396118,1.359174043404607,0.980762635387361,5.397094054289587,3.572994817108426,6.47544875391759e-05,0.0922218039631843,0,0,0
416,14152.228901268769,2010-11-01 18:19:22,2881.466404869077,2,2,0.5499359965324402,3.9616811275482178,1.363760410224897,0.980762635387361,5.415259654206315,3.572994817108426,9.713172767078504e-05,0.0922218039631843,0,0,0
417,14182.244260402917,2010-11-01 18:19:52,2911.481764008236,2,2,0.5501165986061096,3.963299989700317,1.368346670971937,0.980762635387361,5.433432480346813,3.572994817108426,6.47544875391759e-05,0.0922218039631843,0,0,0
418,14212.259427988927,2010-11-01 18:20:22,2941.4969315741987,2,2,0.5499359965324402,3.964918851852417,1.372932254733571,0.980762635387361,5.451610284729753,3.572994817108426,3.237724376958795e-05,0.0922218039631843,0,0,0
419,14242.274825047738,2010-11-01 18:20:52,2971.5123286580733,2,2,0.5499359965324402,3.966699600219727,1.377518031426863,0.980762635387361,5.469796703746936,3.572994817108426,3.237724376958795e-05,0.0922218039631843,0,0,0
420,14272.289999355531,2010-11-01 18:21:22,3001.527502945815,2,2,0.5497553944587708,3.968318462371826,1.382103676410616,0.980762635387361,5.487990426960466,3.572994817108426,3.237724376958795e-05,0.0922218039631843,0,0,0
421,14302.305255502606,2010-11-01 18:21:52,3031.5427591029143,2,2,0.5499359965324402,3.9702610969543457,1.386689270404098,0.980762635387361,5.506191935202193,3.572994817108426,9.713172767078504e-05,0.0922218039631843,0,0,0
422,14332.320682340753,2010-11-01 18:22:22,3061.5581859310355,2,2,0.5501165986061096,3.971879959106445,1.391274918040957,0.980762635387361,5.524401742375115,3.572994817108426,3.237724376958795e-05,0.0922218039631843,0,0,0
423,14362.335747686557,2010-11-01 18:22:52,3091.5732512868663,2,2,0.5501165986061096,3.973660707473755,1.395860641273834,0.980762635387361,5.542620021689314,3.572994817108426,3.237724376958795e-05,0.0922218039631843,0,0,0
424,14392.351114189096,2010-11-01 18:23:22,3121.58861777938,2,2,0.5501165986061096,3.9756033420562735,1.400447182412445,0.980762635387361,5.56084988897553,3.572994817108426,3.237724376958795e-05,0.0922218039631843,0,0,0
425,14422.366419007663,2010-11-01 18:23:52,3151.603922633034,2,2,0.5499359965324402,3.977384090423584,1.405033803913011,0.980762635387361,5.579088473721844,3.572994817108426,3.237724376958795e-05,0.0922218039631843,0,0,0
426,14452.381639099738,2010-11-01 18:24:22,3181.6191426900223,2,2,0.5501165986061096,3.9791648387908936,1.409620323627173,0.980762635387361,5.597334556937405,3.572994817108426,6.47544875391759e-05,0.0922218039631843,0,0,0
427,14482.396915763024,2010-11-01 18:24:52,3211.634419378372,2,2,0.5501165986061096,3.981107473373413,1.414206775559597,0.980762635387361,5.615589322427464,3.572994817108426,6.47544875391759e-05,0.0922218039631843,0,0,0
428,14512.412521372413,2010-11-01 18:25:22,3241.650024962695,2,2,0.5501165986061096,3.982888221740722,1.418793197290174,0.980762635387361,5.633852493214834,3.572994817108426,3.237724376958795e-05,0.0922218039631843,0,0,0
429,14542.427678066237,2010-11-01 18:25:52,3271.665181661532,2,2,0.5501165986061096,3.984992742538452,1.42337963740741,0.980762635387361,5.652124300492849,3.572994817108426,6.47544875391759e-05,0.0922218039631843,0,0,0
430,14572.442746299248,2010-11-01 18:26:22,3301.6802498995567,2,2,0.5501165986061096,3.986611604690552,1.427966065823771,0.980762635387361,5.670404799483735,3.572994817108426,6.47544875391759e-05,0.0922218039631843,0,0,0
431,14602.45802309286,2010-11-01 18:26:52,3331.6955266931686,2,2,0.5501165986061096,3.9885542392730713,1.43255256440139,0.980762635387361,5.688694324020712,3.572994817108426,6.47544875391759e-05,0.0922218039631843,0,0,0
432,14632.473301029324,2010-11-01 18:27:22,3361.710804629633,2,2,0.5501165986061096,3.990658760070801,1.437138971141488,0.980762635387361,5.706992410556587,3.572994817108426,3.237724376958795e-05,0.0922218039631843,0,0,0
433,14662.488552419523,2010-11-01 18:27:52,3391.726056029859,2,2,0.5501165986061096,3.99260139465332,1.441725470950921,0.980762635387361,5.72529987077331,3.572994817108426,6.47544875391759e-05,0.0922218039631843,0,0,0
434,14692.503843679246,2010-11-01 18:28:22,3421.741347259506,2,2,0.5501165986061096,3.994705677032471,1.446311949128391,0.980762635387361,5.74361629148699,3.572994817108426,9.713172767078504e-05,0.0922218039631843,0,0,0
435,14722.519104623296,2010-11-01 18:28:52,3451.7566082236044,2,2,0.5501165986061096,3.9966483116149902,1.450898440665383,0.980762635387361,5.761942017754842,3.572994817108426,6.47544875391759e-05,0.0922218039631843,0,0,0
436,14752.534391953208,2010-11-01 18:29:22,3481.771895543492,2,2,0.5499359965324402,3.9984290599823,1.455484948574375,0.980762635387361,5.780277099679644,3.572994817108426,3.237724376958795e-05,0.0922218039631843,0,0,0
437,14782.54969596476,2010-11-01 18:29:52,3511.787199555043,2,2,0.5499359965324402,4.000695705413818,1.460071452027268,0.980762635387361,5.798621513896607,3.572994817108426,6.47544875391759e-05,0.0922218039631843,0,0,0
438,14812.564945595568,2010-11-01 18:30:22,3541.8024491858523,2,2,0.5501165986061096,4.002799987792969,1.464657876850769,0.980762635387361,5.81697512259081,3.572994817108426,6.47544875391759e-05,0.0922218039631843,0,0,0
439,14842.58021410851,2010-11-01 18:30:52,3571.817717703807,2,2,0.5501165986061096,4.004904747009277,1.469244318763926,0.980762635387361,5.835338456725386,3.572994817108426,6.47544875391759e-05,0.0922218039631843,0,0,0
440,14872.595479288131,2010-11-01 18:31:22,3601.832982878416,2,2,0.5501165986061096,4.007009029388428,1.473830726618135,0.980762635387361,5.85371140676062,3.572994817108426,6.47544875391759e-05,0.0922218039631843,0,0,0
441,14902.610745700831,2010-11-01 18:31:52,3631.8482492911153,2,2,0.5501165986061096,4.009275436401367,1.478417194924676,0.980762635387361,5.87209448763851,3.572994817108426,9.70840483205393e-05,0.0922218039631843,0,0,0
442,14932.626173085342,2010-11-01 18:32:22,3661.863676675626,2,2,0.5501165986061096,4.011380195617676,1.483003640639494,0.980762635387361,5.890487463630405,3.572994817108426,3.24249267578125e-05,0.0922218039631843,0,0,0
443,14962.6412916139,2010-11-01 18:32:52,3691.878795204183,2,2,0.5499359965324402,4.013484477996826,1.487590025346465,0.980762635387361,5.908890313561978,3.572994817108426,3.23295607813634e-05,0.0922218039631843,0,0,0
444,14992.656699203995,2010-11-01 18:33:22,3721.8942027992953,2,2,0.5501165986061096,4.0160746574401855,1.49217642522837,0.980762635387361,5.92730346627364,3.572994817108426,0.0001295089750783,0.0922218039631843,0,0,0
445,15022.671840018184,2010-11-01 18:33:52,3751.9093436084686,2,2,0.5499359965324402,4.018179416656494,1.496762873248099,0.980762635387361,5.945727200461316,3.572994817108426,6.47544875391759e-05,0.0922218039631843,0,0,0
446,15052.687425562486,2010-11-01 18:34:22,3781.9249291627953,2,2,0.5501165986061096,4.020445823669434,1.501349400823892,0.980762635387361,5.964161583262895,3.572994817108426,6.47544875391759e-05,0.0922218039631843,0,0,0
447,15082.702405204362,2010-11-01 18:34:52,3811.939908794646,2,2,0.550297200679779,4.022712230682373,1.505935767250145,0.980762635387361,5.982605899810204,3.572994817108426,6.47544875391759e-05,0.0922218039631843,0,0,0
448,15112.717819511226,2010-11-01 18:35:22,3841.955323111536,2,2,0.5501165986061096,4.025140285491943,1.510522259825224,0.980762635387361,6.001061297815477,3.572994817108426,9.70840483205393e-05,0.0922218039631843,0,0,0
449,15142.733071527991,2010-11-01 18:35:52,3871.970575128301,2,2,0.5501165986061096,4.027406692504883,1.515108679946835,0.980762635387361,6.019527168374522,3.572994817108426,6.47544875391759e-05,0.0922218039631843,0,0,0
450,15172.748340161234,2010-11-01 18:36:22,3901.985843751519,2,2,0.5501165986061096,4.029835224151611,1.519695199148274,0.980762635387361,6.038004322764155,3.572994817108426,9.71794142969884e-05,0.0922218039631843,0,0,0
451,15202.763613085186,2010-11-01 18:36:52,3932.001116655421,2,2,0.5501165986061096,4.032101631164551,1.524281645375191,0.980762635387361,6.056491996522289,3.572994817108426,6.47544875391759e-05,0.0922218039631843,0,0,0
452,15232.778808796404,2010-11-01 18:37:22,3962.0163123967136,2,2,0.5501165986061096,4.034529685974121,1.52886804872195,0.980762635387361,6.074990481966357,3.572994817108426,9.70840483205393e-05,0.0922218039631843,0,0,0
453,15262.794063239224,2010-11-01 18:37:52,3992.0315668345215,2,2,0.550297200679779,4.036957740783691,1.533454503385751,0.980762635387361,6.093500242766964,3.572994817108426,6.47544875391759e-05,0.0922218039631843,0,0,0
454,15292.809586046928,2010-11-01 18:38:22,4022.047089642223,2,2,0.5501165986061096,4.03938627243042,1.538041000366083,0.980762635387361,6.112021432360939,3.572994817108426,6.47544875391759e-05,0.0922218039631843,0,0,0
455,15322.824594375408,2010-11-01 18:38:52,4052.062097970704,2,2,0.5501165986061096,4.041976451873779,1.542627414214915,0.980762635387361,6.130553509091189,3.572994817108426,6.47544875391759e-05,0.0922218039631843,0,0,0
456,15352.839989669814,2010-11-01 18:39:22,4082.0774932600993,2,2,0.5501165986061096,4.04440450668335,1.547213840786813,0.980762635387361,6.149097167182586,3.572994817108426,6.47544875391759e-05,0.0922218039631843,0,0,0
457,15382.855137481469,2010-11-01 18:39:53,4112.092641071752,2,2,0.5501165986061096,4.047156810760498,1.551800279569503,0.980762635387361,6.16765243198964,3.572994817108426,9.71794142969884e-05,0.0922218039631843,0,0,0
458,15412.870551051496,2010-11-01 18:40:23,4142.108054651804,2,2,0.5497553944587708,4.0494232177734375,1.556386779369929,0.980762635387361,6.18621965602004,3.572994817108426,3.24249267578125e-05,0.0922218039631843,0,0,0
459,15442.885685765454,2010-11-01 18:40:53,4172.123189355738,2,2,0.550297200679779,4.052175045013428,1.560973237311022,0.980762635387361,6.204798400030645,3.572994817108426,9.70840483205393e-05,0.0922218039631843,0,0,0
460,15472.903673300494,2010-11-01 18:41:23,4202.14117701609,2,2,0.550297200679779,4.054765224456787,1.5655601492324,0.980762635387361,6.223390813286523,3.572994817108426,9.70840483205393e-05,0.0922218039631843,0,0,0
461,15502.916324881167,2010-11-01 18:41:53,4232.153828586741,2,2,0.5501165986061096,4.057193756103516,1.570146210142949,0.980762635387361,6.241991656241111,3.572994817108426,6.47544875391759e-05,0.0922218039631843,0,0,0
462,15532.93164240144,2010-11-01 18:42:23,4262.169146001751,2,2,0.5499359965324402,4.059783935546875,1.574732718117063,0.980762635387361,6.26060640434308,3.572994817108426,3.24249267578125e-05,0.0922218039631843,0,0,0
463,15562.94675689994,2010-11-01 18:42:53,4292.184260490224,2,2,0.5501165986061096,4.062535762786865,1.579319133833498,0.980762635387361,6.279232580003169,3.572994817108426,6.47544875391759e-05,0.0922218039631843,0,0,0
464,15592.962164244427,2010-11-01 18:43:23,4322.199667844735,2,2,0.5501165986061096,4.065288066864014,1.583905540135889,0.980762635387361,6.297871024203609,3.572994817108426,6.47544875391759e-05,0.0922218039631843,0,0,0
465,15622.97730363506,2010-11-01 18:43:53,4352.214807235368,2,2,0.5501165986061096,4.067878246307373,1.588491913667174,0.980762635387361,6.316521695445017,3.572994817108426,6.47544875391759e-05,0.0922218039631843,0,0,0
466,15652.992601245633,2010-11-01 18:44:23,4382.230104835917,2,2,0.5499359965324402,4.070468425750732,1.593078365531589,0.980762635387361,6.335185186189251,3.572994817108426,0.0,0.0922218039631843,0,0,0
467,15683.007881091864,2010-11-01 18:44:53,4412.245384682149,2,2,0.5501165986061096,4.073382377624512,1.597664816881027,0.980762635387361,6.353861282857574,3.572994817108426,3.24249267578125e-05,0.0922218039631843,0,0,0
468,15713.023153409304,2010-11-01 18:45:23,4442.260656999587,2,2,0.5501165986061096,4.076134204864502,1.602251218777013,0.980762635387361,6.372549925581172,3.572994817108426,9.70840483205393e-05,0.0922218039631843,0,0,0
469,15743.038404017552,2010-11-01 18:45:53,4472.275907632899,2,2,0.5501165986061096,4.07888650894165,1.606837710537595,0.980762635387361,6.39125169371396,3.572994817108426,6.47544875391759e-05,0.0922218039631843,0,0,0
470,15773.053695583036,2010-11-01 18:46:23,4502.291199168309,2,2,0.5501165986061096,4.081638336181641,1.611424226881963,0.980762635387361,6.409966484669643,3.572994817108426,3.23295607813634e-05,0.0922218039631843,0,0,0
471,15803.068958451891,2010-11-01 18:46:53,4532.306462042175,2,2,0.5499359965324402,4.08455228805542,1.616010627031344,0.980762635387361,6.428693821361528,3.572994817108426,3.23295607813634e-05,0.0922218039631843,0,0,0
472,15833.084353084649,2010-11-01 18:47:23,4562.321856674931,2,2,0.550297200679779,4.087790012359619,1.620597076702233,0.980762635387361,6.447434508940409,3.572994817108426,0.0001618385285837,0.0922218039631843,0,0,0
473,15863.099501793538,2010-11-01 18:47:53,4592.337005383823,2,2,0.5499359965324402,4.0903801918029785,1.625183516426985,0.980762635387361,6.46618839860628,3.572994817108426,6.47544875391759e-05,0.0922218039631843,0,0,0
474,15893.114803414122,2010-11-01 18:48:23,4622.352307004407,2,2,0.5501165986061096,4.093456268310547,1.629770033596699,0.980762635387361,6.484955901332723,3.572994817108426,9.71794142969884e-05,0.0922218039631843,0,0,0
475,15923.13008247339,2010-11-01 18:48:53,4652.367586068687,2,2,0.550297200679779,4.096370220184326,1.634356469653693,0.980762635387361,6.503736518273735,3.572994817108426,9.71794142969884e-05,0.0922218039631843,0,0,0
476,15953.145318104254,2010-11-01 18:49:23,4682.382821694537,2,2,0.5501165986061096,4.099445819854736,1.638942909433232,0.980762635387361,6.52253081515573,3.572994817108426,9.70840483205393e-05,0.0922218039631843,0,0,0
477,15983.160718626712,2010-11-01 18:49:53,4712.398222227021,2,2,0.5499359965324402,4.102198123931885,1.643529438802657,0.980762635387361,6.541339319589191,3.572994817108426,3.24249267578125e-05,0.0922218039631843,0,0,0
478,16013.175872994732,2010-11-01 18:50:23,4742.413376585014,2,2,0.5501165986061096,4.105273723602295,1.648115940224415,0.980762635387361,6.560161592950664,3.572994817108426,6.47544875391759e-05,0.0922218039631843,0,0,0
479,16043.191141813437,2010-11-01 18:50:53,4772.428645403719,2,2,0.5501165986061096,4.108511447906494,1.652702316728502,0.980762635387361,6.578997293126093,3.572994817108426,9.70840483205393e-05,0.0922218039631843,0,0,0
480,16073.206425073187,2010-11-01 18:51:23,4802.443928663472,2,2,0.5501165986061096,4.111587524414063,1.65728866077599,0.980762635387361,6.597846872819367,3.572994817108426,9.71794142969884e-05,0.0922218039631843,0,0,0
481,16103.221719044675,2010-11-01 18:51:53,4832.459222634961,2,2,0.5501165986061096,4.114663124084473,1.661875141332028,0.980762635387361,6.616711148301854,3.572994817108426,9.70840483205393e-05,0.0922218039631843,0,0,0
482,16133.236972570208,2010-11-01 18:52:23,4862.4744761604925,2,2,0.5501165986061096,4.117577075958252,1.666461555210357,0.980762635387361,6.635589361054707,3.572994817108426,3.24249267578125e-05,0.0922218039631843,0,0,0
483,16163.252364025033,2010-11-01 18:52:53,4892.4898676253415,2,2,0.5499359965324402,4.120814800262451,1.671048026048228,0.980762635387361,6.654482107861908,3.572994817108426,6.47544875391759e-05,0.0922218039631843,0,0,0
484,16193.267509175044,2010-11-01 18:53:23,4922.505012765326,2,2,0.5501165986061096,4.12405252456665,1.675634478139255,0.980762635387361,6.6733891731724,3.572994817108426,0.0001295089750783,0.0922218039631843,0,0,0
485,16223.282777963672,2010-11-01 18:53:53,4952.520281553956,2,2,0.5501165986061096,4.12729024887085,1.680220972411342,0.980762635387361,6.692311068638467,3.572994817108426,9.71794142969884e-05,0.0922218039631843,0,0,0
486,16253.298340746154,2010-11-01 18:54:23,4982.535844346465,2,2,0.550297200679779,4.130527973175049,1.684807521283638,0.980762635387361,6.711248032109882,3.572994817108426,9.71794142969884e-05,0.0922218039631843,0,0,0
487,16283.313462031596,2010-11-01 18:54:53,5012.550965621879,2,2,0.5501165986061096,4.133603572845459,1.68939404646331,0.980762635387361,6.730199796103078,3.572994817108426,6.47544875391759e-05,0.0922218039631843,0,0,0
488,16313.328625206595,2010-11-01 18:55:23,5042.566128816931,2,2,0.5499359965324402,4.136841297149658,1.693980471305875,0.980762635387361,6.749166133621458,3.572994817108426,6.47544875391759e-05,0.0922218039631843,0,0,0
489,16343.343857118176,2010-11-01 18:55:53,5072.581360708461,2,2,0.5499359965324402,4.140241146087647,1.698566873202137,0.980762635387361,6.768147494815967,3.572994817108426,9.71794142969884e-05,0.0922218039631843,0,0,0
490,16373.35914319496,2010-11-01 18:56:23,5102.596646805295,2,2,0.5501165986061096,4.143478870391846,1.703153339474571,0.980762635387361,6.787144333780798,3.572994817108426,6.47544875391759e-05,0.0922218039631843,0,0,0
491,16403.37440072549,2010-11-01 18:56:53,5132.61190431076,2,2,0.5501165986061096,4.146878242492676,1.707739851454423,0.980762635387361,6.806156857384679,3.572994817108426,6.47544875391759e-05,0.0922218039631843,0,0,0
492,16433.389876987003,2010-11-01 18:57:23,5162.627380577287,2,2,0.5499359965324402,4.150278091430664,1.712326313356532,0.980762635387361,6.825184625467497,3.572994817108426,6.47544875391759e-05,0.0922218039631843,0,0,0
493,16463.405184191524,2010-11-01 18:57:53,5192.642687786822,2,2,0.5501165986061096,4.153677463531494,1.716912745002986,0.980762635387361,6.844227771904892,3.572994817108426,6.47544875391759e-05,0.0922218039631843,0,0,0
494,16493.42024699599,2010-11-01 18:58:23,5222.657750616347,2,2,0.550297200679779,4.157077312469482,1.721499137721031,0.980762635387361,6.863286251479884,3.572994817108426,6.47544875391759e-05,0.0922218039631843,0,0,0
495,16523.435544581498,2010-11-01 18:58:53,5252.673048181808,2,2,0.5499359965324402,4.160638809204102,1.726085597625113,0.980762635387361,6.8823607589454,3.572994817108426,9.71794142969884e-05,0.0922218039631843,0,0,0
496,16553.450783335156,2010-11-01 18:59:23,5282.688286950503,2,2,0.550297200679779,4.164200305938721,1.730672047160972,0.980762635387361,6.901451151239916,3.572994817108426,0.0001295089750783,0.0922218039631843,0,0,0
497,16583.466064153818,2010-11-01 18:59:53,5312.703567774175,2,2,0.5499359965324402,4.167599678039551,1.735258479482138,0.980762635387361,6.920557289897782,3.572994817108426,9.70840483205393e-05,0.0922218039631843,0,0,0
498,16613.48133718303,2010-11-01 19:00:23,5342.718840803391,2,2,0.550297200679779,4.17116117477417,1.739844894497108,0.980762635387361,6.939679433045396,3.572994817108426,9.70840483205393e-05,0.0922218039631843,0,0,0
499,16643.496725379722,2010-11-01 19:00:53,5372.734228995068,2,2,0.5501165986061096,4.174561023712158,1.744431385313359,0.980762635387361,6.958818120086709,3.572994817108426,6.47544875391759e-05,0.0922218039631843,0,0,0
500,16673.51189144193,2010-11-01 19:01:23,5402.74939504224,2,2,0.5499359965324402,4.178122520446777,1.749017870355695,0.980762635387361,6.977973015647469,3.572994817108426,6.47544875391759e-05,0.0922218039631843,0,0,0
501,16703.52717189468,2010-11-01 19:01:53,5432.764675484961,2,2,0.5499359965324402,4.181521892547607,1.753604382637695,0.980762635387361,6.99714449813609,3.572994817108426,3.23295607813634e-05,0.0922218039631843,0,0,0
502,16733.542448121872,2010-11-01 19:02:23,5462.779951737221,2,2,0.5501165986061096,4.185407161712647,1.758190905800071,0.980762635387361,7.016332436902573,3.572994817108426,0.0001295089750783,0.0922218039631843,0,0,0
503,16763.557834679472,2010-11-01 19:02:53,5492.795338279783,2,2,0.5501165986061096,4.189130783081055,1.762777323090653,0.980762635387361,7.035536640177285,3.572994817108426,0.0001295089750783,0.0922218039631843,0,0,0
504,16793.572978656557,2010-11-01 19:03:23,5522.8104822719015,2,2,0.5501165986061096,4.192692279815674,1.767363811661589,0.980762635387361,7.054757884041508,3.572994817108426,9.71794142969884e-05,0.0922218039631843,0,0,0
505,16823.588376988544,2010-11-01 19:03:53,5552.825880588855,2,2,0.5501165986061096,4.196415424346924,1.771950302314416,0.980762635387361,7.073995944042773,3.572994817108426,9.71794142969884e-05,0.0922218039631843,0,0,0
506,16852.306817599532,2010-11-01 19:04:22,5581.544321194829,2,2,0.5501165986061096,4.200138568878174,1.7763385652612,0.980762635387361,7.092418400092529,3.572994817108426,0.0001618385285837,0.0922218039631843,0,0,0
507,16882.321846467414,2010-11-01 19:04:52,30.01525194658976,3,2,0.0,4.115148544311523,1.7763385652612,0.980762635387361,7.092418400092529,3.572994817108426,-0.0003561973571777,0.0922218039631843,0,0,0
508,16912.337101190937,2010-11-01 19:05:22,60.03050666509865,3,2,0.0,4.104626178741455,1.7763385652612,0.980762635387361,7.092418400092529,3.572994817108426,-0.0002266883820993,0.0922218039631843,0,0,0
509,16942.3523784457,2010-11-01 19:05:52,90.045783924874,3,2,0.0,4.098474502563477,1.7763385652612,0.980762635387361,7.092418400092529,3.572994817108426,-0.0001295089750783,0.0922218039631843,0,0,0
510,16972.32080425705,2010-11-01 19:06:22,120.0142097362262,3,2,0.0,4.0945892333984375,1.7763385652612,0.980762635387361,7.092418400092529,3.572994817108426,-9.71794142969884e-05,0.0922218039631843,0,0,0
511,16972.322104184284,2010-11-01 19:06:22,2.586456193e-06,4,2,0.9864686131477356,4.199814796447754,1.776338565969938,0.980762635387361,7.092418403069098,3.572994817108426,0.0,0.0922218039631843,0,0,0
512,16973.11919781261,2010-11-01 19:06:23,0.797096234832332,4,2,0.9364398717880248,4.199653148651123,1.776549690498209,0.980762635387361,7.09330506249461,3.572994817108426,-3.23295607813634e-05,0.0922218039631843,0,0,0
513,16975.259568482088,2010-11-01 19:06:25,2.937466929373706,4,2,0.8856886625289917,4.199653148651123,1.777090109373747,0.980762635387361,7.095574655395874,3.572994817108426,-3.23295607813634e-05,0.0922218039631843,0,0,0
514,16978.55638939429,2010-11-01 19:06:29,6.234287841573774,4,2,0.8351180553436279,4.199653148651123,1.777876831098837,0.980762635387361,7.098878658339108,3.572994817108426,0.0,0.0922218039631843,0,0,0
515,16983.10323648414,2010-11-01 19:06:33,10.781134921399955,4,2,0.7847280502319336,4.199814796447754,1.778898268768335,0.980762635387361,7.103168402011582,3.572994817108426,3.23295607813634e-05,0.0922218039631843,0,0,0
516,16988.94689684944,2010-11-01 19:06:39,16.624795296721434,4,2,0.7345187067985535,4.199653148651123,1.780129872157787,0.980762635387361,7.108340809700163,3.572994817108426,0.0,0.0922218039631843,0,0,0
517,16996.69682834074,2010-11-01 19:06:47,24.37472676797082,4,2,0.6843093037605286,4.199653148651123,1.78165540400111,0.980762635387361,7.114747663233429,3.572994817108426,0.0,0.0922218039631843,0,0,0
518,17007.13420373046,2010-11-01 19:06:57,34.8121021476686,4,2,0.6342805624008179,4.199814796447754,1.783563339238922,0.980762635387361,7.122760563805193,3.572994817108426,0.0,0.0922218039631843,0,0,0
519,17021.64963537599,2010-11-01 19:07:12,49.32753379319917,4,2,0.5842517614364624,4.199653148651123,1.786013886054884,0.980762635387361,7.133052303479616,3.572994817108426,-3.23295607813634e-05,0.0922218039631843,0,0,0
520,17044.383907597035,2010-11-01 19:07:34,72.06180601424325,4,2,0.5342230200767517,4.199814796447754,1.789533352952112,0.980762635387361,7.147833266798653,3.572994817108426,0.0,0.0922218039631843,0,0,0
521,17083.836434107827,2010-11-01 19:08:14,111.51433252503364,4,2,0.4841942191123962,4.199814796447754,1.795087380384509,0.980762635387361,7.171158813125716,3.572994817108426,3.23295607813634e-05,0.0922218039631843,0,0,0
522,17154.91376505083,2010-11-01 19:09:25,182.59166346804136,4,2,0.4341654479503631,4.199653148651123,1.804116013922112,0.980762635387361,7.209076796376118,3.572994817108426,0.0,0.0922218039631843,0,0,0
523,17257.506430116322,2010-11-01 19:11:07,285.1843285335317,4,2,0.3841366767883301,4.199653148651123,1.815754747400376,0.980762635387361,7.257956585552192,3.572994817108426,-3.23295607813634e-05,0.0922218039631843,0,0,0
524,17383.457938643765,2010-11-01 19:13:13,411.1358370609714,4,2,0.334107905626297,4.199653148651123,1.828301256882852,0.980762635387361,7.310648816989542,3.572994817108426,-3.23295607813634e-05,0.0922218039631843,0,0,0
525,17533.690575698565,2010-11-01 19:15:44,561.3684741157736,4,2,0.2840791642665863,4.199653148651123,1.841178520467588,0.980762635387361,7.364730060936342,3.572994817108426,0.0,0.0922218039631843,0,0,0
526,17716.094892395242,2010-11-01 19:18:46,743.772790812451,4,2,0.234050378203392,4.199814796447754,1.854275935670421,0.980762635387361,7.419735869086203,3.572994817108426,0.0,0.0922218039631843,0,0,0
527,17945.85762565557,2010-11-01 19:22:36,973.5355240727816,4,2,0.1838410049676895,4.199653148651123,1.867565463745961,0.980762635387361,7.475548447021275,3.572994817108426,0.0,0.0922218039631843,0,0,0
528,18255.682145101426,2010-11-01 19:27:46,1283.3600435186293,4,2,0.1338122338056564,4.199653148651123,1.88114353194124,0.980762635387361,7.532572835057826,3.572994817108426,0.0,0.0922218039631843,0,0,0
529,18728.37987361953,2010-11-01 19:35:38,1756.0577720367378,4,2,0.0837834626436233,4.199653148651123,1.89519389356567,0.980762635387361,7.591580679014498,3.572994817108426,-3.23295607813634e-05,0.0922218039631843,0,0,0
530,19302.62302605811,2010-11-01 19:45:13,2330.300924475325,4,2,0.0498289167881011,4.199653148651123,1.905657908274561,0.980762635387361,7.635526826514372,3.572994817108426,0.0,0.0922218039631843,0,0,0
531,19332.639449388163,2010-11-01 19:45:43,30.015259309969885,5,2,0.0,4.191720962524414,1.905657908274561,0.980762635387361,7.635526826514372,3.572994817108426,-6.47544875391759e-05,0.0922218039631843,0,0,0
532,19362.639083379938,2010-11-01 19:46:13,60.01489327166658,5,2,0.0,4.190587520599365,1.905657908274561,0.980762635387361,7.635526826514372,3.572994817108426,-6.47544875391759e-05,0.0922218039631843,0,0,0
533,19362.841826187385,2010-11-01 19:46:13,0.202830756773639,6,2,-1.9243103452026844e-05,4.190749645233154,1.905657908274561,0.980762636390523,7.635526826514372,3.572994821312427,0.0,0.0939245000481605,0,0,0
534,19367.65464582563,2010-11-01 19:46:18,5.015650400037015,6,2,0.0008838032954372,4.190749645233154,1.905658776456791,0.980762636390523,7.635530464834946,3.572994821312427,3.24249267578125e-05,0.0939245000481605,0,0,0
535,19397.66975048261,2010-11-01 19:46:48,30.01525639770041,7,2,-1.0993878841400146,4.014294147491455,1.905658776456791,0.989930985531113,7.635530464834946,3.609994357591866,-0.0009065627818927,0.0939245000481605,0,0,0
536,19427.68493695577,2010-11-01 19:47:18,60.03044289592097,7,2,-1.0997490882873535,3.987906694412232,1.905658776456791,0.999099260627813,7.635530464834946,3.646667555676496,-0.0005827903514727,0.0939245000481605,0,0,0
537,19457.700176742008,2010-11-01 19:47:48,90.04568265208154,7,2,-1.099568486213684,3.969451665878296,1.905658776456791,1.008267479772176,7.635530464834946,3.683140144733689,-0.0004532813909463,0.0939245000481605,0,0,0
538,19487.715462593227,2010-11-01 19:48:18,120.06096850330248,7,2,-1.0997490882873535,3.9555294513702393,1.905658776456791,1.017435646651107,7.635530464834946,3.719466111980414,-0.0003237724304199,0.0939245000481605,0,0,0
539,19517.73071972777,2010-11-01 19:48:48,150.07622563784216,7,2,-1.099568486213684,3.943549871444702,1.905658776456791,1.026603833956116,7.635530464834946,3.755674684790481,-0.0002913951757363,0.0939245000481605,0,0,0
540,19547.74619578377,2010-11-01 19:49:18,180.09170169384348,7,2,-1.099568486213684,3.933027267456055,1.905658776456791,1.035772115939275,7.635530464834946,3.791781469929079,-0.0002590179501567,0.0939245000481605,0,0,0
541,19577.76167200017,2010-11-01 19:49:48,210.1071779152577,7,2,-1.099929690361023,3.922990322113037,1.905658776456791,1.044940306139677,7.635530464834946,3.827794666703047,-0.0002913951757363,0.0939245000481605,0,0,0
542,19607.776561005805,2010-11-01 19:50:18,240.1220669158785,7,2,-1.099568486213684,3.913762807846069,1.905658776456791,1.054108416517063,7.635530464834946,3.863719863225994,-0.0002590179501567,0.0939245000481605,0,0,0
543,19637.79197106206,2010-11-01 19:50:48,270.13747697714683,7,2,-1.099568486213684,3.9048593044281006,1.905658776456791,1.06327664116336,7.635530464834946,3.899561603650179,-0.0002590179501567,0.0939245000481605,0,0,0
544,19667.807089084352,2010-11-01 19:51:18,300.1525949944284,7,2,-1.0993878841400146,3.8962793350219727,1.905658776456791,1.072444507054032,7.635530464834946,3.935320458665437,-0.0001942634553415,0.0939245000481605,0,0,0
545,19697.82237997315,2010-11-01 19:51:48,330.1678858832239,7,2,-1.099568486213684,3.8876993656158447,1.905658776456791,1.081612372710577,7.635530464834946,3.971000500851271,-0.0002590179501567,0.0939245000481605,0,0,0
546,19727.837684516027,2010-11-01 19:52:18,360.1831904261021,7,2,-1.0997490882873535,3.879119396209717,1.905658776456791,1.090780468153588,7.635530464834946,4.006603669925794,-0.0002590179501567,0.0939245000481605,0,0,0
547,19757.852939610475,2010-11-01 19:52:48,390.1984455205494,7,2,-1.099568486213684,3.870863199234009,1.905658776456791,1.099948702699536,7.635530464834946,4.042130692547238,-0.0002266406954731,0.0939245000481605,0,0,0
548,19787.868231847635,2010-11-01 19:53:18,420.2137377577105,7,2,-1.099568486213684,3.862768888473511,1.905658776456791,1.10911689511821,7.635530464834946,4.077581968040716,-0.0001942634553415,0.0939245000481605,0,0,0
549,19817.883608701013,2010-11-01 19:53:48,450.22911461108686,7,2,-1.099568486213684,3.8546745777130127,1.905658776456791,1.118285121924192,7.635530464834946,4.112959729697169,-0.0002266406954731,0.0939245000481605,0,0,0
550,19847.89877614668,2010-11-01 19:54:18,480.2442820567493,7,2,-1.099568486213684,3.8467421531677246,1.905658776456791,1.127453301405113,7.635530464834946,4.148264253238988,-0.0002266406954731,0.0939245000481605,0,0,0
551,19877.914169451116,2010-11-01 19:54:48,510.2596753712151,7,2,-1.099568486213684,3.8389716148376474,1.905658776456791,1.136621566571733,7.635530464834946,4.18349681886813,-0.0001942634553415,0.0939245000481605,0,0,0
552,19907.92936752824,2010-11-01 19:55:18,540.274873523526,7,2,-1.099568486213684,3.831201314926148,1.905658776456791,1.145789747601771,7.635530464834946,4.218657895403204,-0.0002266406954731,0.0939245000481605,0,0,0
553,19937.94457961533,2010-11-01 19:55:48,570.2900855504702,7,2,-1.099568486213684,3.823754549026489,1.905658776456791,1.15495795076205,7.635530464834946,4.253749150635636,-0.0001942634553415,0.0939245000481605,0,0,0
554,19967.95986576229,2010-11-01 19:56:18,600.3053716723667,7,2,-1.099568486213684,3.816307783126831,1.905658776456791,1.164126132475817,7.635530464834946,4.288771669754026,-0.0001618862152099,0.0939245000481605,0,0,0
555,19997.97525751285,2010-11-01 19:56:48,630.3207634479913,7,2,-1.0997490882873535,3.808699131011963,1.905658776456791,1.173294406213862,7.635530464834946,4.323725952295603,-0.0001942634553415,0.0939245000481605,0,0,0
556,20027.99040385083,2010-11-01 19:57:18,660.3359097609032,7,2,-1.099568486213684,3.801738023757935,1.905658776456791,1.182462522738543,7.635530464834946,4.3586127661376,-0.0001618862152099,0.0939245000481605,0,0,0
557,20058.00582186695,2010-11-01 19:57:48,690.3513277820406,7,2,-1.0997490882873535,3.794776916503906,1.905658776456791,1.191630825381038,7.635530464834946,4.393436096518017,-0.0001618862152099,0.0939245000481605,0,0,0
558,20088.021108099125,2010-11-01 19:58:18,720.3666140091999,7,2,-1.0997490882873535,3.787977695465088,1.905658776456791,1.200799033073347,7.635530464834946,4.42819661099819,-0.0001942634553415,0.0939245000481605,0,0,0
559,20118.0362351289,2010-11-01 19:58:48,750.3817410389781,7,2,-1.0993878841400146,3.78134036064148,1.905658776456791,1.209967195356631,7.635530464834946,4.462894660531993,-0.0001618862152099,0.0939245000481605,0,0,0
560,20148.051512524016,2010-11-01 19:59:18,780.3970184340913,7,2,-1.099568486213684,3.774541139602661,1.905658776456791,1.21913533612101,7.635530464834946,4.497531291237395,-0.0002266406954731,0.0939245000481605,0,0,0
561,20178.066798751177,2010-11-01 19:59:48,810.412304666263,7,2,-1.099568486213684,3.7682275772094727,1.905658776456791,1.228303540734034,7.635530464834946,4.532108544625599,-0.0001942634553415,0.0939245000481605,0,0,0
562,20208.082064657618,2010-11-01 20:00:18,840.4275705676862,7,2,-1.0997490882873535,3.761752128601074,1.905658776456791,1.23747171118647,7.635530464834946,4.566627542769439,-0.0001942634553415,0.0939245000481605,0,0,0
563,20238.097326383613,2010-11-01 20:00:48,870.442832313737,7,2,-1.0997490882873535,3.755600452423096,1.905658776456791,1.246640070743096,7.635530464834946,4.60108993782287,-0.0001942634553415,0.0939245000481605,0,0,0
564,20268.11262567839,2010-11-01 20:01:18,900.4581315834524,7,2,-1.0997490882873535,3.749772787094116,1.905658776456791,1.255809142178654,7.635530464834946,4.635498237957442,-0.0001618862152099,0.0939245000481605,0,0,0
565,20298.12799858692,2010-11-01 20:01:48,930.4735044969945,7,2,-1.0997490882873535,3.7436211109161377,1.905658776456791,1.264978295351834,7.635530464834946,4.669851718642337,-0.0001618862152099,0.0939245000481605,0,0,0
566,20328.14329107471,2010-11-01 20:02:18,960.4887969897936,7,2,-1.0997490882873535,3.737793207168579,1.905658776456791,1.274147397084725,7.635530464834946,4.704150959544283,-0.0001618862152099,0.0939245000481605,0,0,0
567,20358.158430816213,2010-11-01 20:02:48,990.5039367212772,7,2,-1.099568486213684,3.73228907585144,1.905658776456791,1.283316300053808,7.635530464834946,4.738397721901583,-0.0001618862152099,0.0939245000481605,0,0,0
568,20388.17370990556,2010-11-01 20:03:18,1020.5192158106196,7,2,-1.0997490882873535,3.726946830749512,1.905658776456791,1.292484494436366,7.635530464834946,4.772591843391676,-0.0001295089750783,0.0939245000481605,0,0,0
569,20418.188993355783,2010-11-01 20:03:49,1050.5344992658595,7,2,-1.0997490882873535,3.721442699432373,1.905658776456791,1.301652779363848,7.635530464834946,4.806737267386304,-0.0001618862152099,0.0939245000481605,0,0,0
570,20448.204271623075,2010-11-01 20:04:19,1080.5497775381627,7,2,-1.0997490882873535,3.7162623405456543,1.905658776456791,1.310821067218955,7.635530464834946,4.840833919204171,-0.0001295089750783,0.0939245000481605,0,0,0
571,20478.21970961908,2010-11-01 20:04:49,1110.5652155341604,7,2,-1.099568486213684,3.711081981658936,1.905658776456791,1.319989439460706,7.635530464834946,4.874883320685976,-0.0001618862152099,0.0939245000481605,0,0,0
572,20508.23741608753,2010-11-01 20:05:19,1140.5829221930896,7,2,-1.099568486213684,3.7062253952026367,1.905658776456791,1.32915849733507,7.635530464834946,4.908888469473903,-9.713172767078504e-05,0.0939245000481605,0,0,0
573,20538.250117587813,2010-11-01 20:05:49,1170.5956234878602,7,2,-1.0997490882873535,3.701045036315918,1.905658776456791,1.338326081661764,7.635530464834946,4.94284207534888,-0.0001618862152099,0.0939245000481605,0,0,0
574,20568.265403764843,2010-11-01 20:06:19,1200.610909679932,7,2,-1.0997490882873535,3.696026563644409,1.905658776456791,1.347494533607599,7.635530464834946,4.976753207370254,-0.0001618862152099,0.0939245000481605,0,0,0
575,20598.280798948977,2010-11-01 20:06:49,1230.626304859052,7,2,-1.0997490882873535,3.69133186340332,1.905658776456791,1.356663041181516,7.635530464834946,5.010619707414823,-0.0001295089750783,0.0939245000481605,0,0,0
576,20628.29594642479,2010-11-01 20:07:19,1260.6414523348667,7,2,-1.099568486213684,3.6864752769470215,1.905658776456791,1.365831410049235,7.635530464834946,5.044441303422959,-0.0001618862152099,0.0939245000481605,0,0,0
577,20658.311234952696,2010-11-01 20:07:49,1290.656740852744,7,2,-1.099568486213684,3.681942462921143,1.905658776456791,1.374999882187893,7.635530464834946,5.078219628704806,-9.713172767078504e-05,0.0939245000481605,0,0,0
578,20688.32654451811,2010-11-01 20:08:19,1320.6720504281843,7,2,-1.099568486213684,3.6772477626800537,1.905658776456791,1.384168345464472,7.635530464834946,5.111954554190969,-9.713172767078504e-05,0.0939245000481605,0,0,0
579,20718.341810945847,2010-11-01 20:08:49,1350.6873168509085,7,2,-1.0997490882873535,3.672391414642334,1.905658776456791,1.39333682525117,7.635530464834946,5.145646775575045,-0.0001294612884521,0.0939245000481605,0,0,0
580,20748.35709290736,2010-11-01 20:09:19,1380.7025988224452,7,2,-1.099568486213684,3.668020486831665,1.905658776456791,1.402505280579445,7.635530464834946,5.179296296088628,-6.47544875391759e-05,0.0939245000481605,0,0,0
581,20778.37241705417,2010-11-01 20:09:49,1410.7179229642454,7,2,-1.099568486213684,3.663325786590576,1.905658776456791,1.411673691727793,7.635530464834946,5.212903819229063,-0.0001618862152099,0.0939245000481605,0,0,0
582,20808.3876690158,2010-11-01 20:10:19,1440.7331749208602,7,2,-1.099568486213684,3.658792972564697,1.905658776456791,1.420842191395175,7.635530464834946,5.246470391113529,-0.0001295089750783,0.0939245000481605,0,0,0
583,20838.40306910717,2010-11-01 20:10:49,1470.748575012242,7,2,-1.0997490882873535,3.654422044754028,1.905658776456791,1.430010639654725,7.635530464834946,5.279995866585217,-0.0001295089750783,0.0939245000481605,0,0,0
584,20868.41822515439,2010-11-01 20:11:19,1500.7637310594523,7,2,-1.099568486213684,3.65005111694336,1.905658776456791,1.439179071304188,7.635530464834946,5.313481288598847,-0.0001295089750783,0.0939245000481605,0,0,0
585,20898.43354816336,2010-11-01 20:11:49,1530.779054073437,7,2,-1.099568486213684,3.645842075347901,1.905658776456791,1.448347590129361,7.635530464834946,5.346927047188608,-6.47544875391759e-05,0.0939245000481605,0,0,0
586,20928.448828676257,2010-11-01 20:12:19,1560.7943345813203,7,2,-1.099568486213684,3.6416330337524414,1.905658776456791,1.457516050461242,7.635530464834946,5.380333538384768,-6.47544875391759e-05,0.0939245000481605,0,0,0
587,20958.46416630172,2010-11-01 20:12:49,1590.809672327078,7,2,-1.099568486213684,3.6374239921569824,1.905658776456791,1.46668452163892,7.635530464834946,5.41370179282525,-9.713172767078504e-05,0.0939245000481605,0,0,0
588,20988.47938325596,2010-11-01 20:13:19,1620.8248891560086,7,2,-1.099568486213684,3.633376836776733,1.905658776456791,1.475852951572693,7.635530464834946,5.447032512871859,-0.0001295089750783,0.0939245000481605,0,0,0
589,21018.494806239483,2010-11-01 20:13:49,1650.8403121445454,7,2,-1.0997490882873535,3.629329681396485,1.905658776456791,1.485021458575135,7.635530464834946,5.480327127544111,-0.0001295089750783,0.0939245000481605,0,0,0
590,21048.509969454582,2010-11-01 20:14:19,1680.8554753546352,7,2,-1.099568486213684,3.6256062984466553,1.905658776456791,1.494189960952224,7.635530464834946,5.513585815138121,-9.713172767078504e-05,0.0939245000481605,0,0,0
591,21078.52537286425,2010-11-01 20:14:49,1710.870878774325,7,2,-1.0997490882873535,3.621721029281616,1.905658776456791,1.503358517498307,7.635530464834946,5.546809337396152,-9.713172767078504e-05,0.0939245000481605,0,0,0
592,21108.5405503199,2010-11-01 20:15:19,1740.8860562249615,7,2,-1.0997490882873535,3.617997646331787,1.905658776456791,1.512526990471074,7.635530464834946,5.579998057459262,-9.713172767078504e-05,0.0939245000481605,0,0,0
593,21138.555840451805,2010-11-01 20:15:49,1770.901346356868,7,2,-1.0997490882873535,3.614436149597168,1.905658776456791,1.521695499345667,7.635530464834946,5.613153089241447,-6.47544875391759e-05,0.0939245000481605,0,0,0
594,21168.57114537563,2010-11-01 20:16:19,1800.916651280697,7,2,-1.099568486213684,3.610874652862549,1.905658776456791,1.530864069093664,7.635530464834946,5.646275712468116,-0.0001295089750783,0.0939245000481605,0,0,0
595,21198.58652489065,2010-11-01 20:16:49,1830.9320307957169,7,2,-1.099568486213684,3.60747504234314,1.905658776456791,1.540032650614571,7.635530464834946,5.679366380486155,-6.47544875391759e-05,0.0939245000481605,0,0,0
596,21228.601689158382,2010-11-01 20:17:19,1860.9471950584343,7,2,-1.099568486213684,3.6040754318237305,1.905658776456791,1.549201220682123,7.635530464834946,5.712425509742428,-6.47544875391759e-05,0.0939245000481605,0,0,0
597,21258.61698408225,2010-11-01 20:17:49,1890.9624899873145,7,2,-1.0997490882873535,3.6006758213043213,1.905658776456791,1.558369808346298,7.635530464834946,5.74545384339263,-9.713172767078504e-05,0.0939245000481605,0,0,0
598,21288.632427516823,2010-11-01 20:18:19,1920.977933421888,7,2,-1.0997490882873535,3.597438097000122,1.905658776456791,1.567538425655878,7.635530464834946,5.778452309436677,-6.47544875391759e-05,0.0939245000481605,0,0,0
599,21318.647721543453,2010-11-01 20:18:49,1950.993227453528,7,2,-1.099568486213684,3.594362258911133,1.905658776456791,1.576706922885893,7.635530464834946,5.811421215154907,-6.47544875391759e-05,0.0939245000481605,0,0,0
600,21348.662859259908,2010-11-01 20:19:19,1981.0083651749949,7,2,-1.099568486213684,3.5912866592407227,1.905658776456791,1.58587541715321,7.635530464834946,5.844361770824142,-6.47544875391759e-05,0.0939245000481605,0,0,0
601,21378.67815514116,2010-11-01 20:19:49,2011.0236610462275,7,2,-1.099929690361023,3.5880489349365234,1.905658776456791,1.595043986183848,7.635530464834946,5.877274527246485,-0.0001295089750783,0.0939245000481605,0,0,0
602,21408.693447388352,2010-11-01 20:20:19,2041.0389532884003,7,2,-1.099568486213684,3.585296869277954,1.905658776456791,1.604212510763358,7.635530464834946,5.91015959195655,-9.713172767078504e-05,0.0939245000481605,0,0,0
603,21438.708728868663,2010-11-01 20:20:49,2071.054234798786,7,2,-1.099929690361023,3.582221031188965,1.905658776456791,1.613381048269646,7.635530464834946,5.943017547073678,-9.713172767078504e-05,0.0939245000481605,0,0,0
604,21468.72424442325,2010-11-01 20:21:19,2101.069750333332,7,2,-1.0997490882873535,3.5794689655303955,1.905658776456791,1.622549670723533,7.635530464834946,5.975849091211262,-6.47544875391759e-05,0.0939245000481605,0,0,0
605,21498.739543838336,2010-11-01 20:21:49,2131.085049758436,7,2,-1.0997490882873535,3.576555013656616,1.905658776456791,1.631718250584587,7.635530464834946,6.008653659280893,-6.47544875391759e-05,0.0939245000481605,0,0,0
606,21528.754637765487,2010-11-01 20:22:19,2161.100143670547,7,2,-1.0997490882873535,3.573641061782837,1.905658776456791,1.640886762500306,7.635530464834946,6.041431206975119,-6.47544875391759e-05,0.0939245000481605,0,0,0
607,21558.77000539584,2010-11-01 20:22:49,2191.115511310926,7,2,-1.099568486213684,3.5707271099090576,1.905658776456791,1.650055333387017,7.635530464834946,6.074182330017516,-6.47544875391759e-05,0.0939245000481605,0,0,0
608,21588.78517575377,2010-11-01 20:23:19,2221.130681688908,7,2,-1.099568486213684,3.5678131580352783,1.905658776456791,1.659223829190385,7.635530464834946,6.106906406513724,-6.47544875391759e-05,0.0939245000481605,0,0,0
609,21618.800629198333,2010-11-01 20:23:49,2251.1461351033927,7,2,-1.099568486213684,3.564737319946289,1.905658776456791,1.668392442826944,7.635530464834946,6.13960411045168,-9.713172767078504e-05,0.0939245000481605,0,0,0
610,21648.81581087953,2010-11-01 20:24:19,2281.161316789602,7,2,-1.099568486213684,3.56198525428772,1.905658776456791,1.677561055042141,7.635530464834946,6.172275063107303,-6.47544875391759e-05,0.0939245000481605,0,0,0
611,21678.831268790236,2010-11-01 20:24:49,2311.176774695298,7,2,-1.099929690361023,3.5589094161987305,1.905658776456791,1.686729720224337,7.635530464834946,6.204919712152992,-9.713172767078504e-05,0.0939245000481605,0,0,0
612,21708.846389414022,2010-11-01 20:25:19,2341.191895324097,7,2,-1.099568486213684,3.555995464324951,1.905658776456791,1.695898286912509,7.635530464834946,6.237536418290965,-3.237724376958795e-05,0.0939245000481605,0,0,0
613,21738.86182704912,2010-11-01 20:25:49,2371.2073329642067,7,2,-1.099929690361023,3.552757740020752,1.905658776456791,1.70506695604874,7.635530464834946,6.270125257234498,-9.713172767078504e-05,0.0939245000481605,0,0,0
614,21768.876985998573,2010-11-01 20:26:19,2401.222491908649,7,2,-1.0997490882873535,3.5496819019317627,1.905658776456791,1.714235481923286,7.635530464834946,6.302685401878397,-9.713172767078504e-05,0.0939245000481605,0,0,0
615,21798.892267884898,2010-11-01 20:26:49,2431.237773794973,7,2,-1.0993878841400146,3.546606063842773,1.905658776456791,1.723404168232891,7.635530464834946,6.335217181771333,-9.713172767078504e-05,0.0939245000481605,0,0,0
616,21828.90755518473,2010-11-01 20:27:19,2461.2530610998224,7,2,-1.099568486213684,3.5432064533233643,1.905658776456791,1.732572852206202,7.635530464834946,6.367719647302735,-0.0001295089750783,0.0939245000481605,0,0,0
617,21858.922847948208,2010-11-01 20:27:49,2491.26835388836,7,2,-1.0997490882873535,3.539968729019165,1.905658776456791,1.74174150149562,7.635530464834946,6.400191786829612,-9.713172767078504e-05,0.0939245000481605,0,0,0
618,21888.93815415023,2010-11-01 20:28:19,2521.283660060304,7,2,-1.099568486213684,3.536569118499756,1.905658776456791,1.750910158104338,7.635530464834946,6.432633043346414,-9.713172767078504e-05,0.0939245000481605,0,0,0
619,21918.95343911424,2010-11-01 20:28:49,2551.298945024311,7,2,-1.099568486213684,3.5331695079803467,1.905658776456791,1.760078838985173,7.635530464834946,6.465042471192898,-9.713172767078504e-05,0.0939245000481605,0,0,0
620,21948.96874678993,2010-11-01 20:29:19,2581.314252700009,7,2,-1.0997490882873535,3.529284238815308,1.905658776456791,1.769247534549045,7.635530464834946,6.497419103790914,-0.0001295089750783,0.0939245000481605,0,0,0
621,21978.98415719205,2010-11-01 20:29:49,2611.329663102128,7,2,-1.099568486213684,3.5255608558654785,1.905658776456791,1.778416253675013,7.635530464834946,6.52976183533883,-0.0001295089750783,0.0939245000481605,0,0,0
622,22008.99956547889,2010-11-01 20:30:19,2641.345071398992,7,2,-1.0997490882873535,3.521513700485229,1.905658776456791,1.787584972084314,7.635530464834946,6.562068888467509,-9.713172767078504e-05,0.0939245000481605,0,0,0
623,22039.01461558666,2010-11-01 20:30:49,2671.360121496736,7,2,-1.099568486213684,3.5174665451049805,1.905658776456791,1.796753613703683,7.635530464834946,6.594338542929043,-9.713172767078504e-05,0.0939245000481605,0,0,0
624,22069.0299447109,2010-11-01 20:31:19,2701.375450646036,7,2,-1.0997490882873535,3.5129337310791016,1.905658776456791,1.805922312703895,7.635530464834946,6.626568726274506,-0.0001295089750783,0.0939245000481605,0,0,0
625,22099.045208266467,2010-11-01 20:31:49,2731.390714181553,7,2,-1.0997490882873535,3.508077383041382,1.905658776456791,1.815091026017413,7.635530464834946,6.658756327251582,-0.0001618862152099,0.0939245000481605,0,0,0
626,22129.060526458416,2010-11-01 20:32:19,2761.4060323735016,7,2,-1.0997490882873535,3.502897024154663,1.905658776456791,1.824259725276718,7.635530464834946,6.690897514686814,-0.0001295089750783,0.0939245000481605,0,0,0
627,22159.075835532603,2010-11-01 20:32:49,2791.4213414326528,7,2,-1.0997490882873535,3.4970691204071045,1.905658776456791,1.833428518015263,7.635530464834946,6.722988222405832,-0.0001295089750783,0.0939245000481605,0,0,0
628,22189.091117037977,2010-11-01 20:33:19,2821.4366229630887,7,2,-1.099568486213684,3.490431785583496,1.905658776456791,1.842597281545621,7.635530464834946,6.755022343131069,-0.0001942634553415,0.0939245000481605,0,0,0
629,22219.10638050332,2010-11-01 20:33:49,2851.451886413394,7,2,-1.0997490882873535,3.482985019683838,1.905658776456791,1.851765998375464,7.635530464834946,6.786992556423835,-0.0002266406954731,0.0939245000481605,0,0,0
630,22249.121832243625,2010-11-01 20:34:19,2881.467338163724,7,2,-1.0997490882873535,3.47440505027771,1.905658776456791,1.860934783648465,7.635530464834946,6.818889454627849,-0.0002590179501567,0.0939245000481605,0,0,0
631,22279.13697251646,2010-11-01 20:34:49,2911.482478426534,7,2,-1.0997490882873535,3.4646918773651123,1.905658776456791,1.87010345368169,7.635530464834946,6.850701176277738,-0.0002590179501567,0.0939245000481605,0,0,0
632,22309.152269605733,2010-11-01 20:35:19,2941.497775540869,7,2,-1.0997490882873535,3.452550411224365,1.905658776456791,1.879272219378185,7.635530464834946,6.882413611439382,-0.0003561496851034,0.0939245000481605,0,0,0
633,22339.16756219377,2010-11-01 20:35:50,2971.513068103844,7,2,-1.099568486213684,3.4386281967163086,1.905658776456791,1.888441010057903,7.635530464834946,6.914007591305079,-0.0003885269106831,0.0939245000481605,0,0,0
634,22369.1830095782,2010-11-01 20:36:20,3001.5285154983017,7,2,-1.099929690361023,3.420982837677002,1.905658776456791,1.897609795034903,7.635530464834946,6.945457679331264,-0.0005180359003134,0.0939245000481605,0,0,0
635,22399.19815860288,2010-11-01 20:36:50,3031.543664512957,7,2,-1.099568486213684,3.399128198623657,1.905658776456791,1.906778481070526,7.635530464834946,6.976728255342294,-0.0006799221155233,0.0939245000481605,0,0,0
636,22429.21609363186,2010-11-01 20:37:20,3061.561599627146,7,2,-1.099568486213684,3.370798110961914,1.905658776456791,1.915948037950097,7.635530464834946,7.00777366539629,-0.0009065627818927,0.0939245000481605,0,0,0
637,22459.228815332564,2010-11-01 20:37:50,3091.574321327853,7,2,-1.099929690361023,3.3332407474517822,1.905658776456791,1.925116026945155,7.635530464834946,7.038513967620387,-0.0011008263099938,0.0939245000481605,0,0,0
638,22489.2440591238,2010-11-01 20:38:20,3121.589565033873,7,2,-1.0997490882873535,3.2812752723693848,1.905658776456791,1.934284793484099,7.635530464834946,7.068850594258755,-0.0015864849556237,0.0939245000481605,0,0,0
639,22519.259326769577,2010-11-01 20:38:50,3151.6048326796504,7,2,-1.0997490882873535,3.207293510437012,1.905658776456791,1.943453559462067,7.635530464834946,7.098618572578235,-0.0023311614058911,0.0939245000481605,0,0,0
640,22549.27474662529,2010-11-01 20:39:20,3181.620252535367,7,2,-1.099568486213684,3.095430612564087,1.905658776456791,1.952622396383773,7.635530464834946,7.127552612939557,-0.0036262036301195,0.0939245000481605,0,0,0
641,22577.586817454787,2010-11-01 20:39:48,3209.9323233648606,7,2,-1.099929690361023,2.8953397274017334,1.905658776456791,1.961270962767927,7.635530464834946,7.153579634320868,-0.007932424545288,0.0939245000481605,0,0,0
642,22593.336649273057,2010-11-01 20:40:04,3225.6821551831304,7,2,-1.0997490882873535,2.699943780899048,1.905658776456791,1.966082054615922,7.635530464834946,7.167059696671185,-0.0107168201357126,0.0939245000481605,0,0,0
643,22653.35300983696,2010-11-01 20:41:04,60.015093601721226,8,2,0.0,3.3275747299194336,1.905658776456791,1.966082054615922,7.635530464834946,7.167059696671185,0.0013274669181555,0.0939245000481605,0,0,0
644,22653.54036029681,2010-11-01 20:41:04,0.187515156679558,9,2,-1.9243103452026844e-05,3.327736616134644,1.905658776456791,1.966082055618248,7.635530464834946,7.167059700006662,0.0,0.0898760333657264,0,0,0
645,22658.3684217159,2010-11-01 20:41:09,5.015576575760263,9,2,0.0003419754502829,3.335992813110352,1.905659534801836,1.966082055868888,7.635532992131664,7.167059700841145,0.0011979580158367,0.0898760333657264,0,0,0
