Data_Point,Test_Time(s),Date_Time,Step_Time(s),Step_Index,Cycle_Index,Current(A),Voltage(V),Charge_Capacity(Ah),Discharge_Capacity(Ah),Charge_Energy(Wh),Discharge_Energy(Wh),dV/dt(V/s),Internal_Resistance(Ohm),Is_FC_Data,AC_Impedance(Ohm),ACI_Phase_Angle(Deg)
1,30.000459908386706,2010-11-01 14:23:58,30.00046052492568,1,1,0.0,3.7020163536071777,0.0,0.0,0.0,0.0,0.0,0.0,0,0,0
2,60.01577345373644,2010-11-01 14:24:28,60.01577404020036,1,1,0.0,3.7020163536071777,0.0,0.0,0.0,0.0,-3.237724376958795e-05,0.0,0,0,0
3,90.03086362651388,2010-11-01 14:24:58,90.03086424806537,1,1,0.0,3.7020163536071777,0.0,0.0,0.0,0.0,0.0,0.0,0,0,0
4,120.014324307213,2010-11-01 14:25:28,120.0143248886644,1,1,0.0,3.7020163536071777,0.0,0.0,0.0,0.0,3.237724376958795e-05,0.0,0,0,0
5,150.0151141973811,2010-11-01 14:25:58,30.00035190880313,2,1,0.550297200679779,3.792510509490967,0.004585180375553,0.0,0.017352899758569,0.0,0.0003237724304199,0.0,0,0,0
6,180.03021472099582,2010-11-01 14:26:28,60.01545251763055,2,1,0.550297200679779,3.8020617961883545,0.009172687718366,0.0,0.034775233676633,0.0,0.0001618862152099,0.0,0,0,0
7,210.0454074547813,2010-11-01 14:26:58,90.03064516620334,2,1,0.5501165986061096,3.808699131011963,0.013760142077772,0.0,0.052233009048927,0.0,0.0001618862152099,0.0,0,0,0
8,240.06101633733817,2010-11-01 14:27:28,120.04625404374764,2,1,0.5501165986061096,3.813717603683472,0.018347670720086,0.0,0.069717481563428,0.0,0.0001295089750783,0.0,0,0,0
9,270.0758968267135,2010-11-01 14:27:58,150.06113453813558,2,1,0.5499359965324402,3.818250417709351,0.022934219089746,0.0,0.087220431118823,0.0,6.47544875391759e-05,0.0,0,0,0
10,300.09113588112245,2010-11-01 14:28:28,180.07637359254446,2,1,0.550297200679779,3.82262134552002,0.027520816683984,0.0,0.104743478953912,0.0,9.713172767078504e-05,0.0,0,0,0
11,330.106377712463,2010-11-01 14:28:59,210.091615423885,2,1,0.550297200679779,3.826668500900269,0.032107371609414,0.0,0.122284961443095,0.0,0.0001295089750783,0.0,0,0,0
12,360.12171913239195,2010-11-01 14:29:29,240.10695686887647,2,1,0.5501165986061096,3.8303918838500977,0.036693893866165,0.0,0.139844176872249,0.0,0.0001295089750783,0.0,0,0,0
13,390.1370237554703,2010-11-01 14:29:59,270.1222614668924,2,1,0.5501165986061096,3.834115028381348,0.041280457899466,0.0,0.157420791218444,0.0,0.0001295089750783,0.0,0,0,0
14,420.15496497991126,2010-11-01 14:30:29,300.14020280160867,2,1,0.5499359965324402,3.837514638900757,0.045867443553913,0.0,0.175015710638249,0.0,3.237724376958795e-05,0.0,0,0,0
15,450.1673929173398,2010-11-01 14:30:59,330.15263065883687,2,1,0.5501165986061096,3.841076135635376,0.050453590443637,0.0,0.192623717629858,0.0,6.47544875391759e-05,0.0,0,0,0
16,480.1827238510936,2010-11-01 14:31:29,360.16796158757825,2,1,0.5501165986061096,3.844475746154785,0.055040216061969,0.0,0.210249528076413,0.0,6.47544875391759e-05,0.0,0,0,0
17,510.1978696928294,2010-11-01 14:31:59,390.1831074042514,2,1,0.5499359965324402,3.8478753566741934,0.059626766866146,0.0,0.227890711574546,0.0,6.47544875391759e-05,0.0,0,0,0
18,540.2131123361968,2010-11-01 14:32:29,420.1983500476189,2,1,0.5501165986061096,3.8514368534088135,0.064213393495958,0.0,0.245547594530933,0.0,9.713172767078504e-05,0.0,0,0,0
19,570.2284826031324,2010-11-01 14:32:59,450.2137203145544,2,1,0.5501165986061096,3.8545126914978023,0.068799983550461,0.0,0.263219347437181,0.0,6.47544875391759e-05,0.0,0,0,0
20,600.243645106458,2010-11-01 14:33:29,480.22888281788,2,1,0.5501165986061096,3.857588529586792,0.073386616776272,0.0,0.280906064009292,0.0,6.47544875391759e-05,0.0,0,0,0
21,630.2590347166774,2010-11-01 14:33:59,510.24427245817446,2,1,0.550297200679779,3.860826253890991,0.077973289888546,0.0,0.298607291779967,0.0,9.713172767078504e-05,0.0,0,0,0
22,660.2741073957878,2010-11-01 14:34:29,540.2593451072099,2,1,0.5501165986061096,3.863902091979981,0.082559864186403,0.0,0.316322219290727,0.0,6.47544875391759e-05,0.0,0,0,0
23,690.2894731264,2010-11-01 14:34:59,570.2747108378221,2,1,0.5499359965324402,3.86665415763855,0.087146515034868,0.0,0.334051151407309,0.0,3.237724376958795e-05,0.0,0,0,0
24,720.3046277199817,2010-11-01 14:35:29,600.2898654314038,2,1,0.5501165986061096,3.869729995727539,0.091733152498463,0.0,0.351793525374582,0.0,9.713172767078504e-05,0.0,0,0,0
25,750.3199804280879,2010-11-01 14:35:59,630.3052181395097,2,1,0.5499359965324402,3.872482061386109,0.096319818721248,0.0,0.369549119244974,0.0,6.47544875391759e-05,0.0,0,0,0
26,780.335097432842,2010-11-01 14:36:29,660.3203351442639,2,1,0.5499359965324402,3.8752341270446777,0.100906380257827,0.0,0.387316974352839,0.0,6.47544875391759e-05,0.0,0,0,0
27,810.3504898450556,2010-11-01 14:36:59,690.3357275665026,2,1,0.5501165986061096,3.877662420272827,0.105493046347592,0.0,0.405097533125734,0.0,3.237724376958795e-05,0.0,0,0,0
28,840.3656717869026,2010-11-01 14:37:29,720.3509095283997,2,1,0.550297200679779,3.880414485931397,0.110079744690414,0.0,0.422890032828213,0.0,6.47544875391759e-05,0.0,0,0,0
29,870.3809747458271,2010-11-01 14:37:59,750.3662124572492,2,1,0.5501165986061096,3.882680892944336,0.114666440404757,0.0,0.440693837150955,0.0,3.237724376958795e-05,0.0,0,0,0
30,900.3961059911278,2010-11-01 14:38:29,780.3813437276124,2,1,0.5501165986061096,3.885109186172485,0.119253101256121,0.0,0.458508307661283,0.0,9.713172767078504e-05,0.0,0,0,0
31,930.4113664289129,2010-11-01 14:38:59,810.3966041453474,2,1,0.5501165986061096,3.887213706970215,0.12384019509841,0.0,0.476334695975425,0.0,3.237724376958795e-05,0.0,0,0,0
32,960.4266594931386,2010-11-01 14:39:29,840.4118972045604,2,1,0.5501165986061096,3.8894801139831534,0.128427602273144,0.0,0.494172099825823,0.0,6.47544875391759e-05,0.0,0,0,0
33,990.441894803201,2010-11-01 14:39:59,870.4271325146228,2,1,0.5501165986061096,3.891260862350464,0.133014579997925,0.0,0.512016976277665,0.0,6.47544875391759e-05,0.0,0,0,0
34,1020.4571739226184,2010-11-01 14:40:29,900.4424116641154,2,1,0.5501165986061096,3.893041610717773,0.137601256280945,0.0,0.529869462182663,0.0,6.47544875391759e-05,0.0,0,0,0
35,1050.4725398487185,2010-11-01 14:40:59,930.4577775601404,2,1,0.5501165986061096,3.894822359085083,0.142188030989447,0.0,0.547730636124982,0.0,0.0,0.0,0,0,0
36,1080.4876928783965,2010-11-01 14:41:29,960.4729305948308,2,1,0.550297200679779,3.8966031074523926,0.146774781841581,0.0,0.565598980161572,0.0,6.47544875391759e-05,0.0,0,0,0
37,1110.503069882148,2010-11-01 14:41:59,990.48830759357,2,1,0.5499359965324402,3.898060083389282,0.151361487012977,0.0,0.583474572316646,0.0,3.237724376958795e-05,0.0,0,0,0
38,1140.5182163354102,2010-11-01 14:42:29,1020.5034540468324,2,1,0.550297200679779,3.899678945541382,0.155948137304733,0.0,0.601356984329379,0.0,6.47544875391759e-05,0.0,0,0,0
39,1170.5334714248447,2010-11-01 14:42:59,1050.518709136267,2,1,0.5501165986061096,3.9009740352630615,0.160534828252177,0.0,0.619246140220218,0.0,6.47544875391759e-05,0.0,0,0,0
40,1200.5488699623484,2010-11-01 14:43:29,1080.5341077038454,2,1,0.5501165986061096,3.902431011199951,0.165121539938971,0.0,0.63714188171862,0.0,6.47544875391759e-05,0.0,0,0,0
41,1230.5640512224938,2010-11-01 14:43:59,1110.549288994066,2,1,0.5501165986061096,3.903726100921631,0.169708285257621,0.0,0.655044000514866,0.0,6.47544875391759e-05,0.0,0,0,0
42,1260.579251981311,2010-11-01 14:44:29,1140.5644896977456,2,1,0.5501165986061096,3.905021190643311,0.174294986394704,0.0,0.672952122557111,0.0,0.0,0.0,0,0,0
43,1290.5945309152655,2010-11-01 14:44:59,1170.5797686266874,2,1,0.5501165986061096,3.9063162803649902,0.178881700429781,0.0,0.690866133562481,0.0,6.47544875391759e-05,0.0,0,0,0
44,1320.6099053325609,2010-11-01 14:45:29,1200.5951430439827,2,1,0.5501165986061096,3.90761137008667,0.183468448897086,0.0,0.708786307042825,0.0,3.237724376958795e-05,0.0,0,0,0
45,1350.6250285027047,2010-11-01 14:45:59,1230.6102662191392,2,1,0.5501165986061096,3.9089064598083496,0.188055169946617,0.0,0.726712269885311,0.0,0.0,0.0,0,0,0
46,1380.6406865028666,2010-11-01 14:46:29,1260.6259242142887,2,1,0.5501165986061096,3.910201549530029,0.192641989739515,0.0,0.744644474697277,0.0,3.237724376958795e-05,0.0,0,0,0
47,1410.6558311917247,2010-11-01 14:46:59,1290.6410689031468,2,1,0.5501165986061096,3.911334753036499,0.197228778862734,0.0,0.762582254004055,0.0,3.237724376958795e-05,0.0,0,0,0
48,1440.6710296297488,2010-11-01 14:47:29,1320.656267351196,2,1,0.5501165986061096,3.9127917289733887,0.201815461182793,0.0,0.780525483431725,0.0,6.47544875391759e-05,0.0,0,0,0
49,1470.686141787404,2010-11-01 14:47:59,1350.6713795038386,2,1,0.5501165986061096,3.9139246940612793,0.20640223805798,0.0,0.798474836052693,0.0,3.237724376958795e-05,0.0,0,0,0
50,1500.7015268161872,2010-11-01 14:48:29,1380.6867645276093,2,1,0.550297200679779,3.915381669998169,0.210989060578175,0.0,0.816430208998719,0.0,6.47544875391759e-05,0.0,0,0,0
51,1530.7166662870204,2010-11-01 14:48:59,1410.7019040034547,2,1,0.5501165986061096,3.9163529872894287,0.215575855433426,0.0,0.834391101812711,0.0,0.0,0.0,0,0,0
52,1560.7319987044775,2010-11-01 14:49:29,1440.7172364209125,2,1,0.5499359965324402,3.917648077011109,0.22016261722088,0.0,0.852357813394959,0.0,3.237724376958795e-05,0.0,0,0,0
53,1590.7472040497432,2010-11-01 14:49:59,1470.732441761165,2,1,0.5501165986061096,3.919105052947998,0.224749356584836,0.0,0.870330255911047,0.0,3.237724376958795e-05,0.0,0,0,0
54,1620.762488477411,2010-11-01 14:50:29,1500.747726188833,2,1,0.550297200679779,3.9204001426696777,0.229336118964299,0.0,0.888308689300024,0.0,3.237724376958795e-05,0.0,0,0,0
55,1650.7777609101372,2010-11-01 14:50:59,1530.7629986215593,2,1,0.550297200679779,3.921533346176148,0.233922910820887,0.0,0.906293079949083,0.0,3.237724376958795e-05,0.0,0,0,0
56,1680.7931543850032,2010-11-01 14:51:29,1560.7783921064504,2,1,0.5501165986061096,3.922828435897827,0.238509627442363,0.0,0.92428315255382,0.0,3.237724376958795e-05,0.0,0,0,0
57,1710.8082757656805,2010-11-01 14:51:59,1590.7935134771024,2,1,0.550297200679779,3.924285411834717,0.24309635012147,0.0,0.94227920438938,0.0,6.47544875391759e-05,0.0,0,0,0
58,1740.823679937247,2010-11-01 14:52:29,1620.8089176536816,2,1,0.5501165986061096,3.9254186153411865,0.247683196217602,0.0,0.960281868259824,0.0,3.237724376958795e-05,0.0,0,0,0
59,1770.8388377037488,2010-11-01 14:52:59,1650.8240754201834,2,1,0.5501165986061096,3.926713705062866,0.252269956121861,0.0,0.978290158480151,0.0,0.0,0.0,0,0,0
60,1800.8541087480094,2010-11-01 14:53:29,1680.8393464694566,2,1,0.5501165986061096,3.928170680999756,0.256856786900039,0.0,0.996304843013753,0.0,0.0,0.0,0,0,0
61,1830.8693551607853,2010-11-01 14:53:59,1710.854592872208,2,1,0.5501165986061096,3.929465770721436,0.26144355565199,0.0,1.01432538152359,0.0,3.237724376958795e-05,0.0,0,0,0
62,1860.8846446460784,2010-11-01 14:54:29,1740.8698823575,2,1,0.5501165986061096,3.930922746658325,0.266030342753023,0.0,1.032352255896548,0.0,6.47544875391759e-05,0.0,0,0,0
63,1890.899899118974,2010-11-01 14:54:59,1770.8851368303958,2,1,0.5501165986061096,3.932217836380005,0.27061712686775,0.0,1.050385257332261,0.0,6.47544875391759e-05,0.0,0,0,0
64,1920.9153227140248,2010-11-01 14:55:29,1800.9005604254469,2,1,0.550297200679779,3.9336748123168954,0.275203934254659,0.0,1.068424638785597,0.0,3.237724376958795e-05,0.0,0,0,0
65,1950.930441894209,2010-11-01 14:55:59,1830.9156796056309,2,1,0.5501165986061096,3.934808015823364,0.279790710378436,0.0,1.086470111815035,0.0,3.237724376958795e-05,0.0,0,0,0
66,1980.9457099610377,2010-11-01 14:56:29,1860.9309476724595,2,1,0.5501165986061096,3.936264991760254,0.28437759078116,0.0,1.104522327897751,0.0,3.237724376958795e-05,0.0,0,0,0
67,2010.960979967708,2010-11-01 14:56:59,1890.9462176941672,2,1,0.5501165986061096,3.937721967697144,0.288964397211316,0.0,1.12258043165712,0.0,6.47544875391759e-05,0.0,0,0,0
68,2040.9762803852889,2010-11-01 14:57:29,1920.961518106736,2,1,0.550297200679779,3.939178943634033,0.293551163876829,0.0,1.140644799922462,0.0,6.47544875391759e-05,0.0,0,0,0
69,2070.991535459686,2010-11-01 14:57:59,1950.976773171108,2,1,0.5501165986061096,3.940312147140503,0.298137977317807,0.0,1.158715652975185,0.0,0.0,0.0,0,0,0
70,2101.006819476328,2010-11-01 14:58:29,1980.992057202787,2,1,0.5501165986061096,3.9419310092926025,0.302724873801711,0.0,1.176793220732202,0.0,3.237724376958795e-05,0.0,0,0,0
71,2131.022079392811,2010-11-01 14:58:59,2011.0073171042327,2,1,0.5501165986061096,3.943226099014282,0.307311666957731,0.0,1.194876768072976,0.0,6.47544875391759e-05,0.0,0,0,0
72,2161.03747289274,2010-11-01 14:59:29,2041.0227105991496,2,1,0.5501165986061096,3.944521188735962,0.311898505779993,0.0,1.212966983243109,0.0,0.0,0.0,0,0,0
73,2191.052606554072,2010-11-01 14:59:59,2071.037844275518,2,1,0.550297200679779,3.9461400508880615,0.316485335775893,0.0,1.231063715982419,0.0,3.237724376958795e-05,0.0,0,0,0
74,2221.067868074559,2010-11-01 15:00:29,2101.053105785981,2,1,0.5501165986061096,3.947435140609741,0.321072202162589,0.0,1.249167129546477,0.0,3.237724376958795e-05,0.0,0,0,0
75,2251.083139905784,2010-11-01 15:01:00,2131.068377617206,2,1,0.5501165986061096,3.949054002761841,0.325659015908224,0.0,1.267276976548764,0.0,3.237724376958795e-05,0.0,0,0,0
76,2281.098437651696,2010-11-01 15:01:30,2161.083675363118,2,1,0.5504778623580933,3.950672864913941,0.330245872071506,0.0,1.285393676146774,0.0,6.47544875391759e-05,0.0,0,0,0
77,2311.113688159695,2010-11-01 15:02:00,2191.0989258711165,2,1,0.5501165986061096,3.95180606842041,0.334832719285508,0.0,1.303517139524519,0.0,3.237724376958795e-05,0.0,0,0,0
78,2341.1315635798783,2010-11-01 15:02:30,2221.1168013765127,2,1,0.5501165986061096,3.9534249305725098,0.339420009124867,0.0,1.32164912133838,0.0,9.713172767078504e-05,0.0,0,0,0
79,2371.144393315256,2010-11-01 15:03:00,2251.1296310517405,2,1,0.5501165986061096,3.95504379272461,0.344006480027067,0.0,1.339784732260627,0.0,6.47544875391759e-05,0.0,0,0,0
80,2401.159506635814,2010-11-01 15:03:30,2281.144744357261,2,1,0.5501165986061096,3.956338882446289,0.348593340493434,0.0,1.357928849449346,0.0,3.237724376958795e-05,0.0,0,0,0
81,2431.174882211,2010-11-01 15:04:00,2311.160119932447,2,1,0.5501165986061096,3.9579577445983887,0.353180259554896,0.0,1.376080049787674,0.0,3.237724376958795e-05,0.0,0,0,0
82,2461.1900824284658,2010-11-01 15:04:30,2341.1753202451505,2,1,0.5501165986061096,3.959576606750488,0.357767078650371,0.0,1.394237948839958,0.0,9.713172767078504e-05,0.0,0,0,0
83,2491.2057534962464,2010-11-01 15:05:00,2371.1909912176934,2,1,0.5501165986061096,3.961195468902588,0.362353993723126,0.0,1.412403406011537,0.0,3.237724376958795e-05,0.0,0,0,0
84,2521.220587374273,2010-11-01 15:05:30,2401.205825090707,2,1,0.550297200679779,3.962814331054688,0.366940831211495,0.0,1.430575859573868,0.0,6.47544875391759e-05,0.0,0,0,0
85,2551.2358400827643,2010-11-01 15:06:00,2431.2210777941864,2,1,0.5501165986061096,3.964271306991577,0.371527656268631,0.0,1.448755551112153,0.0,6.47544875391759e-05,0.0,0,0,0
86,2581.2511218337504,2010-11-01 15:06:30,2461.236359545172,2,1,0.550297200679779,3.9658901691436768,0.376114540382687,0.0,1.466942832613764,0.0,3.237724376958795e-05,0.0,0,0,0
87,2611.26638102342,2010-11-01 15:07:00,2491.251618734842,2,1,0.5499359965324402,3.9673471450805664,0.380701362369482,0.0,1.485137308212204,0.0,3.237724376958795e-05,0.0,0,0,0
88,2641.28166838842,2010-11-01 15:07:30,2521.266906109867,2,1,0.5501165986061096,3.969289779663086,0.385288227400817,0.0,1.503339328126934,0.0,6.47544875391759e-05,0.0,0,0,0
89,2671.297490944338,2010-11-01 15:08:00,2551.2827286557604,2,1,0.5501165986061096,3.9709086418151855,0.389875156288078,0.0,1.52154923966866,0.0,6.47544875391759e-05,0.0,0,0,0
90,2701.3123716893515,2010-11-01 15:08:30,2581.2976094007736,2,1,0.5501165986061096,3.972365617752075,0.394461963717661,0.0,1.539766311607492,0.0,6.47544875391759e-05,0.0,0,0,0
91,2731.327606147287,2010-11-01 15:09:00,2611.3128438587087,2,1,0.5501165986061096,3.9741463661193848,0.399048853833176,0.0,1.557991352840997,0.0,9.713172767078504e-05,0.0,0,0,0
92,2761.342774239564,2010-11-01 15:09:30,2641.328011950985,2,1,0.550297200679779,3.975765228271485,0.403635691965996,0.0,1.576223998431796,0.0,3.237724376958795e-05,0.0,0,0,0
93,2791.3580181661337,2010-11-01 15:10:00,2671.343255877556,2,1,0.5501165986061096,3.977545976638794,0.408222593933604,0.0,1.594464862530533,0.0,6.47544875391759e-05,0.0,0,0,0
94,2821.3732832455053,2010-11-01 15:10:30,2701.358520956927,2,1,0.5501165986061096,3.9794886112213135,0.412809461882797,0.0,1.612713162750578,0.0,6.47544875391759e-05,0.0,0,0,0
95,2851.38855395894,2010-11-01 15:11:00,2731.3737916703626,2,1,0.550297200679779,3.980945587158203,0.417396257167411,0.0,1.630969665819271,0.0,0.0,0.0,0,0,0
96,2881.4038330332446,2010-11-01 15:11:30,2761.3890707446662,2,1,0.5501165986061096,3.982888221740722,0.421982984037602,0.0,1.649234074814884,0.0,3.237724376958795e-05,0.0,0,0,0
97,2911.419247330085,2010-11-01 15:12:00,2791.4044850415075,2,1,0.5501165986061096,3.984668970108032,0.426569809903424,0.0,1.667507086610802,0.0,6.47544875391759e-05,0.0,0,0,0
98,2941.4343752470786,2010-11-01 15:12:30,2821.4196129585,2,1,0.5501165986061096,3.986449718475342,0.431156588416155,0.0,1.685788291403888,0.0,3.237724376958795e-05,0.0,0,0,0
99,2971.4497681956304,2010-11-01 15:13:00,2851.435005912065,2,1,0.5501165986061096,3.988392353057861,0.435743404952653,0.0,1.70407804896742,0.0,6.47544875391759e-05,0.0,0,0,0
100,3001.464918007276,2010-11-01 15:13:30,2881.4501557186977,2,1,0.5501165986061096,3.990173101425171,0.440330225626965,0.0,1.722376227578759,0.0,6.47544875391759e-05,0.0,0,0,0
101,3031.480304389437,2010-11-01 15:14:00,2911.4655421008592,2,1,0.5501165986061096,3.9921157360076895,0.444917029386094,0.0,1.740682891950123,0.0,3.237724376958795e-05,0.0,0,0,0
102,3061.4954769328247,2010-11-01 15:14:30,2941.480714669309,2,1,0.5501165986061096,3.993896484375,0.449503839474656,0.0,1.75899825737084,0.0,3.237724376958795e-05,0.0,0,0,0
103,3091.510868402686,2010-11-01 15:15:00,2971.496106114108,2,1,0.5501165986061096,3.995838880538941,0.454090596401005,0.0,1.777322137664161,0.0,0.0,0.0,0,0,0
104,3121.526175100944,2010-11-01 15:15:30,3001.511412817379,2,1,0.550297200679779,3.99794340133667,0.45867749405665,0.0,1.79565540353203,0.0,6.47544875391759e-05,0.0,0,0,0
105,3151.541272777452,2010-11-01 15:16:00,3031.5265104938867,2,1,0.5501165986061096,3.99972414970398,0.463264225667207,0.0,1.813996739642412,0.0,3.237724376958795e-05,0.0,0,0,0
106,3181.5565342428026,2010-11-01 15:16:30,3061.541771959237,2,1,0.5499359965324402,4.001504898071289,0.467851021648847,0.0,1.832347345030306,0.0,0.0,0.0,0,0,0
107,3211.5719483190924,2010-11-01 15:17:00,3091.55718604054,2,1,0.550297200679779,4.0037713050842285,0.472437828790055,0.0,1.850707110202937,0.0,6.47544875391759e-05,0.0,0,0,0
108,3241.587092992913,2010-11-01 15:17:30,3121.572330709348,2,1,0.5501165986061096,4.005713939666748,0.477024575343806,0.0,1.869075780487706,0.0,6.47544875391759e-05,0.0,0,0,0
109,3271.6024818211804,2010-11-01 15:18:00,3151.5877195376147,2,1,0.550297200679779,4.007818698883057,0.481611358761379,0.0,1.88745390275605,0.0,6.47544875391759e-05,0.0,0,0,0
110,3301.617831155866,2010-11-01 15:18:30,3181.603068867288,2,1,0.5499359965324402,4.009761333465576,0.48619823127602,0.0,1.905841796443778,0.0,3.24249267578125e-05,0.0,0,0,0
111,3331.633346429761,2010-11-01 15:19:00,3211.6185841712586,2,1,0.5501165986061096,4.011865615844727,0.490785067417974,0.0,1.924239034125364,0.0,6.47544875391759e-05,0.0,0,0,0
112,3361.6481880320684,2010-11-01 15:19:30,3241.6334257485028,2,1,0.550297200679779,4.013970375061035,0.495371855645354,0.0,1.942645787691872,0.0,3.24249267578125e-05,0.0,0,0,0
113,3391.6634544999056,2010-11-01 15:20:00,3271.648692211328,2,1,0.5501165986061096,4.016236782073975,0.499958748280624,0.0,1.96106268945465,0.0,9.71794142969884e-05,0.0,0,0,0
114,3421.678709935204,2010-11-01 15:20:30,3301.66394765665,2,1,0.5499359965324402,4.018341064453125,0.504545632963002,0.0,1.979489395548814,0.0,6.47544875391759e-05,0.0,0,0,0
115,3451.6940145131693,2010-11-01 15:21:00,3331.679252229604,2,1,0.5499359965324402,4.020445823669434,0.509132494766515,0.0,1.997925876593132,0.0,6.47544875391759e-05,0.0,0,0,0
116,3481.7092684597515,2010-11-01 15:21:30,3361.6945061761858,2,1,0.5499359965324402,4.022550106048584,0.51371933262763,0.0,2.016372409682504,0.0,3.23295607813634e-05,0.0,0,0,0
117,3511.7246512830293,2010-11-01 15:22:00,3391.7098890044763,2,1,0.5501165986061096,4.0249786376953125,0.518306147669432,0.0,2.034828958047934,0.0,6.47544875391759e-05,0.0,0,0,0
118,3541.739823645966,2010-11-01 15:22:30,3421.7250613573883,2,1,0.5501165986061096,4.027082920074463,0.522892917963333,0.0,2.053295585970995,0.0,3.23295607813634e-05,0.0,0,0,0
119,3571.755076910847,2010-11-01 15:23:00,3451.740314627282,2,1,0.5501165986061096,4.029349327087402,0.527479723080401,0.0,2.071772808284654,0.0,6.47544875391759e-05,0.0,0,0,0
120,3601.770356912466,2010-11-01 15:23:30,3481.755594623888,2,1,0.5501165986061096,4.031777858734131,0.532066517779083,0.0,2.090260328613503,0.0,9.71794142969884e-05,0.0,0,0,0
121,3631.785619620919,2010-11-01 15:24:00,3511.7708573323407,2,1,0.550297200679779,4.03404426574707,0.536653374802249,0.0,2.108758688686854,0.0,6.47544875391759e-05,0.0,0,0,0
122,3661.800887111309,2010-11-01 15:24:30,3541.7861248227305,2,1,0.5501165986061096,4.036310195922852,0.541240252639756,0.0,2.127267714809261,0.0,6.47544875391759e-05,0.0,0,0,0
123,3691.816158100431,2010-11-01 15:25:00,3571.8013958218785,2,1,0.5501165986061096,4.038576602935791,0.54582711778733,0.0,2.145787451675055,0.0,9.70840483205393e-05,0.0,0,0,0
124,3721.83144508448,2010-11-01 15:25:30,3601.816682800915,2,1,0.550297200679779,4.04100513458252,0.550414015841024,0.0,2.164318005829342,0.0,3.24249267578125e-05,0.0,0,0,0
125,3751.846745441911,2010-11-01 15:26:00,3631.8319832084703,2,1,0.5501165986061096,4.04343318939209,0.555000839472034,0.0,2.182859086252801,0.0,3.23295607813634e-05,0.0,0,0,0
126,3781.8619777745407,2010-11-01 15:26:30,3661.8472154859633,2,1,0.550297200679779,4.045861721038818,0.559587714587269,0.0,2.20141139002828,0.0,6.47544875391759e-05,0.0,0,0,0
127,3811.8772466233218,2010-11-01 15:27:00,3691.862484359805,2,1,0.550297200679779,4.048289775848389,0.564174529238169,0.0,2.21997450907407,0.0,9.70840483205393e-05,0.0,0,0,0
128,3841.8926641181447,2010-11-01 15:27:30,3721.8779018295663,2,1,0.5501165986061096,4.050556182861328,0.568761435388441,0.0,2.238549140046143,0.0,0.0,0.0,0,0,0
129,3871.907794005055,2010-11-01 15:28:00,3751.8930317164777,2,1,0.5501165986061096,4.053146362304688,0.573348256685416,0.0,2.257134682778984,0.0,3.23295607813634e-05,0.0,0,0,0
130,3901.923061996696,2010-11-01 15:28:30,3781.908299738193,2,1,0.550297200679779,4.055736541748047,0.577935123311572,0.0,2.275731826387741,0.0,9.70840483205393e-05,0.0,0,0,0
131,3931.938345928125,2010-11-01 15:29:00,3811.9235836395465,2,1,0.5501165986061096,4.058165073394775,0.582521975469854,0.0,2.294340395616371,0.0,6.47544875391759e-05,0.0,0,0,0
132,3961.953636370806,2010-11-01 15:29:30,3841.938874082228,2,1,0.5501165986061096,4.060593128204346,0.587108957941971,0.0,2.312961102581398,0.0,3.23295607813634e-05,0.0,0,0,0
133,3991.9688859615153,2010-11-01 15:30:00,3871.9541236729374,2,1,0.5501165986061096,4.063183307647705,0.591695883422463,0.0,2.331592816630466,0.0,6.47544875391759e-05,0.0,0,0,0
134,4021.9841841986527,2010-11-01 15:30:30,3901.969421910076,2,1,0.5501165986061096,4.0657734870910645,0.596282711546088,0.0,2.350236064436546,0.0,6.47544875391759e-05,0.0,0,0,0
135,4051.9994309272174,2010-11-01 15:31:00,3931.984668668715,2,1,0.5499359965324402,4.068363666534424,0.600869550315104,0.0,2.368891358153073,0.0,3.23295607813634e-05,0.0,0,0,0
136,4082.014859619994,2010-11-01 15:31:30,3962.000097336428,2,1,0.5501165986061096,4.070953845977783,0.605456478807218,0.0,2.387559242638771,0.0,0.0,0.0,0,0,0
137,4112.030149180473,2010-11-01 15:32:00,3992.015386891896,2,1,0.550297200679779,4.0738677978515625,0.610043405586722,0.0,2.406239331473265,0.0,9.70840483205393e-05,0.0,0,0,0
138,4142.045251097567,2010-11-01 15:32:30,4022.030488814001,2,1,0.5501165986061096,4.076457977294922,0.614630310873008,0.0,2.424931674376497,0.0,6.47544875391759e-05,0.0,0,0,0
139,4172.060540878597,2010-11-01 15:33:01,4052.0457785900194,2,1,0.550297200679779,4.079371929168701,0.619217215677877,0.0,2.443636541393822,0.0,9.70840483205393e-05,0.0,0,0,0
140,4202.075815045652,2010-11-01 15:33:31,4082.0610527570752,2,1,0.5501165986061096,4.08212423324585,0.623804113334285,0.0,2.462354015133124,0.0,3.24249267578125e-05,0.0,0,0,0
141,4232.091080175148,2010-11-01 15:34:01,4112.076317886571,2,1,0.5501165986061096,4.084714412689209,0.6283910240773,0.0,2.481084268645651,0.0,9.71794142969884e-05,0.0,0,0,0
142,4262.1087693905365,2010-11-01 15:34:31,4142.094007187171,2,1,0.5499359965324402,4.087628364562988,0.632978266070736,0.0,2.499828759490087,0.0,9.71794142969884e-05,0.0,0,0,0
143,4292.121627802496,2010-11-01 15:35:01,4172.106865513918,2,1,0.5501165986061096,4.0903801918029785,0.637564760772314,0.0,2.518583126575429,0.0,9.70840483205393e-05,0.0,0,0,0
144,4322.136914450706,2010-11-01 15:35:31,4202.122152162128,2,1,0.5501165986061096,4.093294143676758,0.642151647354527,0.0,2.537351987708222,0.0,9.70840483205393e-05,0.0,0,0,0
145,4352.152294537153,2010-11-01 15:36:01,4232.137532253587,2,1,0.5501165986061096,4.096208095550537,0.646738583804431,0.0,2.556134190912648,0.0,0.0001295089750783,0.0,0,0,0
146,4382.1674561231885,2010-11-01 15:36:31,4262.152693839623,2,1,0.550297200679779,4.0989603996276855,0.651325553488198,0.0,2.574929775400982,0.0,6.47544875391759e-05,0.0,0,0,0
147,4412.18287153782,2010-11-01 15:37:01,4292.168109254254,2,1,0.5501165986061096,4.101874351501465,0.655912519105431,0.0,2.593738698791987,0.0,0.0,0.0,0,0,0
148,4442.1981283916575,2010-11-01 15:37:31,4322.1833661030805,2,1,0.5499359965324402,4.104788303375244,0.660499370154655,0.0,2.612560500003221,0.0,3.24249267578125e-05,0.0,0,0,0
149,4472.213263787319,2010-11-01 15:38:01,4352.1985015037535,2,1,0.5501165986061096,4.107863903045654,0.665086257457056,0.0,2.631396187811105,0.0,9.70840483205393e-05,0.0,0,0,0
150,4502.2286700340655,2010-11-01 15:38:31,4382.213907745488,2,1,0.550297200679779,4.110939979553223,0.669673203975795,0.0,2.65024592253193,0.0,6.47544875391759e-05,0.0,0,0,0
151,4532.243788667886,2010-11-01 15:39:01,4412.229026384321,2,1,0.550297200679779,4.113853931427002,0.674260066432479,0.0,2.669109156554196,0.0,6.47544875391759e-05,0.0,0,0,0
152,4562.2590715918,2010-11-01 15:39:31,4442.24430929821,2,1,0.5501165986061096,4.116929531097412,0.678846935412658,0.0,2.687986436643122,0.0,3.24249267578125e-05,0.0,0,0,0
153,4592.274355959317,2010-11-01 15:40:01,4472.259593665727,2,1,0.5501165986061096,4.120167255401611,0.683433760035175,0.0,2.706877607593467,0.0,9.71794142969884e-05,0.0,0,0,0
154,4622.289621986054,2010-11-01 15:40:31,4502.274859712513,2,1,0.5501165986061096,4.1232428550720215,0.688020622426309,0.0,2.725783085845622,0.0,9.70840483205393e-05,0.0,0,0,0
155,4652.304882012812,2010-11-01 15:41:01,4532.2901197242345,2,1,0.5501165986061096,4.126480579376221,0.692607444520351,0.0,2.744702622214181,0.0,0.0001295089750783,0.0,0,0,0
156,4682.320291773331,2010-11-01 15:41:31,4562.305529630115,2,1,0.550297200679779,4.129556655883789,0.697194375511975,0.0,2.763637057548661,0.0,9.71794142969884e-05,0.0,0,0,0
157,4712.3354361464,2010-11-01 15:42:01,4592.320673862834,2,1,0.5501165986061096,4.132632255554199,0.701781328245956,0.0,2.78258610959942,0.0,6.47544875391759e-05,0.0,0,0,0
158,4742.350705486407,2010-11-01 15:42:31,4622.335943197829,2,1,0.5501165986061096,4.135869979858398,0.70636826371131,0.0,2.801549639729359,0.0,6.47544875391759e-05,0.0,0,0,0
159,4772.365971372791,2010-11-01 15:43:01,4652.351209084214,2,1,0.550297200679779,4.139269828796387,0.710955198553203,0.0,2.820527958836812,0.0,0.0001295089750783,0.0,0,0,0
160,4802.381275048506,2010-11-01 15:43:31,4682.366512759928,2,1,0.5501165986061096,4.142345428466797,0.715542195276318,0.0,2.839521361692574,0.0,9.70840483205393e-05,0.0,0,0,0
161,4832.396540218102,2010-11-01 15:44:01,4712.381777929524,2,1,0.5499359965324402,4.145583152770996,0.720128976571253,0.0,2.858528848201088,0.0,6.47544875391759e-05,0.0,0,0,0
162,4862.411979943416,2010-11-01 15:44:31,4742.397217694938,2,1,0.5499359965324402,4.148820877075195,0.724714846886179,0.0,2.877547630256286,0.0,6.47544875391759e-05,0.0,0,0,0
163,4892.427067970839,2010-11-01 15:45:01,4772.412305692285,2,1,0.5499359965324402,4.152220726013184,0.729300635298817,0.0,2.896580992171931,0.0,0.0001295089750783,0.0,0,0,0
164,4922.442403064977,2010-11-01 15:45:31,4802.427641598452,2,1,0.5501165986061096,4.155458450317383,0.733886509899265,0.0,2.915629947933496,0.0,9.71794142969884e-05,0.0,0,0,0
165,4952.457620340021,2010-11-01 15:46:01,4832.442858051443,2,1,0.5501165986061096,4.158857822418213,0.738472546371269,0.0,2.934694975592247,0.0,6.47544875391759e-05,0.0,0,0,0
166,4982.47290307346,2010-11-01 15:46:31,4862.458140784882,2,1,0.550297200679779,4.162419319152832,0.74305938435763,0.0,2.953778988064828,0.0,9.70840483205393e-05,0.0,0,0,0
167,5012.488268773997,2010-11-01 15:47:01,4892.473506485419,2,1,0.5501165986061096,4.16581916809082,0.747646147380416,0.0,2.972878223858732,0.0,0.0001619339018361,0.0,0,0,0
168,5042.503594554889,2010-11-01 15:47:31,4922.488832271323,2,1,0.550297200679779,4.16921854019165,0.752232827052668,0.0,2.991992778305957,0.0,0.0001295089750783,0.0,0,0,0
169,5072.518728476871,2010-11-01 15:48:01,4952.503966193305,2,1,0.5501165986061096,4.172618389129639,0.756819468791564,0.0,3.011122955014115,0.0,0.0001295089750783,0.0,0,0,0
170,5102.534005541159,2010-11-01 15:48:31,4982.519243247568,2,1,0.5501165986061096,4.176179885864258,0.761406090296432,0.0,3.030269060074957,0.0,9.71794142969884e-05,0.0,0,0,0
171,5132.549195177211,2010-11-01 15:49:01,5012.534432893646,2,1,0.5501165986061096,4.179579257965088,0.765992751645569,0.0,3.049431401456186,0.0,6.47544875391759e-05,0.0,0,0,0
172,5162.564552231165,2010-11-01 15:49:31,5042.549789962637,2,1,0.5501165986061096,4.183140754699707,0.770579420526766,0.0,3.068609909266994,0.0,9.70840483205393e-05,0.0,0,0,0
173,5192.57981464388,2010-11-01 15:50:01,5072.565052375352,2,1,0.5501165986061096,4.186702251434326,0.775166060959339,0.0,3.087804606729608,0.0,9.70840483205393e-05,0.0,0,0,0
174,5222.595316579481,2010-11-01 15:50:31,5102.580554315966,2,1,0.5501165986061096,4.190263748168945,0.779752782995884,0.0,3.107016223715501,0.0,9.70840483205393e-05,0.0,0,0,0
175,5252.610594901909,2010-11-01 15:51:01,5132.595832613331,2,1,0.5501165986061096,4.1939873695373535,0.784339443272231,0.0,3.126244223738337,0.0,6.47544875391759e-05,0.0,0,0,0
176,5282.625653069797,2010-11-01 15:51:31,5162.610890776206,2,1,0.5501165986061096,4.197710514068604,0.788926124193593,0.0,3.145488877126517,0.0,0.0001295089750783,0.0,0,0,0
177,5301.750435143126,2010-11-01 15:51:50,5181.735672874599,2,1,0.5501165986061096,4.200138568878174,0.791848570114101,0.0,3.157759473856038,0.0,0.0001618385285837,0.0,0,0,0
178,5331.766228396196,2010-11-01 15:52:20,30.015294222115976,3,1,0.0,4.115958213806152,0.791848570114101,0.0,3.157759473856038,0.0,-0.0002913475036621,0.0,0,0,0
179,5361.781642462463,2010-11-01 15:52:50,60.03070828838138,3,1,0.0,4.105597496032715,0.791848570114101,0.0,3.157759473856038,0.0,-0.0001942634553415,0.0,0,0,0
180,5391.796937942718,2010-11-01 15:53:20,90.04600374858782,3,1,0.0,4.0992841720581055,0.791848570114101,0.0,3.157759473856038,0.0,-0.0001618385285837,0.0,0,0,0
181,5421.76528545362,2010-11-01 15:53:50,120.01435125949004,3,1,0.0,4.095398902893066,0.791848570114101,0.0,3.157759473856038,0.0,-0.0001295089750783,0.0,0,0,0
182,5421.765620190895,2010-11-01 15:53:50,2.857131841e-06,4,1,0.9859268069267272,4.199814796447754,0.79184857089658,0.0,3.157759477142303,0.0,0.0,0.0,0,0,0
183,5422.421867023952,2010-11-01 15:53:51,0.656249705225737,4,1,0.9357174038887024,4.199814796447754,0.792021970977904,0.0,3.158487714007212,0.0,0.0,0.0,0,0,0
184,5424.500091677413,2010-11-01 15:53:53,2.734474368712671,4,1,0.8853274583816528,4.199653148651123,0.792546279867834,0.0,3.160689683893568,0.0,-3.23295607813634e-05,0.0,0,0,0
185,5427.70314498625,2010-11-01 15:53:56,5.937527667523935,4,1,0.8351180553436279,4.199653148651123,0.793310352603529,0.0,3.163898596939041,0.0,-3.23295607813634e-05,0.0,0,0,0
186,5432.156263580356,2010-11-01 15:54:01,10.390646266642504,4,1,0.7850892543792725,4.199653148651123,0.794311055257929,0.0,3.168101280368015,0.0,0.0,0.0,0,0,0
187,5437.999967649744,2010-11-01 15:54:07,16.234350371118676,4,1,0.7348799109458923,4.199814796447754,0.795543094688458,0.0,3.173275521116807,0.0,0.0,0.0,0,0,0
188,5445.718602564974,2010-11-01 15:54:14,23.9529852512618,4,1,0.6848511099815369,4.199814796447754,0.797062871231746,0.0,3.179658190408023,0.0,0.0,0.0,0,0,0
189,5456.046472031066,2010-11-01 15:54:25,34.28085473740221,4,1,0.6346417665481567,4.199814796447754,0.798952159997254,0.0,3.18759268922891,0.0,0.0,0.0,0,0,0
190,5470.81204217076,2010-11-01 15:54:40,49.046424857047015,4,1,0.5846129655838013,4.199814796447754,0.801446414947733,0.0,3.198067910596705,0.0,0.0,0.0,0,0,0
191,5493.593023971101,2010-11-01 15:55:02,71.82740665237459,4,1,0.5344036221504211,4.199653148651123,0.804976345531292,0.0,3.212892692063603,0.0,-3.23295607813634e-05,0.0,0,0,0
192,5534.451809505762,2010-11-01 15:55:43,112.68619219204862,4,1,0.484374850988388,4.199653148651123,0.810732032336146,0.0,3.237065050316017,0.0,0.0,0.0,0,0,0
193,5606.388459215615,2010-11-01 15:56:55,184.6228418968888,4,1,0.4341654479503631,4.199653148651123,0.819875245064984,0.0,3.275464077521598,0.0,-3.23295607813634e-05,0.0,0,0,0
194,5710.262275291127,2010-11-01 15:58:39,288.4966579724003,4,1,0.3841366767883301,4.199653148651123,0.831660291328581,0.0,3.324958177456445,0.0,-3.23295607813634e-05,0.0,0,0,0
195,5835.96390470686,2010-11-01 16:00:45,414.19828739815927,4,1,0.334107905626297,4.199653148651123,0.844186356490508,0.0,3.377564365714491,0.0,-3.23295607813634e-05,0.0,0,0,0
196,5990.118349812913,2010-11-01 16:03:19,568.35273251925,4,1,0.2840791642665863,4.199653148651123,0.857404072600761,0.0,3.433075219457995,0.0,0.0,0.0,0,0,0
197,6175.2411999122,2010-11-01 16:06:24,753.4755825934737,4,1,0.2338697761297226,4.199814796447754,0.870688945509299,0.0,3.488868158147078,0.0,3.23295607813634e-05,0.0,0,0,0
198,6409.222975912292,2010-11-01 16:10:18,987.4573586236412,4,1,0.1838410049676895,4.199491024017334,0.884216451628452,0.0,3.545680090152908,0.0,-3.24249267578125e-05,0.0,0,0,0
199,6726.59441112596,2010-11-01 16:15:35,1304.8287938222718,4,1,0.1338122338056564,4.199653148651123,0.898126799633419,0.0,3.6040998461184,0.0,0.0,0.0,0,0,0
200,7216.291553451226,2010-11-01 16:23:45,1794.5259361425249,4,1,0.0836028531193733,4.199814796447754,0.912675816355499,0.0,3.665201809437015,0.0,0.0,0.0,0,0,0
201,7809.831633880837,2010-11-01 16:33:39,2388.066016572136,4,1,0.0498289167881011,4.199814796447754,0.923457726273923,0.0,3.710482812041332,0.0,3.23295607813634e-05,0.0,0,0,0
202,7839.847231797065,2010-11-01 16:34:09,30.01523761080544,5,1,0.0,4.192044734954834,0.923457726273923,0.0,3.710482812041332,0.0,-3.23295607813634e-05,0.0,0,0,0
203,7869.846951051667,2010-11-01 16:34:39,60.01495684034378,5,1,0.0,4.190749645233154,0.923457726273923,0.0,3.710482812041332,0.0,0.0,0.0,0,0,0
204,7870.034746035803,2010-11-01 16:34:39,0.18759559245964,6,1,-1.9243103452026844e-05,4.190587520599365,0.923457726273923,1.002756e-09,3.710482812041332,4.202137e-09,0.0,0.0931148082017898,0,0,0
205,7874.862661851434,2010-11-01 16:34:44,5.015511408091737,6,1,0.0010644125286489,4.190749645233154,0.923458804898842,1.170246e-09,3.710487332355643,4.904018e-09,-3.23295607813634e-05,0.0931148082017898,0,0,0
206,7904.878345116168,2010-11-01 16:35:14,30.01540670789779,7,1,-1.099568486213684,4.015913009643555,0.923458804898842,0.009167727177911,3.710487332355643,0.03700939782205,-0.0009065627818927,0.0931148082017898,0,0,0
207,7934.893469148464,2010-11-01 16:35:44,60.03053074019379,7,1,-1.0993878841400146,3.990011215209961,0.923458804898842,0.018335366508012,3.710487332355643,0.073697778626044,-0.0005504131549969,0.0931148082017898,0,0,0
208,7964.908747821768,2010-11-01 16:36:14,90.04580941349754,7,1,-1.0997490882873535,3.9720418453216553,0.923458804898842,0.027503045334429,3.710487332355643,0.110190036991422,-0.0004209041653666,0.0931148082017898,0,0,0
209,7994.924013888604,2010-11-01 16:36:44,120.0610754803336,7,1,-1.099568486213684,3.958119630813599,0.923458804898842,0.036671168282245,3.710487332355643,0.146540178930054,-0.0003561496851034,0.0931148082017898,0,0,0
210,8024.939302732294,2010-11-01 16:37:14,150.0763643240242,7,1,-1.0997490882873535,3.9464638233184814,0.923458804898842,0.045839311760461,3.710487332355643,0.182774337791397,-0.0002913951757363,0.0931148082017898,0,0,0
211,8054.954585886784,2010-11-01 16:37:44,180.0916474785137,7,1,-1.0997490882873535,3.935941219329834,0.923458804898842,0.055007480039539,3.710487332355643,0.218907909436083,-0.0002913951757363,0.0931148082017898,0,0,0
212,8084.97007354675,2010-11-01 16:38:14,210.1071351434928,7,1,-1.0997490882873535,3.926228046417236,0.923458804898842,0.064175734321983,3.710487332355643,0.25494899221032,-0.0002590179501567,0.0931148082017898,0,0,0
213,8114.985346245141,2010-11-01 16:38:44,240.12240793210745,7,1,-1.0993878841400146,3.917000532150269,0.923458804898842,0.073343935661204,3.710487332355643,0.290902673670877,-0.0002590179501567,0.0931148082017898,0,0,0
214,8145.000411626033,2010-11-01 16:39:14,270.1374732177628,7,1,-1.099568486213684,3.9080970287323,0.923458804898842,0.082512046460876,3.710487332355643,0.326772145946062,-0.0001942634553415,0.0931148082017898,0,0,0
215,8175.015672875847,2010-11-01 16:39:44,300.1527344675748,7,1,-1.0997490882873535,3.899193286895752,0.923458804898842,0.091680269092153,3.710487332355643,0.362560253705455,-0.0002266406954731,0.0931148082017898,0,0,0
216,8205.030941148187,2010-11-01 16:40:14,330.1680027399162,7,1,-1.099568486213684,3.890613317489624,0.923458804898842,0.100848469143208,3.710487332355643,0.398268733669685,-0.0002266406954731,0.0931148082017898,0,0,0
217,8235.046248473009,2010-11-01 16:40:44,360.18331006975103,7,1,-1.099568486213684,3.882195234298706,0.923458804898842,0.110016629072102,3.710487332355643,0.433900161760372,-0.0002266406954731,0.0931148082017898,0,0,0
218,8265.061499056195,2010-11-01 16:41:14,390.1985606529376,7,1,-1.099568486213684,3.873939037322998,0.923458804898842,0.119184774901992,3.710487332355643,0.469455201086426,-0.0001942634553415,0.0931148082017898,0,0,0
219,8295.076906531009,2010-11-01 16:41:44,420.2139681327622,7,1,-1.0997490882873535,3.86568284034729,0.923458804898842,0.12835304498025,3.710487332355643,0.504934198492339,-0.0001942634553415,0.0931148082017898,0,0,0
220,8325.092049600824,2010-11-01 16:42:14,450.2291111925538,7,1,-1.0997490882873535,3.857426643371582,0.923458804898842,0.137521268172693,3.710487332355643,0.540338405533266,-0.0002266406954731,0.0931148082017898,0,0,0
221,8355.107451210997,2010-11-01 16:42:44,480.24451280773934,7,1,-1.099568486213684,3.849817991256714,0.923458804898842,0.146689532408949,3.710487332355643,0.57566895214348,-0.0001618862152099,0.0931148082017898,0,0,0
222,8385.122601714369,2010-11-01 16:43:14,510.2596633111112,7,1,-1.0997490882873535,3.841885566711426,0.923458804898842,0.155857703100307,3.710487332355643,0.610927132380093,-0.0001942634553415,0.0931148082017898,0,0,0
223,8415.137870071923,2010-11-01 16:43:44,540.2749316636528,7,1,-1.099568486213684,3.8342769145965576,0.923458804898842,0.165025927677841,3.710487332355643,0.646115276171961,-0.0001942634553415,0.0931148082017898,0,0,0
224,8445.153142078587,2010-11-01 16:44:14,570.2902036703156,7,1,-1.099568486213684,3.826668500900269,0.923458804898842,0.174194089178054,3.710487332355643,0.681233639579422,-0.0001942634553415,0.0931148082017898,0,0,0
225,8475.168422360906,2010-11-01 16:44:44,600.3054839526357,7,1,-1.099568486213684,3.81938362121582,0.923458804898842,0.183362303343268,3.710487332355643,0.716283086658181,-0.0001295089750783,0.0931148082017898,0,0,0
226,8505.183713961478,2010-11-01 16:45:14,630.3207755532078,7,1,-1.0993878841400146,3.811936855316162,0.923458804898842,0.192530515405401,3.710487332355643,0.75126456617276,-0.0001618862152099,0.0931148082017898,0,0,0
227,8535.198973817813,2010-11-01 16:45:44,660.3360354095414,7,1,-1.099568486213684,3.804651975631714,0.923458804898842,0.201698650771096,3.710487332355643,0.786178631962256,-0.0001295089750783,0.0931148082017898,0,0,0
228,8565.214252621441,2010-11-01 16:46:14,690.3513142131706,7,1,-1.099568486213684,3.7976908683776855,0.923458804898842,0.210866819029969,3.710487332355643,0.821027192970172,-0.0001618862152099,0.0931148082017898,0,0,0
229,8595.229526212057,2010-11-01 16:46:44,720.3665878037872,7,1,-1.099568486213684,3.790729761123657,0.923458804898842,0.220035016588579,3.710487332355643,0.855811943740854,-0.0001618862152099,0.0931148082017898,0,0,0
230,8625.244998147775,2010-11-01 16:47:14,750.3820597395037,7,1,-1.099568486213684,3.783930540084839,0.923458804898842,0.229203281145397,3.710487332355643,0.890534618231378,-0.0001942634553415,0.0931148082017898,0,0,0
231,8655.26007402988,2010-11-01 16:47:44,780.3971356216093,7,1,-1.099568486213684,3.77745509147644,0.923458804898842,0.238371446291692,3.710487332355643,0.925195867950619,-0.0001295089750783,0.0931148082017898,0,0,0
232,8685.275343435049,2010-11-01 16:48:14,810.4124050267784,7,1,-1.0997490882873535,3.770655870437622,0.923458804898842,0.247539640743869,3.710487332355643,0.95979718313598,-0.0001942634553415,0.0931148082017898,0,0,0
233,8715.290662258574,2010-11-01 16:48:44,840.4277238503032,7,1,-1.0993878841400146,3.7646660804748535,0.923458804898842,0.256707859788683,3.710487332355643,0.994340048161715,-0.0001295089750783,0.0931148082017898,0,0,0
234,8745.30595214988,2010-11-01 16:49:14,870.4430137466213,7,1,-1.099568486213684,3.758352518081665,0.923458804898842,0.265876048938429,3.710487332355643,1.028824552529452,-0.0001295089750783,0.0931148082017898,0,0,0
235,8775.321171003865,2010-11-01 16:49:44,900.4582325955944,7,1,-1.0997490882873535,3.752039194107056,0.923458804898842,0.275044236975142,3.710487332355643,1.063252176456627,-0.0001618862152099,0.0931148082017898,0,0,0
236,8805.336452293699,2010-11-01 16:50:14,930.4735138854294,7,1,-1.0997490882873535,3.746049404144287,0.923458804898842,0.284212516336121,3.710487332355643,1.09762446041314,-0.0001295089750783,0.0931148082017898,0,0,0
237,8835.351712275347,2010-11-01 16:50:44,960.4887738670758,7,1,-1.0993878841400146,3.740221500396729,0.923458804898842,0.293380791855902,3.710487332355643,1.131942146308628,-0.0001295089750783,0.0931148082017898,0,0,0
238,8865.36717073743,2010-11-01 16:51:14,990.5042323341728,7,1,-1.0997490882873535,3.73423171043396,0.923458804898842,0.30254913540818,3.710487332355643,1.166206307513742,-0.0001942634553415,0.0931148082017898,0,0,0
239,8895.382435977202,2010-11-01 16:51:44,1020.5194975789568,7,1,-1.0997490882873535,3.7285656929016113,0.923458804898842,0.311717361253495,3.710487332355643,1.200416915007083,-0.0001295089750783,0.0931148082017898,0,0,0
240,8925.397589563268,2010-11-01 16:52:14,1050.5346511650234,7,1,-1.099568486213684,3.7230615615844727,0.923458804898842,0.320885402562865,3.710487332355643,1.234575360360666,-0.0001295089750783,0.0931148082017898,0,0,0
241,8955.412984927852,2010-11-01 16:52:45,1080.5500465195814,7,1,-1.0997490882873535,3.717233657836914,0.923458804898842,0.330053660970844,3.710487332355643,1.268682942326571,-0.0001618862152099,0.0931148082017898,0,0,0
242,8985.428137666804,2010-11-01 16:53:15,1110.5651992635464,7,1,-1.099568486213684,3.711891412734986,0.923458804898842,0.339221862168232,3.710487332355643,1.302739037553424,-0.0001295089750783,0.0931148082017898,0,0,0
243,9015.44347237498,2010-11-01 16:53:45,1140.5805339667093,7,1,-1.0997490882873535,3.706387281417847,0.923458804898842,0.348390009611164,3.710487332355643,1.336744748378718,-0.0001295089750783,0.0931148082017898,0,0,0
244,9045.458877138022,2010-11-01 16:54:15,1170.5959387297523,7,1,-1.099568486213684,3.701045036315918,0.923458804898842,0.357558278899895,3.710487332355643,1.370701423880661,-0.0001618862152099,0.0931148082017898,0,0,0
245,9075.460942774554,2010-11-01 16:54:45,1200.5980044514963,7,1,-1.0997490882873535,3.6955409049987793,0.923458804898842,0.366722518932523,3.710487332355643,1.40459454240463,-0.0001618862152099,0.0931148082017898,0,0,0
246,9105.473734008829,2010-11-01 16:55:15,1230.6107956105818,7,1,-1.099568486213684,3.6905224323272714,0.923458804898842,0.375890028239745,3.710487332355643,1.438451808953372,-0.0001295089750783,0.0931148082017898,0,0,0
247,9135.488901624916,2010-11-01 16:55:45,1260.6259632166448,7,1,-1.099568486213684,3.6855039596557617,0.923458804898842,0.385058201784329,3.710487332355643,1.47226386468154,-0.0001295089750783,0.0931148082017898,0,0,0
248,9165.504152398576,2010-11-01 16:56:15,1290.6412139903064,7,1,-1.0997490882873535,3.680323600769043,0.923458804898842,0.394226458786986,3.710487332355643,1.50602970163292,-0.0001295089750783,0.0931148082017898,0,0,0
249,9195.519419277442,2010-11-01 16:56:45,1320.6564808691696,7,1,-1.0997490882873535,3.675467014312744,0.923458804898842,0.40339465139685,3.710487332355643,1.539749763255094,-0.0001618862152099,0.0931148082017898,0,0,0
250,9225.53470728404,2010-11-01 16:57:15,1350.6717688757708,7,1,-1.099568486213684,3.670610666275024,0.923458804898842,0.412562930888971,3.710487332355643,1.573425513994868,-0.0001295089750783,0.0931148082017898,0,0,0
251,9255.549975741844,2010-11-01 16:57:45,1380.6870373335753,7,1,-1.099568486213684,3.665915966033936,0.923458804898842,0.4217311631563,3.710487332355643,1.607057469453354,-0.0001618862152099,0.0931148082017898,0,0,0
252,9285.565265302324,2010-11-01 16:58:15,1410.70232690408,7,1,-1.099568486213684,3.6613831520080566,0.923458804898842,0.430899408665199,3.710487332355643,1.640646187763793,-6.47544875391759e-05,0.0931148082017898,0,0,0
253,9315.580568597088,2010-11-01 16:58:45,1440.7176301988425,7,1,-1.099568486213684,3.656526565551758,0.923458804898842,0.440067656491906,3.710487332355643,1.674191718887359,-0.0001295089750783,0.0931148082017898,0,0,0
254,9345.595826137642,2010-11-01 16:59:15,1470.7328877293708,7,1,-1.099568486213684,3.651993751525879,0.923458804898842,0.449235873271066,3.710487332355643,1.707694598681496,-9.713172767078504e-05,0.0931148082017898,0,0,0
255,9375.611115086596,2010-11-01 16:59:45,1500.748176678324,7,1,-1.0997490882873535,3.64729905128479,0.923458804898842,0.458404190626463,3.710487332355643,1.741155843586275,-0.0001618862152099,0.0931148082017898,0,0,0
256,9405.62637602563,2010-11-01 17:00:15,1530.76343761736,7,1,-1.099568486213684,3.642928123474121,0.923458804898842,0.46757233151387,3.710487332355643,1.774574569901258,-9.713172767078504e-05,0.0931148082017898,0,0,0
257,9435.641657395669,2010-11-01 17:00:45,1560.7787189873957,7,1,-1.0997490882873535,3.638395309448242,0.923458804898842,0.476740502594236,3.710487332355643,1.807952731403912,-0.0001295089750783,0.0931148082017898,0,0,0
258,9465.65731689958,2010-11-01 17:01:15,1590.794378541436,7,1,-1.099568486213684,3.634348154067993,0.923458804898842,0.485908820739926,3.710487332355643,1.841291153387247,-6.47544875391759e-05,0.0931148082017898,0,0,0
259,9495.67224530356,2010-11-01 17:01:45,1620.8093068952887,7,1,-1.099568486213684,3.629977226257324,0.923458804898842,0.495076965473079,3.710487332355643,1.874589405495128,-6.47544875391759e-05,0.0931148082017898,0,0,0
260,9525.687492257686,2010-11-01 17:02:15,1650.8245538494164,7,1,-1.099568486213684,3.625444412231445,0.923458804898842,0.504245296286593,3.710487332355643,1.90784947513952,-0.0001295089750783,0.0931148082017898,0,0,0
261,9555.702759322014,2010-11-01 17:02:45,1680.8398209137422,7,1,-1.0997490882873535,3.621397256851196,0.923458804898842,0.513413590450802,3.710487332355643,1.941071605216624,-0.0001618862152099,0.0931148082017898,0,0,0
262,9585.718039604331,2010-11-01 17:03:15,1710.8551011960626,7,1,-1.099568486213684,3.617511987686157,0.923458804898842,0.522581969494884,3.710487332355643,1.97425673727519,-0.0001295089750783,0.0931148082017898,0,0,0
263,9615.733325881618,2010-11-01 17:03:45,1740.870387473347,7,1,-1.099568486213684,3.613626718521118,0.923458804898842,0.531750293725721,3.710487332355643,2.007405455015274,-0.0001295089750783,0.0931148082017898,0,0,0
264,9645.748595086288,2010-11-01 17:04:15,1770.885656683028,7,1,-1.099568486213684,3.609903335571289,0.923458804898842,0.540918621043164,3.710487332355643,2.040518751689128,-6.47544875391759e-05,0.0931148082017898,0,0,0
265,9675.763869453842,2010-11-01 17:04:45,1800.9009310455713,7,1,-1.0997490882873535,3.60601806640625,0.923458804898842,0.550086965372248,3.710487332355643,2.073597468985837,-9.713172767078504e-05,0.0931148082017898,0,0,0
266,9705.779192397653,2010-11-01 17:05:15,1830.9162539893807,7,1,-1.099568486213684,3.602456569671631,0.923458804898842,0.559255321438806,3.710487332355643,2.106642187296457,-6.47544875391759e-05,0.0931148082017898,0,0,0
267,9735.79453280004,2010-11-01 17:05:45,1860.931594507058,7,1,-1.099568486213684,3.598895072937012,0.923458804898842,0.568423664568008,3.710487332355643,2.139653440633072,-6.47544875391759e-05,0.0931148082017898,0,0,0
268,9765.80969483219,2010-11-01 17:06:15,1890.9467564339448,7,1,-1.0997490882873535,3.5951716899871826,0.923458804898842,0.577592051812961,3.710487332355643,2.172632316734279,-0.0001295089750783,0.0931148082017898,0,0,0
269,9795.824971009264,2010-11-01 17:06:45,1920.9620326009929,7,1,-1.099568486213684,3.5917723178863525,0.923458804898842,0.586760436107343,3.710487332355643,2.205579234074943,-6.47544875391759e-05,0.0931148082017898,0,0,0
270,9825.840243757775,2010-11-01 17:07:15,1950.977305349507,7,1,-1.0997490882873535,3.588372707366944,0.923458804898842,0.595928826537605,3.710487332355643,2.238495174993686,-0.0001295089750783,0.0931148082017898,0,0,0
271,9855.855777638117,2010-11-01 17:07:45,1980.9928392348595,7,1,-1.099568486213684,3.585134983062744,0.923458804898842,0.605097340368171,3.710487332355643,2.27138106789172,-6.47544875391759e-05,0.0931148082017898,0,0,0
272,9885.870797605652,2010-11-01 17:08:15,2011.007859197381,7,1,-1.099568486213684,3.581897258758545,0.923458804898842,0.614265546942483,3.710487332355643,2.304235827188073,-9.713172767078504e-05,0.0931148082017898,0,0,0
273,9915.886226579129,2010-11-01 17:08:45,2041.0232881758693,7,1,-1.0997490882873535,3.578821420669556,0.923458804898842,0.623433950958509,3.710487332355643,2.3370616364583,-6.47544875391759e-05,0.0931148082017898,0,0,0
274,9945.90135385953,2010-11-01 17:09:15,2071.038415451261,7,1,-1.099568486213684,3.5755836963653564,0.923458804898842,0.632602266543987,3.710487332355643,2.369857753404147,-6.47544875391759e-05,0.0931148082017898,0,0,0
275,9975.91677104358,2010-11-01 17:09:45,2101.053832635309,7,1,-1.099568486213684,3.572345972061157,0.923458804898842,0.641770688828364,3.710487332355643,2.402624682460909,-6.47544875391759e-05,0.0931148082017898,0,0,0
276,10005.931904755036,2010-11-01 17:10:15,2131.0689663517783,7,1,-1.099568486213684,3.569108247756958,0.923458804898842,0.650938995803878,3.710487332355643,2.435361932406178,-9.713172767078504e-05,0.0931148082017898,0,0,0
277,10035.947325192205,2010-11-01 17:10:45,2161.084386793959,7,1,-1.0993878841400146,3.5661942958831787,0.923458804898842,0.660107392161576,3.710487332355643,2.468070115278398,-3.237724376958795e-05,0.0931148082017898,0,0,0
278,10065.962691063169,2010-11-01 17:11:15,2191.0997526548963,7,1,-1.0997490882873535,3.56263279914856,0.923458804898842,0.669275729423719,3.710487332355643,2.50074918955554,-0.0001295089750783,0.0931148082017898,0,0,0
279,10095.977755737296,2010-11-01 17:11:45,2221.1148173290253,7,1,-1.099568486213684,3.5597188472747803,0.923458804898842,0.678444044336521,3.710487332355643,2.533400211085626,-6.47544875391759e-05,0.0931148082017898,0,0,0
280,10125.993199622992,2010-11-01 17:12:15,2251.130261214724,7,1,-1.0997490882873535,3.556643009185791,0.923458804898842,0.687612520239714,3.710487332355643,2.566022539849923,-3.237724376958795e-05,0.0931148082017898,0,0,0
281,10156.008292101527,2010-11-01 17:12:45,2281.14535369827,7,1,-1.099568486213684,3.553405284881592,0.923458804898842,0.696780832395201,3.710487332355643,2.598615133312466,-6.47544875391759e-05,0.0931148082017898,0,0,0
282,10186.023571366308,2010-11-01 17:13:15,2311.1606329580377,7,1,-1.099568486213684,3.5500056743621826,0.923458804898842,0.705949207943129,3.710487332355643,2.631178871503328,-9.713172767078504e-05,0.0931148082017898,0,0,0
283,10216.038867342804,2010-11-01 17:13:45,2341.1759289345327,7,1,-1.0997490882873535,3.5467679500579834,0.923458804898842,0.715117574309659,3.710487332355643,2.663712993076725,-9.713172767078504e-05,0.0931148082017898,0,0,0
284,10246.054245018233,2010-11-01 17:14:15,2371.191306609961,7,1,-1.0993878841400146,3.543692111968994,0.923458804898842,0.724286014064612,3.710487332355643,2.696217473730806,-9.713172767078504e-05,0.0931148082017898,0,0,0
285,10276.069422990167,2010-11-01 17:14:45,2401.2064845869118,7,1,-1.099568486213684,3.540292501449585,0.923458804898842,0.733454333496148,3.710487332355643,2.728691385717346,-6.47544875391759e-05,0.0931148082017898,0,0,0
286,10306.084695628408,2010-11-01 17:15:15,2431.221757220138,7,1,-1.0997490882873535,3.5370547771453857,0.923458804898842,0.74262277586204,3.710487332355643,2.761135253412031,-6.47544875391759e-05,0.0931148082017898,0,0,0
287,10336.099972973398,2010-11-01 17:15:45,2461.2370345751515,7,1,-1.0997490882873535,3.5334932804107666,0.923458804898842,0.751791195641013,3.710487332355643,2.793547935751473,-0.0001295089750783,0.0931148082017898,0,0,0
288,10366.11524298508,2010-11-01 17:16:15,2491.252304576809,7,1,-1.0997490882873535,3.5300936698913574,0.923458804898842,0.760959624052295,3.710487332355643,2.825928809668871,-9.713172767078504e-05,0.0931148082017898,0,0,0
289,10396.130502545677,2010-11-01 17:16:45,2521.2675641374044,7,1,-1.0997490882873535,3.5262084007263184,0.923458804898842,0.770127983802565,3.710487332355643,2.858276387076896,-0.0001295089750783,0.0931148082017898,0,0,0
290,10426.14590364457,2010-11-01 17:17:15,2551.2829652363016,7,1,-1.0997490882873535,3.522646903991699,0.923458804898842,0.779296477683414,3.710487332355643,2.890590432625877,-9.713172767078504e-05,0.0931148082017898,0,0,0
291,10456.161195575967,2010-11-01 17:17:45,2581.2982571676994,7,1,-1.099568486213684,3.51876163482666,0.923458804898842,0.788464827335943,3.710487332355643,2.922868649153399,-6.47544875391759e-05,0.0931148082017898,0,0,0
292,10486.17645744232,2010-11-01 17:18:15,2611.3135190340504,7,1,-1.099568486213684,3.514552593231201,0.923458804898842,0.797633271845922,3.710487332355643,2.955109903010735,-9.713172767078504e-05,0.0931148082017898,0,0,0
293,10516.191622236363,2010-11-01 17:18:45,2641.328683828094,7,1,-1.099568486213684,3.5100200176239014,0.923458804898842,0.806801631060837,3.710487332355643,2.987311664417905,-0.0001618862152099,0.0931148082017898,0,0,0
294,10546.207027811432,2010-11-01 17:19:15,2671.344089413189,7,1,-1.099568486213684,3.5051634311676025,0.923458804898842,0.815970041339271,3.710487332355643,3.019471533922165,-0.0001295089750783,0.0931148082017898,0,0,0
295,10576.222316013524,2010-11-01 17:19:45,2701.359377605253,7,1,-1.099568486213684,3.5001449584960938,0.923458804898842,0.825138506939264,3.710487332355643,3.051585690291593,-9.713172767078504e-05,0.0931148082017898,0,0,0
296,10606.237630145337,2010-11-01 17:20:15,2731.374691787192,7,1,-1.0997490882873535,3.494317054748535,0.923458804898842,0.834306984822618,3.710487332355643,3.083649954429946,-0.0001618862152099,0.0931148082017898,0,0,0
297,10636.252718187798,2010-11-01 17:20:45,2761.3897797845398,7,1,-1.0997490882873535,3.4880034923553467,0.923458804898842,0.843475358536584,3.710487332355643,3.115658976211382,-0.0001942634553415,0.0931148082017898,0,0,0
298,10666.267996079148,2010-11-01 17:21:15,2791.4050576708783,7,1,-1.099568486213684,3.4808804988861084,0.923458804898842,0.852643806827909,3.710487332355643,3.147606917484761,-0.0001942634553415,0.0931148082017898,0,0,0
299,10696.283312807444,2010-11-01 17:21:45,2821.4203744091983,7,1,-1.0997490882873535,3.4729480743408203,0.923458804898842,0.861812211832408,3.710487332355643,3.179485095004112,-0.0001942634553415,0.0931148082017898,0,0,0
300,10726.298552363103,2010-11-01 17:22:15,2851.435613954833,7,1,-1.0997490882873535,3.4637205600738525,0.923458804898842,0.870980579070817,3.710487332355643,3.211284891529197,-0.0002590179501567,0.0931148082017898,0,0,0
301,10756.313856274406,2010-11-01 17:22:45,2881.450917866135,7,1,-1.099568486213684,3.453359842300415,0.923458804898842,0.880148999177275,3.710487332355643,3.242995249061212,-0.0002913951757363,0.0931148082017898,0,0,0
302,10786.329102556856,2010-11-01 17:23:15,2911.4661641485864,7,1,-1.099568486213684,3.441056489944458,0.923458804898842,0.889317451490759,3.710487332355643,3.274601627845161,-0.0003561496851034,0.0931148082017898,0,0,0
303,10816.344517846175,2010-11-01 17:23:45,2941.48157942788,7,1,-1.0993878841400146,3.4264869689941406,0.923458804898842,0.898485896445334,3.710487332355643,3.306085120376603,-0.0003885269106831,0.0931148082017898,0,0,0
304,10846.35971900098,2010-11-01 17:24:15,2971.4967806027357,7,1,-1.099568486213684,3.409003257751465,0.923458804898842,0.907654316874778,3.710487332355643,3.337422402965965,-0.0005180359003134,0.0931148082017898,0,0,0
305,10876.374911268604,2010-11-01 17:24:45,3001.5119728653444,7,1,-1.0997490882873535,3.38731050491333,0.923458804898842,0.916822621019481,3.710487332355643,3.368581844010246,-0.0006799221155233,0.0931148082017898,0,0,0
306,10906.390197440624,2010-11-01 17:25:16,3031.527259052404,7,1,-1.099568486213684,3.3605992794036865,0.923458804898842,0.925990965512251,3.710487332355643,3.399520879240902,-0.0008094310760498,0.0931148082017898,0,0,0
307,10936.40546895606,2010-11-01 17:25:46,3061.542530557816,7,1,-1.099568486213684,3.325955867767334,0.923458804898842,0.935159322454549,3.710487332355643,3.430180213334835,-0.0010360718006268,0.0931148082017898,0,0,0
308,10966.420749884996,2010-11-01 17:26:16,3091.5578114867494,7,1,-1.0997490882873535,3.280627727508545,0.923458804898842,0.944327576903812,3.710487332355643,3.460475913691039,-0.0013274669181555,0.0931148082017898,0,0,0
309,10996.43858127026,2010-11-01 17:26:46,3121.5756428670024,7,1,-1.099568486213684,3.218787431716919,0.923458804898842,0.953496686037002,3.710487332355643,3.49028814430004,-0.0018778800731524,0.0931148082017898,0,0,0
310,11026.451433125854,2010-11-01 17:27:16,3151.588494722596,7,1,-1.099568486213684,3.129912137985229,0.923458804898842,0.962664414697752,3.710487332355643,3.519416381197405,-0.0027844428550451,0.0931148082017898,0,0,0
311,11056.466592767036,2010-11-01 17:27:46,3181.6036543587647,7,1,-1.099568486213684,2.982919931411743,0.923458804898842,0.971832832431158,3.710487332355643,3.547514359466986,-0.0052451132796704,0.0931148082017898,0,0,0
312,11078.403830111409,2010-11-01 17:28:08,3203.540891703136,7,1,-1.0997490882873535,2.7828292846679688,0.923458804898842,0.978533745078427,3.710487332355643,3.566883731782768,-0.008644675835967,0.0931148082017898,0,0,0
313,11085.700637049107,2010-11-01 17:28:15,3210.8376986408384,7,1,-1.0997490882873535,2.699943780899048,0.923458804898842,0.980762634301482,3.710487332355643,3.572994813469241,-0.0091627119109034,0.0931148082017898,0,0,0
314,11145.715514356632,2010-11-01 17:29:15,60.01492103095804,8,1,0.0,3.351047992706299,0.923458804898842,0.980762634301482,3.710487332355643,3.572994813469241,0.0012950419913977,0.0931148082017898,0,0,0
315,11145.903811343249,2010-11-01 17:29:15,0.187619231466237,9,1,-1.9243103452026844e-05,3.3513717651367188,0.923458804898842,0.980762635304364,3.710487332355643,3.572994816830273,0.0,0.0922218039631843,0,0,0
316,11150.731754807895,2010-11-01 17:29:20,5.015562686089508,9,1,0.0008838032954372,3.3597898483276367,0.923459658422289,0.980762635387361,3.710490196905901,3.572994817108426,0.0011655807029455,0.0922218039631843,0,0,0
