Data_Point,Test_Time(s),Date_Time,Step_Time(s),Step_Index,Cycle_Index,Current(A),Voltage(V),Charge_Capacity(Ah),Discharge_Capacity(Ah),Charge_Energy(Wh),Discharge_Energy(Wh),dV/dt(V/s),Internal_Resistance(Ohm),Is_FC_Data,AC_Impedance(Ohm),ACI_Phase_Angle(Deg)
2296,80326.2031385207,2010-11-02 12:42:23,30.01526399165609,1,8,0.0,3.3763022422790527,6.828193075345395,6.886391284000024,27.29964972863307,25.09620174892359,0.0007446765666827,0.0931989923119545,0,0,0
2297,80356.21843203602,2010-11-02 12:42:53,60.030557476932806,1,8,0.0,3.399128198623657,6.828193075345395,6.886391284000024,27.29964972863307,25.09620174892359,0.0004856586456298,0.0931989923119545,0,0,0
2298,80386.23368813799,2010-11-02 12:43:23,90.04581360395758,1,8,0.0,3.416773796081543,6.828193075345395,6.886391284000024,27.29964972863307,25.09620174892359,0.0004209041653666,0.0931989923119545,0,0,0
2299,80416.20221106175,2010-11-02 12:43:53,120.0143365026547,1,8,0.0,3.4306960105896,6.828193075345395,6.886391284000024,27.29964972863307,25.09620174892359,0.0003885269106831,0.0931989923119545,0,0,0
2300,80446.21492057652,2010-11-02 12:44:23,30.015453379397037,2,8,0.5499359965324402,3.590477228164673,6.832779681410803,6.886391284000024,27.315951431061567,25.09620174892359,0.0015864849556237,0.0931989923119545,0,0,0
2301,80476.22980283029,2010-11-02 12:44:53,60.03033571337685,2,8,0.5501165986061096,3.640176057815552,6.837366213022485,6.886391284000024,27.33254091488468,25.09620174892359,0.0010684489971026,0.0931989923119545,0,0,0
2302,80506.24519833524,2010-11-02 12:45:23,90.04573113309762,2,8,0.5501165986061096,3.676114559173584,6.841952812869359,6.886391284000024,27.349323757827843,25.09620174892359,0.0008093834039755,0.0931989923119545,0,0,0
2303,80536.2603731944,2010-11-02 12:45:53,120.0609059922653,2,8,0.550297200679779,3.704606533050537,6.846539395384276,6.886391284000024,27.366252426550982,25.09620174892359,0.0006799221155233,0.0931989923119545,0,0,0
2304,80566.2756106849,2010-11-02 12:46:23,150.07614350783302,2,8,0.5501165986061096,3.7274324893951416,6.851125930476457,6.886391284000024,27.383297647835327,25.09620174892359,0.0005504131549969,0.0931989923119545,0,0,0
2305,80596.29088230059,2010-11-02 12:46:53,180.0914150984573,2,8,0.5501165986061096,3.746535062789917,6.855712409999334,6.886391284000024,27.400438709158703,25.09620174892359,0.0004532813909463,0.0931989923119545,0,0,0
2306,80626.30628811626,2010-11-02 12:47:23,210.106820934178,2,8,0.550297200679779,3.761590242385864,6.860298892456022,6.886391284000024,27.417658362968684,25.09620174892359,0.0003237724304199,0.0931989923119545,0,0,0
2307,80656.32145870978,2010-11-02 12:47:53,240.12199150764795,2,8,0.5501165986061096,3.771627187728882,6.864885365489017,6.886391284000024,27.434935715295623,25.09620174892359,0.0002266406954731,0.0931989923119545,0,0,0
2308,80686.33670833558,2010-11-02 12:48:23,270.1372411585072,2,8,0.550297200679779,3.777778863906861,6.869471882141355,6.886391284000024,27.452248877195657,25.09620174892359,0.0001618862152099,0.0931989923119545,0,0,0
2309,80716.3519793648,2010-11-02 12:48:53,300.1525121626676,2,8,0.5501165986061096,3.781826019287109,6.8740584912311,6.886391284000024,27.46958495382324,25.09620174892359,0.0001618862152099,0.0931989923119545,0,0,0
2310,80746.36728013326,2010-11-02 12:49:23,330.1678129561868,2,8,0.5501165986061096,3.785387516021729,6.878645059800022,6.886391284000024,27.4869386834502,25.09620174892359,9.713172767078504e-05,0.0931989923119545,0,0,0
2311,80776.38253760363,2010-11-02 12:49:53,360.1830704265648,2,8,0.5499359965324402,3.788949012756348,6.883231650958006,6.886391284000024,27.50430900278596,25.09620174892359,6.47544875391759e-05,0.0931989923119545,0,0,0
2312,80806.39780590606,2010-11-02 12:50:23,390.1983387289812,2,8,0.5499359965324402,3.792348623275757,6.88781828610185,6.886391284000024,27.521695623559346,25.09620174892359,6.47544875391759e-05,0.0931989923119545,0,0,0
2313,80836.41309071468,2010-11-02 12:50:53,420.2136235375996,2,8,0.5501165986061096,3.795910120010376,6.892404883422971,6.886391284000024,27.539097868088145,25.09620174892359,9.713172767078504e-05,0.0931989923119545,0,0,0
2314,80866.42846981867,2010-11-02 12:51:23,450.22900261653126,2,8,0.5499359965324402,3.799309730529785,6.896991399199239,6.886391284000024,27.55651513761019,25.09620174892359,0.0001295089750783,0.0931989923119545,0,0,0
2315,80896.44362443732,2010-11-02 12:51:53,480.24415726023807,2,8,0.5501165986061096,3.802223682403565,6.901577919785166,6.886391284000024,27.57394744247332,25.09620174892359,6.47544875391759e-05,0.0931989923119545,0,0,0
2316,80926.45889924596,2010-11-02 12:52:23,510.259432068895,2,8,0.5501165986061096,3.805461406707764,6.906164389748029,6.886391284000024,27.59139408845936,25.09620174892359,9.713172767078504e-05,0.0931989923119545,0,0,0
2317,80956.47430372328,2010-11-02 12:52:53,540.2748365161499,2,8,0.550297200679779,3.808537244796753,6.910750997290143,6.886391284000024,27.608855543417093,25.09620174892359,6.47544875391759e-05,0.0931989923119545,0,0,0
2318,80986.48951554972,2010-11-02 12:53:23,570.2900483676561,2,8,0.5501165986061096,3.811774969100952,6.915337598230885,6.886391284000024,27.62633109896625,25.09620174892359,9.713172767078504e-05,0.0931989923119545,0,0,0
2319,81016.50473588242,2010-11-02 12:53:53,600.3052686752701,2,8,0.5501165986061096,3.814688920974731,6.919924162395493,6.886391284000024,27.643820671613177,25.09620174892359,6.47544875391759e-05,0.0931989923119545,0,0,0
2320,81046.520008661,2010-11-02 12:54:23,630.3205414538598,2,8,0.5499359965324402,3.8177647590637207,6.924510743562807,6.886391284000024,27.66132439520904,25.09620174892359,6.47544875391759e-05,0.0931989923119545,0,0,0
2321,81076.53526944466,2010-11-02 12:54:53,660.3358022625708,2,8,0.5501165986061096,3.82084059715271,6.92909728431203,6.886391284000024,27.67884183313176,25.09620174892359,9.713172767078504e-05,0.0931989923119545,0,0,0
2322,81106.5505425641,2010-11-02 12:55:23,690.3510753820112,2,8,0.5501165986061096,3.823754549026489,6.933683869200685,6.886391284000024,27.696373324118216,25.09620174892359,6.47544875391759e-05,0.0931989923119545,0,0,0
2323,81136.56586008437,2010-11-02 12:55:53,720.3663929072954,2,8,0.550297200679779,3.8271541595458975,6.938270476809362,6.886391284000024,27.71391899071646,25.09620174892359,0.0001295089750783,0.0931989923119545,0,0,0
2324,81166.58109323404,2010-11-02 12:56:23,750.3816260519526,2,8,0.5501165986061096,3.830229997634888,6.942857014354073,6.886391284000024,27.73147874121589,25.09620174892359,9.713172767078504e-05,0.0931989923119545,0,0,0
2325,81196.59650426774,2010-11-02 12:56:53,780.3970370806359,2,8,0.5501165986061096,3.833305597305298,6.947443590496081,6.886391284000024,27.74905326679793,25.09620174892359,9.70840483205393e-05,0.0931989923119545,0,0,0
2326,81226.61163721728,2010-11-02 12:57:23,810.4121700352032,2,8,0.5501165986061096,3.836705207824707,6.952030029121341,6.886391284000024,27.76664223694214,25.09620174892359,9.713172767078504e-05,0.0931989923119545,0,0,0
2327,81256.62694023635,2010-11-02 12:57:53,840.4274730342279,2,8,0.550297200679779,3.839942932128906,6.956616734529375,6.886391284000024,27.78424746326069,25.09620174892359,6.47544875391759e-05,0.0931989923119545,0,0,0
2328,81286.6422702829,2010-11-02 12:58:24,870.4428031960548,2,8,0.550297200679779,3.843504428863525,6.961204012457539,6.886391284000024,27.80187035522509,25.09620174892359,9.713172767078504e-05,0.0931989923119545,0,0,0
2329,81316.6576164196,2010-11-02 12:58:54,900.4581492425323,2,8,0.5501165986061096,3.8467421531677246,6.965791062543742,6.886391284000024,27.819507745785856,25.09620174892359,6.47544875391759e-05,0.0931989923119545,0,0,0
2330,81346.67277293297,2010-11-02 12:59:24,930.4733057408688,2,8,0.5499359965324402,3.849979877471924,6.970377525651148,6.886391284000024,27.83715820248193,25.09620174892359,9.713172767078504e-05,0.0931989923119545,0,0,0
2331,81376.68838338445,2010-11-02 12:59:54,960.4889161823166,2,8,0.5501165986061096,3.853379487991333,6.974964144324296,6.886391284000024,27.854824350902405,25.09620174892359,0.0001295089750783,0.0931989923119545,0,0,0
2332,81406.7033597281,2010-11-02 13:00:24,990.5038926061592,2,8,0.5501165986061096,3.856455326080322,6.979550581650279,6.886391284000024,27.872504528542024,25.09620174892359,9.713172767078504e-05,0.0931989923119545,0,0,0
2333,81436.71859709328,2010-11-02 13:00:54,1020.5191298811264,2,8,0.5501165986061096,3.859531164169312,6.984137131932759,6.886391284000024,27.890199768371097,25.09620174892359,3.237724376958795e-05,0.0931989923119545,0,0,0
2334,81466.73388925024,2010-11-02 13:01:24,1050.5344220431,2,8,0.5501165986061096,3.862768888473511,6.988723575545565,6.886391284000024,27.90790882890189,25.09620174892359,0.0001295089750783,0.0931989923119545,0,0,0
2335,81496.7491636579,2010-11-02 13:01:54,1080.5496964507558,2,8,0.5499359965324402,3.86568284034729,6.993310088860295,6.886391284000024,27.92563204023807,25.09620174892359,9.713172767078504e-05,0.0931989923119545,0,0,0
2336,81526.76443210566,2010-11-02 13:02:24,1110.5649648985352,2,8,0.5499359965324402,3.868596792221069,6.99789656788754,6.886391284000024,27.94336872114617,25.09620174892359,6.47544875391759e-05,0.0931989923119545,0,0,0
2337,81556.77981410189,2010-11-02 13:02:54,1140.5803469047737,2,8,0.5501165986061096,3.8715107440948486,7.002483168971854,6.886391284000024,27.9611190197384,25.09620174892359,9.713172767078504e-05,0.0931989923119545,0,0,0
2338,81586.79495994364,2010-11-02 13:03:24,1170.5954927364846,2,8,0.5499359965324402,3.874100923538208,7.007069766043856,6.886391284000024,27.978882020803823,25.09620174892359,6.47544875391759e-05,0.0931989923119545,0,0,0
2339,81616.81025196025,2010-11-02 13:03:54,1200.6107847480828,2,8,0.5501165986061096,3.876691102981568,7.011656378382384,6.886391284000024,27.996657080193945,25.09620174892359,6.47544875391759e-05,0.0931989923119545,0,0,0
2340,81646.82551115994,2010-11-02 13:04:24,1230.6260439527898,2,8,0.5501165986061096,3.879119396209717,7.016242931360007,6.886391284000024,28.01444354244113,25.09620174892359,3.237724376958795e-05,0.0931989923119545,0,0,0
2341,81676.84081027425,2010-11-02 13:04:54,1260.6413430671175,2,8,0.5499359965324402,3.881385803222656,7.020829521894768,6.886391284000024,28.032241009746585,25.09620174892359,3.237724376958795e-05,0.0931989923119545,0,0,0
2342,81706.85606178475,2010-11-02 13:05:24,1290.6565945776183,2,8,0.5501165986061096,3.883652210235596,7.025416099087783,6.886391284000024,28.050048792415765,25.09620174892359,6.47544875391759e-05,0.0931989923119545,0,0,0
2343,81736.87136826749,2010-11-02 13:05:54,1320.6719010653517,2,8,0.5501165986061096,3.885756731033325,7.030002681090799,6.886391284000024,28.0678661865022,25.09620174892359,3.237724376958795e-05,0.0931989923119545,0,0,0
2344,81766.8867358026,2010-11-02 13:06:24,1350.6872685904432,2,8,0.5499359965324402,3.887375593185425,7.034589239003033,6.886391284000024,28.085692440208383,25.09620174892359,0.0,0.0931989923119545,0,0,0
2345,81796.90189023077,2010-11-02 13:06:54,1380.7024230236243,2,8,0.5501165986061096,3.8894801139831534,7.039175789541356,6.886391284000024,28.103527059949744,25.09620174892359,6.47544875391759e-05,0.0931989923119545,0,0,0
2346,81826.91716120487,2010-11-02 13:07:24,1410.7176939926971,2,8,0.5501165986061096,3.890937089920044,7.043762408389726,6.886391284000024,28.12136969541472,25.09620174892359,3.237724376958795e-05,0.0931989923119545,0,0,0
2347,81856.93244362752,2010-11-02 13:07:54,1440.7329764203726,2,8,0.5499359965324402,3.8923940658569336,7.048348477371659,6.886391284000024,28.139217410662376,25.09620174892359,6.47544875391759e-05,0.0931989923119545,0,0,0
2348,81886.94784759356,2010-11-02 13:08:24,1470.748380386426,2,8,0.5499359965324402,3.8938510417938232,7.052934153400082,6.886391284000024,28.157070362542857,25.09620174892359,3.237724376958795e-05,0.0931989923119545,0,0,0
2349,81916.96298895913,2010-11-02 13:08:54,1500.7635217519887,2,8,0.5499359965324402,3.894984245300293,7.057519824049657,6.886391284000024,28.174929542597507,25.09620174892359,0.0,0.0931989923119545,0,0,0
2350,81946.97828473513,2010-11-02 13:09:24,1530.7788175279834,2,8,0.5501165986061096,3.8966031074523926,7.062105436878978,6.886391284000024,28.19279448784609,25.09620174892359,0.0,0.0931989923119545,0,0,0
2351,81976.99355563904,2010-11-02 13:09:54,1560.7940884318934,2,8,0.5501165986061096,3.897898197174072,7.066691554784643,6.886391284000024,28.21066754545204,25.09620174892359,6.47544875391759e-05,0.0931989923119545,0,0,0
2352,82007.00893648739,2010-11-02 13:10:24,1590.809469295279,2,8,0.5501165986061096,3.899193286895752,7.07127815385406,6.886391284000024,28.22854843172737,25.09620174892359,3.237724376958795e-05,0.0931989923119545,0,0,0
2353,82037.02409006844,2010-11-02 13:10:54,1620.824622861296,2,8,0.5499359965324402,3.9003264904022217,7.075864694933708,6.886391284000024,28.246434787708512,25.09620174892359,3.237724376958795e-05,0.0931989923119545,0,0,0
2354,82067.03936181446,2010-11-02 13:11:24,1650.839894612321,2,8,0.5501165986061096,3.901621580123901,7.080451209965454,6.886391284000024,28.26432677824285,25.09620174892359,0.0,0.0931989923119545,0,0,0
2355,82097.05467036233,2010-11-02 13:11:54,1680.8552031501713,2,8,0.5501165986061096,3.902916669845581,7.085037677922301,6.886391284000024,28.282224276804747,25.09620174892359,0.0,0.0931989923119545,0,0,0
2356,82127.06994018855,2010-11-02 13:12:24,1710.8704730064662,2,8,0.5495747923851013,3.903887987136841,7.089624200361972,6.886391284000024,28.300127662893537,25.09620174892359,-3.237724376958795e-05,0.0931989923119545,0,0,0
2357,82157.08533096168,2010-11-02 13:12:54,1740.885863759538,2,8,0.5499359965324402,3.9053449630737305,7.09421076866052,6.886391284000024,28.318036941178985,25.09620174892359,3.237724376958795e-05,0.0931989923119545,0,0,0
2358,82187.100471831,2010-11-02 13:13:24,1770.9010046238495,2,8,0.5501165986061096,3.90664005279541,7.098797230869856,6.886391284000024,28.33595141288319,25.09620174892359,3.237724376958795e-05,0.0931989923119545,0,0,0
2359,82217.11575674488,2010-11-02 13:13:54,1800.9162895327183,2,8,0.550297200679779,3.90777325630188,7.103383767727812,6.886391284000024,28.3538720209334,25.09620174892359,0.0,0.0931989923119545,0,0,0
2360,82247.13101867138,2010-11-02 13:14:24,1830.931551464232,2,8,0.550297200679779,3.90906834602356,7.107970301575223,6.886391284000024,28.37179839437489,25.09620174892359,0.0,0.0931989923119545,0,0,0
2361,82277.1462941066,2010-11-02 13:14:54,1860.9468268994528,2,8,0.550297200679779,3.9103634357452393,7.112556824656027,6.886391284000024,28.3897305867008,25.09620174892359,3.237724376958795e-05,0.0931989923119545,0,0,0
2362,82307.16158557184,2010-11-02 13:15:24,1890.9621183646875,2,8,0.5501165986061096,3.911658525466919,7.117143335199577,6.886391284000024,28.40766852076042,25.09620174892359,3.237724376958795e-05,0.0931989923119545,0,0,0
2363,82337.17705189354,2010-11-02 13:15:54,1920.9775846914024,2,8,0.5499359965324402,3.912953615188599,7.121729900463572,6.886391284000024,28.42561263474911,25.09620174892359,3.237724376958795e-05,0.0931989923119545,0,0,0
2364,82367.19232463204,2010-11-02 13:16:24,1950.992857429892,2,8,0.5501165986061096,3.914410352706909,7.126316395855788,6.886391284000024,28.443562401057697,25.09620174892359,6.47544875391759e-05,0.0931989923119545,0,0,0
2365,82397.20737648917,2010-11-02 13:16:54,1981.007909287028,2,8,0.5501165986061096,3.915381669998169,7.130902880992379,6.886391284000024,28.46151817234526,25.09620174892359,3.237724376958795e-05,0.0931989923119545,0,0,0
2366,82427.22276691643,2010-11-02 13:17:24,2011.0232997142868,2,8,0.5501165986061096,3.917000532150269,7.135489449969271,6.886391284000024,28.47948016323331,25.09620174892359,3.237724376958795e-05,0.0931989923119545,0,0,0
2367,82457.23793532449,2010-11-02 13:17:54,2041.038468117339,2,8,0.550297200679779,3.918295621871948,7.140075918289534,6.886391284000024,28.497447965711316,25.09620174892359,3.237724376958795e-05,0.0931989923119545,0,0,0
2368,82487.25321201785,2010-11-02 13:18:24,2071.0537448107007,2,8,0.550297200679779,3.919752597808838,7.144662394651665,6.886391284000024,28.51542193186897,25.09620174892359,9.713172767078504e-05,0.0931989923119545,0,0,0
2369,82517.268552726,2010-11-02 13:18:54,2101.069085543915,2,8,0.5501165986061096,3.920885801315308,7.149248889696032,6.886391284000024,28.533402210240848,25.09620174892359,3.237724376958795e-05,0.0931989923119545,0,0,0
2370,82547.28375056754,2010-11-02 13:19:24,2131.0842833603883,2,8,0.5501165986061096,3.922342777252197,7.15383539728742,6.886391284000024,28.55138876187112,25.09620174892359,6.47544875391759e-05,0.0931989923119545,0,0,0
2371,82577.2990477721,2010-11-02 13:19:54,2161.0995805649486,2,8,0.5501165986061096,3.923637866973877,7.158421904853326,6.886391284000024,28.56938166166467,25.09620174892359,3.237724376958795e-05,0.0931989923119545,0,0,0
2372,82607.31430056079,2010-11-02 13:20:24,2191.1148333536407,2,8,0.5499359965324402,3.9249329566955566,7.163008374574313,6.886391284000024,28.58738082546481,25.09620174892359,0.0,0.0931989923119545,0,0,0
2373,82637.32957500854,2010-11-02 13:20:54,2221.130107801396,2,8,0.5501165986061096,3.926551818847656,7.167594856370595,6.886391284000024,28.605386413751727,25.09620174892359,6.47544875391759e-05,0.0931989923119545,0,0,0
2374,82667.3448746592,2010-11-02 13:21:24,2251.1454074470503,2,8,0.550297200679779,3.928008794784546,7.172181382846596,6.886391284000024,28.623398651474325,25.09620174892359,6.47544875391759e-05,0.0931989923119545,0,0,0
2375,82697.3601396734,2010-11-02 13:21:54,2281.1606724662715,2,8,0.5499359965324402,3.9293038845062256,7.17676791967649,6.886391284000024,28.64141746325396,25.09620174892359,3.237724376958795e-05,0.0931989923119545,0,0,0
2376,82727.375434883,2010-11-02 13:22:24,2311.175967680865,2,8,0.5501165986061096,3.9307608604431152,7.181354430212644,6.886391284000024,28.65944282339314,25.09620174892359,0.0,0.0931989923119545,0,0,0
2377,82757.39068573184,2010-11-02 13:22:54,2341.191218524702,2,8,0.5501165986061096,3.932217836380005,7.185940981890684,6.886391284000024,28.677474993284257,25.09620174892359,6.47544875391759e-05,0.0931989923119545,0,0,0
2378,82787.40608258013,2010-11-02 13:23:24,2371.2066153830137,2,8,0.5501165986061096,3.9336748123168954,7.190527555056762,6.886391284000024,28.69551403745131,25.09620174892359,3.237724376958795e-05,0.0931989923119545,0,0,0
2379,82817.42118403608,2010-11-02 13:23:54,2401.221716919156,2,8,0.5501165986061096,3.935293674468994,7.195114120055602,6.886391284000024,28.71355987327021,25.09620174892359,6.47544875391759e-05,0.0931989923119545,0,0,0
2380,82847.43648291983,2010-11-02 13:24:24,2431.237015722708,2,8,0.5499359965324402,3.936750650405884,7.199700726777441,6.886391284000024,28.731612606836563,25.09620174892359,6.47544875391759e-05,0.0931989923119545,0,0,0
2381,82877.45183323696,2010-11-02 13:24:54,2461.252366034834,2,8,0.5501165986061096,3.938207626342773,7.204287235091227,6.886391284000024,28.749671894548097,25.09620174892359,3.237724376958795e-05,0.0931989923119545,0,0,0
2382,82907.46707753948,2010-11-02 13:25:24,2491.267610337342,2,8,0.5501165986061096,3.939664602279663,7.20887376171504,6.886391284000024,28.76773821827547,25.09620174892359,0.0,0.0931989923119545,0,0,0
2383,82937.48253964065,2010-11-02 13:25:54,2521.2830724485348,2,8,0.5499359965324402,3.9411215782165527,7.213460223609832,6.886391284000024,28.785811354303885,25.09620174892359,0.0,0.0931989923119545,0,0,0
2384,82967.49764816422,2010-11-02 13:26:24,2551.2981809671064,2,8,0.5499359965324402,3.942740440368652,7.218046638046999,6.886391284000024,28.80389133904077,25.09620174892359,3.237724376958795e-05,0.0931989923119545,0,0,0
2385,82997.5130377143,2010-11-02 13:26:54,2581.313570517176,2,8,0.5501165986061096,3.944197416305542,7.222633146710167,6.886391284000024,28.82197889619832,25.09620174892359,0.0,0.0931989923119545,0,0,0
2386,83027.52818625778,2010-11-02 13:27:24,2611.328719055643,2,8,0.5501165986061096,3.945978164672852,7.227219649752763,6.886391284000024,28.840073686851756,25.09620174892359,6.47544875391759e-05,0.0931989923119545,0,0,0
2387,83057.54349705628,2010-11-02 13:27:54,2641.344029854136,2,8,0.550297200679779,3.947758913040161,7.231806138693266,6.886391284000024,28.858175609453305,25.09620174892359,6.47544875391759e-05,0.0931989923119545,0,0,0
2388,83087.55873966456,2010-11-02 13:28:24,2671.359272472441,2,8,0.5501165986061096,3.949215888977051,7.236392545213017,6.886391284000024,28.87628453987553,25.09620174892359,3.237724376958795e-05,0.0931989923119545,0,0,0
2389,83117.57426231686,2010-11-02 13:28:54,2701.374795119741,2,8,0.5501165986061096,3.9508347511291504,7.240979027736096,6.886391284000024,28.8944011205272,25.09620174892359,3.237724376958795e-05,0.0931989923119545,0,0,0
2390,83147.58930650486,2010-11-02 13:29:24,2731.389839302721,2,8,0.5501165986061096,3.95261549949646,7.245565449859016,6.886391284000024,28.91252492901857,25.09620174892359,6.47544875391759e-05,0.0931989923119545,0,0,0
2391,83177.60469972408,2010-11-02 13:29:54,2761.4052325269618,2,8,0.5501165986061096,3.9540724754333496,7.250151935494544,6.886391284000024,28.930656532722416,25.09620174892359,3.237724376958795e-05,0.0931989923119545,0,0,0
2392,83207.61987505443,2010-11-02 13:30:25,2791.420407862318,2,8,0.5501165986061096,3.955691337585449,7.254738370466968,6.886391284000024,28.94879551961379,25.09620174892359,3.237724376958795e-05,0.0931989923119545,0,0,0
2393,83237.6351201038,2010-11-02 13:30:55,2821.4356529016663,2,8,0.5501165986061096,3.957310199737549,7.259324911068623,6.886391284000024,28.96694251465985,25.09620174892359,6.47544875391759e-05,0.0931989923119545,0,0,0
2394,83267.65039352399,2010-11-02 13:31:25,2851.450926321857,2,8,0.5501165986061096,3.958929061889648,7.263911362710179,6.886391284000024,28.98509679492301,25.09620174892359,-3.237724376958795e-05,0.0931989923119545,0,0,0
2395,83297.6658963819,2010-11-02 13:31:55,2881.466429204823,2,8,0.5501165986061096,3.960871696472168,7.268497839028687,6.886391284000024,29.00325888861058,25.09620174892359,6.47544875391759e-05,0.0931989923119545,0,0,0
2396,83327.68099697569,2010-11-02 13:32:25,2911.4815298587628,2,8,0.5499359965324402,3.962166786193848,7.27308426225782,6.886391284000024,29.021428556025544,25.09620174892359,0.0,0.0931989923119545,0,0,0
2397,83357.69625170421,2010-11-02 13:32:55,2941.496784502084,2,8,0.550297200679779,3.964271306991577,7.277670743066064,6.886391284000024,29.0396063321787,25.09620174892359,3.237724376958795e-05,0.0931989923119545,0,0,0
2398,83387.71149758066,2010-11-02 13:33:25,2971.512030378522,2,8,0.550297200679779,3.9662139415740967,7.282257251491282,6.886391284000024,29.057792202099087,25.09620174892359,6.47544875391759e-05,0.0931989923119545,0,0,0
2399,83417.72679074515,2010-11-02 13:33:55,3001.5273235429977,2,8,0.5501165986061096,3.967509031295776,7.286843755813046,6.886391284000024,29.075986065581173,25.09620174892359,0.0,0.0931989923119545,0,0,0
2400,83447.74205292726,2010-11-02 13:34:25,3031.542585725137,2,8,0.5501165986061096,3.969451665878296,7.291430215765541,6.886391284000024,29.09418774756785,25.09620174892359,3.237724376958795e-05,0.0931989923119545,0,0,0
2401,83477.75747018149,2010-11-02 13:34:55,3061.55800297936,2,8,0.5501165986061096,3.9712324142456055,7.296016713732057,6.886391284000024,29.112397680821005,25.09620174892359,3.237724376958795e-05,0.0931989923119545,0,0,0
2402,83507.77262971741,2010-11-02 13:35:25,3091.5731625152785,2,8,0.5501165986061096,3.973013162612915,7.300603153139718,6.886391284000024,29.130615549076555,25.09620174892359,6.47544875391759e-05,0.0931989923119545,0,0,0
2403,83537.78790596465,2010-11-02 13:35:55,3121.5884387675387,2,8,0.5501165986061096,3.9747939109802246,7.305189673275421,6.886391284000024,29.14884199762919,25.09620174892359,6.47544875391759e-05,0.0931989923119545,0,0,0
2404,83567.80317436732,2010-11-02 13:36:25,3151.603707165193,2,8,0.5501165986061096,3.976574659347534,7.309776165717354,6.886391284000024,29.167076673605653,25.09620174892359,3.237724376958795e-05,0.0931989923119545,0,0,0
2405,83597.81856186227,2010-11-02 13:36:55,3181.6190946601323,2,8,0.550297200679779,3.9785172939300537,7.314362699580027,6.886391284000024,29.185319557071608,25.09620174892359,0.0001295089750783,0.0931989923119545,0,0,0
2406,83627.8337137942,2010-11-02 13:37:25,3211.6342465920698,2,8,0.5499359965324402,3.980136156082153,7.318949044730801,6.886391284000024,29.20357058710555,25.09620174892359,0.0,0.0931989923119545,0,0,0
2407,83657.84900710404,2010-11-02 13:37:55,3241.649539901909,2,8,0.5497553944587708,3.982078790664673,7.323535478163963,6.886391284000024,29.22183057468516,25.09620174892359,-3.237724376958795e-05,0.0931989923119545,0,0,0
2408,83687.8642635218,2010-11-02 13:38:25,3271.6647963246724,2,8,0.5501165986061096,3.9841833114624015,7.328121892779188,6.886391284000024,29.240099126793904,25.09620174892359,6.47544875391759e-05,0.0931989923119545,0,0,0
2409,83717.87967331237,2010-11-02 13:38:55,3301.680206135315,2,8,0.550297200679779,3.986287832260132,7.332708335489513,6.886391284000024,29.258376673402545,25.09620174892359,9.713172767078504e-05,0.0931989923119545,0,0,0
2410,83747.89481895362,2010-11-02 13:39:25,3331.695351751487,2,8,0.5501165986061096,3.9880685806274414,7.337294759836893,6.886391284000024,29.27666311355677,25.09620174892359,0.0,0.0931989923119545,0,0,0
2411,83777.91012194262,2010-11-02 13:39:55,3361.710654740487,2,8,0.5501165986061096,3.990173101425171,7.341881107810065,6.886391284000024,29.294958133467816,25.09620174892359,6.47544875391759e-05,0.0931989923119545,0,0,0
2412,83807.92537335788,2010-11-02 13:40:25,3391.72590615575,2,8,0.5499359965324402,3.991953849792481,7.346467412873231,6.886391284000024,29.31326211415531,25.09620174892359,6.47544875391759e-05,0.0931989923119545,0,0,0
2413,83837.94077606579,2010-11-02 13:40:55,3421.741308863664,2,8,0.5501165986061096,3.994058132171631,7.351053819963058,6.886391284000024,29.33157564230499,25.09620174892359,9.70840483205393e-05,0.0931989923119545,0,0,0
2414,83867.9559442583,2010-11-02 13:41:25,3451.7564770561903,2,8,0.550297200679779,3.99616265296936,7.355640114638864,6.886391284000024,29.349898021316797,25.09620174892359,6.47544875391759e-05,0.0931989923119545,0,0,0
2415,83897.97121780385,2010-11-02 13:41:55,3481.7717506016943,2,8,0.5501165986061096,3.99810528755188,7.360226481216203,6.886391284000024,29.368230134554977,25.09620174892359,6.47544875391759e-05,0.0931989923119545,0,0,0
2416,83927.98662683251,2010-11-02 13:42:25,3511.7871596303853,2,8,0.5499359965324402,4.0000481605529785,7.364812830718067,6.886391284000024,29.386571543459624,25.09620174892359,3.24249267578125e-05,0.0931989923119545,0,0,0
2417,83958.0017671204,2010-11-02 13:42:55,3541.8022999182576,2,8,0.5501165986061096,4.002314567565918,7.369399204353206,6.886391284000024,29.404922741797236,25.09620174892359,6.47544875391759e-05,0.0931989923119545,0,0,0
2418,83988.01706528233,2010-11-02 13:43:25,3571.8175981102827,2,8,0.5501165986061096,4.004418849945068,7.373985523165366,6.886391284000024,29.423283438546022,25.09620174892359,3.23295607813634e-05,0.0931989923119545,0,0,0
2419,84018.03235469245,2010-11-02 13:43:55,3601.8328875153748,2,8,0.5501165986061096,4.006523609161377,7.378571868909778,6.886391284000024,29.44165408606205,25.09620174892359,6.47544875391759e-05,0.0931989923119545,0,0,0
2420,84048.04771945064,2010-11-02 13:44:25,3631.8482522484974,2,8,0.5501165986061096,4.008790016174316,7.38315822847107,6.886391284000024,29.46003481191056,25.09620174892359,3.24249267578125e-05,0.0931989923119545,0,0,0
2421,84078.06300037957,2010-11-02 13:44:55,3661.8635332075055,2,8,0.5499359965324402,4.011056423187256,7.387744634673912,6.886391284000024,29.47842571660764,25.09620174892359,0.0001295089750783,0.0931989923119545,0,0,0
2422,84108.07815652201,2010-11-02 13:45:25,3691.87868931988,2,8,0.5501165986061096,4.013160705566406,7.392331015489162,6.886391284000024,29.49682673348142,25.09620174892359,3.23295607813634e-05,0.0931989923119545,0,0,0
2423,84138.09343403744,2010-11-02 13:45:55,3721.893966835292,2,8,0.5499359965324402,4.015427112579346,7.396917382714275,6.886391284000024,29.515237946015382,25.09620174892359,6.47544875391759e-05,0.0931989923119545,0,0,0
2424,84168.10882304113,2010-11-02 13:46:25,3751.909355838998,2,8,0.5501165986061096,4.017855644226074,7.401503797328001,6.886391284000024,29.53365980842876,25.09620174892359,9.71794142969884e-05,0.0931989923119545,0,0,0
2425,84198.12399415596,2010-11-02 13:46:55,3781.924526953819,2,8,0.5501165986061096,4.020122051239014,7.406090252748575,6.886391284000024,29.55209224453368,25.09620174892359,9.71794142969884e-05,0.0931989923119545,0,0,0
2426,84228.13937629753,2010-11-02 13:47:25,3811.939909100408,2,8,0.5501165986061096,4.022388458251953,7.410676655169965,6.886391284000024,29.570535115172508,25.09620174892359,3.24249267578125e-05,0.0931989923119545,0,0,0
2427,84258.15476451929,2010-11-02 13:47:55,3841.9552973372,2,8,0.5501165986061096,4.024816513061523,7.415263069431053,6.886391284000024,29.588988770183448,25.09620174892359,9.70840483205393e-05,0.0931989923119545,0,0,0
2428,84288.17002642574,2010-11-02 13:48:25,3871.970559213576,2,8,0.5501165986061096,4.027082920074463,7.419849404105099,6.886391284000024,29.607452866905906,25.09620174892359,6.47544875391759e-05,0.0931989923119545,0,0,0
2429,84318.18508005729,2010-11-02 13:48:55,3901.985612850153,2,8,0.5501165986061096,4.029511451721191,7.424435716966349,6.886391284000024,29.62592782433082,25.09620174892359,9.71794142969884e-05,0.0931989923119545,0,0,0
2430,84348.20038967284,2010-11-02 13:49:25,3932.0009224707055,2,8,0.5501165986061096,4.031777858734131,7.429022041568824,6.886391284000024,29.644413665501933,25.09620174892359,6.47544875391759e-05,0.0931989923119545,0,0,0
2431,84378.21567958922,2010-11-02 13:49:55,3962.016212397099,2,8,0.5499359965324402,4.034367561340332,7.433608379439374,6.886391284000024,29.66291063481552,25.09620174892359,0.0001294136018259,0.0931989923119545,0,0,0
2432,84408.23099481376,2010-11-02 13:50:25,3992.0315276366778,2,8,0.5501165986061096,4.036633968353272,7.438193996746291,6.886391284000024,29.68141570155565,25.09620174892359,6.47544875391759e-05,0.0931989923119545,0,0,0
2433,84438.2462246351,2010-11-02 13:50:55,4022.0467574430018,2,8,0.5499359965324402,4.0390625,7.442779522751439,6.886391284000024,29.69993163059133,25.09620174892359,3.24249267578125e-05,0.0931989923119545,0,0,0
2434,84468.26166481656,2010-11-02 13:51:25,4052.062197644505,2,8,0.5501165986061096,4.04181432723999,7.447365824532255,6.886391284000024,29.718462148905743,25.09620174892359,9.70840483205393e-05,0.0931989923119545,0,0,0
2435,84498.27697712382,2010-11-02 13:51:55,4082.077510036977,2,8,0.5499359965324402,4.04408073425293,7.451952152843202,6.886391284000024,29.73700429267564,25.09620174892359,3.23295607813634e-05,0.0931989923119545,0,0,0
2436,84528.29208573262,2010-11-02 13:52:25,4112.092618535498,2,8,0.5501165986061096,4.046670913696289,7.456538500872282,6.886391284000024,29.755558080168267,25.09620174892359,9.70840483205393e-05,0.0931989923119545,0,0,0
2437,84558.30735199494,2010-11-02 13:52:55,4142.10788479281,2,8,0.5499359965324402,4.049261093139648,7.46112487825769,6.886391284000024,29.774123658165287,25.09620174892359,9.70840483205393e-05,0.0931989923119545,0,0,0
2438,84588.32264590629,2010-11-02 13:53:25,4172.123178714175,2,8,0.550297200679779,4.052013397216797,7.465711316352591,6.886391284000024,29.79270124042766,25.09620174892359,9.71794142969884e-05,0.0931989923119545,0,0,0
2439,84618.33794459455,2010-11-02 13:53:55,4202.138477422489,2,8,0.5501165986061096,4.054441452026367,7.47029767120856,6.886391284000024,29.81129041420493,25.09620174892359,6.47544875391759e-05,0.0931989923119545,0,0,0
2440,84648.35318220034,2010-11-02 13:54:25,4232.153714998207,2,8,0.5499359965324402,4.057031631469727,7.474884102702017,6.886391284000024,29.829891869514668,25.09620174892359,6.47544875391759e-05,0.0931989923119545,0,0,0
2441,84678.36845966564,2010-11-02 13:54:55,4262.168992463496,2,8,0.5501165986061096,4.059783935546875,7.479470520578367,6.886391284000024,29.8485053747895,25.09620174892359,6.47544875391759e-05,0.0931989923119545,0,0,0
2442,84708.38387586222,2010-11-02 13:55:25,4292.184408665091,2,8,0.5501165986061096,4.062211990356445,7.484057053940159,6.886391284000024,29.86713113815996,25.09620174892359,6.47544875391759e-05,0.0931989923119545,0,0,0
2443,84738.39902674152,2010-11-02 13:55:55,4322.199559539389,2,8,0.5501165986061096,4.064964294433594,7.488643372519118,6.886391284000024,29.885768226766512,25.09620174892359,6.47544875391759e-05,0.0931989923119545,0,0,0
2444,84768.41378815866,2010-11-02 13:56:25,4352.214320650779,2,8,0.5501165986061096,4.067554473876953,7.49322975751145,6.886391284000024,29.904417863562823,25.09620174892359,9.71794142969884e-05,0.0931989923119545,0,0,0
2445,84798.41402478471,2010-11-02 13:56:55,4382.214557697869,2,8,0.5499359965324402,4.070306301116943,7.49781388909592,6.886391284000024,29.923070735836877,25.09620174892359,3.23295607813634e-05,0.0931989923119545,0,0,0
2446,84828.42934577866,2010-11-02 13:57:25,4412.229878576523,2,8,0.5501165986061096,4.073220252990723,7.502400294826055,6.886391284000024,29.94174539576389,25.09620174892359,9.70840483205393e-05,0.0931989923119545,0,0,0
2447,84858.4444931843,2010-11-02 13:57:55,4442.245025982163,2,8,0.5501165986061096,4.075810432434082,7.506986669455494,6.886391284000024,29.960432638904607,25.09620174892359,6.47544875391759e-05,0.0931989923119545,0,0,0
2448,84888.45979218834,2010-11-02 13:58:25,4472.260324991228,2,8,0.5501165986061096,4.078562736511231,7.511573058225028,6.886391284000024,29.979132750068157,25.09620174892359,3.24249267578125e-05,0.0931989923119545,0,0,0
2449,84918.47504541815,2010-11-02 13:58:55,4502.275578216008,2,8,0.5499359965324402,4.08147668838501,7.516159426395599,6.886391284000024,29.99784573197941,25.09620174892359,6.47544875391759e-05,0.0931989923119545,0,0,0
2450,84948.4903511991,2010-11-02 13:59:25,4532.29088400199,2,8,0.5501165986061096,4.084390640258789,7.52074579873212,6.886391284000024,30.016571694468546,25.09620174892359,6.47544875391759e-05,0.0931989923119545,0,0,0
2451,84978.50563200272,2010-11-02 13:59:55,4562.306164800599,2,8,0.550297200679779,4.087466239929199,7.525332149843083,6.886391284000024,30.035310772607307,25.09620174892359,9.70840483205393e-05,0.0931989923119545,0,0,0
2452,85008.52090800938,2010-11-02 14:00:25,4592.321440807245,2,8,0.5504778623580933,4.0903801918029785,7.529918599016369,6.886391284000024,30.05406349791254,25.09620174892359,9.70840483205393e-05,0.0931989923119545,0,0,0
2453,85038.53617414138,2010-11-02 14:00:55,4622.336706939244,2,8,0.5499359965324402,4.092970371246338,7.534505076608937,6.886391284000024,30.07282957280693,25.09620174892359,9.70840483205393e-05,0.0931989923119545,0,0,0
2454,85068.551594759,2010-11-02 14:01:25,4652.352127566888,2,8,0.5501165986061096,4.095884323120117,7.53909158545368,6.886391284000024,30.091609109170097,25.09620174892359,6.47544875391759e-05,0.0931989923119545,0,0,0
2455,85098.56672356321,2010-11-02 14:01:55,4682.367256386133,2,8,0.5501165986061096,4.099122047424316,7.543678033852479,6.886391284000024,30.11040191573052,25.09620174892359,0.0001295089750783,0.0931989923119545,0,0,0
2456,85128.58200966004,2010-11-02 14:02:25,4712.382542482967,2,8,0.5499359965324402,4.101874351501465,7.548264575552505,6.886391284000024,30.129208872139905,25.09620174892359,6.47544875391759e-05,0.0931989923119545,0,0,0
2457,85158.5972878722,2010-11-02 14:02:56,4742.397820670057,2,8,0.5501165986061096,4.104949951171875,7.552851040486679,6.886391284000024,30.148029211291146,25.09620174892359,9.70840483205393e-05,0.0931989923119545,0,0,0
2458,85188.61257891136,2010-11-02 14:03:26,4772.41311173429,2,8,0.5501165986061096,4.108026027679443,7.557437506526089,6.886391284000024,30.166863645644582,25.09620174892359,6.47544875391759e-05,0.0931989923119545,0,0,0
2459,85218.62783352462,2010-11-02 14:03:56,4802.428366337512,2,8,0.550297200679779,4.1111016273498535,7.562023954289921,6.886391284000024,30.185712154698063,25.09620174892359,6.47544875391759e-05,0.0931989923119545,0,0,0
2460,85248.6433154302,2010-11-02 14:04:26,4832.44384825314,2,8,0.5501165986061096,4.114501476287842,7.5666104655603,6.886391284000024,30.204575103266343,25.09620174892359,0.0001295089750783,0.0931989923119545,0,0,0
2461,85278.65844817927,2010-11-02 14:04:56,4862.458981062345,2,8,0.5497553944587708,4.117091178894043,7.571196894171552,6.886391284000024,30.22345202699081,25.09620174892359,6.47544875391759e-05,0.0931989923119545,0,0,0
2462,85308.67367301318,2010-11-02 14:05:26,4892.474205816056,2,8,0.550297200679779,4.120652675628662,7.575783366669665,6.886391284000024,30.242343380479586,25.09620174892359,9.70840483205393e-05,0.0931989923119545,0,0,0
2463,85338.68894655367,2010-11-02 14:05:56,4922.489479351535,2,8,0.5501165986061096,4.123728752136231,7.580369824182434,6.886391284000024,30.26124914201005,25.09620174892359,9.71794142969884e-05,0.0931989923119545,0,0,0
2464,85368.70424076074,2010-11-02 14:06:26,4952.504773563626,2,8,0.5501165986061096,4.12696647644043,7.584956291411722,6.886391284000024,30.28016955983501,25.09620174892359,0.0001295089750783,0.0931989923119545,0,0,0
2465,85398.71953153425,2010-11-02 14:06:56,4982.520064332121,2,8,0.5501165986061096,4.13004207611084,7.589542736292524,6.886391284000024,30.299104699446097,25.09620174892359,9.70840483205393e-05,0.0931989923119545,0,0,0
2466,85428.73478389689,2010-11-02 14:07:26,5012.53531669475,2,8,0.5504778623580933,4.133441925048828,7.594129280195811,6.886391284000024,30.3180551437179,25.09620174892359,9.71794142969884e-05,0.0931989923119545,0,0,0
2467,85458.75005875566,2010-11-02 14:07:56,5042.550591553531,2,8,0.5501165986061096,4.136679649353027,7.598715798756181,6.886391284000024,30.337020417346743,25.09620174892359,9.71794142969884e-05,0.0931989923119545,0,0,0
2468,85488.76535449657,2010-11-02 14:08:26,5072.565887299451,2,8,0.5501165986061096,4.140079021453857,7.603302296497539,6.886391284000024,30.356000712866617,25.09620174892359,0.0001295089750783,0.0931989923119545,0,0,0
2469,85518.78073965569,2010-11-02 14:08:56,5102.581272453547,2,8,0.5501165986061096,4.143316745758057,7.607888807581096,6.886391284000024,30.37499634752537,25.09620174892359,9.70840483205393e-05,0.0931989923119545,0,0,0
2470,85548.795898154,2010-11-02 14:09:26,5132.596430961901,2,8,0.5499359965324402,4.146716594696045,7.612475290030642,6.886391284000024,30.39400746354793,25.09620174892359,6.47544875391759e-05,0.0931989923119545,0,0,0
2471,85578.81118540371,2010-11-02 14:09:56,5162.611718221638,2,8,0.5499359965324402,4.150115966796875,7.617061737533389,6.886391284000024,30.413034059153045,25.09620174892359,6.47544875391759e-05,0.0931989923119545,0,0,0
2472,85608.82647188651,2010-11-02 14:10:26,5192.627004684385,2,8,0.5499359965324402,4.153515815734863,7.621648246016018,6.886391284000024,30.432076587843035,25.09620174892359,6.47544875391759e-05,0.0931989923119545,0,0,0
2473,85638.84173126165,2010-11-02 14:10:56,5222.642264069544,2,8,0.5501165986061096,4.157077312469482,7.626234704073517,6.886391284000024,30.45113455990965,25.09620174892359,0.0001295089750783,0.0931989923119545,0,0,0
2474,85668.85701971938,2010-11-02 14:11:26,5252.657552542308,2,8,0.5501165986061096,4.1604766845703125,7.630821133547402,6.886391284000024,30.470208271927117,25.09620174892359,9.70840483205393e-05,0.0931989923119545,0,0,0
2475,85698.87228810202,2010-11-02 14:11:56,5282.672820924924,2,8,0.5501165986061096,4.164038181304932,7.635407589858329,6.886391284000024,30.48929802007,25.09620174892359,0.0001295089750783,0.0931989923119545,0,0,0
2476,85728.88757773265,2010-11-02 14:12:26,5312.6881105555785,2,8,0.5499359965324402,4.16743803024292,7.639994067921426,6.886391284000024,30.508403752617458,25.09620174892359,9.71794142969884e-05,0.0931989923119545,0,0,0
2477,85758.90284177443,2010-11-02 14:12:56,5342.703374572297,2,8,0.5501165986061096,4.17083740234375,7.644580539580585,6.886391284000024,30.527525676439502,25.09620174892359,6.47544875391759e-05,0.0931989923119545,0,0,0
2478,85788.91812356553,2010-11-02 14:13:26,5372.718656393459,2,8,0.550297200679779,4.174561023712158,7.649167051811221,6.886391284000024,30.546664069501183,25.09620174892359,0.0001295089750783,0.0931989923119545,0,0,0
2479,85818.9334175721,2010-11-02 14:13:56,5402.733950379988,2,8,0.5501165986061096,4.178122520446777,7.65375354130502,6.886391284000024,30.56581868825664,25.09620174892359,0.0001295089750783,0.0931989923119545,0,0,0
2480,85848.9486891527,2010-11-02 14:14:26,5432.749221975623,2,8,0.5501165986061096,4.1816840171813965,7.658340016984462,6.886391284000024,30.58498978556799,25.09620174892359,0.0001295089750783,0.0931989923119545,0,0,0
2481,85878.96396876835,2010-11-02 14:14:56,5462.764501566217,2,8,0.5499359965324402,4.185083389282227,7.662926504261601,6.886391284000024,30.604177467433395,25.09620174892359,3.23295607813634e-05,0.0931989923119545,0,0,0
2482,85908.97926150677,2010-11-02 14:15:26,5492.779794329693,2,8,0.5499359965324402,4.188968658447266,7.667512886555146,6.886391284000024,30.623381344796204,25.09620174892359,9.70840483205393e-05,0.0931989923119545,0,0,0
2483,85938.99452131298,2010-11-02 14:15:56,5522.795054115851,2,8,0.5501165986061096,4.192692279815674,7.672099312036355,6.886391284000024,30.64260221543747,25.09620174892359,9.71794142969884e-05,0.0931989923119545,0,0,0
2484,85969.00981624686,2010-11-02 14:16:26,5552.810349069794,2,8,0.5499359965324402,4.196091651916504,7.67668578832995,6.886391284000024,30.661840088596342,25.09620174892359,3.24249267578125e-05,0.0931989923119545,0,0,0
2485,85998.43133131486,2010-11-02 14:16:55,5582.23186411774,2,8,0.550297200679779,4.200138568878174,7.681181483389656,6.886391284000024,30.680713604367728,25.09620174892359,0.0001295089750783,0.0931989923119545,0,0,0
2486,86028.44610660156,2010-11-02 14:17:25,30.01511512004966,3,8,0.0,4.114986896514893,7.681181483389656,6.886391284000024,30.680713604367728,25.09620174892359,-0.0003885269106831,0.0931989923119545,0,0,0
2487,86058.461416182,2010-11-02 14:17:55,60.03042470050241,3,8,0.0,4.104464530944824,7.681181483389656,6.886391284000024,30.680713604367728,25.09620174892359,-0.0002590179501567,0.0931989923119545,0,0,0
2488,86088.47677652417,2010-11-02 14:18:26,90.04578505770172,3,8,0.0,4.098312854766846,7.681181483389656,6.886391284000024,30.680713604367728,25.09620174892359,-0.0001295089750783,0.0931989923119545,0,0,0
2489,86118.44519692201,2010-11-02 14:18:55,120.01420546556598,3,8,0.0,4.094265460968018,7.681181483389656,6.886391284000024,30.680713604367728,25.09620174892359,-9.71794142969884e-05,0.0931989923119545,0,0,0
2490,86118.44614223464,2010-11-02 14:18:56,2.661643873e-06,4,8,0.9855656027793884,4.199814796447754,7.681181484118329,6.886391284000024,30.680713607428025,25.09620174892359,0.0,0.0931989923119545,0,0,0
2491,86119.4148618779,2010-11-02 14:18:57,0.968722324957297,4,8,0.935175597667694,4.199653148651123,7.681438301098889,6.886391284000024,30.681792154694342,25.09620174892359,-3.23295607813634e-05,0.0931989923119545,0,0,0
2492,86121.61808613961,2010-11-02 14:18:59,3.171946601709652,4,8,0.8844243884086609,4.199653148651123,7.681993962210608,6.886391284000024,30.684125762626945,25.09620174892359,-3.23295607813634e-05,0.0931989923119545,0,0,0
2493,86124.9773086458,2010-11-02 14:19:02,6.531169092851002,4,8,0.8340343832969666,4.199814796447754,7.682794624641075,6.886391284000024,30.687488310478557,25.09620174892359,3.23295607813634e-05,0.0931989923119545,0,0,0
2494,86129.55547607604,2010-11-02 14:19:07,11.109336553165402,4,8,0.783644437789917,4.199814796447754,7.683821967543476,6.886391284000024,30.69180287315097,25.09620174892359,0.0,0.0931989923119545,0,0,0
2495,86135.5709070572,2010-11-02 14:19:13,17.124767504270277,4,8,0.7334350347518921,4.199653148651123,7.685087835176977,6.886391284000024,30.697119178452336,25.09620174892359,0.0,0.0931989923119545,0,0,0
2496,86143.35209563602,2010-11-02 14:19:21,24.90595608306889,4,8,0.6834062337875366,4.199653148651123,7.686616909624278,6.886391284000024,30.703540902817583,25.09620174892359,-3.23295607813634e-05,0.0931989923119545,0,0,0
2497,86153.8363306646,2010-11-02 14:19:31,35.39019111165948,4,8,0.6333774924278259,4.199814796447754,7.688531044627244,6.886391284000024,30.711579763498243,25.09620174892359,0.0,0.0931989923119545,0,0,0
2498,86168.72681751061,2010-11-02 14:19:46,50.280677967696285,4,8,0.583168089389801,4.199653148651123,7.691041187629406,6.886391284000024,30.72212172905888,25.09620174892359,-3.23295607813634e-05,0.0931989923119545,0,0,0
2499,86191.6640366935,2010-11-02 14:20:09,73.21789717062975,4,8,0.5331393480300903,4.199653148651123,7.694586353214289,6.886391284000024,30.73701051545038,25.09620174892359,-3.23295607813634e-05,0.0931989923119545,0,0,0
2500,86232.1479465909,2010-11-02 14:20:49,113.70180705800249,4,8,0.4831105768680572,4.199814796447754,7.700274276795974,6.886391284000024,30.76089838846094,25.09620174892359,0.0,0.0931989923119545,0,0,0
2501,86303.95960511852,2010-11-02 14:22:01,185.51346556558485,4,8,0.4330818057060241,4.199491024017334,7.709374923431482,6.886391284000024,30.799118798328287,25.09620174892359,0.0,0.0931989923119545,0,0,0
2502,86408.02107953314,2010-11-02 14:23:45,289.5749399902063,4,8,0.3830530345439911,4.199491024017334,7.721150958908687,6.886391284000024,30.8485751954872,25.09620174892359,-3.24249267578125e-05,0.0931989923119545,0,0,0
2503,86537.66003819842,2010-11-02 14:25:55,419.2138986504775,4,8,0.333024263381958,4.199491024017334,7.734029338564096,6.886391284000024,30.902661155104,25.09620174892359,-6.47544875391759e-05,0.0931989923119545,0,0,0
2504,86691.58012369684,2010-11-02 14:28:29,573.1339841438822,4,8,0.282634288072586,4.199653148651123,7.747182156065755,6.886391284000024,30.957899641880147,25.09620174892359,-3.23295607813634e-05,0.0931989923119545,0,0,0
2505,86877.843887808,2010-11-02 14:31:35,759.3977483703552,4,8,0.2326055020093917,4.199653148651123,7.760499510457382,6.886391284000024,31.013829172376525,25.09620174892359,0.0,0.0931989923119545,0,0,0
2506,87108.40358721846,2010-11-02 14:35:26,989.9574476705316,4,8,0.1825767308473587,4.199814796447754,7.773755233696543,6.886391284000024,31.06949988396452,25.09620174892359,0.0,0.0931989923119545,0,0,0
2507,87416.69677910012,2010-11-02 14:40:34,1298.2506395471771,4,8,0.1325479596853256,4.199491024017334,7.787169461465925,6.886391284000024,31.125836210685545,25.09620174892359,-6.47544875391759e-05,0.0931989923119545,0,0,0
2508,87900.76934489705,2010-11-02 14:48:38,1782.3232053441088,4,8,0.0825191959738731,4.199653148651123,7.801397507974191,6.886391284000024,31.185590340287,25.09620174892359,-3.23295607813634e-05,0.0931989923119545,0,0,0
2509,88464.13792819304,2010-11-02 14:58:01,2345.6917886401056,4,8,0.0498289167881011,4.199653148651123,7.811556417158478,6.886391284000024,31.22825521657037,25.09620174892359,0.0,0.0931989923119545,0,0,0
2510,88494.14983638743,2010-11-02 14:58:31,30.01515635798589,5,8,0.0,4.191882610321045,7.811556417158478,6.886391284000024,31.22825521657037,25.09620174892359,-3.24249267578125e-05,0.0931989923119545,0,0,0
2511,88524.14949882521,2010-11-02 14:59:01,60.01481879075076,5,8,0.0,4.190749645233154,7.811556417158478,6.886391284000024,31.22825521657037,25.09620174892359,-6.47544875391759e-05,0.0931989923119545,0,0,0
2512,88524.33458059817,2010-11-02 14:59:02,0.187625662519134,6,8,0.0001613661734154,4.190749645233154,7.811556425568599,6.886391284000024,31.22825525181508,25.09620174892359,0.0,0.0939245000481605,0,0,0
2513,88529.16263181677,2010-11-02 14:59:07,5.01567688615043,6,8,0.0005225847125984,4.190587520599365,7.811557346700758,6.886391284000024,31.228259112110045,25.09620174892359,-6.47544875391759e-05,0.0939245000481605,0,0,0
2514,88559.1753997231,2010-11-02 14:59:37,30.015378537580347,7,8,-1.0997490882873535,4.015589237213135,7.811557346700758,6.89555993957113,31.228259112110045,25.133214527194664,-0.0009065627818927,0.0939245000481605,0,0,0
2515,88589.19056502842,2010-11-02 15:00:07,60.030543852925184,7,8,-1.099568486213684,3.989039897918701,7.811557346700758,6.904728473476733,31.228259112110045,25.16990177086772,-0.0006151676061563,0.0939245000481605,0,0,0
2516,88619.20597741549,2010-11-02 15:00:37,90.04595622997405,7,8,-1.099568486213684,3.9709086418151855,7.811557346700758,6.913897001892877,31.228259112110045,25.206388610948007,-0.0003885269106831,0.0939245000481605,0,0,0
2517,88649.22114449524,2010-11-02 15:01:07,120.06112332977315,7,8,-1.099568486213684,3.956662654876709,7.811557346700758,6.923065494065223,31.228259112110045,25.24272816495257,-0.0003561496851034,0.0939245000481605,0,0,0
2518,88679.23656558905,2010-11-02 15:01:37,150.0765444035303,7,8,-1.099568486213684,3.944683074951172,7.811557346700758,6.932234001438368,31.228259112110045,25.278949048261538,-0.0003237724304199,0.0939245000481605,0,0,0
2519,88709.25174295949,2010-11-02 15:02:07,180.09172177396655,7,8,-1.099568486213684,3.9343223571777344,7.811557346700758,6.941402425990193,31.228259112110045,25.315067509737176,-0.0002590179501567,0.0939245000481605,0,0,0
2520,88739.26716634902,2010-11-02 15:02:37,210.1071451735293,7,8,-1.0997490882873535,3.924447298049927,7.811557346700758,6.950570921146889,31.228259112110045,25.35109360813508,-0.0002913951757363,0.0939245000481605,0,0,0
2521,88769.28229783491,2010-11-02 15:03:07,240.1222766494056,7,8,-1.0997490882873535,3.915381669998169,7.811557346700758,6.95973941967366,31.228259112110045,25.38703280385833,-0.0002266406954731,0.0939245000481605,0,0,0
2522,88799.29759047308,2010-11-02 15:03:37,270.1375692875678,7,8,-1.0997490882873535,3.9064781665802,7.811557346700758,6.968907866764275,31.228259112110045,25.42288933642428,-0.0002266406954731,0.0939245000481605,0,0,0
2523,88829.31289594327,2010-11-02 15:04:07,300.15287475776074,7,8,-1.0997490882873535,3.897898197174072,7.811557346700758,6.978076355359099,31.228259112110045,25.458666188401487,-0.0002266406954731,0.0939245000481605,0,0,0
2524,88859.32816540358,2010-11-02 15:04:37,330.1681442180674,7,8,-1.099568486213684,3.8894801139831534,7.811557346700758,6.98724484822577,31.228259112110045,25.494365379328013,-0.0002266406954731,0.0939245000481605,0,0,0
2525,88889.34345892395,2010-11-02 15:05:07,360.1834377484567,7,8,-1.0993878841400146,3.881385803222656,7.811557346700758,6.99641343066103,31.228259112110045,25.529988981310897,-0.0001942634553415,0.0939245000481605,0,0,0
2526,88919.35875268992,2010-11-02 15:05:37,390.1987315044091,7,8,-1.0993878841400146,3.873453378677368,7.811557346700758,7.005581992343905,31.228259112110045,25.565537892325125,-0.0001618862152099,0.0939245000481605,0,0,0
2527,88949.37406117264,2010-11-02 15:06:07,420.21403998712174,7,8,-1.099568486213684,3.86519718170166,7.811557346700758,7.014750587091607,31.228259112110045,25.6010128208703,-0.0001942634553415,0.0939245000481605,0,0,0
2528,88979.38938326432,2010-11-02 15:06:37,450.2293620788044,7,8,-1.0997490882873535,3.857102870941162,7.811557346700758,7.02391916984849,31.228259112110045,25.6364138713272,-0.0002590179501567,0.0939245000481605,0,0,0
2529,89009.40475831319,2010-11-02 15:07:07,480.2447371377015,7,8,-1.0997490882873535,3.849332332611084,7.811557346700758,7.033087724292706,31.228259112110045,25.671741596680945,-0.0001618862152099,0.0939245000481605,0,0,0
2530,89039.42005306162,2010-11-02 15:07:37,510.2600318761061,7,8,-1.0993878841400146,3.841561794281006,7.811557346700758,7.042256238739055,31.228259112110045,25.706997398188637,-0.0001942634553415,0.0939245000481605,0,0,0
2531,89069.43527372011,2010-11-02 15:08:07,540.275252534596,7,8,-1.0997490882873535,3.833791255950928,7.811557346700758,7.051424753438875,31.228259112110045,25.742182465946133,-0.0002266406954731,0.0939245000481605,0,0,0
2532,89099.45048748139,2010-11-02 15:08:37,570.2904663008818,7,8,-1.0997490882873535,3.826182842254639,7.811557346700758,7.060593177740407,31.228259112110045,25.777298183416693,-0.0002266406954731,0.0939245000481605,0,0,0
2533,89129.46577515214,2010-11-02 15:09:07,600.3057539666321,7,8,-1.0997490882873535,3.818736076354981,7.811557346700758,7.069761713426416,31.228259112110045,25.81234553157913,-0.0002266406954731,0.0939245000481605,0,0,0
2534,89159.48108516369,2010-11-02 15:09:37,630.3210639831733,7,8,-1.0997490882873535,3.811289310455322,7.811557346700758,7.078930181261926,31.228259112110045,25.84732427449797,-0.0001618862152099,0.0939245000481605,0,0,0
2535,89189.4965637911,2010-11-02 15:10:07,660.3365426256308,7,8,-1.0997490882873535,3.804004430770874,7.811557346700758,7.088098653900534,31.228259112110045,25.88223532245268,-0.0002590179501567,0.0939245000481605,0,0,0
2536,89219.51188500559,2010-11-02 15:10:37,690.3518638551616,7,8,-1.0997490882873535,3.796881437301636,7.811557346700758,7.097267097838429,31.228259112110045,25.917080300574288,-0.0001942634553415,0.0939245000481605,0,0,0
2537,89249.52693622113,2010-11-02 15:11:07,720.3669150406206,7,8,-1.0997490882873535,3.7900822162628174,7.811557346700758,7.106435470346698,31.228259112110045,25.95186047903827,-0.0001295089750783,0.0939245000481605,0,0,0
2538,89279.5422201375,2010-11-02 15:11:37,750.3821989519994,7,8,-1.099568486213684,3.783282995223999,7.811557346700758,7.115603907277052,31.228259112110045,25.986578439732984,-0.0002266406954731,0.0939245000481605,0,0,0
2539,89309.55751898618,2010-11-02 15:12:07,780.397497800664,7,8,-1.099568486213684,3.7768075466156006,7.811557346700758,7.124772342902304,31.228259112110045,26.021235785710733,-0.0001618862152099,0.0939245000481605,0,0,0
2540,89339.57290880191,2010-11-02 15:12:37,810.4128876163963,7,8,-1.099568486213684,3.770332098007202,7.811557346700758,7.133940834737185,31.228259112110045,26.055833453324382,-0.0001618862152099,0.0939245000481605,0,0,0
2541,89369.58809276379,2010-11-02 15:13:07,840.4280715782858,7,8,-1.0997490882873535,3.7640185356140137,7.811557346700758,7.143109287787703,31.228259112110045,26.090372246214827,-0.0001618862152099,0.0939245000481605,0,0,0
2542,89399.60335747726,2010-11-02 15:13:37,870.443336316806,7,8,-1.099568486213684,3.757866859436035,7.811557346700758,7.152277648161994,31.228259112110045,26.12485362818169,-0.0001618862152099,0.0939245000481605,0,0,0
2543,89429.6186737043,2010-11-02 15:14:07,900.4586525187874,7,8,-1.0997490882873535,3.751715421676636,7.811557346700758,7.161446113951833,31.228259112110045,26.15927880411228,-0.0001295089750783,0.0939245000481605,0,0,0
2544,89459.63393677365,2010-11-02 15:14:37,930.4739155881412,7,8,-1.0997490882873535,3.745887517929077,7.811557346700758,7.170614482237398,31.228259112110045,26.193648377859866,-0.0001618862152099,0.0939245000481605,0,0,0
2545,89489.64921637929,2010-11-02 15:15:07,960.4891951987848,7,8,-1.0997490882873535,3.739735841751098,7.811557346700758,7.179782994231632,31.228259112110045,26.227964275745403,-0.0001942634553415,0.0939245000481605,0,0,0
2546,89519.66450454628,2010-11-02 15:15:37,990.5044833908488,7,8,-1.0993878841400146,3.73406982421875,7.811557346700758,7.188951366039492,31.228259112110045,26.26222553183809,-0.0001295089750783,0.0939245000481605,0,0,0
2547,89549.67980264308,2010-11-02 15:16:07,1020.5197814675864,7,8,-1.099568486213684,3.728241920471192,7.811557346700758,7.198119721828336,31.228259112110045,26.29643309433624,-0.0001618862152099,0.0939245000481605,0,0,0
2548,89579.69509605817,2010-11-02 15:16:37,1050.535074872663,7,8,-1.099568486213684,3.7227377891540527,7.811557346700758,7.207288090787587,31.228259112110045,26.33058929091556,-9.713172767078504e-05,0.0939245000481605,0,0,0
2549,89609.71071501086,2010-11-02 15:17:07,1080.5506938303688,7,8,-1.099568486213684,3.717071771621704,7.811557346700758,7.216456553676164,31.228259112110045,26.36469504380792,-0.0001618862152099,0.0939245000481605,0,0,0
2550,89639.7256491993,2010-11-02 15:17:37,1110.5656280187852,7,8,-1.099568486213684,3.711729526519776,7.811557346700758,7.225624890332872,31.228259112110045,26.39874999510853,-0.0001295089750783,0.0939245000481605,0,0,0
2551,89669.74094725096,2010-11-02 15:18:07,1140.580926065448,7,8,-1.0997490882873535,3.7062253952026367,7.811557346700758,7.234793305612789,31.228259112110045,26.43275597786649,-0.0001618862152099,0.0939245000481605,0,0,0
2552,89699.75623041045,2010-11-02 15:18:37,1170.59620922495,7,8,-1.099929690361023,3.701045036315918,7.811557346700758,7.243961646139971,31.228259112110045,26.46671350393701,-0.0001618862152099,0.0939245000481605,0,0,0
2553,89729.77161899312,2010-11-02 15:19:07,1200.611597812617,7,8,-1.099568486213684,3.695864677429199,7.811557346700758,7.253130084847322,31.228259112110045,26.500623744191248,-0.0001618862152099,0.0939245000481605,0,0,0
2554,89759.78690696463,2010-11-02 15:19:37,1230.626885779118,7,8,-1.0997490882873535,3.6908462047576895,7.811557346700758,7.262298510137727,31.228259112110045,26.534486646126084,-0.0001295089750783,0.0939245000481605,0,0,0
2555,89789.8020792674,2010-11-02 15:20:07,1260.6420580819045,7,8,-1.099568486213684,3.6858277320861816,7.811557346700758,7.271466869195375,31.228259112110045,26.56830268390832,-0.0001295089750783,0.0939245000481605,0,0,0
2556,89819.817489058,2010-11-02 15:20:37,1290.6574678724971,7,8,-1.099929690361023,3.680809259414673,7.811557346700758,7.280635346825163,31.228259112110045,26.60207369326796,-0.0001618862152099,0.0939245000481605,0,0,0
2557,89849.83263049877,2010-11-02 15:21:07,1320.6726093132472,7,8,-1.099568486213684,3.676114559173584,7.811557346700758,7.289803672770121,31.228259112110045,26.635798856479155,-9.713172767078504e-05,0.0939245000481605,0,0,0
2558,89879.8480403495,2010-11-02 15:21:37,1350.6880191639902,7,8,-1.099568486213684,3.671258211135864,7.811557346700758,7.298972085035645,31.228259112110045,26.669479535589,-9.713172767078504e-05,0.0939245000481605,0,0,0
2559,89909.86322172995,2010-11-02 15:22:07,1380.703200544436,7,8,-1.0997490882873535,3.666239738464356,7.811557346700758,7.30814045584003,31.228259112110045,26.70311546039216,-0.0001295089750783,0.0939245000481605,0,0,0
2560,89939.87849199223,2010-11-02 15:22:37,1410.7184708067443,7,8,-1.099568486213684,3.661706924438477,7.811557346700758,7.317308865870311,31.228259112110045,26.736708070809787,-0.0001295089750783,0.0939245000481605,0,0,0
2561,89969.89391661488,2010-11-02 15:23:07,1440.7338954393852,7,8,-1.099568486213684,3.657012224197388,7.811557346700758,7.326477391570856,31.228259112110045,26.770258386534564,-0.0001295089750783,0.0939245000481605,0,0,0
2562,89999.9092078395,2010-11-02 15:23:37,1470.749186664019,7,8,-1.099568486213684,3.652479410171509,7.811557346700758,7.335645817014586,31.228259112110045,26.803766022925075,-0.0001295089750783,0.0939245000481605,0,0,0
2563,90029.92434529531,2010-11-02 15:24:07,1500.7643241097971,7,8,-1.099568486213684,3.64778470993042,7.811557346700758,7.344814157339795,31.228259112110045,26.83723156646403,-0.0001295089750783,0.0939245000481605,0,0,0
2564,90059.93985509053,2010-11-02 15:24:38,1530.7798339350918,7,8,-1.099568486213684,3.643251895904541,7.811557346700758,7.353982570301735,31.228259112110045,26.87065574842889,-0.0001295089750783,0.0939245000481605,0,0,0
2565,90089.95490528853,2010-11-02 15:25:08,1560.7948841030109,7,8,-1.0993878841400146,3.639204740524292,7.811557346700758,7.363150884758417,31.228259112110045,26.90403986321025,-9.713172767078504e-05,0.0939245000481605,0,0,0
2566,90119.97019137532,2010-11-02 15:25:38,1590.81017018982,7,8,-1.0997490882873535,3.634833812713623,7.811557346700758,7.372319266301599,31.228259112110045,26.93738466095171,-0.0001295089750783,0.0939245000481605,0,0,0
2567,90149.98612116392,2010-11-02 15:26:08,1620.8260999784077,7,8,-1.099568486213684,3.630624771118164,7.811557346700758,7.381487876883457,31.228259112110045,26.97069168581734,-9.713172767078504e-05,0.0939245000481605,0,0,0
2568,90180.00081491216,2010-11-02 15:26:38,1650.8407938118612,7,8,-1.0997490882873535,3.626577615737915,7.811557346700758,7.39065610853895,31.228259112110045,27.003959197838373,-9.713172767078504e-05,0.0939245000481605,0,0,0
2569,90210.01607663816,2010-11-02 15:27:08,1680.8560554726992,7,8,-1.099568486213684,3.622530460357666,7.811557346700758,7.399824481565123,31.228259112110045,27.037190107477976,-0.0001295089750783,0.0939245000481605,0,0,0
2570,90240.03133094564,2010-11-02 15:27:38,1710.871309760132,7,8,-1.099568486213684,3.618483304977417,7.811557346700758,7.408992853281964,31.228259112110045,27.070383779792017,-6.47544875391759e-05,0.0939245000481605,0,0,0
2571,90270.04662805496,2010-11-02 15:28:08,1740.886606869455,7,8,-1.0997490882873535,3.614598035812378,7.811557346700758,7.418161298913401,31.228259112110045,27.10354115409353,-9.713172767078504e-05,0.0939245000481605,0,0,0
2572,90300.06190863805,2010-11-02 15:28:38,1770.901887457538,7,8,-1.0997490882873535,3.610712766647339,7.811557346700758,7.427329661630623,31.228259112110045,27.13666325517982,-9.713172767078504e-05,0.0939245000481605,0,0,0
2573,90330.07717553191,2010-11-02 15:29:08,1800.9171543464263,7,8,-1.099568486213684,3.6069893836975098,7.811557346700758,7.436498003281066,31.228259112110045,27.16975033053004,-9.713172767078504e-05,0.0939245000481605,0,0,0
2574,90360.09246400472,2010-11-02 15:29:38,1830.932442819191,7,8,-1.099929690361023,3.60342788696289,7.811557346700758,7.44566633310143,31.228259112110045,27.202803439701267,-9.713172767078504e-05,0.0939245000481605,0,0,0
2575,90390.10775994112,2010-11-02 15:30:08,1860.9477387605984,7,8,-1.0997490882873535,3.5998663902282715,7.811557346700758,7.454834708661673,31.228259112110045,27.23582426143203,-9.713172767078504e-05,0.0939245000481605,0,0,0
2576,90420.12317484446,2010-11-02 15:30:38,1890.9631536539289,7,8,-1.099568486213684,3.5963048934936523,7.811557346700758,7.46400310488839,31.228259112110045,27.26881323981373,-0.0001295089750783,0.0939245000481605,0,0,0
2577,90450.1383123504,2010-11-02 15:31:08,1920.978291169882,7,8,-1.099568486213684,3.592905282974243,7.811557346700758,7.473171453677517,31.228259112110045,27.30177071763932,-0.0001295089750783,0.0939245000481605,0,0,0
2578,90480.1535967179,2010-11-02 15:31:38,1950.9935755624613,7,8,-1.099568486213684,3.589667797088623,7.811557346700758,7.482339870770638,31.228259112110045,27.33469790831197,-9.713172767078504e-05,0.0939245000481605,0,0,0
2579,90510.16889538612,2010-11-02 15:32:08,1981.0088742006008,7,8,-1.099568486213684,3.586591958999634,7.811557346700758,7.491508252274304,31.228259112110045,27.367595543182738,-0.0001295089750783,0.0939245000481605,0,0,0
2580,90540.18416208954,2010-11-02 15:32:38,2011.0241409090384,7,8,-1.0997490882873535,3.5833542346954346,7.811557346700758,7.50067661459907,31.228259112110045,27.40046383311241,-9.713172767078504e-05,0.0939245000481605,0,0,0
2581,90570.19944074278,2010-11-02 15:33:08,2041.0394195572792,7,8,-1.099568486213684,3.5804402828216557,7.811557346700758,7.50984497684924,31.228259112110045,27.43330358846823,-6.47544875391759e-05,0.0939245000481605,0,0,0
2582,90600.21487579645,2010-11-02 15:33:38,2071.054854620958,7,8,-1.099568486213684,3.577364444732666,7.811557346700758,7.519013424088021,31.228259112110045,27.4661156720122,-6.47544875391759e-05,0.0939245000481605,0,0,0
2583,90630.23002261562,2010-11-02 15:34:08,2101.0700014301083,7,8,-1.0997490882873535,3.5742886066436768,7.811557346700758,7.528181780009407,31.228259112110045,27.49889997466541,-6.47544875391759e-05,0.0939245000481605,0,0,0
2584,90660.245439524,2010-11-02 15:34:38,2131.085418338468,7,8,-1.0997490882873535,3.5712127685546875,7.811557346700758,7.537350239143221,31.228259112110045,27.531657182082828,-9.713172767078504e-05,0.0939245000481605,0,0,0
2585,90690.26059814762,2010-11-02 15:35:08,2161.100576962109,7,8,-1.099568486213684,3.568460702896118,7.811557346700758,7.546518606223073,31.228259112110045,27.564386482061952,-3.237724376958795e-05,0.0939245000481605,0,0,0
2586,90720.27598800846,2010-11-02 15:35:38,2191.1159668229543,7,8,-1.099568486213684,3.565384864807129,7.811557346700758,7.55568700999447,31.228259112110045,27.59708850313633,-6.47544875391759e-05,0.0939245000481605,0,0,0
2587,90750.29115242657,2010-11-02 15:36:08,2221.1311312410594,7,8,-1.0997490882873535,3.5624709129333496,7.811557346700758,7.564855323546744,31.228259112110045,27.62976301914164,-6.47544875391759e-05,0.0939245000481605,0,0,0
2588,90780.30642580666,2010-11-02 15:36:38,2251.1464046211504,7,8,-1.0993878841400146,3.5595569610595703,7.811557346700758,7.574023680717803,31.228259112110045,27.662410677338155,-3.237724376958795e-05,0.0939245000481605,0,0,0
2589,90810.3217053822,2010-11-02 15:37:08,2281.1616841967066,7,8,-1.0997490882873535,3.556157350540161,7.811557346700758,7.583192124589131,31.228259112110045,27.69503051395959,-9.713172767078504e-05,0.0939245000481605,0,0,0
2590,90840.33701010556,2010-11-02 15:37:38,2311.176988925048,7,8,-1.099568486213684,3.553243398666382,7.811557346700758,7.59236056219187,31.228259112110045,27.72762183683833,-3.237724376958795e-05,0.0939245000481605,0,0,0
2591,90870.35228211722,2010-11-02 15:38:08,2341.1922609317103,7,8,-1.0997490882873535,3.5500056743621826,7.811557346700758,7.601528988596168,31.228259112110045,27.760184757711425,-9.713172767078504e-05,0.0939245000481605,0,0,0
2592,90900.3675602091,2010-11-02 15:38:38,2371.2075390235627,7,8,-1.0997490882873535,3.5469298362731934,7.811557346700758,7.610697440135676,31.228259112110045,27.792718667869224,-9.713172767078504e-05,0.0939245000481605,0,0,0
2593,90930.38296571396,2010-11-02 15:39:08,2401.222944548508,7,8,-1.0997490882873535,3.543692111968994,7.811557346700758,7.619865906814093,31.228259112110045,27.82522368856721,-6.47544875391759e-05,0.0939245000481605,0,0,0
2594,90960.39813901424,2010-11-02 15:39:38,2431.238117838759,7,8,-1.0993878841400146,3.540616273880005,7.811557346700758,7.629034309572956,31.228259112110045,27.85769873797786,-6.47544875391759e-05,0.0939245000481605,0,0,0
2595,90990.41345238916,2010-11-02 15:40:08,2461.253431288871,7,8,-1.099568486213684,3.5370547771453857,7.811557346700758,7.638202753894985,31.228259112110045,27.890143741733404,-9.713172767078504e-05,0.0939245000481605,0,0,0
2596,91020.4285752736,2010-11-02 15:40:38,2491.2685540880893,7,8,-1.0997490882873535,3.5334932804107666,7.811557346700758,7.647371129638252,31.228259112110045,27.922556920584867,-0.0001295089750783,0.0939245000481605,0,0,0
2597,91050.4439547786,2010-11-02 15:41:08,2521.283933598097,7,8,-1.099568486213684,3.5300936698913574,7.811557346700758,7.656539322990181,31.228259112110045,27.954937722652105,-0.0001295089750783,0.0939245000481605,0,0,0
2598,91080.45915279056,2010-11-02 15:41:38,2551.2991316150697,7,8,-1.099568486213684,3.5265321731567383,7.811557346700758,7.665707448761707,31.228259112110045,27.987285696609263,-0.0001295089750783,0.0939245000481605,0,0,0
2599,91110.47475502153,2010-11-02 15:42:08,2581.3147338359986,7,8,-1.0997490882873535,3.522808790206909,7.811557346700758,7.674875976828467,31.228259112110045,28.01960208984693,-0.0001295089750783,0.0939245000481605,0,0,0
2600,91140.49006122854,2010-11-02 15:42:38,2611.330040053056,7,8,-1.099568486213684,3.51924729347229,7.811557346700758,7.684044369608066,31.228259112110045,28.05188345038941,-6.47544875391759e-05,0.0939245000481605,0,0,0
2601,91170.5051176571,2010-11-02 15:43:08,2641.345096471577,7,8,-1.099568486213684,3.515038251876831,7.811557346700758,7.69321272708522,31.228259112110045,28.08412871963931,-0.0001295089750783,0.0939245000481605,0,0,0
2602,91200.52047835014,2010-11-02 15:43:38,2671.360457164615,7,8,-1.0997490882873535,3.510667562484741,7.811557346700758,7.702381613257042,31.228259112110045,28.116338230542897,-0.0001618862152099,0.0939245000481605,0,0,0
2603,91230.53564142987,2010-11-02 15:44:08,2701.375620244379,7,8,-1.0997490882873535,3.5062966346740723,7.811557346700758,7.711550738807214,31.228259112110045,28.14850916262873,-0.0001295089750783,0.0939245000481605,0,0,0
2604,91260.55095446898,2010-11-02 15:44:38,2731.39093329349,7,8,-1.099929690361023,3.501440048217773,7.811557346700758,7.720719793345444,31.228259112110045,28.18063750189624,-0.0001618862152099,0.0939245000481605,0,0,0
2605,91290.5662223804,2010-11-02 15:45:08,2761.406201194906,7,8,-1.099568486213684,3.4965834617614746,7.811557346700758,7.729888994803951,31.228259112110045,28.212720949393425,-0.0001295089750783,0.0939245000481605,0,0,0
2606,91320.58149974546,2010-11-02 15:45:38,2791.421478564956,7,8,-1.0997490882873535,3.490755558013916,7.811557346700758,7.73905817045679,31.228259112110045,28.244754703035948,-0.0001618862152099,0.0939245000481605,0,0,0
2607,91350.59680862416,2010-11-02 15:46:08,2821.4367874486697,7,8,-1.0997490882873535,3.4844419956207275,7.811557346700758,7.748227407075197,31.228259112110045,28.27673422971392,-0.0001942634553415,0.0939245000481605,0,0,0
2608,91380.61222069542,2010-11-02 15:46:38,2851.4521995099303,7,8,-1.0997490882873535,3.477480888366699,7.811557346700758,7.757396317849448,31.228259112110045,28.308651949286475,-0.0001942634553415,0.0939245000481605,0,0,0
2609,91410.6273461112,2010-11-02 15:47:08,2881.46732492568,7,8,-1.0997490882873535,3.469224691390991,7.811557346700758,7.76656462901965,31.228259112110045,28.34049809075458,-0.0002590179501567,0.0939245000481605,0,0,0
2610,91440.642781636,2010-11-02 15:47:38,2911.4827604605343,7,8,-1.099568486213684,3.459835290908813,7.811557346700758,7.77573309652734,31.228259112110045,28.372264142017148,-0.0002913951757363,0.0939245000481605,0,0,0
2611,91470.6580668707,2010-11-02 15:48:08,2941.4980456851918,7,8,-1.0997490882873535,3.448665142059326,7.811557346700758,7.78490148599189,31.228259112110045,28.40393519330973,-0.0002913951757363,0.0939245000481605,0,0,0
2612,91500.6733197346,2010-11-02 15:48:38,2971.5132985490704,7,8,-1.099568486213684,3.4349048137664795,7.811557346700758,7.794069914595081,31.228259112110045,28.435492578180167,-0.0004209041653666,0.0939245000481605,0,0,0
2613,91530.68847567152,2010-11-02 15:49:08,3001.5284544860056,7,8,-1.0997490882873535,3.4175832271575928,7.811557346700758,7.803238258551956,31.228259112110045,28.46690891867505,-0.0005180359003134,0.0939245000481605,0,0,0
2614,91560.703891031,2010-11-02 15:49:38,3031.543869845498,7,8,-1.0997490882873535,3.396052360534668,7.811557346700758,7.812406657707492,31.228259112110045,28.498148045290858,-0.0006151676061563,0.0939245000481605,0,0,0
2615,91590.71905326366,2010-11-02 15:50:08,3061.559032078149,7,8,-1.0997490882873535,3.367560386657715,7.811557346700758,7.821575033525826,31.228259112110045,28.529158692086103,-0.0008094310760498,0.0939245000481605,0,0,0
2616,91620.7343283881,2010-11-02 15:50:38,3091.5743072025944,7,8,-1.099929690361023,3.3290317058563232,7.811557346700758,7.830743442659958,31.228259112110045,28.559865648547515,-0.0011979580158367,0.0939245000481605,0,0,0
2617,91650.74974304585,2010-11-02 15:51:08,3121.5897218603363,7,8,-1.0997490882873535,3.275933027267456,7.811557346700758,7.839911859170583,31.228259112110045,28.5901584709614,-0.0016512393485754,0.0939245000481605,0,0,0
2618,91680.76494204026,2010-11-02 15:51:38,3151.604920859761,7,8,-1.0997490882873535,3.2006561756134038,7.811557346700758,7.849080238629701,31.228259112110045,28.61987102674026,-0.0023635388351976,0.0939245000481605,0,0,0
2619,91710.7801958515,2010-11-02 15:52:08,3181.620174665993,7,8,-1.099568486213684,3.087174415588379,7.811557346700758,7.858248631905996,31.228259112110045,28.648736265309942,-0.0036586285568773,0.0939245000481605,0,0,0
2620,91738.9675533774,2010-11-02 15:52:37,3209.807532216957,7,8,-1.0997490882873535,2.8869216442108154,7.811557346700758,7.866858637384065,31.228259112110045,28.674573548987,-0.0079971794039011,0.0939245000481605,0,0,0
2621,91753.6546967869,2010-11-02 15:52:51,3224.494675601405,7,8,-1.099929690361023,2.699781894683838,7.811557346700758,7.87134492029198,31.228259112110045,28.68712619845145,-0.011170101352036,0.0939245000481605,0,0,0
2622,91813.67233347468,2010-11-02 15:53:51,60.01482677066987,8,8,0.0,3.324984550476074,7.811557346700758,7.87134492029198,31.228259112110045,28.68712619845145,0.0012303352123126,0.0939245000481605,0,0,0
2623,91813.86324056923,2010-11-02 15:53:52,0.187416259817776,9,8,-1.9243103452026844e-05,3.326117753982544,7.811557346700758,7.871344921293777,31.228259112110045,28.687126201783546,0.0,0.0938397273421287,0,0,0
2624,91818.69143896025,2010-11-02 15:53:57,5.015614660826447,9,8,0.0007031940040178,3.3330788612365723,7.811558231715446,7.871344921293777,31.22826205886798,28.687126201783546,0.0011332035064697,0.0938397273421287,0,0,0
