Data_Point,Test_Time(s),Date_Time,Step_Time(s),Step_Index,Cycle_Index,Current(A),Voltage(V),Charge_Capacity(Ah),Discharge_Capacity(Ah),Charge_Energy(Wh),Discharge_Energy(Wh),dV/dt(V/s),Internal_Resistance(Ohm),Is_FC_Data,AC_Impedance(Ohm),ACI_Phase_Angle(Deg)
7248,253024.5068000841,2010-11-04 12:40:59,30.015385199208797,1,23,0.0,3.366427183151245,21.592468683116167,21.650255769172453,86.25293126615085,78.9307311153413,0.0007122993702068,0.0948198437690734,0,0,0
7249,253054.52194154487,2010-11-04 12:41:29,60.03052665499651,1,23,0.0,3.3892531394958496,21.592468683116167,21.650255769172453,86.25293126615085,78.9307311153413,0.0005180359003134,0.0948198437690734,0,0,0
7250,253084.53738104968,2010-11-04 12:41:59,90.04596615976033,1,23,0.0,3.4065749645233154,21.592468683116167,21.650255769172453,86.25293126615085,78.9307311153413,0.0004532813909463,0.0948198437690734,0,0,0
7251,253114.5056537639,2010-11-04 12:42:29,120.01423888398348,1,23,0.0,3.420173406600952,21.592468683116167,21.650255769172453,86.25293126615085,78.9307311153413,0.0003561496851034,0.0948198437690734,0,0,0
7252,253144.51951779937,2010-11-04 12:42:59,30.01528918454141,2,23,0.5497553944587708,3.5825448036193848,21.59705534128568,21.650255769172453,86.26919341507616,78.9307311153413,0.0016512393485754,0.0948198437690734,0,0,0
7253,253174.53477924468,2010-11-04 12:43:29,60.03055062984141,2,23,0.5499359965324402,3.633214950561523,21.60164204932545,21.650255769172453,86.28574960719877,78.9307311153413,0.0011008263099938,0.0948198437690734,0,0,0
7254,253204.5500705896,2010-11-04 12:43:59,90.0458419747755,2,23,0.5501165986061096,3.6704487800598153,21.60622872902932,21.650255769172453,86.30250376252383,78.9307311153413,0.0008741855854168,0.0948198437690734,0,0,0
7255,253234.56536611,2010-11-04 12:44:29,120.06113749513209,2,23,0.5501165986061096,3.6994261741638175,21.61081532879629,21.650255769172453,86.31940792291634,78.9307311153413,0.0006475448608398,0.0948198437690734,0,0,0
7256,253264.5806532043,2010-11-04 12:44:59,150.076424589456,2,23,0.5504778623580933,3.723547220230103,21.61540199804853,21.650255769172453,86.33643313666109,78.9307311153413,0.0005827903514727,0.0948198437690734,0,0,0
7257,253294.59589860955,2010-11-04 12:45:29,180.09167001978014,2,23,0.550297200679779,3.7432973384857178,21.61998863877342,21.650255769172453,86.35355839219173,78.9307311153413,0.0004856586456298,0.0948198437690734,0,0,0
7258,253324.6113052924,2010-11-04 12:45:59,210.10707668757783,2,23,0.5501165986061096,3.759485721588135,21.624575264870465,21.650255769172453,86.37076643652382,78.9307311153413,0.0003885269106831,0.0948198437690734,0,0,0
7259,253354.626516778,2010-11-04 12:46:29,240.1222881631457,2,23,0.5501165986061096,3.770493984222412,21.629161881787923,21.650255769172453,86.38803723918895,78.9307311153413,0.0002590179501567,0.0948198437690734,0,0,0
7260,253384.64176965188,2010-11-04 12:46:59,270.1375410370502,2,23,0.5499359965324402,3.777131319046021,21.63374847917216,21.650255769172453,86.40534764279585,78.9307311153413,0.0001295089750783,0.0948198437690734,0,0,0
7261,253414.65715524208,2010-11-04 12:47:30,300.15292662723493,2,23,0.5501165986061096,3.7816641330718994,21.6383351083244,21.650255769172453,86.42268296595589,78.9307311153413,0.0001295089750783,0.0948198437690734,0,0,0
7262,253444.67224131964,2010-11-04 12:48:00,330.16801270479004,2,23,0.5501165986061096,3.7855494022369385,21.6429217194965,21.650255769172453,86.4400371912802,78.9307311153413,6.47544875391759e-05,0.0948198437690734,0,0,0
7263,253474.68758679467,2010-11-04 12:48:30,360.1833581898662,2,23,0.5501165986061096,3.789272785186768,21.64750833479915,21.650255769172453,86.4574086860234,78.9307311153413,9.713172767078504e-05,0.0948198437690734,0,0,0
7264,253504.70281879648,2010-11-04 12:49:00,390.1985901816458,2,23,0.5501165986061096,3.7928342819213863,21.65209492980056,21.650255769172453,86.47479658875432,78.9307311153413,9.713172767078504e-05,0.0948198437690734,0,0,0
7265,253534.7181939256,2010-11-04 12:49:30,420.2139653107179,2,23,0.5501165986061096,3.796233892440796,21.656681485032536,21.650255769172453,86.49220052457552,78.9307311153413,0.0001295089750783,0.0948198437690734,0,0,0
7266,253564.7335118919,2010-11-04 12:50:00,450.2292832771032,2,23,0.5501165986061096,3.799633502960205,21.661268325458472,21.650255769172453,86.50962122904035,78.9307311153413,9.713172767078504e-05,0.0948198437690734,0,0,0
7267,253594.74897759207,2010-11-04 12:50:30,480.2447489772548,2,23,0.550297200679779,3.8030331134796143,21.665855601489422,21.650255769172453,86.5270590104614,78.9307311153413,9.713172767078504e-05,0.0948198437690734,0,0,0
7268,253624.7640486722,2010-11-04 12:51:00,510.259820057374,2,23,0.5501165986061096,3.8062708377838135,21.6704428286642,21.650255769172453,86.5445116278912,78.9307311153413,9.713172767078504e-05,0.0948198437690734,0,0,0
7269,253654.77933039813,2010-11-04 12:51:30,540.2751017832975,2,23,0.5501165986061096,3.8091847896575928,21.675030129677676,21.650255769172453,86.56197919266711,78.9307311153413,6.47544875391759e-05,0.0948198437690734,0,0,0
7270,253684.79473349705,2010-11-04 12:52:00,570.2905048821866,2,23,0.550297200679779,3.812584400177002,21.67961720742613,21.650255769172453,86.57946029742729,78.9307311153413,0.0001295089750783,0.0948198437690734,0,0,0
7271,253714.809901464,2010-11-04 12:52:30,600.305672874213,2,23,0.5501165986061096,3.815660238265991,21.68420371873707,21.650255769172453,86.5969538072777,78.9307311153413,6.47544875391759e-05,0.0948198437690734,0,0,0
7272,253744.82533286847,2010-11-04 12:53:00,630.3211042637199,2,23,0.550297200679779,3.8188979625701904,21.688790269452387,21.650255769172453,86.61446151861844,78.9307311153413,0.0001295089750783,0.0948198437690734,0,0,0
7273,253774.8404733569,2010-11-04 12:53:30,660.3362447470803,2,23,0.5501165986061096,3.8218119144439697,21.693376823482097,21.650255769172453,86.63198328518955,78.9307311153413,6.47544875391759e-05,0.0948198437690734,0,0,0
7274,253804.856564794,2010-11-04 12:54:00,690.35233620923,2,23,0.5501165986061096,3.824887752532959,21.697963510430668,21.650255769172453,86.64951949452278,78.9307311153413,9.713172767078504e-05,0.0948198437690734,0,0,0
7275,253834.8710448889,2010-11-04 12:54:30,720.3668162740842,2,23,0.550297200679779,3.827963590621948,21.70254987643587,21.650255769172453,86.66706872528859,78.9307311153413,9.713172767078504e-05,0.0948198437690734,0,0,0
7276,253864.88631374275,2010-11-04 12:55:00,750.3820851278768,2,23,0.550297200679779,3.831363201141357,21.707136309257297,21.650255769172453,86.68463262093613,78.9307311153413,0.0001295089750783,0.0948198437690734,0,0,0
7277,253894.9010954154,2010-11-04 12:55:30,780.3968664898149,2,23,0.5501165986061096,3.8342769145965576,21.711722751188464,21.650255769172453,86.7022112237076,78.9307311153413,9.713172767078504e-05,0.0948198437690734,0,0,0
7278,253924.9012823274,2010-11-04 12:56:00,810.3970537125364,2,23,0.5499359965324402,3.8378384113311768,21.716306878956207,21.650255769172453,86.71979605190876,78.9307311153413,0.0001295089750783,0.0948198437690734,0,0,0
7279,253954.91669069944,2010-11-04 12:56:30,840.412462084588,2,23,0.5501165986061096,3.841238021850586,21.7208933540835,21.650255769172453,86.73740523516527,78.9307311153413,0.0001295089750783,0.0948198437690734,0,0,0
7280,253984.9319035033,2010-11-04 12:57:00,870.4276750338344,2,23,0.5501165986061096,3.844475746154785,21.7254799021367,21.650255769172453,86.75503022532055,78.9307311153413,9.713172767078504e-05,0.0948198437690734,0,0,0
7281,254014.94768902176,2010-11-04 12:57:30,900.4434604019264,2,23,0.5501165986061096,3.847713470458984,21.73006661286808,21.650255769172453,86.77267139765246,78.9307311153413,6.47544875391759e-05,0.0948198437690734,0,0,0
7282,254044.96242888013,2010-11-04 12:58:00,930.4582003755528,2,23,0.5501165986061096,3.8511130809783936,21.73465305827464,21.650255769172453,86.79032688781129,78.9307311153413,6.47544875391759e-05,0.0948198437690734,0,0,0
7283,254074.9776678894,2010-11-04 12:58:30,960.4734392996364,2,23,0.5501165986061096,3.8545126914978023,21.739239654624235,21.650255769172453,86.80799811484212,78.9307311153413,6.47544875391759e-05,0.0948198437690734,0,0,0
7284,254104.9935140693,2010-11-04 12:59:00,990.4892854544612,2,23,0.5499359965324402,3.857588529586792,21.743826221479903,21.650255769172453,86.82568410207656,78.9307311153413,3.237724376958795e-05,0.0948198437690734,0,0,0
7285,254135.00825178227,2010-11-04 12:59:30,1020.5040231925076,2,23,0.5501165986061096,3.860826253890991,21.748412629760796,21.650255769172453,86.84338413597543,78.9307311153413,9.713172767078504e-05,0.0948198437690734,0,0,0
7286,254165.0236603699,2010-11-04 13:00:00,1050.5194317600472,2,23,0.5501165986061096,3.863902091979981,21.75299917797356,21.650255769172453,86.86109911698571,78.9307311153413,6.47544875391759e-05,0.0948198437690734,0,0,0
7287,254195.03879609136,2010-11-04 13:00:30,1080.5345675015712,2,23,0.5499359965324402,3.8669779300689697,21.757585663836657,21.650255769172453,86.87882781352825,78.9307311153413,9.713172767078504e-05,0.0948198437690734,0,0,0
7288,254225.0540959926,2010-11-04 13:01:00,1110.5498673778006,2,23,0.5501165986061096,3.869891881942749,21.76217221926013,21.650255769172453,86.89657053897288,78.9307311153413,9.713172767078504e-05,0.0948198437690734,0,0,0
7289,254255.0693642499,2010-11-04 13:01:30,1140.5651356351043,2,23,0.5501165986061096,3.8726439476013184,21.76675870906648,21.650255769172453,86.91432622173075,78.9307311153413,3.237724376958795e-05,0.0948198437690734,0,0,0
7290,254285.0847692636,2010-11-04 13:02:00,1170.5805406537856,2,23,0.5499359965324402,3.875396013259888,21.771345267387765,21.650255769172453,86.93209481079244,78.9307311153413,6.47544875391759e-05,0.0948198437690734,0,0,0
7291,254315.10005530028,2010-11-04 13:02:30,1200.5958267105195,2,23,0.550297200679779,3.878148078918457,21.775931753381748,21.650255769172453,86.94987522543775,78.9307311153413,6.47544875391759e-05,0.0948198437690734,0,0,0
7292,254345.1153719534,2010-11-04 13:03:00,1230.6111433385645,2,23,0.5497553944587708,3.880414485931397,21.780518290183757,21.650255769172453,86.96766741140901,78.9307311153413,6.47544875391759e-05,0.0948198437690734,0,0,0
7293,254375.1304984418,2010-11-04 13:03:30,1260.6262698269911,2,23,0.5501165986061096,3.882680892944336,21.78510475999044,21.650255769172453,86.98547027163887,78.9307311153413,3.237724376958795e-05,0.0948198437690734,0,0,0
7294,254405.14578149104,2010-11-04 13:04:00,1290.6415529012806,2,23,0.5501165986061096,3.8849472999572754,21.789691297276057,21.650255769172453,87.00328370985687,78.9307311153413,6.47544875391759e-05,0.0948198437690734,0,0,0
7295,254435.16105949768,2010-11-04 13:04:30,1320.6568308828575,2,23,0.5499359965324402,3.886889934539795,21.794277849509825,21.650255769172453,87.02110679605586,78.9307311153413,3.237724376958795e-05,0.0948198437690734,0,0,0
7296,254465.17635686268,2010-11-04 13:05:00,1350.6721282478186,2,23,0.550297200679779,3.8888325691223145,21.79886435037429,21.650255769172453,87.03893862969045,78.9307311153413,3.237724376958795e-05,0.0948198437690734,0,0,0
7297,254495.19162763623,2010-11-04 13:05:30,1380.6873990214035,2,23,0.5499359965324402,3.890451431274414,21.803450935320875,21.650255769172453,87.05677917737613,78.9307311153413,3.237724376958795e-05,0.0948198437690734,0,0,0
7298,254525.20714023343,2010-11-04 13:06:00,1410.7029116436795,2,23,0.5499359965324402,3.892232179641724,21.80803744765956,21.650255769172453,87.07462723483499,78.9307311153413,6.47544875391759e-05,0.0948198437690734,0,0,0
7299,254555.2223391577,2010-11-04 13:06:30,1440.71811055288,2,23,0.5499359965324402,3.893689155578613,21.81262388393428,21.650255769172453,87.09248223525282,78.9307311153413,3.237724376958795e-05,0.0948198437690734,0,0,0
7300,254585.2376909084,2010-11-04 13:07:00,1470.7334623086088,2,23,0.550297200679779,3.895146131515503,21.817210418071795,21.650255769172453,87.11034437837898,78.9307311153413,3.237724376958795e-05,0.0948198437690734,0,0,0
7301,254615.2527603945,2010-11-04 13:07:30,1500.7485318097868,2,23,0.5501165986061096,3.896441221237183,21.82179684435964,21.650255769172453,87.12821231113239,78.9307311153413,0.0,0.0948198437690734,0,0,0
7302,254645.2680380052,2010-11-04 13:08:00,1530.763809390363,2,23,0.5501165986061096,3.897898197174072,21.82638333260592,21.650255769172453,87.14608687850863,78.9307311153413,6.47544875391759e-05,0.0948198437690734,0,0,0
7303,254675.28331773612,2010-11-04 13:08:30,1560.7790891213065,2,23,0.5499359965324402,3.899193286895752,21.830969815455983,21.650255769172453,87.16396752366684,78.9307311153413,0.0,0.0948198437690734,0,0,0
7304,254705.2986364544,2010-11-04 13:09:00,1590.7944078445812,2,23,0.5499359965324402,3.900488376617432,21.835556420811425,21.650255769172453,87.18185459342537,78.9307311153413,3.237724376958795e-05,0.0948198437690734,0,0,0
7305,254735.3139053984,2010-11-04 13:09:30,1620.8096767885993,2,23,0.5501165986061096,3.9017834663391113,21.84014290429032,21.650255769172453,87.199747085867,78.9307311153413,3.237724376958795e-05,0.0948198437690734,0,0,0
7306,254765.3292019764,2010-11-04 13:10:00,1650.8249733615835,2,23,0.5501165986061096,3.903078556060791,21.84472943052769,21.650255769172453,87.21764559835043,78.9307311153413,6.47544875391759e-05,0.0948198437690734,0,0,0
7307,254795.3444590458,2010-11-04 13:10:30,1680.8402305161733,2,23,0.5501165986061096,3.904373645782471,21.849315950196356,21.650255769172453,87.23554998889796,78.9307311153413,3.237724376958795e-05,0.0948198437690734,0,0,0
7308,254825.3597527416,2010-11-04 13:11:00,1710.8555241267625,2,23,0.5501165986061096,3.9056687355041504,21.85390246514792,21.650255769172453,87.25346009802873,78.9307311153413,6.47544875391759e-05,0.0948198437690734,0,0,0
7309,254855.3750141117,2010-11-04 13:11:30,1740.870785496875,2,23,0.5501165986061096,3.90696382522583,21.85848898026457,21.650255769172453,87.27137605156852,78.9307311153413,6.47544875391759e-05,0.0948198437690734,0,0,0
7310,254885.39029603807,2010-11-04 13:12:00,1770.886067423299,2,23,0.5501165986061096,3.9082589149475098,21.863075433989675,21.650255769172453,87.28929762700906,78.9307311153413,6.47544875391759e-05,0.0948198437690734,0,0,0
7311,254915.40571503167,2010-11-04 13:12:30,1800.9014864369135,2,23,0.550297200679779,3.9097158908844,21.867661988148267,21.650255769172453,87.30722552826143,78.9307311153413,0.0001295089750783,0.0948198437690734,0,0,0
7312,254945.42089785577,2010-11-04 13:13:00,1830.9166692459253,2,23,0.5501165986061096,3.910687208175659,21.872248542811203,21.650255769172453,87.32515934337947,78.9307311153413,3.237724376958795e-05,0.0948198437690734,0,0,0
7313,254975.43628722537,2010-11-04 13:13:30,1860.932058610532,2,23,0.550297200679779,3.912144184112549,21.876835154339293,21.650255769172453,87.34309936172316,78.9307311153413,6.47544875391759e-05,0.0948198437690734,0,0,0
7314,255005.45146776875,2010-11-04 13:14:00,1890.9472391839631,2,23,0.5501165986061096,3.9132773876190186,21.881421645279307,21.650255769172453,87.3610449148426,78.9307311153413,3.237724376958795e-05,0.0948198437690734,0,0,0
7315,255035.4668482612,2010-11-04 13:14:30,1920.962619646348,2,23,0.5501165986061096,3.914896011352539,21.88600823735293,21.650255769172453,87.37899695779403,78.9307311153413,6.47544875391759e-05,0.0948198437690734,0,0,0
7316,255065.4820153309,2010-11-04 13:15:00,1950.977786716072,2,23,0.550297200679779,3.916029214859009,21.89059481502745,21.650255769172453,87.396954971614,78.9307311153413,6.47544875391759e-05,0.0948198437690734,0,0,0
7317,255095.4972753326,2010-11-04 13:15:30,1980.993046747844,2,23,0.5501165986061096,3.917324304580689,21.89518134938704,21.650255769172453,87.41491897154025,78.9307311153413,6.47544875391759e-05,0.0948198437690734,0,0,0
7318,255125.51256167504,2010-11-04 13:16:00,2011.008333060216,2,23,0.5499359965324402,3.918619394302368,21.899767797032748,21.650255769172453,87.43288878522911,78.9307311153413,0.0,0.0948198437690734,0,0,0
7319,255155.52786526555,2010-11-04 13:16:30,2041.0236366507168,2,23,0.5501165986061096,3.920076370239258,21.90435426059603,21.650255769172453,87.45086493862259,78.9307311153413,3.237724376958795e-05,0.0948198437690734,0,0,0
7320,255185.54314485617,2010-11-04 13:17:00,2071.0389162463225,2,23,0.5501165986061096,3.9213714599609375,21.908940780447125,21.650255769172453,87.46884757935396,78.9307311153413,0.0,0.0948198437690734,0,0,0
7321,255215.5584322512,2010-11-04 13:17:30,2101.0542036363845,2,23,0.5501165986061096,3.922828435897827,21.91352734392878,21.650255769172453,87.48683683157914,78.9307311153413,3.237724376958795e-05,0.0948198437690734,0,0,0
7322,255245.57369778672,2010-11-04 13:18:00,2131.069469171894,2,23,0.5499359965324402,3.924123525619507,21.918113876251063,21.650255769172453,87.50483233504201,78.9307311153413,0.0,0.0948198437690734,0,0,0
7323,255275.58910289564,2010-11-04 13:18:30,2161.084874305863,2,23,0.550297200679779,3.9257423877716064,21.92270043935457,21.650255769172453,87.52283443197935,78.9307311153413,6.47544875391759e-05,0.0948198437690734,0,0,0
7324,255305.604394812,2010-11-04 13:19:00,2191.1001661971613,2,23,0.5499359965324402,3.927037477493286,21.927286996443332,21.650255769172453,87.54084286616633,78.9307311153413,3.237724376958795e-05,0.0948198437690734,0,0,0
7325,255335.61953420265,2010-11-04 13:19:30,2221.1153056128564,2,23,0.5501165986061096,3.928494453430176,21.931873493928595,21.650255769172453,87.55885762879763,78.9307311153413,3.237724376958795e-05,0.0948198437690734,0,0,0
7326,255365.6348196779,2010-11-04 13:20:01,2251.1305910630767,2,23,0.5501165986061096,3.929789543151856,21.936460021628648,21.650255769172453,87.57687915787582,78.9307311153413,0.0,0.0948198437690734,0,0,0
7327,255395.65013021577,2010-11-04 13:20:31,2281.1459016009194,2,23,0.5501165986061096,3.931408405303955,21.94104661538686,21.650255769172453,87.59490764887298,78.9307311153413,6.47544875391759e-05,0.0948198437690734,0,0,0
7328,255425.6655211844,2010-11-04 13:21:01,2311.1612925795544,2,23,0.550297200679779,3.933027267456055,21.945633180914097,21.650255769172453,87.61294275617492,78.9307311153413,3.237724376958795e-05,0.0948198437690734,0,0,0
7329,255455.6806553369,2010-11-04 13:21:31,2341.176426727099,2,23,0.550297200679779,3.9343223571777344,21.950219681137742,21.650255769172453,87.63098438275145,78.9307311153413,3.237724376958795e-05,0.0948198437690734,0,0,0
7330,255485.69606717763,2010-11-04 13:22:01,2371.1918385728222,2,23,0.5501165986061096,3.935779333114624,21.95480621476364,21.650255769172453,87.64903304597583,78.9307311153413,3.237724376958795e-05,0.0948198437690734,0,0,0
7331,255515.71137222176,2010-11-04 13:22:31,2401.2071436069264,2,23,0.550297200679779,3.9375600814819336,21.95939274484048,21.650255769172453,87.66708843986778,78.9307311153413,9.713172767078504e-05,0.0948198437690734,0,0,0
7332,255545.72671241863,2010-11-04 13:23:01,2431.222483833878,2,23,0.5501165986061096,3.9390170574188232,21.963979263458363,21.650255769172453,87.68515090518811,78.9307311153413,9.713172767078504e-05,0.0948198437690734,0,0,0
7333,255575.74191750327,2010-11-04 13:23:31,2461.23768889343,2,23,0.5501165986061096,3.940474033355713,21.968565809087536,21.650255769172453,87.7032204859128,78.9307311153413,6.47544875391759e-05,0.0948198437690734,0,0,0
7334,255605.7570895404,2010-11-04 13:24:01,2491.2528609506035,2,23,0.5501165986061096,3.942092895507813,21.9731523448708,21.650255769172453,87.72129709237362,78.9307311153413,9.713172767078504e-05,0.0948198437690734,0,0,0
7335,255635.7723562388,2010-11-04 13:24:31,2521.2681276239537,2,23,0.5501165986061096,3.943549871444702,21.977738899700217,21.650255769172453,87.73938089657592,78.9307311153413,3.237724376958795e-05,0.0948198437690734,0,0,0
7336,255665.78764650103,2010-11-04 13:25:01,2551.283417886185,2,23,0.5501165986061096,3.9451687335968018,21.982325394760306,21.650255769172453,87.75747168881473,78.9307311153413,6.47544875391759e-05,0.0948198437690734,0,0,0
7337,255695.80292486856,2010-11-04 13:25:31,2581.2986962537257,2,23,0.5499359965324402,3.9466257095336914,21.98691193048789,21.650255769172453,87.77556988058244,78.9307311153413,3.237724376958795e-05,0.0948198437690734,0,0,0
7338,255725.81818969728,2010-11-04 13:26:01,2611.313961082471,2,23,0.5501165986061096,3.948406457901001,21.991498386612456,21.650255769172453,87.79367500264796,78.9307311153413,6.47544875391759e-05,0.0948198437690734,0,0,0
7339,255755.833724114,2010-11-04 13:26:31,2641.329495524212,2,23,0.550297200679779,3.9500253200531006,21.99608495576773,21.650255769172453,87.81178798031242,78.9307311153413,6.47544875391759e-05,0.0948198437690734,0,0,0
7340,255785.8487728333,2010-11-04 13:27:01,2671.344544218453,2,23,0.5501165986061096,3.9514822959899902,22.000671425221988,21.650255769172453,87.82990805216447,78.9307311153413,0.0,0.0948198437690734,0,0,0
7341,255815.86418596725,2010-11-04 13:27:31,2701.359957362416,2,23,0.5499359965324402,3.9532630443573,22.00525794885408,21.650255769172453,87.84803584824485,78.9307311153413,3.237724376958795e-05,0.0948198437690734,0,0,0
7342,255845.87932645052,2010-11-04 13:28:01,2731.375097835752,2,23,0.5501165986061096,3.9547200202941895,22.00984442378073,21.650255769172453,87.86617102466302,78.9307311153413,-3.237724376958795e-05,0.0948198437690734,0,0,0
7343,255875.8946117755,2010-11-04 13:28:31,2761.3903831606585,2,23,0.5499359965324402,3.956500768661499,22.01443095837302,21.650255769172453,87.88431413116564,78.9307311153413,3.237724376958795e-05,0.0948198437690734,0,0,0
7344,255905.90992187723,2010-11-04 13:29:01,2791.405693262413,2,23,0.5499359965324402,3.9582815170288086,22.019017513829247,21.650255769172453,87.90246484084034,78.9307311153413,6.47544875391759e-05,0.0948198437690734,0,0,0
7345,255935.92520078612,2010-11-04 13:29:31,2821.4209721713046,2,23,0.5501165986061096,3.959900379180908,22.02360403355575,21.650255769172453,87.92062322072714,78.9307311153413,3.237724376958795e-05,0.0948198437690734,0,0,0
7346,255965.9405025922,2010-11-04 13:30:01,2851.436274062564,2,23,0.5501165986061096,3.9616811275482178,22.028190528653163,21.650255769172453,87.93878936346638,78.9307311153413,6.47544875391759e-05,0.0948198437690734,0,0,0
7347,255995.95571490485,2010-11-04 13:30:31,2881.451486290008,2,23,0.5501165986061096,3.963299989700317,22.03277708143693,21.650255769172453,87.95696355111393,78.9307311153413,6.47544875391759e-05,0.0948198437690734,0,0,0
7348,256025.9711641138,2010-11-04 13:31:01,2911.466935504008,2,23,0.5501165986061096,3.964918851852417,22.03736359348016,21.650255769172453,87.9751455034883,78.9307311153413,0.0,0.0948198437690734,0,0,0
7349,256055.98628404088,2010-11-04 13:31:31,2941.4820554561197,2,23,0.5501165986061096,3.9670233726501465,22.041950049245607,21.650255769172453,87.99333526167695,78.9307311153413,6.47544875391759e-05,0.0948198437690734,0,0,0
7350,256086.0015841727,2010-11-04 13:32:01,2971.497355557912,2,23,0.5501165986061096,3.968642234802246,22.04653661514254,21.650255769172453,88.01153349643606,78.9307311153413,6.47544875391759e-05,0.0948198437690734,0,0,0
7351,256116.01684650025,2010-11-04 13:32:31,3001.512617885414,2,23,0.5499359965324402,3.970422983169556,22.05112310843168,21.650255769172453,88.02973954216716,78.9307311153413,3.237724376958795e-05,0.0948198437690734,0,0,0
7352,256146.03227728824,2010-11-04 13:33:01,3031.528048673419,2,23,0.5499359965324402,3.972203731536865,22.055709683826183,21.650255769172453,88.04795412345463,78.9307311153413,3.237724376958795e-05,0.0948198437690734,0,0,0
7353,256176.0474089396,2010-11-04 13:33:31,3061.5431803147085,2,23,0.5499359965324402,3.973984479904175,22.060296214229343,21.650255769172453,88.06617672567708,78.9307311153413,6.47544875391759e-05,0.0948198437690734,0,0,0
7354,256206.06281535173,2010-11-04 13:34:01,3091.558586736893,2,23,0.550297200679779,3.9759271144866943,22.06488287743827,21.650255769172453,88.08440820730495,78.9307311153413,6.47544875391759e-05,0.0948198437690734,0,0,0
7355,256236.078120446,2010-11-04 13:34:31,3121.573891841173,2,23,0.5501165986061096,3.977707862854004,22.06946941962251,21.650255769172453,88.10264755834986,78.9307311153413,3.237724376958795e-05,0.0948198437690734,0,0,0
7356,256266.09332449303,2010-11-04 13:35:01,3151.58909587316,2,23,0.5501165986061096,3.979650497436523,22.07405595213815,21.650255769172453,88.12089488908248,78.9307311153413,6.47544875391759e-05,0.0948198437690734,0,0,0
7357,256296.10854356253,2010-11-04 13:35:31,3181.604314962734,2,23,0.5501165986061096,3.981593132019043,22.07864242070601,21.650255769172453,88.13915101502833,78.9307311153413,0.0001295089750783,0.0948198437690734,0,0,0
7358,256326.12394310755,2010-11-04 13:36:01,3211.619714497727,2,23,0.5501165986061096,3.983373880386353,22.083228914172143,21.650255769172453,88.15741594572381,78.9307311153413,6.47544875391759e-05,0.0948198437690734,0,0,0
7359,256356.139098834,2010-11-04 13:36:31,3241.634870219124,2,23,0.5501165986061096,3.985154628753662,22.087815342950258,21.650255769172453,88.17568938794358,78.9307311153413,6.47544875391759e-05,0.0948198437690734,0,0,0
7360,256386.15452033377,2010-11-04 13:37:01,3271.650291718945,2,23,0.5501165986061096,3.987259149551392,22.09240180805784,21.650255769172453,88.19397182464111,78.9307311153413,6.47544875391759e-05,0.0948198437690734,0,0,0
7361,256416.1696602708,2010-11-04 13:37:31,3301.665431655941,2,23,0.550297200679779,3.989201784133911,22.09698822456153,21.650255769172453,88.2122629397712,78.9307311153413,6.47544875391759e-05,0.0948198437690734,0,0,0
7362,256446.18536708772,2010-11-04 13:38:01,3331.68113847797,2,23,0.550297200679779,3.991144418716431,22.10157471941624,21.650255769172453,88.23056341988854,78.9307311153413,6.47544875391759e-05,0.0948198437690734,0,0,0
7363,256476.2002341687,2010-11-04 13:38:31,3361.6960055538634,2,23,0.5499359965324402,3.99308705329895,22.106161209562806,21.650255769172453,88.24887312614608,78.9307311153413,3.237724376958795e-05,0.0948198437690734,0,0,0
7364,256506.2155316339,2010-11-04 13:39:01,3391.711303024087,2,23,0.5501165986061096,3.9951913356781006,22.11074772937106,21.650255769172453,88.26719220562443,78.9307311153413,6.47544875391759e-05,0.0948198437690734,0,0,0
7365,256536.23075704425,2010-11-04 13:39:31,3421.726528459501,2,23,0.5499359965324402,3.99713397026062,22.11533385773193,21.650255769172453,88.285519072009,78.9307311153413,3.237724376958795e-05,0.0948198437690734,0,0,0
7366,256566.2460325697,2010-11-04 13:40:01,3451.741803984947,2,23,0.5499359965324402,3.9992384910583496,22.119919493540884,21.650255769172453,88.30385328559856,78.9307311153413,6.47544875391759e-05,0.0948198437690734,0,0,0
7367,256596.261331674,2010-11-04 13:40:31,3481.7571030591744,2,23,0.5501165986061096,4.001343250274658,22.124505242454564,21.650255769172453,88.32219748495993,78.9307311153413,3.24249267578125e-05,0.0948198437690734,0,0,0
7368,256626.27662639235,2010-11-04 13:41:01,3511.772397767504,2,23,0.5499359965324402,4.003285884857178,22.129090788320323,21.650255769172453,88.34055056851592,78.9307311153413,3.24249267578125e-05,0.0948198437690734,0,0,0
7369,256656.29190910075,2010-11-04 13:41:31,3541.7876804909174,2,23,0.5501165986061096,4.005713939666748,22.13367642179978,21.650255769172453,88.35891374318231,78.9307311153413,6.47544875391759e-05,0.0948198437690734,0,0,0
7370,256686.30719607475,2010-11-04 13:42:01,3571.802967479978,2,23,0.5499359965324402,4.007656574249268,22.13826204253543,21.650255769172453,88.37728677413376,78.9307311153413,3.23295607813634e-05,0.0948198437690734,0,0,0
7371,256716.3224399011,2010-11-04 13:42:31,3601.818211286249,2,23,0.5501165986061096,4.010085105895996,22.14284790534276,21.650255769172453,88.39567068853144,78.9307311153413,9.71794142969884e-05,0.0948198437690734,0,0,0
7372,256746.33774938632,2010-11-04 13:43:01,3631.833520771465,2,23,0.550297200679779,4.0121893882751465,22.147434510228106,21.650255769172453,88.41406766998348,78.9307311153413,6.47544875391759e-05,0.0948198437690734,0,0,0
7373,256776.353009794,2010-11-04 13:43:31,3661.8487811741616,2,23,0.5499359965324402,4.014132022857666,22.152021035057903,21.650255769172453,88.43247447539969,78.9307311153413,3.23295607813634e-05,0.0948198437690734,0,0,0
7374,256806.3682937555,2010-11-04 13:44:01,3691.864065150703,2,23,0.5501165986061096,4.016722202301025,22.156607676839304,21.650255769172453,88.45089203749441,78.9307311153413,6.47544875391759e-05,0.0948198437690734,0,0,0
7375,256836.3835695316,2010-11-04 13:44:31,3721.879340916751,2,23,0.5501165986061096,4.018988609313965,22.161194338244087,21.650255769172453,88.46932011563561,78.9307311153413,6.47544875391759e-05,0.0948198437690734,0,0,0
7376,256866.3988784604,2010-11-04 13:45:01,3751.8946498756513,2,23,0.5501165986061096,4.021255016326904,22.16578092453077,21.650255769172453,88.48775826977185,78.9307311153413,6.47544875391759e-05,0.0948198437690734,0,0,0
7377,256896.41414719893,2010-11-04 13:45:31,3781.909918584081,2,23,0.5501165986061096,4.023521423339844,22.17036748629929,21.650255769172453,88.50620695838889,78.9307311153413,6.47544875391759e-05,0.0948198437690734,0,0,0
7378,256926.4295179621,2010-11-04 13:46:01,3811.9252893773305,2,23,0.5501165986061096,4.025787830352783,22.17495412519641,21.650255769172453,88.5246666207906,78.9307311153413,3.23295607813634e-05,0.0948198437690734,0,0,0
7379,256956.4448200188,2010-11-04 13:46:31,3841.940591434002,2,23,0.5499359965324402,4.028216361999512,22.179540704346486,21.650255769172453,88.54313677267648,78.9307311153413,6.47544875391759e-05,0.0948198437690734,0,0,0
7380,256986.45999588544,2010-11-04 13:47:01,3871.9557672706105,2,23,0.5501165986061096,4.030644416809082,22.18412731761407,21.650255769172453,88.56161792635501,78.9307311153413,6.47544875391759e-05,0.0948198437690734,0,0,0
7381,257016.47527396225,2010-11-04 13:47:31,3901.9710453574494,2,23,0.550297200679779,4.0329108238220215,22.188713914397,21.650255769172453,88.58011001135792,78.9307311153413,6.47544875391759e-05,0.0948198437690734,0,0,0
7382,257046.4907086901,2010-11-04 13:48:01,3931.986480075265,2,23,0.550297200679779,4.035501003265381,22.193300971373336,21.650255769172453,88.5986150918274,78.9307311153413,9.71794142969884e-05,0.0948198437690734,0,0,0
7383,257076.5058528476,2010-11-04 13:48:31,3962.001624232797,2,23,0.550297200679779,4.037929058074951,22.19788832743446,21.650255769172453,88.61713256138643,78.9307311153413,6.47544875391759e-05,0.0948198437690734,0,0,0
7384,257106.52140733445,2010-11-04 13:49:01,3992.017178734611,2,23,0.5501165986061096,4.04035758972168,22.20247542281513,21.650255769172453,88.63566015780916,78.9307311153413,9.71794142969884e-05,0.0948198437690734,0,0,0
7385,257136.5364358733,2010-11-04 13:49:31,4022.0322072885774,2,23,0.5501165986061096,4.04278564453125,22.20706199383375,21.650255769172453,88.65419697276533,78.9307311153413,3.23295607813634e-05,0.0948198437690734,0,0,0
7386,257166.5518258946,2010-11-04 13:50:01,4052.047597279749,2,23,0.5501165986061096,4.045375823974609,22.21164860205179,21.650255769172453,88.6727454307379,78.9307311153413,6.47544875391759e-05,0.0948198437690734,0,0,0
7387,257196.56711088365,2010-11-04 13:50:31,4082.0628822788426,2,23,0.5501165986061096,4.047642230987549,22.216235208183125,21.650255769172453,88.69130535872324,78.9307311153413,3.23295607813634e-05,0.0948198437690734,0,0,0
7388,257226.5822790762,2010-11-04 13:51:01,4112.078050466356,2,23,0.5499359965324402,4.050232410430908,22.220821802435456,21.650255769172453,88.70987688777691,78.9307311153413,3.23295607813634e-05,0.0948198437690734,0,0,0
7389,257256.5975397696,2010-11-04 13:51:31,4142.093311154767,2,23,0.5501165986061096,4.053146362304688,22.22540843433797,21.650255769172453,88.72846027033617,78.9307311153413,9.70840483205393e-05,0.0948198437690734,0,0,0
7390,257286.61292351515,2010-11-04 13:52:02,4172.108694900348,2,23,0.550297200679779,4.055574893951416,22.22999511099652,21.650255769172453,88.7470557453361,78.9307311153413,6.47544875391759e-05,0.0948198437690734,0,0,0
7391,257316.62823453924,2010-11-04 13:52:32,4202.124005934428,2,23,0.5501165986061096,4.058165073394775,22.2345817742449,21.650255769172453,88.76566320778706,78.9307311153413,6.47544875391759e-05,0.0948198437690734,0,0,0
7392,257346.6434000551,2010-11-04 13:53:02,4232.139171440249,2,23,0.5499359965324402,4.060593128204346,22.239168420522795,21.650255769172453,88.78428268608015,78.9307311153413,3.23295607813634e-05,0.0948198437690734,0,0,0
7393,257376.65879398608,2010-11-04 13:53:32,4262.154565376266,2,23,0.5499359965324402,4.063345432281494,22.2437550632857,21.650255769172453,88.80291385478947,78.9307311153413,3.24249267578125e-05,0.0948198437690734,0,0,0
7394,257406.6740298776,2010-11-04 13:54:02,4292.16980128783,2,23,0.5501165986061096,4.0659356117248535,22.24834162643847,21.650255769172453,88.82155701421676,78.9307311153413,6.47544875391759e-05,0.0948198437690734,0,0,0
7395,257436.68935677127,2010-11-04 13:54:32,4322.185128156437,2,23,0.550297200679779,4.068849563598633,22.25292823398096,21.650255769172453,88.84021267945431,78.9307311153413,6.47544875391759e-05,0.0948198437690734,0,0,0
7396,257466.7047214142,2010-11-04 13:55:02,4352.200492804347,2,23,0.550297200679779,4.071601390838623,22.25751494131407,21.650255769172453,88.85888129796557,78.9307311153413,9.70840483205393e-05,0.0948198437690734,0,0,0
7397,257496.7198159679,2010-11-04 13:55:32,4382.215587353047,2,23,0.5501165986061096,4.074191570281982,22.262101489085783,21.650255769172453,88.87756183244709,78.9307311153413,3.23295607813634e-05,0.0948198437690734,0,0,0
7398,257526.73512088167,2010-11-04 13:56:02,4412.230892291914,2,23,0.5501165986061096,4.077267646789551,22.266688115939733,21.650255769172453,88.89625547390285,78.9307311153413,0.0001295089750783,0.0948198437690734,0,0,0
7399,257556.75035568047,2010-11-04 13:56:32,4442.24612707065,2,23,0.5499359965324402,4.079695701599121,22.27127466861044,21.650255769172453,88.91496170591272,78.9307311153413,3.23295607813634e-05,0.0948198437690734,0,0,0
7400,257586.76565866944,2010-11-04 13:57:02,4472.261430059649,2,23,0.5501165986061096,4.0827717781066895,22.275861309454346,21.650255769172453,88.93368118981422,78.9307311153413,6.47544875391759e-05,0.0948198437690734,0,0,0
7401,257616.78093184408,2010-11-04 13:57:32,4502.276703239239,2,23,0.550297200679779,4.085685729980469,22.28044790895348,21.650255769172453,88.95241367507037,78.9307311153413,9.71794142969884e-05,0.0948198437690734,0,0,0
7402,257646.7963419304,2010-11-04 13:58:02,4532.292113320557,2,23,0.5499359965324402,4.088437557220459,22.28503456893624,21.650255769172453,88.97115963989313,78.9307311153413,6.47544875391759e-05,0.0948198437690734,0,0,0
7403,257676.811511346,2010-11-04 13:58:32,4562.3072827361375,2,23,0.5501165986061096,4.091351509094238,22.28962122291617,21.650255769172453,88.98991890501776,78.9307311153413,6.47544875391759e-05,0.0948198437690734,0,0,0
7404,257706.82692153257,2010-11-04 13:59:02,4592.322692927732,2,23,0.5499359965324402,4.094103813171387,22.294207854200508,21.650255769172453,89.00869129716898,78.9307311153413,3.24249267578125e-05,0.0948198437690734,0,0,0
7405,257736.84205550465,2010-11-04 13:59:32,4622.337826889814,2,23,0.5501165986061096,4.097017765045166,22.298794471123724,21.650255769172453,89.02747716770618,78.9307311153413,3.24249267578125e-05,0.0948198437690734,0,0,0
7406,257766.85734045363,2010-11-04 14:00:02,4652.353111838782,2,23,0.5501165986061096,4.100255489349365,22.30338107336706,21.650255769172453,89.04627661696941,78.9307311153413,6.47544875391759e-05,0.0948198437690734,0,0,0
7407,257796.87261469083,2010-11-04 14:00:32,4682.368386076013,2,23,0.5501165986061096,4.103331089019775,22.307967761975117,21.650255769172453,89.06509011636851,78.9307311153413,9.70840483205393e-05,0.0948198437690734,0,0,0
7408,257826.88790193052,2010-11-04 14:01:02,4712.3836733157,2,23,0.5501165986061096,4.106407165527344,22.31255439048062,21.650255769172453,89.08391735907342,78.9307311153413,9.71794142969884e-05,0.0948198437690734,0,0,0
7409,257856.9058254959,2010-11-04 14:01:32,4742.401596966273,2,23,0.550297200679779,4.109482765197754,22.31714141957949,21.650255769172453,89.10276028840947,78.9307311153413,9.70840483205393e-05,0.0948198437690734,0,0,0
7410,257886.9185184799,2010-11-04 14:02:02,4772.4142899503,2,23,0.550297200679779,4.112558841705322,22.321727662621203,21.650255769172453,89.12161420782517,78.9307311153413,9.71794142969884e-05,0.0948198437690734,0,0,0
7411,257916.93379092767,2010-11-04 14:02:32,4802.429562317863,2,23,0.5499359965324402,4.115472316741943,22.32631428723109,21.650255769172453,89.14048390401963,78.9307311153413,6.47544875391759e-05,0.0948198437690734,0,0,0
7412,257946.94905236296,2010-11-04 14:03:02,4832.444823748125,2,23,0.5499359965324402,4.118548393249512,22.330900994850865,21.650255769172453,89.15936837622493,78.9307311153413,6.47544875391759e-05,0.0948198437690734,0,0,0
7413,257976.96424228977,2010-11-04 14:03:32,4862.460013684929,2,23,0.550297200679779,4.121947765350342,22.335487603872977,21.650255769172453,89.17826687700517,78.9307311153413,6.47544875391759e-05,0.0948198437690734,0,0,0
7414,258006.9796341155,2010-11-04 14:04:02,4892.475405545766,2,23,0.550297200679779,4.125185489654541,22.340074239718163,21.650255769172453,89.19717991132907,78.9307311153413,0.0001295089750783,0.0948198437690734,0,0,0
7415,258036.9948269245,2010-11-04 14:04:32,4922.490598319651,2,23,0.5501165986061096,4.128261566162109,22.34466078242814,21.650255769172453,89.21610724559747,78.9307311153413,0.0001295089750783,0.0948198437690734,0,0,0
7416,258067.01019298588,2010-11-04 14:05:02,4952.505964371065,2,23,0.5501165986061096,4.131499290466309,22.349247427745333,21.650255769172453,89.23504990913541,78.9307311153413,3.24249267578125e-05,0.0948198437690734,0,0,0
7417,258097.02550070168,2010-11-04 14:05:32,4982.521272121951,2,23,0.5501165986061096,4.134737014770508,22.35383409061536,21.650255769172453,89.2540075536708,78.9307311153413,9.71794142969884e-05,0.0948198437690734,0,0,0
7418,258127.04077925973,2010-11-04 14:06:02,5012.536550644879,2,23,0.5501165986061096,4.138136386871338,22.358420725625948,21.650255769172453,89.27298017748267,78.9307311153413,0.0001295089750783,0.0948198437690734,0,0,0
7419,258157.05615820832,2010-11-04 14:06:32,5042.551929588472,2,23,0.5501165986061096,4.141536235809326,22.363007433812072,21.650255769172453,89.29196828501438,78.9307311153413,9.71794142969884e-05,0.0948198437690734,0,0,0
7420,258187.0714685156,2010-11-04 14:07:02,5072.567239900752,2,23,0.5501165986061096,4.144773960113525,22.367594128106088,21.650255769172453,89.31097175729975,78.9307311153413,6.47544875391759e-05,0.0948198437690734,0,0,0
7421,258217.08658704915,2010-11-04 14:07:32,5102.582358444348,2,23,0.5501165986061096,4.1483354568481445,22.372180731666745,21.650255769172453,89.32999073756389,78.9307311153413,0.0001295089750783,0.0948198437690734,0,0,0
7422,258247.1018728052,2010-11-04 14:08:02,5132.59764420033,2,23,0.5501165986061096,4.151734828948975,22.37676730977813,21.650255769172453,89.34902511059317,78.9307311153413,9.70840483205393e-05,0.0948198437690734,0,0,0
7423,258277.11714875663,2010-11-04 14:08:32,5162.612920146828,2,23,0.5499359965324402,4.155134677886963,22.381353977725016,21.650255769172453,89.3680755115165,78.9307311153413,9.71794142969884e-05,0.0948198437690734,0,0,0
7424,258307.13256945947,2010-11-04 14:09:02,5192.628340844647,2,23,0.5501165986061096,4.158534049987793,22.38594060211801,21.650255769172453,89.38714138935543,78.9307311153413,6.47544875391759e-05,0.0948198437690734,0,0,0
7425,258337.1477589853,2010-11-04 14:09:32,5222.643530370425,2,23,0.5501165986061096,4.161933898925781,22.39052720145547,21.650255769172453,89.40622283742671,78.9307311153413,6.47544875391759e-05,0.0948198437690734,0,0,0
7426,258367.1634057474,2010-11-04 14:10:02,5252.659177157598,2,23,0.5501165986061096,4.1654953956604,22.39511391545141,21.650255769172453,89.42532064927131,78.9307311153413,6.47544875391759e-05,0.0948198437690734,0,0,0
7427,258397.1782802418,2010-11-04 14:10:32,5282.674051626946,2,23,0.5501165986061096,4.16905689239502,22.39970055064463,21.650255769172453,89.44443420863313,78.9307311153413,9.71794142969884e-05,0.0948198437690734,0,0,0
7428,258427.1939147433,2010-11-04 14:11:02,5312.689686128451,2,23,0.5499359965324402,4.17245626449585,22.404287313668224,21.650255769172453,89.46356445905764,78.9307311153413,3.23295607813634e-05,0.0948198437690734,0,0,0
7429,258457.20884381392,2010-11-04 14:11:32,5342.704615199093,2,23,0.5501165986061096,4.176179885864258,22.40887390972924,21.650255769172453,89.48271033712558,78.9307311153413,9.71794142969884e-05,0.0948198437690734,0,0,0
7430,258487.22419981024,2010-11-04 14:12:02,5372.719971225482,2,23,0.5499359965324402,4.179741382598877,22.413460507756675,21.650255769172453,89.50187259113152,78.9307311153413,0.0001295089750783,0.0948198437690734,0,0,0
7431,258517.2394109349,2010-11-04 14:12:32,5402.7351823201,2,23,0.5499359965324402,4.183302879333496,22.418047200581075,21.650255769172453,89.52105180632637,78.9307311153413,9.71794142969884e-05,0.0948198437690734,0,0,0
7432,258547.2547388211,2010-11-04 14:13:02,5432.75051021627,2,23,0.5501165986061096,4.187026023864746,22.42263380636117,21.650255769172453,89.54024725342256,78.9307311153413,0.0001295089750783,0.0948198437690734,0,0,0
7433,258577.269981274,2010-11-04 14:13:32,5462.765752669163,2,23,0.5499359965324402,4.190425872802734,22.42722036111885,21.650255769172453,89.5594592691752,78.9307311153413,6.47544875391759e-05,0.0948198437690734,0,0,0
7434,258607.2852508897,2010-11-04 14:14:02,5492.781022279844,2,23,0.5499359965324402,4.194149017333984,22.43180694304373,21.650255769172453,89.57868819343028,78.9307311153413,9.70840483205393e-05,0.0948198437690734,0,0,0
7435,258637.3005328612,2010-11-04 14:14:32,5522.796304246369,2,23,0.5501165986061096,4.197872161865234,22.436393524439676,21.650255769172453,89.59793402237844,78.9307311153413,6.47544875391759e-05,0.0948198437690734,0,0,0
7436,258652.6441024715,2010-11-04 14:14:48,5538.139873856666,2,23,0.5504778623580933,4.200138568878174,22.438738164550166,21.650255769172453,89.60777899586462,78.9307311153413,0.0001618385285837,0.0948198437690734,0,0,0
7437,258682.65874573143,2010-11-04 14:15:18,30.015323720749105,3,23,0.0,4.113853931427002,22.438738164550166,21.650255769172453,89.60777899586462,78.9307311153413,-0.0003884315374307,0.0948198437690734,0,0,0
7438,258712.67397664048,2010-11-04 14:15:48,60.03055462982599,3,23,0.0,4.103331089019775,22.438738164550166,21.650255769172453,89.60777899586462,78.9307311153413,-0.0001942634553415,0.0948198437690734,0,0,0
7439,258742.68925937897,2010-11-04 14:16:18,90.04583736827698,3,23,0.0,4.097017765045166,22.438738164550166,21.650255769172453,89.60777899586462,78.9307311153413,-0.0001295089750783,0.0948198437690734,0,0,0
7440,258772.6578138715,2010-11-04 14:16:48,120.01439186584976,3,23,0.0,4.092970371246338,22.438738164550166,21.650255769172453,89.60777899586462,78.9307311153413,-9.71794142969884e-05,0.0948198437690734,0,0,0
7441,258772.65836053184,2010-11-04 14:16:48,2.701743969e-06,4,23,0.9835788607597352,4.199814796447754,22.438738165288328,21.650255769172453,89.60777899896476,78.9307311153413,0.0,0.0948198437690734,0,0,0
7442,258773.6583421598,2010-11-04 14:16:49,0.999984349780799,4,23,0.9330082535743712,4.199814796447754,22.43900278315127,21.650255769172453,89.60889032699112,78.9307311153413,0.0,0.0948198437690734,0,0,0
7443,258775.89309328745,2010-11-04 14:16:51,3.234735467378187,4,23,0.8826183080673218,4.199491024017334,22.43956515720265,21.650255769172453,89.61125215426325,78.9307311153413,-6.47544875391759e-05,0.0948198437690734,0,0,0
7444,258779.28345428008,2010-11-04 14:16:54,6.625096470034817,4,23,0.8322283029556274,4.199814796447754,22.440371517480347,21.650255769172453,89.61463867414763,78.9307311153413,0.0,0.0948198437690734,0,0,0
7445,258783.9241960855,2010-11-04 14:16:59,11.265838270529128,4,23,0.7820188999176025,4.199814796447754,22.4414107748392,21.650255769172453,89.6190033018315,78.9307311153413,0.0,0.0948198437690734,0,0,0
7446,258790.0490201788,2010-11-04 14:17:05,17.39066236374643,4,23,0.731628954410553,4.199814796447754,22.44269681800573,21.650255769172453,89.62440438166068,78.9307311153413,3.23295607813634e-05,0.0948198437690734,0,0,0
7447,258798.0488366264,2010-11-04 14:17:13,25.390478811340618,4,23,0.6816001534461975,4.199814796447754,22.444264636123386,21.650255769172453,89.63098886670272,78.9307311153413,0.0,0.0948198437690734,0,0,0
7448,258808.79872880108,2010-11-04 14:17:24,36.14037098603822,4,23,0.6313908100128174,4.199653148651123,22.446221163573476,21.650255769172453,89.63920584781529,78.9307311153413,-3.23295607813634e-05,0.0948198437690734,0,0,0
7449,258824.0952617105,2010-11-04 14:17:39,51.436903895492975,4,23,0.5813620090484619,4.199653148651123,22.448791367268853,21.650255769172453,89.65000014651233,78.9307311153413,-3.23295607813634e-05,0.0948198437690734,0,0,0
7450,258847.98579913744,2010-11-04 14:18:03,75.3274413324028,4,23,0.5313332676887512,4.199814796447754,22.452470790411112,21.650255769172453,89.66545293359471,78.9307311153413,-3.24249267578125e-05,0.0948198437690734,0,0,0
7451,258890.2663858616,2010-11-04 14:18:45,117.60802804654696,4,23,0.4811238646507263,4.199653148651123,22.458390138188165,21.650255769172453,89.69031286778963,78.9307311153413,-3.23295607813634e-05,0.0948198437690734,0,0,0
7452,258965.49990642327,2010-11-04 14:20:01,192.8415486082568,4,23,0.4309144914150238,4.199814796447754,22.467886707494703,21.650255769172453,89.73019645111884,78.9307311153413,0.0,0.0948198437690734,0,0,0
7453,259074.04555638487,2010-11-04 14:21:49,301.3871985698917,4,23,0.3808857202529907,4.199814796447754,22.48010565604028,21.650255769172453,89.78151341275267,78.9307311153413,0.0,0.0948198437690734,0,0,0
7454,259206.0752969947,2010-11-04 14:24:01,433.41693916468415,4,23,0.3308569490909576,4.199653148651123,22.49313661440311,21.650255769172453,89.8362406900917,78.9307311153413,-3.23295607813634e-05,0.0948198437690734,0,0,0
7455,259363.44847287305,2010-11-04 14:26:39,590.7901150629842,4,23,0.2804669737815857,4.199653148651123,22.506488948317266,21.650255769172453,89.89231760254083,78.9307311153413,-3.23295607813634e-05,0.0948198437690734,0,0,0
7456,259553.24335022108,2010-11-04 14:29:48,780.5849924160693,4,23,0.2304381877183914,4.199653148651123,22.519938537010766,21.650255769172453,89.94880293946352,78.9307311153413,-3.23295607813634e-05,0.0948198437690734,0,0,0
7457,259788.1155086226,2010-11-04 14:33:43,1015.4571508075928,4,23,0.1804094314575195,4.199814796447754,22.533297465457224,21.650255769172453,90.00490757548958,78.9307311153413,3.23295607813634e-05,0.0948198437690734,0,0,0
7458,260106.04938865005,2010-11-04 14:39:01,1333.391030835046,4,23,0.1303806602954864,4.199814796447754,22.54693310291308,21.650255769172453,90.06217437918741,78.9307311153413,0.0,0.0948198437690734,0,0,0
7459,260612.2779854891,2010-11-04 14:47:27,1839.6196276740789,4,23,0.0803518816828727,4.199814796447754,22.56146703018741,21.650255769172453,90.12321378687146,78.9307311153413,0.0,0.0948198437690734,0,0,0
7460,261162.74041646332,2010-11-04 14:56:38,2390.082058653331,4,23,0.0498289167881011,4.199814796447754,22.571256780605,21.650255769172453,90.16432867029864,78.9307311153413,0.0,0.0948198437690734,0,0,0
7461,261192.7524522567,2010-11-04 14:57:08,30.01527701917479,5,23,0.0,4.191882610321045,22.571256780605,21.650255769172453,90.16432867029864,78.9307311153413,0.0,0.0948198437690734,0,0,0
7462,261222.7520892209,2010-11-04 14:57:38,60.01491398336617,5,23,0.0,4.190425872802734,22.571256780605,21.650255769172453,90.16432867029864,78.9307311153413,-6.47544875391759e-05,0.0948198437690734,0,0,0
7463,261222.937037316,2010-11-04 14:57:38,0.187495036456385,6,23,0.0023286775685846,4.191397190093994,22.57125690188708,21.650255769172453,90.16432917864005,78.9307311153413,0.0,0.0956302732229232,0,0,0
7464,261227.7652183887,2010-11-04 14:57:43,5.01567610921107,6,23,0.0007031940040178,4.190587520599365,22.57125785803213,21.650255769172453,90.16433318558497,78.9307311153413,0.0,0.0956302732229232,0,0,0
7465,261257.77786906908,2010-11-04 14:58:13,30.01527169588704,7,23,-1.0997490882873535,4.011865615844727,22.57125785803213,21.65942396815269,90.16433318558497,78.96771198426933,-0.0009389877086505,0.0956302732229232,0,0,0
7466,261287.79315950675,2010-11-04 14:58:43,60.03056214358148,7,23,-1.0993878841400146,3.985154628753662,22.57125785803213,21.668592240708875,90.16433318558497,79.00436182373409,-0.0005504131549969,0.0956302732229232,0,0,0
7467,261317.80855268583,2010-11-04 14:59:13,90.04595531769687,7,23,-1.0997490882873535,3.966052055358887,22.57125785803213,21.67776044976963,90.16433318558497,79.04080592558363,-0.0004856586456298,0.0956302732229232,0,0,0
7468,261347.8237205275,2010-11-04 14:59:43,120.06112315934776,7,23,-1.099568486213684,3.9516441822052,22.57125785803213,21.686928512683583,90.16433318558497,79.0770990537033,-0.0003561496851034,0.0956302732229232,0,0,0
7469,261377.83899068457,2010-11-04 15:00:13,150.07639332140613,7,23,-1.099568486213684,3.939502716064453,22.57125785803213,21.69609661063411,90.16433318558497,79.11327113690436,-0.0002913951757363,0.0956302732229232,0,0,0
7470,261407.85439778844,2010-11-04 15:00:43,180.09180045035492,7,23,-1.0997490882873535,3.928494453430176,22.57125785803213,21.705264717719064,90.16433318558497,79.14933803964568,-0.0003237724304199,0.0956302732229232,0,0,0
7471,261437.86956406612,2010-11-04 15:01:13,210.10696670303952,7,23,-1.099568486213684,3.918619394302368,22.57125785803213,21.71443280895436,90.16433318558497,79.18530964098623,-0.0002590179501567,0.0956302732229232,0,0,0
7472,261467.8848538673,2010-11-04 15:01:43,240.12225649409487,7,23,-1.0993878841400146,3.9092302322387695,22.57125785803213,21.723600797744947,90.16433318558497,79.22119151616613,-0.0001942634553415,0.0956302732229232,0,0,0
7473,261497.90015124227,2010-11-04 15:02:13,270.1375538740934,7,23,-1.099568486213684,3.899840831756592,22.57125785803213,21.7327689281972,90.16433318558497,79.25698860966136,-0.0002590179501567,0.0956302732229232,0,0,0
7474,261527.9153979608,2010-11-04 15:02:43,300.15280059764564,7,23,-1.0993878841400146,3.891260862350464,22.57125785803213,21.741936976682705,90.16433318558497,79.29270253039923,-0.0001942634553415,0.0956302732229232,0,0,0
7475,261557.9308098316,2010-11-04 15:03:13,330.1682124684308,7,23,-1.0997490882873535,3.882519006729126,22.57125785803213,21.75110513711239,90.16433318558497,79.32833721044946,-0.0002266406954731,0.0956302732229232,0,0,0
7476,261587.94597255543,2010-11-04 15:03:43,360.1833751923069,7,23,-1.099929690361023,3.873939037322998,22.57125785803213,21.76027328281494,90.16433318558497,79.363894044359,-0.0002266406954731,0.0956302732229232,0,0,0
7477,261617.96124200567,2010-11-04 15:04:13,390.19864463757614,7,23,-1.0997490882873535,3.86600661277771,22.57125785803213,21.769441479422856,90.16433318558497,79.39937515658326,-0.0001942634553415,0.0956302732229232,0,0,0
7478,261647.97654088447,2010-11-04 15:04:44,420.2139435463908,7,23,-1.099568486213684,3.858074188232422,22.57125785803213,21.77860969815733,90.16433318558497,79.43478186576266,-0.0001618862152099,0.0956302732229232,0,0,0
7479,261677.9918086806,2010-11-04 15:05:14,450.229211317481,7,23,-1.099568486213684,3.849817991256714,22.57125785803213,21.78777789627008,90.16433318558497,79.47011409204339,-0.0001618862152099,0.0956302732229232,0,0,0
7480,261708.00712317333,2010-11-04 15:05:44,480.2445258101954,7,23,-1.0993878841400146,3.841885566711426,22.57125785803213,21.79694616240144,90.16433318558497,79.50537339642888,-0.0001618862152099,0.0956302732229232,0,0,0
7481,261738.02237391693,2010-11-04 15:06:14,510.25977654375725,7,23,-1.099568486213684,3.834115028381348,22.57125785803213,21.80611437447879,90.16433318558497,79.54056091968069,-0.0001942634553415,0.0956302732229232,0,0,0
7482,261768.0377780534,2010-11-04 15:06:44,540.2751806852489,7,23,-1.099568486213684,3.8263447284698486,22.57125785803213,21.815282624261336,90.16433318558497,79.5756776324448,-0.0001942634553415,0.0956302732229232,0,0,0
7483,261798.0529407322,2010-11-04 15:07:14,570.2903433640124,7,23,-1.099568486213684,3.818736076354981,22.57125785803213,21.82445080256189,90.16433318558497,79.6107229820997,-0.0001942634553415,0.0956302732229232,0,0,0
7484,261828.06856841667,2010-11-04 15:07:44,600.3059710535144,7,23,-1.099568486213684,3.811289310455322,22.57125785803213,21.83361921471536,90.16433318558497,79.64569968145025,-0.0001618862152099,0.0956302732229232,0,0,0
7485,261858.083502575,2010-11-04 15:08:14,630.3209052068432,7,23,-1.0997490882873535,3.803680658340454,22.57125785803213,21.84278724539276,90.16433318558497,79.68060668926272,-0.0002266406954731,0.0956302732229232,0,0,0
7486,261888.09892228537,2010-11-04 15:08:44,660.3363249222098,7,23,-1.099568486213684,3.796395778656006,22.57125785803213,21.851955517150824,90.16433318558497,79.7154482925369,-0.0002266406954731,0.0956302732229232,0,0,0
7487,261918.11420706887,2010-11-04 15:09:14,690.3516098210533,7,23,-1.0997490882873535,3.789596557617188,22.57125785803213,21.8611237405471,90.16433318558497,79.75022431369088,-0.0002266406954731,0.0956302732229232,0,0,0
7488,261948.1293724795,2010-11-04 15:09:44,720.3667751063231,7,23,-1.0997490882873535,3.782635450363159,22.57125785803213,21.87029198254083,90.16433318558497,79.7849359278551,-0.0001942634553415,0.0956302732229232,0,0,0
7489,261978.1446186266,2010-11-04 15:10:14,750.3820212634614,7,23,-1.099568486213684,3.775836229324341,22.57125785803213,21.879460269253,90.16433318558497,79.81958506470778,-0.0001942634553415,0.0956302732229232,0,0,0
7490,262008.15989493905,2010-11-04 15:10:44,780.3972976009345,7,23,-1.099568486213684,3.769198894500733,22.57125785803213,21.888628553837343,90.16433318558497,79.85417236844283,-0.0001618862152099,0.0956302732229232,0,0,0
7491,262038.17525974236,2010-11-04 15:11:14,810.4126623992195,7,23,-1.099929690361023,3.762723445892334,22.57125785803213,21.897796850185767,90.16433318558497,79.88869947408986,-0.0001618862152099,0.0956302732229232,0,0,0
7492,262068.19051316252,2010-11-04 15:11:44,840.4279157994378,7,23,-1.0997490882873535,3.7564098834991455,22.57125785803213,21.90696511377413,90.16433318558497,79.923168238724,-0.0001618862152099,0.0956302732229232,0,0,0
7493,262098.2059082715,2010-11-04 15:12:14,870.4433109083828,7,23,-1.099568486213684,3.750258445739746,22.57125785803213,21.916133483707124,90.16433318558497,79.95758013198565,-0.0001618862152099,0.0956302732229232,0,0,0
7494,262128.2210869552,2010-11-04 15:12:44,900.4584895920971,7,23,-1.099568486213684,3.7442686557769775,22.57125785803213,21.92530178455816,90.16433318558497,79.99193539053557,-0.0001295089750783,0.0956302732229232,0,0,0
7495,262158.23635863105,2010-11-04 15:13:14,930.4737612679344,7,23,-1.0997490882873535,3.737955093383789,22.57125785803213,21.93447011263064,90.16433318558497,80.02623560455706,-0.0001942634553415,0.0956302732229232,0,0,0
7496,262188.2516645424,2010-11-04 15:13:44,960.4890671792282,7,23,-1.0997490882873535,3.7324509620666495,22.57125785803213,21.943638499378693,90.16433318558497,80.06048209393515,-0.0001295089750783,0.0956302732229232,0,0,0
7497,262218.26692454406,2010-11-04 15:14:14,990.5043271809247,7,23,-1.0997490882873535,3.7267849445343018,22.57125785803213,21.95280678316641,90.16433318558497,80.09467557318675,-0.0001295089750783,0.0956302732229232,0,0,0
7498,262248.28222943284,2010-11-04 15:14:44,1020.5196321548788,7,23,-1.0993878841400146,3.720957040786743,22.57125785803213,21.96197514232632,90.16433318558497,80.12881723768962,-0.0001618862152099,0.0956302732229232,0,0,0
7499,262278.2974915949,2010-11-04 15:15:14,1050.5348942317555,7,23,-1.0997490882873535,3.715452909469605,22.57125785803213,21.971143465247703,90.16433318558497,80.16290732565574,-0.0001618862152099,0.0956302732229232,0,0,0
7500,262308.31277756137,2010-11-04 15:15:44,1080.550180198264,7,23,-1.0997490882873535,3.710110664367676,22.57125785803213,21.98031187647385,90.16433318558497,80.19694751694539,-0.0001618862152099,0.0956302732229232,0,0,0
7501,262338.3281961941,2010-11-04 15:16:14,1110.5655988359404,7,23,-1.099568486213684,3.704606533050537,22.57125785803213,21.989480313801888,90.16433318558497,80.23093850090217,-0.0001618862152099,0.0956302732229232,0,0,0
7502,262368.3433303065,2010-11-04 15:16:44,1140.5807329734605,7,23,-1.099568486213684,3.6994261741638175,22.57125785803213,21.99864867960708,90.16433318558497,80.26488039075588,-0.0001618862152099,0.0956302732229232,0,0,0
7503,262398.35862046847,2010-11-04 15:17:14,1170.5960231053668,7,23,-1.0997490882873535,3.6940839290618896,22.57125785803213,22.007817074518325,90.16433318558497,80.2987740346187,-0.0001295089750783,0.0956302732229232,0,0,0
7504,262428.37390557287,2010-11-04 15:17:44,1200.6113082097236,7,23,-1.0993878841400146,3.689227342605591,22.57125785803213,22.0169854493708,90.16433318558497,80.33261959900197,-9.713172767078504e-05,0.0956302732229232,0,0,0
7505,262458.3891846372,2010-11-04 15:18:14,1230.626587274003,7,23,-1.099568486213684,3.684046983718872,22.57125785803213,22.02615385683977,90.16433318558497,80.3664181255715,-9.713172767078504e-05,0.0956302732229232,0,0,0
7506,262488.404460724,2010-11-04 15:18:44,1260.6418633608507,7,23,-1.099568486213684,3.678866624832153,22.57125785803213,22.03532222193195,90.16433318558497,80.40016984882314,-0.0001295089750783,0.0956302732229232,0,0,0
7507,262518.4198919932,2010-11-04 15:19:14,1290.657294630057,7,23,-1.0993878841400146,3.6740100383758554,22.57125785803213,22.044490673051104,90.16433318558497,80.43387585536233,-9.713172767078504e-05,0.0956302732229232,0,0,0
7508,262548.43504497776,2010-11-04 15:19:44,1320.6724476196352,7,23,-1.0997490882873535,3.668829917907715,22.57125785803213,22.053659477307693,90.16433318558497,80.46753765312471,-0.0001295089750783,0.0956302732229232,0,0,0
7509,262578.4503096962,2010-11-04 15:20:14,1350.687712343118,7,23,-1.0997490882873535,3.663973331451416,22.57125785803213,22.062828663350125,90.16433318558497,80.50115546449997,-0.0001618862152099,0.0956302732229232,0,0,0
7510,262608.465596174,2010-11-04 15:20:44,1380.702998830928,7,23,-1.0997490882873535,3.659116744995117,22.57125785803213,22.071997828128456,90.16433318558497,80.53472880303681,-9.713172767078504e-05,0.0956302732229232,0,0,0
7511,262638.48086705286,2010-11-04 15:21:14,1410.7182696897255,7,23,-1.0997490882873535,3.6542601585388175,22.57125785803213,22.08116696307976,90.16433318558497,80.568258322962,-0.0001942634553415,0.0956302732229232,0,0,0
7512,262668.4961675356,2010-11-04 15:21:44,1440.7335701674565,7,23,-1.0993878841400146,3.649889230728149,22.57125785803213,22.09033565341732,90.16433318558497,80.60174317058602,-0.0001295089750783,0.0956302732229232,0,0,0
7513,262698.5114390511,2010-11-04 15:22:14,1470.748841682893,7,23,-1.099568486213684,3.645194530487061,22.57125785803213,22.099503880612417,90.16433318558497,80.63518355974615,-0.0001295089750783,0.0956302732229232,0,0,0
7514,262728.5269472974,2010-11-04 15:22:44,1500.764349944284,7,23,-1.0993878841400146,3.6406617164611816,22.57125785803213,22.10867222145552,90.16433318558497,80.66858248097076,-9.713172767078504e-05,0.0956302732229232,0,0,0
7515,262758.5420262522,2010-11-04 15:23:14,1530.779428884022,7,23,-1.099568486213684,3.636128902435303,22.57125785803213,22.117840432052738,90.16433318558497,80.70193977245255,-9.713172767078504e-05,0.0956302732229232,0,0,0
7516,262788.5576624579,2010-11-04 15:23:44,1560.7950650897817,7,23,-1.0997490882873535,3.631596088409424,22.57125785803213,22.12700891161304,90.16433318558497,80.73525700262408,-0.0001295089750783,0.0956302732229232,0,0,0
7517,262818.55828206,2010-11-04 15:24:14,1590.7956847018131,7,23,-1.099568486213684,3.627387046813965,22.57125785803213,22.136172785453475,90.16433318558497,80.76851745729955,-9.713172767078504e-05,0.0956302732229232,0,0,0
7518,262848.5722301619,2010-11-04 15:24:44,1620.809632798794,7,23,-1.099568486213684,3.623178005218506,22.57125785803213,22.145340654093125,90.16433318558497,80.80175331627191,-0.0001295089750783,0.0956302732229232,0,0,0
7519,262878.5875089556,2010-11-04 15:25:14,1650.8249115873857,7,23,-1.0997490882873535,3.618968963623047,22.57125785803213,22.15450892475438,90.16433318558497,80.83495240863897,-0.0001295089750783,0.0956302732229232,0,0,0
7520,262908.6028099295,2010-11-04 15:25:44,1680.8402125563423,7,23,-1.099568486213684,3.615083694458008,22.57125785803213,22.16367730739183,90.16433318558497,80.86811402087534,-9.713172767078504e-05,0.0956302732229232,0,0,0
7521,262938.61809687346,2010-11-04 15:26:14,1710.855499510316,7,23,-1.0993878841400146,3.6113603115081783,22.57125785803213,22.17284563231815,90.16433318558497,80.90123968287071,-6.47544875391759e-05,0.0956302732229232,0,0,0
7522,262968.6334998771,2010-11-04 15:26:44,1740.8709025139676,7,23,-1.0997490882873535,3.6073131561279297,22.57125785803213,22.18201403154424,90.16433318558497,80.93433044227426,-0.0001295089750783,0.0956302732229232,0,0,0
7523,262998.6486414933,2010-11-04 15:27:14,1770.8860441251431,7,23,-1.0993878841400146,3.603751659393311,22.57125785803213,22.191182327392788,90.16433318558497,80.96738621115817,-9.713172767078504e-05,0.0956302732229232,0,0,0
7524,263028.6640484318,2010-11-04 15:27:44,1800.9014510686293,7,23,-1.099568486213684,3.600028276443481,22.57125785803213,22.200350732050104,90.16433318558497,81.00040871767675,-6.47544875391759e-05,0.0956302732229232,0,0,0
7525,263058.67922243883,2010-11-04 15:28:14,1830.916625070657,7,23,-1.099568486213684,3.5964667797088623,22.57125785803213,22.209519069121143,90.16433318558497,81.03339833635192,-9.713172767078504e-05,0.0956302732229232,0,0,0
7526,263088.694494661,2010-11-04 15:28:44,1860.931897292858,7,23,-1.099568486213684,3.593067169189453,22.57125785803213,22.218687449099207,90.16433318558497,81.0663561472664,-9.713172767078504e-05,0.0956302732229232,0,0,0
7527,263118.7099409126,2010-11-04 15:29:14,1890.9473435795503,7,23,-1.0997490882873535,3.589505910873413,22.57125785803213,22.22785585103312,90.16433318558497,81.09928261045667,-0.0001295089750783,0.0956302732229232,0,0,0
7528,263148.7250632557,2010-11-04 15:29:44,1920.962465892555,7,23,-1.0997490882873535,3.586268186569214,22.57125785803213,22.237024215641704,90.16433318558497,81.132178485196,-9.713172767078504e-05,0.0956302732229232,0,0,0
7529,263178.74036109686,2010-11-04 15:30:14,1950.9777637337045,7,23,-1.0997490882873535,3.583030462265014,22.57125785803213,22.246192583493748,90.16433318558497,81.16504430809876,-9.713172767078504e-05,0.0956302732229232,0,0,0
7530,263208.7556202965,2010-11-04 15:30:44,1980.9930229283864,7,23,-1.0997490882873535,3.5797927379608154,22.57125785803213,22.25536097257678,90.16433318558497,81.19788059762409,-6.47544875391759e-05,0.0956302732229232,0,0,0
7531,263238.7709021528,2010-11-04 15:31:14,2011.008304779623,7,23,-1.099568486213684,3.576878786087036,22.57125785803213,22.264529355104305,90.16433318558497,81.23068758761815,-6.47544875391759e-05,0.0956302732229232,0,0,0
7532,263268.7863047855,2010-11-04 15:31:44,2041.0237074123488,7,23,-1.099568486213684,3.573479175567627,22.57125785803213,22.27369780275918,90.16433318558497,81.26346569483673,-9.713172767078504e-05,0.0956302732229232,0,0,0
7533,263298.80148190534,2010-11-04 15:32:14,2071.038884562234,7,23,-1.0997490882873535,3.570241451263428,22.57125785803213,22.282866128567008,90.16433318558497,81.29621521991496,-0.0001295089750783,0.0956302732229232,0,0,0
7534,263328.8167658267,2010-11-04 15:32:44,2101.0541684585755,7,23,-1.0997490882873535,3.5674893856048584,22.57125785803213,22.29203450054596,90.16433318558497,81.3289365686428,-9.713172767078504e-05,0.0956302732229232,0,0,0
7535,263358.83233171195,2010-11-04 15:33:14,2131.069734464105,7,23,-1.099568486213684,3.564413547515869,22.57125785803213,22.301202934899585,90.16433318558497,81.36163045297133,-6.47544875391759e-05,0.0956302732229232,0,0,0
7536,263388.84743603005,2010-11-04 15:33:44,2161.0848387771784,7,23,-1.099568486213684,3.5616614818573,22.57125785803213,22.31037113242492,90.16433318558497,81.39429618206847,-9.713172767078504e-05,0.0956302732229232,0,0,0
7537,263418.86276561546,2010-11-04 15:34:14,2191.100168252291,7,23,-1.0997490882873535,3.55826187133789,22.57125785803213,22.319539514311185,90.16433318558497,81.42693520452167,-0.0001295089750783,0.0956302732229232,0,0,0
7538,263448.8778940888,2010-11-04 15:34:44,2221.1152967206604,7,23,-1.099568486213684,3.5553479194641118,22.57125785803213,22.328707783014657,90.16433318558497,81.45954619234078,-9.713172767078504e-05,0.0956302732229232,0,0,0
7539,263478.89335133287,2010-11-04 15:35:14,2251.1307539997915,7,23,-1.0997490882873535,3.552272081375122,22.57125785803213,22.33787620986325,90.16433318558497,81.49212995509113,-0.0001295089750783,0.0956302732229232,0,0,0
7540,263508.90856953023,2010-11-04 15:35:44,2281.145972187113,7,23,-1.0997490882873535,3.549196243286133,22.57125785803213,22.34704453456021,90.16433318558497,81.52468484821013,-9.713172767078504e-05,0.0956302732229232,0,0,0
7541,263538.9241741621,2010-11-04 15:36:14,2311.16157681906,7,23,-1.099568486213684,3.546120405197144,22.57125785803213,22.356212977283967,90.16433318558497,81.55721150551986,-9.713172767078504e-05,0.0956302732229232,0,0,0
7542,263568.9390222657,2010-11-04 15:36:44,2341.176424902545,7,23,-1.0993878841400146,3.5428826808929443,22.57125785803213,22.36538119255658,90.16433318558497,81.58970821608179,-9.713172767078504e-05,0.0956302732229232,0,0,0
7543,263598.95427945035,2010-11-04 15:37:15,2371.191682082197,7,23,-1.099568486213684,3.539806842803955,22.57125785803213,22.37454953904743,90.16433318558497,81.62217613964155,-6.47544875391759e-05,0.0956302732229232,0,0,0
7544,263628.96956021385,2010-11-04 15:37:45,2401.206962840706,7,23,-1.0997490882873535,3.536407232284546,22.57125785803213,22.38371791062668,90.16433318558497,81.6546145624096,-6.47544875391759e-05,0.0956302732229232,0,0,0
7545,263658.98485537834,2010-11-04 15:38:15,2431.222258010187,7,23,-1.099568486213684,3.5331695079803467,22.57125785803213,22.392886332025064,90.16433318558497,81.68702305694804,-6.47544875391759e-05,0.0956302732229232,0,0,0
7546,263689.0001245429,2010-11-04 15:38:45,2461.237527169743,7,23,-1.099568486213684,3.529769897460937,22.57125785803213,22.402054657325323,90.16433318558497,81.71940078644366,-6.47544875391759e-05,0.0956302732229232,0,0,0
7547,263719.0154200182,2010-11-04 15:39:15,2491.252822675062,7,23,-1.099568486213684,3.5263702869415283,22.57125785803213,22.411223112898607,90.16433318558497,81.7517469970954,-6.47544875391759e-05,0.0956302732229232,0,0,0
7548,263749.0307318292,2010-11-04 15:39:45,2521.26813446102,7,23,-1.0997490882873535,3.522646903991699,22.57125785803213,22.42039156230373,90.16433318558497,81.78406058655402,-9.713172767078504e-05,0.0956302732229232,0,0,0
7549,263779.0463200401,2010-11-04 15:40:15,2551.283722666965,7,23,-1.099568486213684,3.51892352104187,22.57125785803213,22.429560034229045,90.16433318558497,81.81634061337333,-6.47544875391759e-05,0.0956302732229232,0,0,0
7550,263809.06122150185,2010-11-04 15:40:45,2581.298624138716,7,23,-1.099568486213684,3.514876365661621,22.57125785803213,22.43872819555864,90.16433318558497,81.84858501481057,-0.0001295089750783,0.0956302732229232,0,0,0
7551,263839.07648662635,2010-11-04 15:41:15,2611.313889263199,7,23,-1.099568486213684,3.510829448699951,22.57125785803213,22.447895863774537,90.16433318558497,81.8807907094119,-9.713172767078504e-05,0.0956302732229232,0,0,0
7552,263869.09169872844,2010-11-04 15:41:45,2641.329101390394,7,23,-1.099568486213684,3.5064585208892822,22.57125785803213,22.45706358059649,90.16433318558497,81.91295799439034,-0.0001295089750783,0.0956302732229232,0,0,0
7553,263899.10709135624,2010-11-04 15:42:15,2671.3444939930823,7,23,-1.099568486213684,3.5020875930786133,22.57125785803213,22.46623132843016,90.16433318558497,81.9450845111991,-9.713172767078504e-05,0.0956302732229232,0,0,0
7554,263929.1223670922,2010-11-04 15:42:45,2701.3597697290547,7,23,-1.099929690361023,3.4970691204071045,22.57125785803213,22.47539891370232,90.16433318558497,81.97716736893057,-0.0001618862152099,0.0956302732229232,0,0,0
7555,263959.1376801814,2010-11-04 15:43:15,2731.375082823278,7,23,-1.0997490882873535,3.4918887615203857,22.57125785803213,22.48456658531905,90.16433318558497,82.00920418748805,-0.0001618862152099,0.0956302732229232,0,0,0
7556,263989.15281829383,2010-11-04 15:43:45,2761.3902209307075,7,23,-1.099568486213684,3.486222743988037,22.57125785803213,22.493734198647463,90.16433318558497,82.04119055175794,-0.0001618862152099,0.0956302732229232,0,0,0
7557,264019.16822211456,2010-11-04 15:44:15,2791.4056247513986,7,23,-1.0997490882873535,3.4797472953796387,22.57125785803213,22.50290247117544,90.16433318558497,82.07312409944744,-0.0001618862152099,0.0956302732229232,0,0,0
7558,264049.1834803518,2010-11-04 15:44:45,2821.420882978666,7,23,-1.099568486213684,3.4727861881256104,22.57125785803213,22.512070706699472,90.16433318558497,82.10499609331666,-0.0001618862152099,0.0956302732229232,0,0,0
7559,264079.1988908041,2010-11-04 15:45:15,2851.436293440935,7,23,-1.0997490882873535,3.4646918773651123,22.57125785803213,22.521238955465517,90.16433318558497,82.13679864412619,-0.0002266406954731,0.0956302732229232,0,0,0
7560,264109.214041543,2010-11-04 15:45:45,2881.4514441748825,7,23,-1.099568486213684,3.4551405906677246,22.57125785803213,22.53040709065063,90.16433318558497,82.1685207271722,-0.0002590179501567,0.0956302732229232,0,0,0
7561,264139.2293351937,2010-11-04 15:46:15,2911.4667378205595,7,23,-1.099568486213684,3.4441323280334477,22.57125785803213,22.53957531714265,90.16433318558497,82.20014876538644,-0.0002590179501567,0.0956302732229232,0,0,0
7562,264169.24475201685,2010-11-04 15:46:45,2941.482154658744,7,23,-1.099568486213684,3.4308578968048096,22.57125785803213,22.548743601588548,90.16433318558497,82.23166537970747,-0.0003561019839253,0.0956302732229232,0,0,0
7563,264199.2599205352,2010-11-04 15:47:15,2971.497323252272,7,23,-1.0997490882873535,3.4143455028533936,22.57125785803213,22.55791185513927,90.16433318558497,82.26304643682515,-0.0005180359003134,0.0956302732229232,0,0,0
7564,264229.2751736898,2010-11-04 15:47:45,3001.5125763316896,7,23,-1.099568486213684,3.3936240673065186,22.57125785803213,22.56708011260965,90.16433318558497,82.29425883440274,-0.0006151676061563,0.0956302732229232,0,0,0
7565,264259.2904649345,2010-11-04 15:48:15,3031.527867561336,7,23,-1.099929690361023,3.366589069366455,22.57125785803213,22.57624834516736,90.16433318558497,82.32525461669078,-0.0008094310760498,0.0956302732229232,0,0,0
7566,264289.3058616274,2010-11-04 15:48:45,3061.5432642642595,7,23,-1.0997490882873535,3.330812454223633,22.57125785803213,22.58541666358624,90.16433318558497,82.35596521554494,-0.0011008263099938,0.0956302732229232,0,0,0
7567,264319.3210087173,2010-11-04 15:49:15,3091.5584113490986,7,23,-1.0997490882873535,3.2819228172302246,22.57125785803213,22.59458492995193,90.16433318558497,82.38629097948461,-0.0014893531333655,0.0956302732229232,0,0,0
7568,264349.3363025785,2010-11-04 15:49:45,3121.5737052153254,7,23,-1.099568486213684,3.2131214141845703,22.57125785803213,22.60375323423052,90.16433318558497,82.4160839380003,-0.0021368979942053,0.0956302732229232,0,0,0
7569,264379.3516185148,2010-11-04 15:50:15,3151.589021151644,7,23,-1.0997490882873535,3.111457109451294,22.57125785803213,22.612921527265836,90.16433318558497,82.44510930985051,-0.0032377243041992,0.0956302732229232,0,0,0
7570,264409.36686215067,2010-11-04 15:50:45,3181.604264782476,7,23,-1.099568486213684,2.934516191482544,22.57125785803213,22.622089861090924,90.16433318558497,82.47292564486604,-0.0065401555038988,0.0956302732229232,0,0,0
7571,264427.31978170987,2010-11-04 15:51:03,3199.5571843416838,7,23,-1.099568486213684,2.7342634201049805,22.57125785803213,22.62757359624785,90.16433318558497,82.48850945359868,-0.0103607177734375,0.0956302732229232,0,0,0
7572,264429.8510081254,2010-11-04 15:51:05,3202.088410757236,7,23,-1.099568486213684,2.699943780899048,22.57125785803213,22.62834676861165,90.16433318558497,82.49061029721612,-0.010781574063003,0.0956302732229232,0,0,0
7573,264489.85327471886,2010-11-04 15:52:06,60.01505830361171,8,23,0.0,3.3290317058563232,22.57125785803213,22.62834676861165,90.16433318558497,82.49061029721612,0.0012627125252038,0.0956302732229232,0,0,0
7574,264490.0441765016,2010-11-04 15:52:06,0.187490685595968,9,23,-1.9243103452026844e-05,3.3290317058563232,22.57125785803213,22.628346769613845,90.16433318558497,82.49061030055248,0.0,0.0955438911914825,0,0,0
7575,264494.8722324369,2010-11-04 15:52:11,5.015546610963521,9,23,0.0008838032954372,3.3366403579711914,22.571258715465444,22.6283467697808,90.16433604386202,82.49061030110826,0.0011008263099938,0.0955438911914825,0,0,0
