Data_Point,Test_Time(s),Date_Time,Step_Time(s),Step_Index,Cycle_Index,Current(A),Voltage(V),Charge_Capacity(Ah),Discharge_Capacity(Ah),Charge_Energy(Wh),Discharge_Energy(Wh),dV/dt(V/s),Internal_Resistance(Ohm),Is_FC_Data,AC_Impedance(Ohm),ACI_Phase_Angle(Deg)
9022,378642.0448229223,2011-01-22 22:28:58,30.015147573182396,1,45,0.0,3.6463277339935294,27.688694537578385,27.621604536775173,112.99512492388548,97.1488543757203,0.0006799221155233,0.1085970923304557,0,0,0
9023,378672.0623599657,2011-01-22 22:29:28,60.03268470187236,1,45,0.0,3.667696714401245,27.688694537578385,27.621604536775173,112.99512492388548,97.1488543757203,0.0004209041653666,0.1085970923304557,0,0,0
9024,378702.0750838684,2011-01-22 22:29:58,90.0454084992597,1,45,0.0,3.6825900077819824,27.688694537578385,27.621604536775173,112.99512492388548,97.1488543757203,0.0003237724304199,0.1085970923304557,0,0,0
9025,378732.0433852514,2011-01-22 22:30:28,120.01370998257195,1,45,0.0,3.69392204284668,27.688694537578385,27.621604536775173,112.99512492388548,97.1488543757203,0.0002913951757363,0.1085970923304557,0,0,0
9026,378762.072969172,2011-01-22 22:30:58,30.01749392100312,2,45,0.550297200679779,3.8106417655944815,27.693282222917112,27.621604536775173,113.01252391061406,97.1488543757203,0.0007122993702068,0.1085970923304557,0,0,0
9027,378792.08575422206,2011-01-22 22:31:28,60.030278875813565,2,45,0.5501165986061096,3.830553770065308,27.697869207068617,27.621604536775173,113.03005345014478,97.1488543757203,0.0004209041653666,0.1085970923304557,0,0,0
9028,378822.10089622135,2011-01-22 22:31:58,90.04542086006663,2,45,0.5501165986061096,3.8439900875091553,27.70245652837369,27.621604536775173,113.04765780632631,97.1488543757203,0.0003237724304199,0.1085970923304557,0,0,0
9029,378852.1160341906,2011-01-22 22:32:28,120.06055882931304,2,45,0.5501165986061096,3.854836463928223,27.707043836215124,27.621604536775173,113.06531686900388,97.1488543757203,0.0002913951757363,0.1085970923304557,0,0,0
9030,378882.13118203945,2011-01-22 22:32:58,150.07570669322004,2,45,0.5501165986061096,3.8640639781951904,27.711631100970823,27.621604536775173,113.0830216999014,97.1488543757203,0.0002266406954731,0.1085970923304557,0,0,0
9031,378912.1463002144,2011-01-22 22:33:28,180.0908248530954,2,45,0.5501165986061096,3.872482061386109,27.716218399815528,27.621604536775173,113.10076706824124,97.1488543757203,0.0001942634553415,0.1085970923304557,0,0,0
9032,378942.16146334127,2011-01-22 22:33:59,210.10598797503005,2,45,0.5501165986061096,3.8802525997161865,27.720805717256667,27.621604536775173,113.1185490745314,97.1488543757203,0.0001942634553415,0.1085970923304557,0,0,0
9033,378972.1765577219,2011-01-22 22:34:29,240.1210823606527,2,45,0.5501165986061096,3.887213706970215,27.72539297149984,27.621604536775173,113.13636465295563,97.1488543757203,0.0001942634553415,0.1085970923304557,0,0,0
9034,379002.191720884,2011-01-22 22:34:59,270.1362455276998,2,45,0.5501165986061096,3.8938510417938232,27.72998022941601,27.621604536775173,113.15421187571918,97.1488543757203,0.0001618862152099,0.1085970923304557,0,0,0
9035,379032.20682616177,2011-01-22 22:35:29,300.15135080045656,2,45,0.550297200679779,3.900164604187012,27.734567510093417,27.621604536775173,113.17208890265692,97.1488543757203,0.0001295089750783,0.1085970923304557,0,0,0
9036,379062.2220750975,2011-01-22 22:35:59,330.1665997462908,2,45,0.5497553944587708,3.9063162803649902,27.73915486075828,27.621604536775173,113.1899946389169,97.1488543757203,0.0001618862152099,0.1085970923304557,0,0,0
9037,379092.2370983659,2011-01-22 22:36:29,360.1816230096548,2,45,0.550297200679779,3.911982297897339,27.74374207350304,27.621604536775173,113.20792696038568,97.1488543757203,0.0001618862152099,0.1085970923304557,0,0,0
9038,379122.25230490114,2011-01-22 22:36:59,390.19682954478856,2,45,0.550297200679779,3.917648077011109,27.748329373272764,27.621604536775173,113.2258857170928,97.1488543757203,0.0001618862152099,0.1085970923304557,0,0,0
9039,379152.26737075055,2011-01-22 22:37:29,420.2118954043154,2,45,0.550297200679779,3.922990322113037,27.75291660837087,27.621604536775173,113.24386914202536,97.1488543757203,0.0001295089750783,0.1085970923304557,0,0,0
9040,379182.2825208951,2011-01-22 22:37:59,450.227045523844,2,45,0.5501165986061096,3.928008794784546,27.75750385680736,27.621604536775173,113.26187648956471,97.1488543757203,0.0001618862152099,0.1085970923304557,0,0,0
9041,379212.2977644325,2011-01-22 22:38:29,480.2422890862611,2,45,0.5501165986061096,3.9328653812408447,27.762091195982755,27.621604536775173,113.27990724734332,97.1488543757203,0.0001295089750783,0.1085970923304557,0,0,0
9042,379242.3127678163,2011-01-22 22:38:59,510.2572924600543,2,45,0.5501165986061096,3.937721967697144,27.76667845375148,27.621604536775173,113.29795967612274,97.1488543757203,9.713172767078504e-05,0.1085970923304557,0,0,0
9043,379272.3279361212,2011-01-22 22:39:29,540.2724607699189,2,45,0.550297200679779,3.942092895507813,27.77126569072998,27.621604536775173,113.31603309461566,97.1488543757203,0.0001295089750783,0.1085970923304557,0,0,0
9044,379302.3430252236,2011-01-22 22:39:59,570.2875498673618,2,45,0.550297200679779,3.9466257095336914,27.77585221597173,27.621604536775173,113.3341238201032,97.1488543757203,0.0001295089750783,0.1085970923304557,0,0,0
9045,379332.35819712246,2011-01-22 22:40:29,600.3027217561461,2,45,0.5501165986061096,3.950672864913941,27.780438842739912,27.621604536775173,113.35223437576025,97.1488543757203,9.713172767078504e-05,0.1085970923304557,0,0,0
9046,379362.3732843552,2011-01-22 22:40:59,630.3178089939543,2,45,0.550297200679779,3.9547200202941895,27.78502606849065,27.621604536775173,113.3703660137524,97.1488543757203,0.0001295089750783,0.1085970923304557,0,0,0
9047,379392.38847169245,2011-01-22 22:41:29,660.332996331241,2,45,0.5501165986061096,3.9584434032440186,27.78961332884424,27.621604536775173,113.38851579772974,97.1488543757203,6.47544875391759e-05,0.1085970923304557,0,0,0
9048,379422.4038211338,2011-01-22 22:41:59,690.3483458176532,2,45,0.550297200679779,3.9623286724090576,27.794200558281453,27.621604536775173,113.4066828456572,97.1488543757203,0.0001295089750783,0.1085970923304557,0,0,0
9049,379452.4187384732,2011-01-22 22:42:29,720.3632631119098,2,45,0.5501165986061096,3.9658901691436768,27.79878778751211,27.621604536775173,113.42486686454625,97.1488543757203,9.713172767078504e-05,0.1085970923304557,0,0,0
9050,379482.4340265716,2011-01-22 22:42:59,750.3785512103242,2,45,0.5501165986061096,3.969451665878296,27.803375110243373,27.621604536775173,113.44306782257895,97.1488543757203,9.713172767078504e-05,0.1085970923304557,0,0,0
9051,379512.4490113841,2011-01-22 22:43:29,780.3935360278695,2,45,0.550297200679779,3.972851276397705,27.80796235242312,27.621604536775173,113.4612845783699,97.1488543757203,9.713172767078504e-05,0.1085970923304557,0,0,0
9052,379542.4642862796,2011-01-22 22:43:59,810.4088109133532,2,45,0.550297200679779,3.976412773132324,27.812549603989822,27.621604536775173,113.479517197509,97.1488543757203,9.713172767078504e-05,0.1085970923304557,0,0,0
9053,379572.47928427503,2011-01-22 22:44:29,840.4238089187667,2,45,0.550297200679779,3.979812383651733,27.817136864899577,27.621604536775173,113.4977652936569,97.1488543757203,0.0001295089750783,0.1085970923304557,0,0,0
9054,379602.4944194273,2011-01-22 22:44:59,870.4389440860298,2,45,0.550297200679779,3.9830501079559326,27.821723992588783,27.621604536775173,113.51602845856526,97.1488543757203,6.47544875391759e-05,0.1085970923304557,0,0,0
9055,379632.5095830404,2011-01-22 22:45:29,900.4541078094637,2,45,0.5501165986061096,3.986287832260132,27.82631117221107,27.621604536775173,113.53430695762434,97.1488543757203,6.47544875391759e-05,0.1085970923304557,0,0,0
9056,379662.5247075611,2011-01-22 22:45:59,930.46923220488,2,45,0.5501165986061096,3.989687442779541,27.83089831589175,27.621604536775173,113.55260017403089,97.1488543757203,0.0001295089750783,0.1085970923304557,0,0,0
9057,379692.5398336157,2011-01-22 22:46:29,960.4843582443938,2,45,0.5501165986061096,3.9927632808685294,27.835485468132028,27.621604536775173,113.5709081375104,97.1488543757203,9.713172767078504e-05,0.1085970923304557,0,0,0
9058,379722.5549641113,2011-01-22 22:46:59,990.4994887700884,2,45,0.550297200679779,3.995838880538941,27.840072664494645,27.621604536775173,113.58923088867176,97.1488543757203,6.47544875391759e-05,0.1085970923304557,0,0,0
9059,379752.570094236,2011-01-22 22:47:29,1020.5146188897714,2,45,0.5501165986061096,3.9989147186279297,27.84465991087849,27.621604536775173,113.607568195692,97.1488543757203,9.713172767078504e-05,0.1085970923304557,0,0,0
9060,379782.5852476588,2011-01-22 22:47:59,1050.5297723927326,2,45,0.550297200679779,4.002152442932129,27.849247059485304,27.621604536775173,113.62591929636856,97.1488543757203,6.47544875391759e-05,0.1085970923304557,0,0,0
9061,379812.600363528,2011-01-22 22:48:29,1080.5448881867117,2,45,0.5501165986061096,4.005066394805908,27.853834242120783,27.621604536775173,113.64428458273863,97.1488543757203,6.47544875391759e-05,0.1085970923304557,0,0,0
9062,379842.6155021789,2011-01-22 22:48:59,1110.560026817607,2,45,0.5499359965324402,4.007980346679688,27.85842138841717,27.621604536775173,113.66266365437802,97.1488543757203,3.23295607813634e-05,0.1085970923304557,0,0,0
9063,379872.63076002686,2011-01-22 22:49:29,1140.5752846756532,2,45,0.5501165986061096,4.011218070983887,27.86300864316945,27.621604536775173,113.68105685955958,97.1488543757203,9.70840483205393e-05,0.1085970923304557,0,0,0
9064,379902.6458186935,2011-01-22 22:49:59,1170.5903433222031,2,45,0.550297200679779,4.013970375061035,27.867595800177217,27.621604536775173,113.6994632940392,97.1488543757203,3.24249267578125e-05,0.1085970923304557,0,0,0
9065,379932.66105171473,2011-01-22 22:50:29,1200.605576343348,2,45,0.550297200679779,4.017045974731445,27.872183024178348,27.621604536775173,113.71788354218012,97.1488543757203,9.70840483205393e-05,0.1085970923304557,0,0,0
9066,379962.6761714084,2011-01-22 22:50:59,1230.620696062109,2,45,0.5501165986061096,4.019959926605225,27.87677026470548,27.621604536775173,113.7363173030856,97.1488543757203,9.70840483205393e-05,0.1085970923304557,0,0,0
9067,379992.6911869123,2011-01-22 22:51:29,1260.6357115611215,2,45,0.550297200679779,4.022873878479004,27.881357392178284,27.621604536775173,113.75476402087035,97.1488543757203,6.47544875391759e-05,0.1085970923304557,0,0,0
9068,380022.70645259,2011-01-22 22:51:59,1290.6509772286313,2,45,0.550297200679779,4.025787830352783,27.88594456592781,27.621604536775173,113.77322429891186,97.1488543757203,6.47544875391759e-05,0.1085970923304557,0,0,0
9069,380052.72167168633,2011-01-22 22:52:29,1320.6661963250715,2,45,0.5501165986061096,4.0287017822265625,27.89053169992643,27.621604536775173,113.79169777182656,97.1488543757203,9.70840483205393e-05,0.1085970923304557,0,0,0
9070,380082.7365816574,2011-01-22 22:52:59,1350.681106301089,2,45,0.5501165986061096,4.031615734100342,27.895118826342166,27.621604536775173,113.81018440550665,97.1488543757203,6.47544875391759e-05,0.1085970923304557,0,0,0
9071,380112.7518612296,2011-01-22 22:53:29,1380.696385868241,2,45,0.5501165986061096,4.034529685974121,27.899705956451093,27.621604536775173,113.82868430771929,97.1488543757203,9.70840483205393e-05,0.1085970923304557,0,0,0
9072,380142.76686591154,2011-01-22 22:53:59,1410.7113905703447,2,45,0.5501165986061096,4.037281513214111,27.9042930787812,27.621604536775173,113.8471973863665,97.1488543757203,6.47544875391759e-05,0.1085970923304557,0,0,0
9073,380172.7822461847,2011-01-22 22:54:29,1440.7267708184245,2,45,0.550297200679779,4.04003381729126,27.908880254837605,27.621604536775173,113.86572378311202,97.1488543757203,3.24249267578125e-05,0.1085970923304557,0,0,0
9074,380202.7971174693,2011-01-22 22:54:59,1470.7416421130356,2,45,0.5499359965324402,4.042947769165039,27.913467396055875,27.621604536775173,113.88426316382888,97.1488543757203,6.47544875391759e-05,0.1085970923304557,0,0,0
9075,380232.8123764852,2011-01-22 22:55:29,1500.7569011389926,2,45,0.550297200679779,4.046023368835449,27.91805464431107,27.621604536775173,113.90281616301004,97.1488543757203,9.70840483205393e-05,0.1085970923304557,0,0,0
9076,380262.8274265704,2011-01-22 22:55:59,1530.7719512141798,2,45,0.550297200679779,4.048775672912598,27.92264184409618,27.621604536775173,113.92138212350667,97.1488543757203,6.47544875391759e-05,0.1085970923304557,0,0,0
9077,380292.8425286402,2011-01-22 22:56:29,1560.7870532839538,2,45,0.5504778623580933,4.051689624786377,27.92722909956893,27.621604536775173,113.93996148302912,97.1488543757203,6.47544875391759e-05,0.1085970923304557,0,0,0
9078,380322.857682855,2011-01-22 22:56:59,1590.802207508714,2,45,0.5501165986061096,4.054279804229736,27.931816272294924,27.621604536775173,113.95855365461128,97.1488543757203,3.24249267578125e-05,0.1085970923304557,0,0,0
9079,380352.8727982379,2011-01-22 22:57:29,1620.8173228966807,2,45,0.550297200679779,4.057517528533936,27.9364035584027,27.621604536775173,113.97715950114744,97.1488543757203,0.0001295089750783,0.1085970923304557,0,0,0
9080,380382.890242465,2011-01-22 22:57:59,1650.8347671188194,2,45,0.550297200679779,4.060431480407715,27.94099116654478,27.621604536775173,113.99577998230468,97.1488543757203,0.0001295089750783,0.1085970923304557,0,0,0
9081,380412.9030726376,2011-01-22 22:58:29,1680.8475972963386,2,45,0.550297200679779,4.063183307647705,27.945578024698545,27.621604536775173,114.01441039307628,97.1488543757203,9.70840483205393e-05,0.1085970923304557,0,0,0
9082,380442.91833353817,2011-01-22 22:58:59,1710.8628581769178,2,45,0.550297200679779,4.066259384155273,27.95016527055271,27.621604536775173,114.03305592232988,97.1488543757203,9.71794142969884e-05,0.1085970923304557,0,0,0
9083,380472.9333709718,2011-01-22 22:59:29,1740.8778956256365,2,45,0.5499359965324402,4.069011211395264,27.95475245380254,27.621604536775173,114.05171469707494,97.1488543757203,9.70840483205393e-05,0.1085970923304557,0,0,0
9084,380502.94867574185,2011-01-22 22:59:59,1770.8932004657763,2,45,0.550297200679779,4.072087287902832,27.95933960551386,27.621604536775173,114.07038681684648,97.1488543757203,9.71794142969884e-05,0.1085970923304557,0,0,0
9085,380532.9637584584,2011-01-22 23:00:29,1800.908283092091,2,45,0.5501165986061096,4.075001239776611,27.9639267082677,27.621604536775173,114.08907237018413,97.1488543757203,9.71794142969884e-05,0.1085970923304557,0,0,0
9086,380562.9787535165,2011-01-22 23:00:59,1830.9232781752207,2,45,0.550297200679779,4.0780768394470215,27.96851388086525,27.621604536775173,114.10777199710796,97.1488543757203,9.70840483205393e-05,0.1085970923304557,0,0,0
9087,380592.9940064072,2011-01-22 23:01:29,1860.9385310608748,2,45,0.5501165986061096,4.08082914352417,27.97310114420956,27.621604536775173,114.12648589138986,97.1488543757203,6.47544875391759e-05,0.1085970923304557,0,0,0
9088,380623.0090233197,2011-01-22 23:01:59,1890.9535479734109,2,45,0.5501165986061096,4.084066867828369,27.97768832688021,27.621604536775173,114.145213283935,97.1488543757203,9.71794142969884e-05,0.1085970923304557,0,0,0
9089,380653.0241471487,2011-01-22 23:02:29,1920.968671807428,2,45,0.5501165986061096,4.087142467498779,27.98227552279768,27.621604536775173,114.16395479872882,97.1488543757203,9.70840483205393e-05,0.1085970923304557,0,0,0
9090,380683.03982945456,2011-01-22 23:02:59,1950.9843540932784,2,45,0.550297200679779,4.0903801918029785,27.986862791743444,27.621604536775173,114.18271069708616,97.1488543757203,9.70840483205393e-05,0.1085970923304557,0,0,0
9091,380713.04100259417,2011-01-22 23:03:29,1980.98552722786,2,45,0.5501165986061096,4.093294143676758,27.99144788678125,27.621604536775173,114.20147176549445,97.1488543757203,9.70840483205393e-05,0.1085970923304557,0,0,0
9092,380743.0540801031,2011-01-22 23:03:59,2010.998604741818,2,45,0.550297200679779,4.096370220184326,27.996034755961823,27.621604536775173,114.22025431521368,97.1488543757203,6.47544875391759e-05,0.1085970923304557,0,0,0
9093,380773.06908319617,2011-01-22 23:04:29,2041.013607834912,2,45,0.5501165986061096,4.099445819854736,28.00062195212072,27.621604536775173,114.23905249765149,97.1488543757203,9.70840483205393e-05,0.1085970923304557,0,0,0
9094,380803.0841826144,2011-01-22 23:04:59,2071.028707258089,2,45,0.5501165986061096,4.102683544158936,28.00520919182956,27.621604536775173,114.25786523556508,97.1488543757203,9.70840483205393e-05,0.1085970923304557,0,0,0
9095,380833.0993591698,2011-01-22 23:05:29,2101.043883823529,2,45,0.5501165986061096,4.105921268463135,28.009796364378868,27.621604536775173,114.27669225521142,97.1488543757203,9.70840483205393e-05,0.1085970923304557,0,0,0
9096,380863.1144593949,2011-01-22 23:05:59,2131.0589840336684,2,45,0.550297200679779,4.109158992767334,28.01438354761457,27.621604536775173,114.2955339814911,97.1488543757203,9.70840483205393e-05,0.1085970923304557,0,0,0
9097,380893.1296429328,2011-01-22 23:06:30,2161.074167561461,2,45,0.5501165986061096,4.112235069274902,28.01897071376565,27.621604536775173,114.31439050774296,97.1488543757203,6.47544875391759e-05,0.1085970923304557,0,0,0
9098,380923.1447340001,2011-01-22 23:07:00,2191.089258643851,2,45,0.550297200679779,4.115634441375732,28.02355785851401,27.621604536775173,114.33326175779828,97.1488543757203,9.71794142969884e-05,0.1085970923304557,0,0,0
9099,380953.1598639895,2011-01-22 23:07:30,2221.104388648246,2,45,0.5501165986061096,4.118872165679932,28.0281450013902,27.621604536775173,114.35214795590812,97.1488543757203,9.71794142969884e-05,0.1085970923304557,0,0,0
9100,380983.1750049462,2011-01-22 23:08:00,2251.119529589901,2,45,0.550297200679779,4.122271537780762,28.032732259704616,27.621604536775173,114.37104978995475,97.1488543757203,9.70840483205393e-05,0.1085970923304557,0,0,0
9101,381013.1901482287,2011-01-22 23:08:30,2281.1346728874278,2,45,0.5501165986061096,4.125509262084961,28.037319472113083,27.621604536775173,114.3899666209015,97.1488543757203,9.70840483205393e-05,0.1085970923304557,0,0,0
9102,381043.2055082613,2011-01-22 23:09:00,2311.150032920124,2,45,0.5499359965324402,4.128909111022949,28.041906808611227,27.621604536775173,114.40889930107724,97.1488543757203,0.0001295089750783,0.1085970923304557,0,0,0
9103,381073.2204041924,2011-01-22 23:09:30,2341.1649288511367,2,45,0.550297200679779,4.132308483123779,28.046494053948862,27.621604536775173,114.42784707655612,97.1488543757203,0.0001295089750783,0.1085970923304557,0,0,0
9104,381103.2355549084,2011-01-22 23:10:00,2371.1800795521144,2,45,0.5501165986061096,4.135708332061768,28.05108135821317,27.621604536775173,114.44681059287076,97.1488543757203,9.71794142969884e-05,0.1085970923304557,0,0,0
9105,381133.2506881158,2011-01-22 23:10:30,2401.1952127544805,2,45,0.550297200679779,4.139107704162598,28.055668584606828,27.621604536775173,114.46578948718322,97.1488543757203,0.0001295089750783,0.1085970923304557,0,0,0
9106,381163.2660561084,2011-01-22 23:11:00,2431.210580742003,2,45,0.550297200679779,4.142507553100586,28.060255878046046,27.621604536775173,114.48478448076848,97.1488543757203,6.47544875391759e-05,0.1085970923304557,0,0,0
9107,381193.280944686,2011-01-22 23:11:30,2461.2254693247014,2,45,0.550297200679779,4.146069049835205,28.06484309722426,27.621604536775173,114.50379517178618,97.1488543757203,9.71794142969884e-05,0.1085970923304557,0,0,0
9108,381223.2962081079,2011-01-22 23:12:00,2491.240732761652,2,45,0.5501165986061096,4.149630546569824,28.069430367774597,27.621604536775173,114.52282237371918,97.1488543757203,9.71794142969884e-05,0.1085970923304557,0,0,0
9109,381253.3112269452,2011-01-22 23:12:30,2521.2557515989847,2,45,0.550297200679779,4.153192043304443,28.074017538259746,27.621604536775173,114.5418653047459,97.1488543757203,0.0001619339018361,0.1085970923304557,0,0,0
9110,381283.3263507141,2011-01-22 23:13:00,2551.2708753528022,2,45,0.5501165986061096,4.156591415405273,28.078604774429195,27.621604536775173,114.56092482836348,97.1488543757203,9.70840483205393e-05,0.1085970923304557,0,0,0
9111,381313.3415199563,2011-01-22 23:13:30,2581.2860445949905,2,45,0.5501165986061096,4.160315036773682,28.08319198041916,27.621604536775173,114.58000067214849,97.1488543757203,9.71794142969884e-05,0.1085970923304557,0,0,0
9112,381343.3566533241,2011-01-22 23:14:00,2611.3011779627686,2,45,0.5504778623580933,4.164038181304932,28.08777924198224,27.621604536775173,114.59909335994884,97.1488543757203,0.0001295089750783,0.1085970923304557,0,0,0
9113,381373.3721170151,2011-01-22 23:14:30,2641.3166417490515,2,45,0.5501165986061096,4.167599678039551,28.0923664891128,27.621604536775173,114.61820257515424,97.1488543757203,9.70840483205393e-05,0.1085970923304557,0,0,0
9114,381403.3868992828,2011-01-22 23:15:00,2671.331423921543,2,45,0.5501165986061096,4.17116117477417,28.096953610968956,27.621604536775173,114.63732806752108,97.1488543757203,9.70840483205393e-05,0.1085970923304557,0,0,0
9115,381433.4021582536,2011-01-22 23:15:30,2701.346682902388,2,45,0.550297200679779,4.174884796142578,28.10154088430278,27.621604536775173,114.65647116085276,97.1488543757203,9.71794142969884e-05,0.1085970923304557,0,0,0
9116,381463.4171631713,2011-01-22 23:16:00,2731.361687825041,2,45,0.5499359965324402,4.178607940673828,28.106128085703343,27.621604536775173,114.67563091422856,97.1488543757203,6.47544875391759e-05,0.1085970923304557,0,0,0
9117,381493.4323166842,2011-01-22 23:16:30,2761.376841338027,2,45,0.5501165986061096,4.182493209838867,28.110715329930844,27.621604536775173,114.69480807611032,97.1488543757203,9.70840483205393e-05,0.1085970923304557,0,0,0
9118,381523.44757798087,2011-01-22 23:17:00,2791.392102614593,2,45,0.550297200679779,4.186054706573486,28.11530264302053,27.621604536775173,114.71400280642176,97.1488543757203,9.70840483205393e-05,0.1085970923304557,0,0,0
9119,381553.4625696906,2011-01-22 23:17:30,2821.4070943493784,2,45,0.5501165986061096,4.189939975738525,28.11988981780921,27.621604536775173,114.73321441973609,97.1488543757203,6.47544875391759e-05,0.1085970923304557,0,0,0
9120,381583.477700101,2011-01-22 23:18:00,2851.422224759786,2,45,0.550297200679779,4.1938252449035645,28.12447707382015,27.621604536775173,114.7524439174388,97.1488543757203,9.70840483205393e-05,0.1085970923304557,0,0,0
9121,381613.4929709664,2011-01-22 23:18:30,2881.437495620238,2,45,0.5501165986061096,4.197710514068604,28.129064333421027,27.621604536775173,114.77169120050314,97.1488543757203,9.71794142969884e-05,0.1085970923304557,0,0,0
9122,381630.6333300703,2011-01-22 23:18:47,2898.5778547290943,2,45,0.550297200679779,4.200138568878174,28.131683891744053,27.621604536775173,114.7826903810978,97.1488543757203,9.70840483205393e-05,0.1085970923304557,0,0,0
9123,381660.6451054575,2011-01-22 23:19:17,30.014981920324505,3,45,0.0,4.094913005828857,28.131683891744053,27.621604536775173,114.7826903810978,97.1488543757203,-0.0005180359003134,0.1085970923304557,0,0,0
9124,381690.6605409834,2011-01-22 23:19:47,60.03041750131096,3,45,0.0,4.08147668838501,28.131683891744053,27.621604536775173,114.7826903810978,97.1488543757203,-0.0002913475036621,0.1085970923304557,0,0,0
9125,381720.6753888296,2011-01-22 23:20:17,90.04526529234398,3,45,0.0,4.073058605194092,28.131683891744053,27.621604536775173,114.7826903810978,97.1488543757203,-0.0002265930233988,0.1085970923304557,0,0,0
9126,381750.6436753054,2011-01-22 23:20:47,120.01355177827816,3,45,0.0,4.067554473876953,28.131683891744053,27.621604536775173,114.7826903810978,97.1488543757203,-0.0001618385285837,0.1085970923304557,0,0,0
9127,381750.6581645774,2011-01-22 23:20:47,2.656621117e-06,4,45,1.031982183456421,4.199814796447754,28.13168389250561,27.621604536775173,114.7826903842962,97.1488543757203,0.0,0.1085970923304557,0,0,0
9128,381751.2206586106,2011-01-22 23:20:48,0.562496749976865,4,45,0.9819533824920654,4.199814796447754,28.131839995590187,27.621604536775173,114.78334597994444,97.1488543757203,0.0,0.1085970923304557,0,0,0
9129,381752.923783597,2011-01-22 23:20:50,2.265621706406737,4,45,0.9319246411323548,4.199653148651123,28.132291768411225,27.621604536775173,114.78524332846806,97.1488543757203,-3.23295607813634e-05,0.1085970923304557,0,0,0
9130,381755.6112132888,2011-01-22 23:20:52,4.953051408124865,4,45,0.8815346360206604,4.199814796447754,28.13296767556232,27.621604536775173,114.78808200149186,97.1488543757203,0.0,0.1085970923304557,0,0,0
9131,381759.3612562246,2011-01-22 23:20:56,8.703094348992874,4,45,0.8315058946609497,4.199814796447754,28.133858654577864,27.621604536775173,114.7918239289865,97.1488543757203,0.0,0.1085970923304557,0,0,0
9132,381764.2829311228,2011-01-22 23:21:01,13.624769262238193,4,45,0.7814770936965942,4.199653148651123,28.13495983437775,27.621604536775173,114.79644868046962,97.1488543757203,0.0,0.1085970923304557,0,0,0
9133,381770.7538464198,2011-01-22 23:21:07,20.09568462437151,4,45,0.7314483523368835,4.199814796447754,28.136317690615904,27.621604536775173,114.80215141877596,97.1488543757203,3.23295607813634e-05,0.1085970923304557,0,0,0
9134,381779.2201988551,2011-01-22 23:21:16,28.56203697445942,4,45,0.6812389492988586,4.199814796447754,28.137976237723382,27.621604536775173,114.80911701628078,97.1488543757203,-3.24249267578125e-05,0.1085970923304557,0,0,0
9135,381790.8763028678,2011-01-22 23:21:28,40.21814108740245,4,45,0.631210207939148,4.199976921081543,28.140096742846453,27.621604536775173,114.8180227481042,97.1488543757203,3.24249267578125e-05,0.1085970923304557,0,0,0
9136,381808.063464112,2011-01-22 23:21:45,57.405302246367874,4,45,0.5811814069747925,4.199653148651123,28.142982257189143,27.621604536775173,114.83014138013816,97.1488543757203,-3.23295607813634e-05,0.1085970923304557,0,0,0
9137,381836.82861748507,2011-01-22 23:22:13,86.1704556043524,4,45,0.5311526656150818,4.199814796447754,28.147407778805185,27.621604536775173,114.8487277597023,97.1488543757203,0.0,0.1085970923304557,0,0,0
9138,381893.10895902815,2011-01-22 23:23:10,142.45079714750608,4,45,0.4811238646507263,4.199814796447754,28.15527713823221,27.621604536775173,114.88177761323588,97.1488543757203,0.0,0.1085970923304557,0,0,0
9139,381992.4512271271,2011-01-22 23:24:49,241.7930652614979,4,45,0.4310950934886932,4.199653148651123,28.167820449871968,27.621604536775173,114.93445722045122,97.1488543757203,-3.23295607813634e-05,0.1085970923304557,0,0,0
9140,382126.0897252189,2011-01-22 23:27:03,375.4315634384929,4,45,0.3810663223266601,4.199653148651123,28.182871998335138,27.621604536775173,114.99767051358876,97.1488543757203,-3.23295607813634e-05,0.1085970923304557,0,0,0
9141,382289.7274529615,2011-01-22 23:29:46,539.0692911008975,4,45,0.3310375511646271,4.199814796447754,28.19903691959405,27.621604536775173,115.065559901087,97.1488543757203,0.0,0.1085970923304557,0,0,0
9142,382486.91173036286,2011-01-22 23:33:04,736.2535685022674,4,45,0.281008780002594,4.199814796447754,28.21577134006081,27.621604536775173,115.13584159788448,97.1488543757203,0.0,0.1085970923304557,0,0,0
9143,382726.814195823,2011-01-22 23:37:03,976.156033952312,4,45,0.2309800237417221,4.199814796447754,28.232792081827363,27.621604536775173,115.20732581609327,97.1488543757203,0.0,0.1085970923304557,0,0,0
9144,383033.8247144451,2011-01-22 23:42:11,1283.1665525795058,4,45,0.1807706356048584,4.199653148651123,28.25029288427252,27.621604536775173,115.280826159386,97.1488543757203,-3.23295607813634e-05,0.1085970923304557,0,0,0
9145,383455.30233661,2011-01-22 23:49:12,1704.6441747193005,4,45,0.1307418793439865,4.199814796447754,28.26839705594814,27.621604536775173,115.35686060027584,97.1488543757203,-3.24249267578125e-05,0.1085970923304557,0,0,0
9146,384130.46307462594,2011-01-23 00:00:27,2379.804912745227,4,45,0.0807131007313728,4.199653148651123,28.28782275342148,27.621604536775173,115.43844497995008,97.1488543757203,0.0,0.1085970923304557,0,0,0
9147,384908.7941644031,2011-01-23 00:13:26,3158.1360025374784,4,45,0.0498289167881011,4.199653148651123,28.30169403588941,27.621604536775173,115.496702013504,97.1488543757203,-3.23295607813634e-05,0.1085970923304557,0,0,0
9148,384938.8128202517,2011-01-23 00:13:56,30.015151177164626,5,45,0.0,4.189778327941895,28.30169403588941,27.621604536775173,115.496702013504,97.1488543757203,-9.70840483205393e-05,0.1085970923304557,0,0,0
9149,384968.8123327626,2011-01-23 00:14:26,60.01466367793578,5,45,0.0,4.188321113586426,28.30169403588941,27.621604536775173,115.496702013504,97.1488543757203,-3.24249267578125e-05,0.1085970923304557,0,0,0
9150,384969.0042396646,2011-01-23 00:14:26,0.187418740167803,6,45,-1.9243103452026844e-05,4.188321113586426,28.30169403588941,27.621604537776985,115.496702013504,97.14885437991624,0.0,0.1123444885015487,0,0,0
9151,384973.8324093541,2011-01-23 00:14:31,5.015588414587125,6,45,0.0008838032954372,4.188159465789795,28.301695128501155,27.62160453794401,115.49670658970868,97.1488543806158,-6.47544875391759e-05,0.1123444885015487,0,0,0
9152,384990.38565596176,2011-01-23 00:14:47,16.548784157052964,7,45,-1.0997490882873535,3.9880685806274414,28.301695128501155,27.626658917936243,115.49670658970868,97.16911549785272,-0.0017807006370276,0.1123444885015487,0,0,0
9153,385020.3986174866,2011-01-23 00:15:17,46.56174566188038,7,45,-1.0993878841400146,3.9331891536712646,28.301695128501155,27.63582549403476,115.49670658970868,97.20541152264694,-0.0013598442310467,0.1123444885015487,0,0,0
9154,385050.4137597816,2011-01-23 00:15:47,76.57688806217033,7,45,-1.099568486213684,3.8894801139831534,28.301695128501155,27.64499267899855,115.49670658970868,97.24126152986486,-0.0010684489971026,0.1123444885015487,0,0,0
9155,385080.4288691446,2011-01-23 00:16:17,106.59199733990869,7,45,-1.099568486213684,3.8549983501434326,28.301695128501155,27.6541599205088,115.49670658970868,97.27675241865644,-0.0007770538213662,0.1123444885015487,0,0,0
9156,385110.4440101264,2011-01-23 00:16:47,136.6071383266757,7,45,-1.0993878841400146,3.8274779319763184,28.301695128501155,27.66332714589277,115.49670658970868,97.31196028384102,-0.0006475448608398,0.1123444885015487,0,0,0
9157,385140.45913852175,2011-01-23 00:17:17,166.62226671704866,7,45,-1.0993878841400146,3.804651975631714,28.301695128501155,27.672494349297903,115.49670658970868,97.34693954364744,-0.0005504131549969,0.1123444885015487,0,0,0
9158,385170.47428626526,2011-01-23 00:17:48,196.6374144556433,7,45,-1.099568486213684,3.785225629806519,28.301695128501155,27.681661489538225,115.49670658970868,97.38172724788384,-0.0005180359003134,0.1123444885015487,0,0,0
9159,385200.4894153725,2011-01-23 00:18:18,226.6525435678152,7,45,-1.0993878841400146,3.7682275772094727,28.301695128501155,27.690828691509846,115.49670658970868,97.4163485071276,-0.0003885269106831,0.1123444885015487,0,0,0
9160,385230.504565437,2011-01-23 00:18:48,256.6676936271939,7,45,-1.0993878841400146,3.7528486251831055,28.301695128501155,27.699995850877613,115.49670658970868,97.45082063237338,-0.0003561019839253,0.1123444885015487,0,0,0
9161,385260.5198350944,2011-01-23 00:19:18,286.6829632696104,7,45,-1.099568486213684,3.738440752029419,28.301695128501155,27.709163103931115,115.49670658970868,97.48515632764084,-0.0003561496851034,0.1123444885015487,0,0,0
9162,385290.534860493,2011-01-23 00:19:48,316.69798867832134,7,45,-1.0997490882873535,3.7248423099517822,28.301695128501155,27.71833026471167,115.49670658970868,97.5193649961798,-0.0003885269106831,0.1123444885015487,0,0,0
9163,385320.549952177,2011-01-23 00:20:18,346.713080367223,7,45,-1.0993878841400146,3.712538957595825,28.301695128501155,27.72749744405037,115.49670658970868,97.55345493388432,-0.0002913951757363,0.1123444885015487,0,0,0
9164,385350.5650864921,2011-01-23 00:20:48,376.7282146823621,7,45,-1.099568486213684,3.700235605239868,28.301695128501155,27.736664624635065,115.49670658970868,97.58743190567913,-0.0003561496851034,0.1123444885015487,0,0,0
9165,385380.5802250428,2011-01-23 00:21:18,406.74335323305775,7,45,-1.0993878841400146,3.688903570175171,28.301695128501155,27.74583185208981,115.49670658970868,97.62130137227471,-0.0002913951757363,0.1123444885015487,0,0,0
9166,385410.59577584587,2011-01-23 00:21:48,436.7589040211759,7,45,-1.0993878841400146,3.678057193756104,28.301695128501155,27.75499922087369,115.49670658970868,97.65506856022309,-0.0002590179501567,0.1123444885015487,0,0,0
9167,385440.6106495064,2011-01-23 00:22:18,466.7737776766711,7,45,-1.0993878841400146,3.6672110557556152,28.301695128501155,27.764166348223156,115.49670658970868,97.68873562986496,-0.0002590179501567,0.1123444885015487,0,0,0
9168,385470.6257039575,2011-01-23 00:22:48,496.788832253077,7,45,-1.0992072820663452,3.657012224197388,28.301695128501155,27.77333351336591,115.49670658970868,97.72230623871272,-0.0002590179501567,0.1123444885015487,0,0,0
9169,385500.64077440347,2011-01-23 00:23:18,526.8039025937721,7,45,-1.099568486213684,3.64697527885437,28.301695128501155,27.782500696955875,115.49670658970868,97.75578384893196,-0.0002590179501567,0.1123444885015487,0,0,0
9170,385530.6559185882,2011-01-23 00:23:48,556.8190467785095,7,45,-1.099568486213684,3.637262105941773,28.301695128501155,27.791667877391127,115.49670658970868,97.78917122919589,-0.0002266406954731,0.1123444885015487,0,0,0
9171,385560.6710192043,2011-01-23 00:24:18,586.834147379623,7,45,-1.0993878841400146,3.6278727054595943,28.301695128501155,27.80083495414152,115.49670658970868,97.82247089303128,-0.0002266406954731,0.1123444885015487,0,0,0
9172,385590.6862931475,2011-01-23 00:24:48,616.8494213227583,7,45,-1.099568486213684,3.618645191192627,28.301695128501155,27.810002063029952,115.49670658970868,97.85568568574207,-0.0002266406954731,0.1123444885015487,0,0,0
9173,385620.7013410472,2011-01-23 00:25:18,646.8644692375614,7,45,-1.0993878841400146,3.609903335571289,28.301695128501155,27.81916924035018,115.49670658970868,97.88881812521149,-0.0002266406954731,0.1123444885015487,0,0,0
9174,385650.7165044248,2011-01-23 00:25:48,676.8796326151331,7,45,-1.099568486213684,3.601161479949951,28.301695128501155,27.82833643538044,115.49670658970868,97.92187038606195,-0.0002266406954731,0.1123444885015487,0,0,0
9175,385680.7316162639,2011-01-23 00:26:18,706.8947444542553,7,45,-1.099568486213684,3.592905282974243,28.301695128501155,27.83750361740281,115.49670658970868,97.954844550617,-0.0002266406954731,0.1123444885015487,0,0,0
9176,385710.7467508297,2011-01-23 00:26:48,736.909879020019,7,45,-1.0993878841400146,3.5844874382019043,28.301695128501155,27.846670861983604,115.49670658970868,97.98774279356044,-0.0002590179501567,0.1123444885015487,0,0,0
9177,385740.7618864631,2011-01-23 00:27:18,766.9250146534439,7,45,-1.0993878841400146,3.576716899871826,28.301695128501155,27.85583809817462,115.49670658970868,98.02056688725712,-0.0002266406954731,0.1123444885015487,0,0,0
9178,385770.7770351892,2011-01-23 00:27:48,796.9401633794997,7,45,-1.099568486213684,3.569108247756958,28.301695128501155,27.86500536737437,115.49670658970868,98.05331978707927,-0.0001942634553415,0.1123444885015487,0,0,0
9179,385800.7921686221,2011-01-23 00:28:18,826.9552968124401,7,45,-1.099568486213684,3.5616614818573,28.301695128501155,27.8741725804846,115.49670658970868,98.08600354031206,-0.0002266406954731,0.1123444885015487,0,0,0
9180,385830.8073001002,2011-01-23 00:28:48,856.9704282905088,7,45,-1.099568486213684,3.554376602172852,28.301695128501155,27.883339730561065,115.49670658970868,98.11861968732303,-0.0001942634553415,0.1123444885015487,0,0,0
9181,385860.82244955807,2011-01-23 00:29:18,886.9855777333509,7,45,-1.099568486213684,3.5472536087036133,28.301695128501155,27.89250696581147,115.49670658970868,98.1511703102444,-0.0001942634553415,0.1123444885015487,0,0,0
9182,385890.8375789359,2011-01-23 00:29:48,917.0007071262224,7,45,-1.0993878841400146,3.540454387664795,28.301695128501155,27.901674205688856,115.49670658970868,98.18365750351931,-0.0001618862152099,0.1123444885015487,0,0,0
9183,385920.8527070656,2011-01-23 00:30:18,947.0158352559456,7,45,-1.0993878841400146,3.5339789390563965,28.301695128501155,27.910841486883804,115.49670658970868,98.21608342433886,-0.0001618862152099,0.1123444885015487,0,0,0
9184,385950.86784922535,2011-01-23 00:30:48,977.030977415636,7,45,-1.099568486213684,3.527503490447998,28.301695128501155,27.920008706090155,115.49670658970868,98.24844940336506,-0.0001618862152099,0.1123444885015487,0,0,0
9185,385980.8829811595,2011-01-23 00:31:18,1007.0461093448288,7,45,-1.0997490882873535,3.5211899280548096,28.301695128501155,27.929175914208,115.49670658970868,98.28075745670166,-0.0001618862152099,0.1123444885015487,0,0,0
9186,386010.8981203518,2011-01-23 00:31:48,1037.061248542136,7,45,-1.099568486213684,3.515200138092041,28.301695128501155,27.938343148378117,115.49670658970868,98.31300998692376,-0.0001942634553415,0.1123444885015487,0,0,0
9187,386040.9132491582,2011-01-23 00:32:18,1067.0763773485455,7,45,-1.099568486213684,3.509372472763061,28.301695128501155,27.94751037276724,115.49670658970868,98.34520849598997,-0.0001618862152099,0.1123444885015487,0,0,0
9188,386070.9284046862,2011-01-23 00:32:48,1097.091532876554,7,45,-1.0993878841400146,3.503868341445923,28.301695128501155,27.95667762983891,115.49670658970868,98.3773544113866,-0.0001618862152099,0.1123444885015487,0,0,0
9189,386100.9435358535,2011-01-23 00:33:18,1127.1066640438478,7,45,-1.099568486213684,3.4980404376983643,28.301695128501155,27.965844918474897,115.49670658970868,98.4094486003932,-0.0001618862152099,0.1123444885015487,0,0,0
9190,386130.9586805496,2011-01-23 00:33:48,1157.1218087398595,7,45,-1.099568486213684,3.4926981925964355,28.301695128501155,27.97501220740667,115.49670658970868,98.44149158978192,-0.0001295089750783,0.1123444885015487,0,0,0
9191,386160.9739338512,2011-01-23 00:34:18,1187.1370621317749,7,45,-1.099568486213684,3.487194061279297,28.301695128501155,27.984179469711076,115.49670658970868,98.47348512106208,-0.0001295089750783,0.1123444885015487,0,0,0
9192,386190.988943205,2011-01-23 00:34:48,1217.152071480459,7,45,-1.0993878841400146,3.482013702392578,28.301695128501155,27.99334666917837,115.49670658970868,98.50542921410202,-0.0001618862152099,0.1123444885015487,0,0,0
9193,386221.0041009234,2011-01-23 00:35:18,1247.167229113714,7,45,-1.099568486213684,3.4761857986450195,28.301695128501155,28.002513964988346,115.49670658970868,98.537323083648,-0.0001618862152099,0.1123444885015487,0,0,0
9194,386251.0192253639,2011-01-23 00:35:48,1277.182353554243,7,45,-1.0993878841400146,3.470843553543091,28.301695128501155,28.011681167850487,115.49670658970868,98.5691668257299,-0.0001618862152099,0.1123444885015487,0,0,0
9195,386281.03473869874,2011-01-23 00:36:18,1307.1978668739782,7,45,-1.099568486213684,3.465339422225952,28.301695128501155,28.02084849200352,115.49670658970868,98.60096029734204,-0.0001618862152099,0.1123444885015487,0,0,0
9196,386311.0494900894,2011-01-23 00:36:48,1337.2126182747772,7,45,-1.099568486213684,3.4596734046936035,28.301695128501155,28.030015637078133,115.49670658970868,98.63270139851886,-0.0001295089750783,0.1123444885015487,0,0,0
9197,386341.0647423435,2011-01-23 00:37:18,1367.2278705338692,7,45,-1.099568486213684,3.453683614730835,28.301695128501155,28.039182891777347,115.49670658970868,98.66439025112372,-0.0001618862152099,0.1123444885015487,0,0,0
9198,386371.0797647749,2011-01-23 00:37:48,1397.2428929651594,7,45,-1.099568486213684,3.4476938247680664,28.301695128501155,28.04835017084428,115.49670658970868,98.69602421188544,-0.0001295089750783,0.1123444885015487,0,0,0
9199,386401.0951310381,2011-01-23 00:38:18,1427.2582592133472,7,45,-1.0993878841400146,3.441380262374878,28.301695128501155,28.057517517604342,115.49670658970868,98.72760121095116,-0.0001942634553415,0.1123444885015487,0,0,0
9200,386431.1100296557,2011-01-23 00:38:48,1457.2731578460937,7,45,-1.0993878841400146,3.43458104133606,28.301695128501155,28.06668466711163,115.49670658970868,98.75911772762606,-0.0001942634553415,0.1123444885015487,0,0,0
9201,386461.12528595,2011-01-23 00:39:18,1487.2884141252043,7,45,-1.099568486213684,3.4274582862854004,28.301695128501155,28.07585194903615,115.49670658970868,98.79057166446496,-0.0001942634553415,0.1123444885015487,0,0,0
9202,386491.14031532855,2011-01-23 00:39:48,1517.3034434937845,7,45,-1.0997490882873535,3.420173406600952,28.301695128501155,28.08501919184184,115.49670658970868,98.82195989754034,-0.0001942634553415,0.1123444885015487,0,0,0
9203,386521.1554320348,2011-01-23 00:40:18,1547.3185602250996,7,45,-1.0993878841400146,3.412564754486084,28.301695128501155,28.09418643261222,115.49670658970868,98.85327787453802,-0.0001618862152099,0.1123444885015487,0,0,0
9204,386551.1705701945,2011-01-23 00:40:48,1577.3336983848208,7,45,-1.099568486213684,3.403822898864746,28.301695128501155,28.103353687800023,115.49670658970868,98.8845205918782,-0.0002266406954731,0.1123444885015487,0,0,0
9205,386581.18589539547,2011-01-23 00:41:18,1607.349023565656,7,45,-1.0993878841400146,3.3945953845977783,28.301695128501155,28.112520910819068,115.49670658970868,98.91568142500662,-0.0002266406954731,0.1123444885015487,0,0,0
9206,386611.2032463651,2011-01-23 00:41:48,1637.3663746606928,7,45,-1.099568486213684,3.384072780609131,28.301695128501155,28.121688836072845,115.49670658970868,98.94675520482916,-0.0003237724304199,0.1123444885015487,0,0,0
9207,386641.2159935608,2011-01-23 00:42:18,1667.3791217511337,7,45,-1.099568486213684,3.372902631759644,28.301695128501155,28.130855388520622,115.49670658970868,98.97772541521812,-0.0002913951757363,0.1123444885015487,0,0,0
9208,386671.2311276654,2011-01-23 00:42:48,1697.3942558557485,7,45,-1.099568486213684,3.3599517345428467,28.301695128501155,28.140022682501687,115.49670658970868,99.00858749393996,-0.0003885269106831,0.1123444885015487,0,0,0
9209,386701.2462759153,2011-01-23 00:43:18,1727.4094041056169,7,45,-1.0993878841400146,3.3453822135925293,28.301695128501155,28.149189929724493,115.49670658970868,99.03932500814298,-0.0004209041653666,0.1123444885015487,0,0,0
9210,386731.2614082104,2011-01-23 00:43:48,1757.4245364007218,7,45,-1.099568486213684,3.3285460472106934,28.301695128501155,28.15835724274872,115.49670658970868,99.06991863446756,-0.0004856586456298,0.1123444885015487,0,0,0
9211,386761.2765286911,2011-01-23 00:44:18,1787.4396568863938,7,45,-1.0993878841400146,3.3081483840942383,28.301695128501155,28.16752449399608,115.49670658970868,99.10034210809202,-0.0005827903514727,0.1123444885015487,0,0,0
9212,386791.2916808056,2011-01-23 00:44:48,1817.4548089908697,7,45,-1.099568486213684,3.2832179069519043,28.301695128501155,28.17669166824678,115.49670658970868,99.13055826280392,-0.0007122993702068,0.1123444885015487,0,0,0
9213,386821.30680798285,2011-01-23 00:45:18,1847.469936258444,7,45,-1.0997490882873535,3.251488447189331,28.301695128501155,28.185858884648265,115.49670658970868,99.1605168845593,-0.0009065627818927,0.1123444885015487,0,0,0
9214,386851.3220057061,2011-01-23 00:45:48,1877.485133891391,7,45,-1.099568486213684,3.210369348526001,28.301695128501155,28.195026085992225,115.49670658970868,99.19014425739414,-0.0011979580158367,0.1123444885015487,0,0,0
9215,386881.3372064819,2011-01-23 00:46:18,1907.5003346571457,7,45,-1.0993878841400146,3.154680728912353,28.301695128501155,28.204193299079684,115.49670658970868,99.21933185556928,-0.0016512393485754,0.1123444885015487,0,0,0
9216,386911.354481778,2011-01-23 00:46:48,1937.517609953268,7,45,-1.099568486213684,3.0763280391693115,28.301695128501155,28.21336122136348,115.49670658970868,99.24791459126132,-0.0023959160316735,0.1123444885015487,0,0,0
9217,386941.3673692935,2011-01-23 00:47:18,1967.5304974837288,7,45,-1.0993878841400146,2.958636999130249,28.301695128501155,28.222527724533247,115.49670658970868,99.27561324385952,-0.0037557601463049,0.1123444885015487,0,0,0
9218,386971.3825173227,2011-01-23 00:47:48,1997.5456455080352,7,45,-1.099568486213684,2.779591560363769,28.301695128501155,28.231694918140764,115.49670658970868,99.30196381050362,-0.0054393289610743,0.1123444885015487,0,0,0
9219,386982.60105571727,2011-01-23 00:48:00,2008.764183907585,7,45,-1.099568486213684,2.699781894683838,28.301695128501155,28.235121322753304,115.49670658970868,99.31135192912684,-0.0057631013914942,0.1123444885015487,0,0,0
9220,387042.62185029744,2011-01-23 00:49:00,60.0147888699528,8,45,0.0,3.602618455886841,28.301695128501155,28.235121322753304,115.49670658970868,99.31135192912684,0.0013922214275225,0.1123444885015487,0,0,0
9221,387042.80050312233,2011-01-23 00:49:00,0.187448594574169,9,45,-1.9243103452026844e-05,3.6029422283172607,28.301695128501155,28.23512132375528,115.49670658970868,99.31135193273688,0.0,0.1068796068429946,0,0,0
9222,387047.6286457293,2011-01-23 00:49:05,5.015591186495573,9,45,0.0008838032954372,3.6111984252929688,28.30169624621212,28.23512132392229,115.49671062194568,99.3113519333386,0.0012303352123126,0.1068796068429946,0,0,0
