Data_Point,Test_Time(s),Date_Time,Step_Time(s),Step_Index,Cycle_Index,Current(A),Voltage(V),Charge_Capacity(Ah),Discharge_Capacity(Ah),Charge_Energy(Wh),Discharge_Energy(Wh),dV/dt(V/s),Internal_Resistance(Ohm),Is_FC_Data,AC_Impedance(Ohm),ACI_Phase_Angle(Deg)
1128,45784.82094995614,2011-01-19 02:00:33,30.0150018299454,1,6,0.0,3.617835760116577,3.438018115800667,3.434093014726788,13.983144689386114,12.186097593843774,0.0007770538213662,0.106165811419487,0,0,0
1129,45814.83614645125,2011-01-19 02:01:03,60.03019833508128,1,6,0.0,3.6413092613220215,3.438018115800667,3.434093014726788,13.983144689386114,12.186097593843774,0.0005504131549969,0.106165811419487,0,0,0
1130,45844.85296435241,2011-01-19 02:01:34,90.0470162562849,1,6,0.0,3.657659769058228,3.438018115800667,3.434093014726788,13.983144689386114,12.186097593843774,0.0003885269106831,0.106165811419487,0,0,0
1131,45874.81950854101,2011-01-19 02:02:03,120.01356041981552,1,6,0.0,3.669963121414185,3.438018115800667,3.434093014726788,13.983144689386114,12.186097593843774,0.0002913951757363,0.106165811419487,0,0,0
1132,45904.836762438,2011-01-19 02:02:34,30.01525094581881,2,6,0.5501165986061096,3.7941293716430655,3.442605281483633,3.434093014726788,14.000455087032488,12.186097593843774,0.0008094310760498,0.106165811419487,0,0,0
1133,45934.8517295013,2011-01-19 02:03:04,60.03021796901509,2,6,0.5499359965324402,3.816145896911621,3.447192428826297,3.434093014726788,14.017915301031207,12.186097593843774,0.0004209041653666,0.106165811419487,0,0,0
1134,45964.866843200056,2011-01-19 02:03:34,90.04533166777199,2,6,0.5497553944587708,3.829420566558838,3.451779615258328,3.434093014726788,14.035453357035742,12.186097593843774,0.0002590179501567,0.106165811419487,0,0,0
1135,45994.88198736474,2011-01-19 02:04:04,120.06047583245936,2,6,0.550297200679779,3.839781045913696,3.456366044497695,3.434093014726788,14.053041479324545,12.186097593843774,0.0002590179501567,0.106165811419487,0,0,0
1136,46024.89708276289,2011-01-19 02:04:34,150.0755712306055,2,6,0.5499359965324402,3.848522901535034,3.460952422547421,3.434093014726788,14.070672781963555,12.186097593843774,0.0001942634553415,0.106165811419487,0,0,0
1137,46054.912206476605,2011-01-19 02:05:04,180.09069496437274,2,6,0.5501165986061096,3.856455326080322,3.46553885069882,3.434093014726788,14.08834268672926,12.186097593843774,0.0001618862152099,0.106165811419487,0,0,0
1138,46084.927440740845,2011-01-19 02:05:34,210.10592922360345,2,6,0.5501165986061096,3.863902091979981,3.470125262752594,3.434093014726788,14.106047596450129,12.186097593843774,0.0001618862152099,0.106165811419487,0,0,0
1139,46114.94265149149,2011-01-19 02:06:04,240.121139979256,2,6,0.5499359965324402,3.870701313018799,3.474711690740966,3.434093014726788,14.123784952796534,12.186097593843774,0.0001618862152099,0.106165811419487,0,0,0
1140,46144.95756717674,2011-01-19 02:06:34,270.13605563943986,2,6,0.5501165986061096,3.877176761627197,3.479298094458051,3.434093014726788,14.141552564756266,12.186097593843774,0.0001942634553415,0.106165811419487,0,0,0
1141,46174.97266865002,2011-01-19 02:07:04,300.1511571177396,2,6,0.5499359965324402,3.883166551589966,3.483884461772429,3.434093014726788,14.159348631917448,12.186097593843774,0.0001618862152099,0.106165811419487,0,0,0
1142,46204.98779361686,2011-01-19 02:07:34,330.1662820795676,2,6,0.5501165986061096,3.888994455337525,3.488470807511764,3.434093014726788,14.177171717665477,12.186097593843774,0.0001295089750783,0.106165811419487,0,0,0
1143,46235.004679873375,2011-01-19 02:08:04,360.1831683360838,2,6,0.5499359965324402,3.894498586654663,3.493057520912168,3.434093014726788,14.19502221496308,12.186097593843774,0.0001295089750783,0.106165811419487,0,0,0
1144,46265.01802060837,2011-01-19 02:08:34,390.1965090961318,2,6,0.5501165986061096,3.899840831756592,3.497643666641901,3.434093014726788,14.212895262564368,12.186097593843774,0.0001618862152099,0.106165811419487,0,0,0
1145,46295.03312389617,2011-01-19 02:09:04,420.2116123588791,2,6,0.5501165986061096,3.905021190643311,3.502230163824789,3.434093014726788,14.230793970439969,12.186097593843774,0.0001295089750783,0.106165811419487,0,0,0
1146,46325.04825245697,2011-01-19 02:09:34,450.2267409497517,2,6,0.550297200679779,3.9103634357452393,3.506816636105635,3.434093014726788,14.248716195462464,12.186097593843774,0.0001618862152099,0.106165811419487,0,0,0
1147,46355.06336078735,2011-01-19 02:10:04,480.241849280129,2,6,0.5501165986061096,3.915057897567749,3.511403147306522,3.434093014726788,14.266661462164176,12.186097593843774,9.713172767078504e-05,0.106165811419487,0,0,0
1148,46385.07860130218,2011-01-19 02:10:34,510.257089779913,2,6,0.5501165986061096,3.919752597808838,3.515989607008719,3.434093014726788,14.284628448461964,12.186097593843774,0.0001295089750783,0.106165811419487,0,0,0
1149,46415.09370767266,2011-01-19 02:11:04,540.2721961604306,2,6,0.5499359965324402,3.924285411834717,3.520576079984263,3.434093014726788,14.302616696421657,12.186097593843774,0.0001295089750783,0.106165811419487,0,0,0
1150,46445.10871081588,2011-01-19 02:11:34,570.2871992735742,2,6,0.5499359965324402,3.928494453430176,3.525162568259444,3.434093014726788,14.320625634442234,12.186097593843774,9.713172767078504e-05,0.106165811419487,0,0,0
1151,46475.123934644114,2011-01-19 02:12:04,600.3024231318825,2,6,0.550297200679779,3.9328653812408447,3.529749066674818,3.434093014726788,14.338654118011236,12.186097593843774,0.0001295089750783,0.106165811419487,0,0,0
1152,46505.13892108571,2011-01-19 02:12:34,630.3174095534255,2,6,0.5501165986061096,3.936750650405884,3.534335548594596,3.434093014726788,14.356700985116564,12.186097593843774,9.713172767078504e-05,0.106165811419487,0,0,0
1153,46535.15405423794,2011-01-19 02:13:04,660.3325427056664,2,6,0.5501165986061096,3.940474033355713,3.538922029461562,3.434093014726788,14.374765452346056,12.186097593843774,9.713172767078504e-05,0.106165811419487,0,0,0
1154,46565.1691447439,2011-01-19 02:13:34,690.3476332066072,2,6,0.5499359965324402,3.943873643875122,3.54350855240046,3.434093014726788,14.39284688401427,12.186097593843774,6.47544875391759e-05,0.106165811419487,0,0,0
1155,46595.184299104,2011-01-19 02:14:04,720.3627876068047,2,6,0.5501165986061096,3.947597026824951,3.548095094259481,3.434093014726788,14.410944494946184,12.186097593843774,0.0001295089750783,0.106165811419487,0,0,0
1156,46625.19953434067,2011-01-19 02:14:34,750.3780228083839,2,6,0.550297200679779,3.95099663734436,3.552681655991917,3.434093014726788,14.429057680548915,12.186097593843774,0.0001295089750783,0.106165811419487,0,0,0
1157,46655.2146259644,2011-01-19 02:15:04,780.3931144521731,2,6,0.5501165986061096,3.9540724754333496,3.557268177157302,3.434093014726788,14.44718567766339,12.186097593843774,6.47544875391759e-05,0.106165811419487,0,0,0
1158,46685.229625493615,2011-01-19 02:15:34,810.4081139563219,2,6,0.5501165986061096,3.957148313522339,3.561854694198929,3.434093014726788,14.465328154298922,12.186097593843774,6.47544875391759e-05,0.106165811419487,0,0,0
1159,46715.24475159829,2011-01-19 02:16:04,840.4232400710231,2,6,0.5501165986061096,3.960224151611328,3.566441240669752,3.434093014726788,14.483484841161616,12.186097593843774,6.47544875391759e-05,0.106165811419487,0,0,0
1160,46745.26014134003,2011-01-19 02:16:34,870.4386298378265,2,6,0.5499359965324402,3.9631381034851074,3.571027822814425,3.434093014726788,14.501655545884423,12.186097593843774,9.713172767078504e-05,0.106165811419487,0,0,0
1161,46775.27497296577,2011-01-19 02:17:04,900.4534614284833,2,6,0.5501165986061096,3.966052055358887,3.575614258985416,3.434093014726788,14.519839266604864,12.186097593843774,9.713172767078504e-05,0.106165811419487,0,0,0
1162,46805.290089130685,2011-01-19 02:17:34,930.4685775933866,2,6,0.5501165986061096,3.968966007232666,3.580200824386367,3.434093014726788,14.538036841641674,12.186097593843774,6.47544875391759e-05,0.106165811419487,0,0,0
1163,46835.30702086053,2011-01-19 02:18:04,960.4855093432864,2,6,0.5501165986061096,3.971879959106445,3.584787642201123,3.434093014726788,14.556248594140444,12.186097593843774,3.237724376958795e-05,0.106165811419487,0,0,0
1164,46865.32045317376,2011-01-19 02:18:34,990.4989416765632,2,6,0.5501165986061096,3.974632024765015,3.589373924201172,3.434093014726788,14.574471215749655,12.186097593843774,6.47544875391759e-05,0.106165811419487,0,0,0
1165,46895.33543849757,2011-01-19 02:19:04,1020.5139269652826,2,6,0.550297200679779,3.977545976638794,3.59396049521469,3.434093014726788,14.59270793416181,12.186097593843774,3.237724376958795e-05,0.106165811419487,0,0,0
1166,46925.350555745164,2011-01-19 02:19:34,1050.529044207872,2,6,0.5501165986061096,3.9802980422973633,3.598546964304688,3.434093014726788,14.61095680094596,12.186097593843774,9.713172767078504e-05,0.106165811419487,0,0,0
1167,46955.36569628582,2011-01-19 02:20:04,1080.5441847735894,2,6,0.5501165986061096,3.982888221740722,3.603133454785052,3.434093014726788,14.62921880462855,12.186097593843774,3.237724376958795e-05,0.106165811419487,0,0,0
1168,46985.38079052608,2011-01-19 02:20:34,1110.5592789887874,2,6,0.5501165986061096,3.985964059829712,3.607719894117957,3.434093014726788,14.647493127998723,12.186097593843774,9.713172767078504e-05,0.106165811419487,0,0,0
1169,47015.39590102185,2011-01-19 02:21:04,1140.5743894795492,2,6,0.5499359965324402,3.9885542392730713,3.612306351857098,3.434093014726788,14.665779997383776,12.186097593843774,9.713172767078504e-05,0.106165811419487,0,0,0
1170,47045.41114480482,2011-01-19 02:21:34,1170.5896332825655,2,6,0.5501165986061096,3.991144418716431,3.616892779068375,3.434093014726788,14.684079059785493,12.186097593843774,6.47544875391759e-05,0.106165811419487,0,0,0
1171,47075.42861806935,2011-01-19 02:22:04,1200.607106657361,2,6,0.5501165986061096,3.993896484375,3.621479618884062,3.434093014726788,14.702392037644362,12.186097593843774,6.47544875391759e-05,0.106165811419487,0,0,0
1172,47105.44126627834,2011-01-19 02:22:34,1230.6197547560844,2,6,0.5499359965324402,3.9963245391845694,3.62606573045525,3.434093014726788,14.720714284520938,12.186097593843774,3.237724376958795e-05,0.106165811419487,0,0,0
1173,47135.45650545984,2011-01-19 02:23:04,1260.634993947608,2,6,0.5501165986061096,3.99907660484314,3.630652237047674,3.434093014726788,14.739050029786489,12.186097593843774,6.47544875391759e-05,0.106165811419487,0,0,0
1174,47165.471646406506,2011-01-19 02:23:34,1290.6501348992874,2,6,0.5501165986061096,4.001667022705078,3.63523867576499,3.434093014726788,14.757397412477314,12.186097593843774,6.47544875391759e-05,0.106165811419487,0,0,0
1175,47195.486645609904,2011-01-19 02:24:04,1320.665134077624,2,6,0.550297200679779,4.0042572021484375,3.639825085567862,3.434093014726788,14.775756493740785,12.186097593843774,6.47544875391759e-05,0.106165811419487,0,0,0
1176,47225.5018511676,2011-01-19 02:24:34,1350.6803396503594,2,6,0.5501165986061096,4.006847381591797,3.644411521767687,3.434093014726788,14.794127447000347,12.186097593843774,9.71794142969884e-05,0.106165811419487,0,0,0
1177,47255.51683635607,2011-01-19 02:25:04,1380.695324818779,2,6,0.5501165986061096,4.009275436401367,3.648998040826316,3.434093014726788,14.812510398287882,12.186097593843774,9.70840483205393e-05,0.106165811419487,0,0,0
1178,47285.53197072636,2011-01-19 02:25:34,1410.7104592040932,2,6,0.5501165986061096,4.011703968048096,3.653584501755812,3.434093014726788,14.830904663058506,12.186097593843774,3.24249267578125e-05,0.106165811419487,0,0,0
1179,47315.547082690784,2011-01-19 02:26:04,1440.7255711585028,2,6,0.550297200679779,4.014294147491455,3.658170912477361,3.434093014726788,14.849310361790916,12.186097593843774,6.47544875391759e-05,0.106165811419487,0,0,0
1180,47345.56219146728,2011-01-19 02:26:34,1470.7406799400044,2,6,0.5501165986061096,4.016722202301025,3.662757372026388,3.434093014726788,14.86772782259273,12.186097593843774,3.23295607813634e-05,0.106165811419487,0,0,0
1181,47375.57948205651,2011-01-19 02:27:04,1500.7579705242297,2,6,0.550297200679779,4.019312381744385,3.667344229883692,3.434093014726788,14.886158382015472,12.186097593843774,3.23295607813634e-05,0.106165811419487,0,0,0
1182,47405.59242890983,2011-01-19 02:27:34,1530.7709173825535,2,6,0.5501165986061096,4.021902561187744,3.671930355891361,3.434093014726788,14.904597448849572,12.186097593843774,6.47544875391759e-05,0.106165811419487,0,0,0
1183,47435.6093943938,2011-01-19 02:28:04,1560.787882866529,2,6,0.5501165986061096,4.024331092834473,3.676517082602609,3.434093014726788,14.923050403650572,12.186097593843774,3.24249267578125e-05,0.106165811419487,0,0,0
1184,47465.6227898251,2011-01-19 02:28:34,1590.8012783078595,2,6,0.5499359965324402,4.026759147644043,3.681103212084607,3.434093014726788,14.941512389902558,12.186097593843774,6.47544875391759e-05,0.106165811419487,0,0,0
1185,47495.637778211545,2011-01-19 02:29:04,1620.8162666742496,2,6,0.5499359965324402,4.029349327087402,3.685689699557177,3.434093014726788,14.95998732140034,12.186097593843774,6.47544875391759e-05,0.106165811419487,0,0,0
1186,47525.652897444095,2011-01-19 02:29:34,1650.8313859218358,2,6,0.5501165986061096,4.031939506530762,3.690276119117774,3.434093014726788,14.97847333700068,12.186097593843774,9.70840483205393e-05,0.106165811419487,0,0,0
1187,47555.66802142347,2011-01-19 02:30:05,1680.846509886178,2,6,0.550297200679779,4.034367561340332,3.694862564601904,3.434093014726788,14.996970998867164,12.186097593843774,6.46591215627268e-05,0.106165811419487,0,0,0
1188,47585.683156505525,2011-01-19 02:30:35,1710.8616450083284,2,6,0.5501165986061096,4.036957740783691,3.699448968594049,3.434093014726788,15.015479931141826,12.186097593843774,9.70840483205393e-05,0.106165811419487,0,0,0
1189,47615.698286354535,2011-01-19 02:31:05,1740.8767748523244,2,6,0.5499359965324402,4.03938627243042,3.704035083128666,3.434093014726788,15.033999209716407,12.186097593843774,6.47544875391759e-05,0.106165811419487,0,0,0
1190,47645.71337541689,2011-01-19 02:31:35,1770.8918640099173,2,6,0.5501165986061096,4.041976451873779,3.708620733702498,3.434093014726788,15.052528042689774,12.186097593843774,9.71794142969884e-05,0.106165811419487,0,0,0
1191,47675.72851382724,2011-01-19 02:32:05,1800.9070022949504,2,6,0.5501165986061096,4.04440450668335,3.713206736627015,3.434093014726788,15.071070045064916,12.186097593843774,3.23295607813634e-05,0.106165811419487,0,0,0
1192,47705.7436213105,2011-01-19 02:32:35,1830.922109773204,2,6,0.5501165986061096,4.047156810760498,3.717793216505332,3.434093014726788,15.089625790684856,12.186097593843774,9.71794142969884e-05,0.106165811419487,0,0,0
1193,47735.7587297712,2011-01-19 02:33:05,1860.9372182389184,2,6,0.5501165986061096,4.049746990203857,3.722379665504526,3.434093014726788,15.108193215824976,12.186097593843774,9.71794142969884e-05,0.106165811419487,0,0,0
1194,47765.773982416256,2011-01-19 02:33:35,1890.9524708990093,2,6,0.5499359965324402,4.052175045013428,3.726966207304753,3.434093014726788,15.126772751231062,12.186097593843774,9.70840483205393e-05,0.106165811419487,0,0,0
1195,47795.78898689781,2011-01-19 02:34:05,1920.9674753855763,2,6,0.5499359965324402,4.054765224456787,3.731552684034094,3.434093014726788,15.145363931760343,12.186097593843774,9.70840483205393e-05,0.106165811419487,0,0,0
1196,47825.80425667556,2011-01-19 02:34:35,1950.982745153305,2,6,0.5501165986061096,4.0573554039001465,3.736139173907777,3.434093014726788,15.16396714002076,12.186097593843774,6.47544875391759e-05,0.106165811419487,0,0,0
1197,47855.81919892201,2011-01-19 02:35:05,1980.997687384713,2,6,0.5501165986061096,4.059945583343506,3.740725608456221,3.434093014726788,15.182582120801682,12.186097593843774,6.47544875391759e-05,0.106165811419487,0,0,0
1198,47885.834458243706,2011-01-19 02:35:35,2011.012946731469,2,6,0.5501165986061096,4.062535762786865,3.745312142126646,3.434093014726788,15.201209236935336,12.186097593843774,3.23295607813634e-05,0.106165811419487,0,0,0
1199,47915.84945838444,2011-01-19 02:36:05,2041.0279468571675,2,6,0.550297200679779,4.0654497146606445,3.749898579618284,3.434093014726788,15.219848314895753,12.186097593843774,9.70840483205393e-05,0.106165811419487,0,0,0
1200,47945.864859319074,2011-01-19 02:36:35,2071.043347801829,2,6,0.5501165986061096,4.068039894104004,3.754485116000092,3.434093014726788,15.23850017213228,12.186097593843774,6.47544875391759e-05,0.106165811419487,0,0,0
1201,47975.87968999244,2011-01-19 02:37:05,2101.0581784551496,2,6,0.5501165986061096,4.070792198181152,3.7590715534766,3.434093014726788,15.257164109494532,12.186097593843774,9.71794142969884e-05,0.106165811419487,0,0,0
1202,48005.89481922492,2011-01-19 02:37:35,2131.0733076876218,2,6,0.5499359965324402,4.073544025421143,3.76365800113317,3.434093014726788,15.275840554128504,12.186097593843774,9.70840483205393e-05,0.106165811419487,0,0,0
1203,48035.911916026176,2011-01-19 02:38:05,2161.090404619205,2,6,0.5499359965324402,4.076134204864502,3.768244706508739,3.434093014726788,15.294530732810886,12.186097593843774,3.23295607813634e-05,0.106165811419487,0,0,0
1204,48065.9250409934,2011-01-19 02:38:35,2191.103529456106,2,6,0.5501165986061096,4.079048156738281,3.77283084127606,3.434093014726788,15.313231413860146,12.186097593843774,6.47544875391759e-05,0.106165811419487,0,0,0
1205,48095.94026369383,2011-01-19 02:39:05,2221.118752181591,2,6,0.5501165986061096,4.0819621086120605,3.777417304101347,3.434093014726788,15.33194627182776,12.186097593843774,0.0001295089750783,0.106165811419487,0,0,0
1206,48125.9552605614,2011-01-19 02:39:35,2251.1337490241062,2,6,0.5501165986061096,4.08487606048584,3.782003766946634,3.434093014726788,15.350674088178984,12.186097593843774,9.70840483205393e-05,0.106165811419487,0,0,0
1207,48155.97038358339,2011-01-19 02:40:05,2281.1488720460998,2,6,0.5501165986061096,4.087628364562988,3.786590179946348,3.434093014726788,15.369414876826813,12.186097593843774,6.47544875391759e-05,0.106165811419487,0,0,0
1208,48185.98548692133,2011-01-19 02:40:35,2311.163975384034,2,6,0.5501165986061096,4.0903801918029785,3.791176657224989,3.434093014726788,15.38816921679216,12.186097593843774,3.23295607813634e-05,0.106165811419487,0,0,0
1209,48216.000624264016,2011-01-19 02:41:05,2341.1791127517813,2,6,0.5499359965324402,4.093456268310547,3.795763157094753,3.434093014726788,15.40693698253004,12.186097593843774,9.71794142969884e-05,0.106165811419487,0,0,0
1210,48246.0158480321,2011-01-19 02:41:35,2371.1943365148527,2,6,0.550297200679779,4.096370220184326,3.800349586026408,3.434093014726788,15.425717944827047,12.186097593843774,3.24249267578125e-05,0.106165811419487,0,0,0
1211,48276.03086589701,2011-01-19 02:42:05,2401.209354359712,2,6,0.5501165986061096,4.0992841720581055,3.804936012081276,3.434093014726788,15.444512551742012,12.186097593843774,6.47544875391759e-05,0.106165811419487,0,0,0
1212,48306.04608342454,2011-01-19 02:42:35,2431.22457190228,2,6,0.5499359965324402,4.102035999298096,3.809522540490049,3.434093014726788,15.463321322959818,12.186097593843774,0.0,0.106165811419487,0,0,0
1213,48336.06107605656,2011-01-19 02:43:05,2461.2395645192632,2,6,0.5501165986061096,4.105273723602295,3.814108968770362,3.434093014726788,15.482143539774045,12.186097593843774,6.47544875391759e-05,0.106165811419487,0,0,0
1214,48366.076198782815,2011-01-19 02:43:35,2491.25468724552,2,6,0.5499359965324402,4.108511447906494,3.8186954382895,3.434093014726788,15.50097983008366,12.186097593843774,9.70840483205393e-05,0.106165811419487,0,0,0
1215,48396.09132331357,2011-01-19 02:44:05,2521.269811776273,2,6,0.5501165986061096,4.111587524414063,3.823281925978252,3.434093014726788,15.519830341325958,12.186097593843774,9.71794142969884e-05,0.106165811419487,0,0,0
1216,48426.1064439847,2011-01-19 02:44:35,2551.2849324674576,2,6,0.5499359965324402,4.114663124084473,3.827868410096123,3.434093014726788,15.538695089228169,12.186097593843774,9.70840483205393e-05,0.106165811419487,0,0,0
1217,48456.12154533268,2011-01-19 02:45:05,2581.300033795382,2,6,0.550297200679779,4.117900848388672,3.832454832456125,3.434093014726788,15.55757404326237,12.186097593843774,9.71794142969884e-05,0.106165811419487,0,0,0
1218,48486.13666863036,2011-01-19 02:45:35,2611.3151570930627,2,6,0.550297200679779,4.121300220489502,3.837041336266108,3.434093014726788,15.576468063976096,12.186097593843774,0.0001295089750783,0.106165811419487,0,0,0
1219,48516.15179687036,2011-01-19 02:46:05,2641.3302854232857,2,6,0.550297200679779,4.12437629699707,3.841627740950211,3.434093014726788,15.59537640160856,12.186097593843774,0.0001295089750783,0.106165811419487,0,0,0
1220,48546.16715501335,2011-01-19 02:46:35,2671.3456435011103,2,6,0.5501165986061096,4.1277756690979,3.846214257054025,3.434093014726788,15.61430017280948,12.186097593843774,0.0001295089750783,0.106165811419487,0,0,0
1221,48576.18214045244,2011-01-19 02:47:05,2701.3606289402046,2,6,0.5499359965324402,4.130851745605469,3.850800660582247,3.434093014726788,15.633238527580538,12.186097593843774,6.47544875391759e-05,0.106165811419487,0,0,0
1222,48606.19718014675,2011-01-19 02:47:35,2731.3756686144698,2,6,0.5499359965324402,4.134251117706299,3.855387171617302,3.434093014726788,15.652192560481147,12.186097593843774,9.70840483205393e-05,0.106165811419487,0,0,0
1223,48636.21406606744,2011-01-19 02:48:05,2761.392554570237,2,6,0.5499359965324402,4.137488842010498,3.859973902683601,3.434093014726788,15.671162833090474,12.186097593843774,6.47544875391759e-05,0.106165811419487,0,0,0
1224,48666.22764672036,2011-01-19 02:48:35,2791.406135288334,2,6,0.5501165986061096,4.140888690948486,3.864560173246081,3.434093014726788,15.690146637377604,12.186097593843774,6.47544875391759e-05,0.106165811419487,0,0,0
1225,48696.24248663176,2011-01-19 02:49:05,2821.420975094466,2,6,0.5501165986061096,4.1444501876831055,3.869146665816564,3.434093014726788,15.709146834990468,12.186097593843774,9.71794142969884e-05,0.106165811419487,0,0,0
1226,48726.25760270142,2011-01-19 02:49:35,2851.4360911691447,2,6,0.5501165986061096,4.148011684417725,3.873733115952095,3.434093014726788,15.728162836618507,12.186097593843774,0.0001295089750783,0.106165811419487,0,0,0
1227,48756.27273584866,2011-01-19 02:50:05,2881.4512243113604,2,6,0.5501165986061096,4.151249408721924,3.878319615093208,3.434093014726788,15.747194759485732,12.186097593843774,3.24249267578125e-05,0.106165811419487,0,0,0
1228,48786.28797140111,2011-01-19 02:50:35,2911.4664598838644,2,6,0.5501165986061096,4.154810905456543,3.882906155887505,3.434093014726788,15.766242804448748,12.186097593843774,6.47544875391759e-05,0.106165811419487,0,0,0
1229,48816.30295640412,2011-01-19 02:51:05,2941.481444866822,2,6,0.5501165986061096,4.158210277557373,3.887492618206997,3.434093014726788,15.785306585775515,12.186097593843774,6.47544875391759e-05,0.106165811419487,0,0,0
1230,48846.318095200426,2011-01-19 02:51:35,2971.496583688192,2,6,0.5497553944587708,4.161610126495361,3.892079088293957,3.434093014726788,15.804386613220766,12.186097593843774,6.47544875391759e-05,0.106165811419487,0,0,0
1231,48876.333206573385,2011-01-19 02:52:05,3001.51169503609,2,6,0.5501165986061096,4.1654953956604,3.896665553093928,3.434093014726788,15.823482905378771,12.186097593843774,9.71794142969884e-05,0.106165811419487,0,0,0
1232,48906.34830377602,2011-01-19 02:52:35,3031.5267922387334,2,6,0.550297200679779,4.16905689239502,3.901251968661335,3.434093014726788,15.842595476949748,12.186097593843774,9.71794142969884e-05,0.106165811419487,0,0,0
1233,48936.36341949482,2011-01-19 02:53:05,3061.541907957525,2,6,0.5499359965324402,4.172618389129639,3.905838430722948,3.434093014726788,15.861724913913328,12.186097593843774,9.71794142969884e-05,0.106165811419487,0,0,0
1234,48966.37853982009,2011-01-19 02:53:35,3091.5570282878098,2,6,0.5499359965324402,4.176341533660889,3.910424885466772,3.434093014726788,15.880871064617043,12.186097593843774,9.70840483205393e-05,0.106165811419487,0,0,0
1235,48996.39599214743,2011-01-19 02:54:05,3121.5744807103856,2,6,0.5499359965324402,4.180065155029297,3.915011619360214,3.434093014726788,15.900035294653398,12.186097593843774,9.71794142969884e-05,0.106165811419487,0,0,0
1236,49026.40878455081,2011-01-19 02:54:35,3151.587273018524,2,6,0.5501165986061096,4.183950424194336,3.91959769040173,3.434093014726788,15.919213819231953,12.186097593843774,0.0001619339018361,0.106165811419487,0,0,0
1237,49056.42390903144,2011-01-19 02:55:05,3181.602397524214,2,6,0.5501165986061096,4.187511920928955,3.924184152869873,3.434093014726788,15.938411140627904,12.186097593843774,9.71794142969884e-05,0.106165811419487,0,0,0
1238,49086.43901592324,2011-01-19 02:55:35,3211.6175044160063,2,6,0.5499359965324402,4.191235065460205,3.928770646880512,3.434093014726788,15.957625949664866,12.186097593843774,9.70840483205393e-05,0.106165811419487,0,0,0
1239,49116.454168874814,2011-01-19 02:56:05,3241.6326573625806,2,6,0.550297200679779,4.195120334625244,3.933357125977321,3.434093014726788,15.976858104884355,12.186097593843774,9.70840483205393e-05,0.106165811419487,0,0,0
1240,49146.469241120256,2011-01-19 02:56:35,3271.647729608023,2,6,0.5501165986061096,4.198843479156494,3.93794357100541,3.434093014726788,15.996107620103023,12.186097593843774,6.47544875391759e-05,0.106165811419487,0,0,0
1241,49153.81282223395,2011-01-19 02:56:43,3278.991310696659,2,6,0.550297200679779,4.200138568878174,3.939065714197525,3.434093014726788,16.00082000784245,12.186097593843774,0.0001618385285837,0.106165811419487,0,0,0
1242,49183.8269298504,2011-01-19 02:57:13,30.01515522224621,3,6,0.0,4.095075130462647,3.939065714197525,3.434093014726788,16.00082000784245,12.186097593843774,-0.0004856109735555,0.106165811419487,0,0,0
1243,49213.84218419969,2011-01-19 02:57:43,60.03040958658502,3,6,0.0,4.08147668838501,3.939065714197525,3.434093014726788,16.00082000784245,12.186097593843774,-0.0003237724304199,0.106165811419487,0,0,0
1244,49243.857188586015,2011-01-19 02:58:13,90.04541398793917,3,6,0.0,4.073382377624512,3.939065714197525,3.434093014726788,16.00082000784245,12.186097593843774,-0.0001942634553415,0.106165811419487,0,0,0
1245,49273.82555861516,2011-01-19 02:58:43,120.01378401708877,3,6,0.0,4.067878246307373,3.939065714197525,3.434093014726788,16.00082000784245,12.186097593843774,-0.0001295089750783,0.106165811419487,0,0,0
1246,49273.82634860235,2011-01-19 02:58:43,2.837070854e-06,4,6,1.0411932468414309,4.199814796447754,3.939065715018064,3.434093014726788,16.00082001128856,12.186097593843774,0.0,0.106165811419487,0,0,0
1247,49274.029533205896,2011-01-19 02:58:43,0.203187475708689,4,6,0.9906226396560668,4.199653148651123,3.93912232610149,3.434093014726788,16.001057768405666,12.186097593843774,-3.23295607813634e-05,0.106165811419487,0,0,0
1248,49275.40449452757,2011-01-19 02:58:45,1.578148792374842,4,6,0.9400520324707032,4.199653148651123,3.9394898848719,3.434093014726788,16.002601459431823,12.186097593843774,-3.23295607813634e-05,0.106165811419487,0,0,0
1249,49277.90451670208,2011-01-19 02:58:47,4.078171067121133,4,6,0.889842689037323,4.199814796447754,3.940124326560543,3.434093014726788,16.005266021672238,12.186097593843774,0.0,0.106165811419487,0,0,0
1250,49281.41988820952,2011-01-19 02:58:51,7.593542459283137,4,6,0.8398138880729675,4.199814796447754,3.940967551303416,3.434093014726788,16.008807431037425,12.186097593843774,-3.24249267578125e-05,0.106165811419487,0,0,0
1251,49286.15430878233,2011-01-19 02:58:55,12.327963027082884,4,6,0.7894238829612732,4.199814796447754,3.942037582045495,3.434093014726788,16.013301419613605,12.186097593843774,0.0,0.106165811419487,0,0,0
1252,49292.341703253165,2011-01-19 02:59:01,18.515357512955365,4,6,0.7393951416015625,4.199814796447754,3.943349899548216,3.434093014726788,16.018812972522912,12.186097593843774,0.0,0.106165811419487,0,0,0
1253,49300.46659023148,2011-01-19 02:59:10,26.64024456144545,4,6,0.689366340637207,4.199814796447754,3.944959876835184,3.434093014726788,16.025574692186822,12.186097593843774,-3.24249267578125e-05,0.106165811419487,0,0,0
1254,49311.52898694791,2011-01-19 02:59:21,37.70264121271477,4,6,0.6391569972038269,4.199814796447754,3.94699719173612,3.434093014726788,16.0341311708738,12.186097593843774,3.23295607813634e-05,0.106165811419487,0,0,0
1255,49327.43476375781,2011-01-19 02:59:37,53.60841800256022,4,6,0.5891281962394714,4.199653148651123,3.949704029156273,3.434093014726788,16.045499535434782,12.186097593843774,-3.23295607813634e-05,0.106165811419487,0,0,0
1256,49353.48118078833,2011-01-19 03:00:03,79.65483502305747,4,6,0.5389188528060913,4.199814796447754,3.953771301141509,3.434093014726788,16.06258157405843,12.186097593843774,-3.24249267578125e-05,0.106165811419487,0,0,0
1257,49403.886817815226,2011-01-19 03:00:53,130.06047206499275,4,6,0.4888900816440582,4.199814796447754,3.960930639640002,3.434093014726788,16.09264985635612,12.186097593843774,0.0,0.106165811419487,0,0,0
1258,49496.83812395052,2011-01-19 03:02:26,223.01177818023385,4,6,0.4388613104820251,4.199814796447754,3.972863016600928,3.434093014726788,16.142764332097602,12.186097593843774,-3.24249267578125e-05,0.106165811419487,0,0,0
1259,49628.07063321283,2011-01-19 03:04:37,354.24428754781144,4,6,0.388832539319992,4.199976921081543,3.987927371274036,3.434093014726788,16.206032841683808,12.186097593843774,0.0,0.106165811419487,0,0,0
1260,49788.3019957753,2011-01-19 03:07:17,514.4756500050125,4,6,0.338803768157959,4.199814796447754,4.004095896662861,3.434093014726788,16.27393870109515,12.186097593843774,-3.24249267578125e-05,0.106165811419487,0,0,0
1261,49981.329941273696,2011-01-19 03:10:30,707.5035955034084,4,6,0.2887749969959259,4.199814796447754,4.020888063311307,3.434093014726788,16.344463651854177,12.186097593843774,0.0,0.106165811419487,0,0,0
1262,50220.06040830808,2011-01-19 03:14:29,946.2340625578364,4,6,0.2387462258338928,4.199653148651123,4.038340757348706,3.434093014726788,16.417762927489957,12.186097593843774,-6.47544875391759e-05,0.106165811419487,0,0,0
1263,50524.883253509965,2011-01-19 03:19:34,1251.0569077396742,4,6,0.1885368376970291,4.199814796447754,4.056372490301405,3.434093014726788,16.49349395678238,12.186097593843774,0.0,0.106165811419487,0,0,0
1264,50933.11075029039,2011-01-19 03:26:22,1659.2844045401616,4,6,0.138508066534996,4.199814796447754,4.074818482593334,3.434093014726788,16.570964716114407,12.186097593843774,0.0,0.106165811419487,0,0,0
1265,51559.60012442671,2011-01-19 03:36:49,2285.7737786564207,4,6,0.0884793028235435,4.199814796447754,4.094275168922525,3.434093014726788,16.652679906244217,12.186097593843774,0.0,0.106165811419487,0,0,0
1266,52454.70997327846,2011-01-19 03:51:44,3180.8836275232115,4,6,0.0498289167881011,4.199814796447754,4.111013163605808,3.434093014726788,16.72297740226488,12.186097593843774,0.0,0.106165811419487,0,0,0
1267,52484.725141063376,2011-01-19 03:52:14,30.015120595946826,5,6,0.0,4.1901021003723145,4.111013163605808,3.434093014726788,16.72297740226488,12.186097593843774,0.0,0.106165811419487,0,0,0
1268,52514.7246112938,2011-01-19 03:52:44,60.014590811329775,5,6,0.0,4.188321113586426,4.111013163605808,3.434093014726788,16.72297740226488,12.186097593843774,-6.47544875391759e-05,0.106165811419487,0,0,0
1269,52514.911271770965,2011-01-19 03:52:44,0.185613626268546,6,6,-1.9243103452026844e-05,4.188483238220215,4.111013163605808,3.43409301571895,16.72297740226488,12.186097597999428,0.0,0.108498990535736,0,0,0
1270,52519.73949207155,2011-01-19 03:52:49,5.013833951926339,6,6,0.0007031940040178,4.188483238220215,4.111014074287382,3.434093015803096,16.72298121670391,12.186097598351877,0.0,0.108498990535736,0,0,0
1271,52537.66223740894,2011-01-19 03:53:07,17.921841102439927,7,6,-1.099568486213684,3.988392353057861,4.111014074287382,3.439566838881128,16.72298121670391,12.208041865451856,-0.0016511917347088,0.108498990535736,0,0,0
1272,52567.6770870145,2011-01-19 03:53:37,47.93669070298282,7,6,-1.099568486213684,3.938855171203613,4.111014074287382,3.448734093208,16.72298121670391,12.244370042107647,-0.0011979580158367,0.108498990535736,0,0,0
1273,52597.69229248698,2011-01-19 03:54:07,77.95189628574293,7,6,-1.099568486213684,3.9006502628326416,4.111014074287382,3.457901510338535,16.72298121670391,12.280297322099328,-0.0009065627818927,0.108498990535736,0,0,0
1274,52627.70733965493,2011-01-19 03:54:37,107.96694334842222,7,6,-1.099568486213684,3.870539426803589,4.111014074287382,3.467068698273824,16.72298121670391,12.315912027774452,-0.0007122993702068,0.108498990535736,0,0,0
1275,52657.72243753425,2011-01-19 03:55:07,137.9820412578272,7,6,-1.099568486213684,3.8464183807373047,4.111014074287382,3.476236001841977,16.72298121670391,12.351280315300846,-0.0005827903514727,0.108498990535736,0,0,0
1276,52687.73755183952,2011-01-19 03:55:37,167.99715553803327,7,6,-1.099568486213684,3.8263447284698486,4.111014074287382,3.48540332513777,16.72298121670391,12.386447661962825,-0.0005504131549969,0.108498990535736,0,0,0
1277,52717.752679783785,2011-01-19 03:56:07,198.0122835725192,7,6,-1.0992072820663452,3.809022903442383,4.111014074287382,3.494570615311484,16.72298121670391,12.421443891778503,-0.0004209041653666,0.108498990535736,0,0,0
1278,52747.76800667388,2011-01-19 03:56:37,228.02761036236464,7,6,-1.099568486213684,3.793158054351807,4.111014074287382,3.503737981067824,16.72298121670391,12.4562883304336,-0.0004532813909463,0.108498990535736,0,0,0
1279,52777.76953511399,2011-01-19 03:57:07,258.0291389929517,7,6,-1.099568486213684,3.77875018119812,4.111014074287382,3.51290114685422,16.72298121670391,12.490979517348196,-0.0003885269106831,0.108498990535736,0,0,0
1280,52807.78244730592,2011-01-19 03:57:37,288.0420510946513,7,6,-1.0993878841400146,3.7654755115509033,4.111014074287382,3.522067802810888,16.72298121670391,12.525556401169576,-0.0003885269106831,0.108498990535736,0,0,0
1281,52837.79751198249,2011-01-19 03:58:07,318.0571157010549,7,6,-1.099568486213684,3.7528486251831055,4.111014074287382,3.531235112864298,16.72298121670391,12.560017106444953,-0.0003237247583456,0.108498990535736,0,0,0
1282,52867.81276297343,2011-01-19 03:58:37,348.0723667170486,7,6,-1.0993878841400146,3.740869045257568,4.111014074287382,3.540402587878013,16.72298121670391,12.594365918624533,-0.0002913951757363,0.108498990535736,0,0,0
1283,52897.82791702776,2011-01-19 03:59:07,378.0875207312841,7,6,-1.099568486213684,3.729537010192871,4.111014074287382,3.549569979401947,16.72298121670391,12.628607471966223,-0.0002913951757363,0.108498990535736,0,0,0
1284,52927.84284965524,2011-01-19 03:59:37,408.1024534690305,7,6,-1.099568486213684,3.718690633773804,4.111014074287382,3.558737213652047,16.72298121670391,12.66274725890202,-0.0002590179501567,0.108498990535736,0,0,0
1285,52957.8579841859,2011-01-19 04:00:07,438.11758789444457,7,6,-1.0993878841400146,3.708168029785156,4.111014074287382,3.567904584993684,16.72298121670391,12.696789258690922,-0.0002913951757363,0.108498990535736,0,0,0
1286,52987.87312814007,2011-01-19 04:00:37,468.1327318385824,7,6,-1.0993878841400146,3.697807312011719,4.111014074287382,3.577071902504598,16.72298121670391,12.730736116213086,-0.0002590179501567,0.108498990535736,0,0,0
1287,53017.88825090644,2011-01-19 04:01:07,498.1478546249885,7,6,-1.0997490882873535,3.687770366668701,4.111014074287382,3.586239251708792,16.72298121670391,12.76458988299228,-0.0003237724304199,0.108498990535736,0,0,0
1288,53047.90348254914,2011-01-19 04:01:37,528.163086287748,7,6,-1.099568486213684,3.6782190799713135,4.111014074287382,3.595406688794786,16.72298121670391,12.798353927940308,-0.0002266406954731,0.108498990535736,0,0,0
1289,53077.92067547496,2011-01-19 04:02:07,558.180279168466,7,6,-1.099568486213684,3.668668031692505,4.111014074287382,3.604574724038295,16.72298121670391,12.832032608130987,-0.0002913951757363,0.108498990535736,0,0,0
1290,53107.93372374604,2011-01-19 04:02:37,588.1933274646041,7,6,-1.099568486213684,3.659278631210327,4.111014074287382,3.613741400759652,16.72298121670391,12.865620355259304,-0.0002913951757363,0.108498990535736,0,0,0
1291,53137.94872768123,2011-01-19 04:03:07,618.2083313797465,7,6,-1.0993878841400146,3.650536775588989,4.111014074287382,3.622908738904608,16.72298121670391,12.899126721338552,-0.0001942634553415,0.108498990535736,0,0,0
1292,53167.96385207665,2011-01-19 04:03:37,648.2234557902002,7,6,-1.099568486213684,3.641471147537232,4.111014074287382,3.63207605256379,16.72298121670391,12.932550553108465,-0.0002590179501567,0.108498990535736,0,0,0
1293,53197.97894588584,2011-01-19 04:04:07,678.2385495843487,7,6,-1.0993878841400146,3.632891178131104,4.111014074287382,3.641243312520116,16.72298121670391,12.965893346598744,-0.0002266406954731,0.108498990535736,0,0,0
1294,53227.9940552939,2011-01-19 04:04:37,708.2536589823869,7,6,-1.099568486213684,3.624311208724976,4.111014074287382,3.650411169243506,16.72298121670391,12.999159149500873,-0.0002266406954731,0.108498990535736,0,0,0
1295,53258.00921854115,2011-01-19 04:05:08,738.2688222597088,7,6,-1.099568486213684,3.6158931255340576,4.111014074287382,3.659579357233048,16.72298121670391,13.0323482966101,-0.0002266406954731,0.108498990535736,0,0,0
1296,53288.02431244056,2011-01-19 04:05:38,768.2839161290448,7,6,-1.0993878841400146,3.60747504234314,4.111014074287382,3.668747472447905,16.72298121670391,13.065461210523884,-0.0002266406954731,0.108498990535736,0,0,0
1297,53318.03939580371,2011-01-19 04:06:08,798.2989995874333,7,6,-1.0993878841400146,3.5998663902282715,4.111014074287382,3.677915510816248,16.72298121670391,13.098500004751552,-0.0001618862152099,0.108498990535736,0,0,0
1298,53348.0545132468,2011-01-19 04:06:38,828.3141169653596,7,6,-1.0993878841400146,3.5919342041015625,4.111014074287382,3.687082984836728,16.72298121670391,13.131464526854275,-0.0002265930233988,0.108498990535736,0,0,0
1299,53378.07146766319,2011-01-19 04:07:08,858.3310713917763,7,6,-1.099568486213684,3.5841636657714844,4.111014074287382,3.69625091288885,16.72298121670391,13.164359587735603,-0.0002266406954731,0.108498990535736,0,0,0
1300,53408.084813916925,2011-01-19 04:07:38,888.3444176054167,7,6,-1.099568486213684,3.576716899871826,4.111014074287382,3.705417749533474,16.72298121670391,13.197180350661046,-0.0001942634553415,0.108498990535736,0,0,0
1301,53438.09996855773,2011-01-19 04:08:08,918.3595722462136,7,6,-1.0997490882873535,3.569270133972168,4.111014074287382,3.714585169537922,16.72298121670391,13.229934808092656,-0.0001942634553415,0.108498990535736,0,0,0
1302,53468.115017144206,2011-01-19 04:08:38,948.3746208577531,7,6,-1.0993878841400146,3.5621471405029297,4.111014074287382,3.723752479875699,16.72298121670391,13.26262274927308,-0.0001942634553415,0.108498990535736,0,0,0
1303,53498.13016814092,2011-01-19 04:09:08,978.3897719196304,7,6,-1.0993878841400146,3.5550241470336914,4.111014074287382,3.732919870033504,16.72298121670391,13.295246368898852,-0.0002266406954731,0.108498990535736,0,0,0
1304,53528.14552599819,2011-01-19 04:09:38,1008.405129721768,7,6,-1.099568486213684,3.548548698425293,4.111014074287382,3.742087328380709,16.72298121670391,13.327807187276454,-0.0001295089750783,0.108498990535736,0,0,0
1305,53558.16038569891,2011-01-19 04:10:08,1038.4199893873963,7,6,-1.099568486213684,3.541911363601685,4.111014074287382,3.75125462696701,16.72298121670391,13.360306942756544,-0.0001618862152099,0.108498990535736,0,0,0
1306,53588.17551259555,2011-01-19 04:10:38,1068.4351163040965,7,6,-1.099568486213684,3.535597801208496,4.111014074287382,3.760422021616142,16.72298121670391,13.392747918638577,-0.0001618862152099,0.108498990535736,0,0,0
1307,53618.19064649967,2011-01-19 04:11:08,1098.4502502833986,7,6,-1.0993878841400146,3.5296080112457275,4.111014074287382,3.769589489552581,16.72298121670391,13.425132460501692,-0.0001295089750783,0.108498990535736,0,0,0
1308,53648.20572511099,2011-01-19 04:11:38,1128.4653287994695,7,6,-1.099568486213684,3.523618221282959,4.111014074287382,3.778756960458099,16.72298121670391,13.457461953673649,-0.0001295089750783,0.108498990535736,0,0,0
1309,53678.22092890428,2011-01-19 04:12:08,1158.480532718082,7,6,-1.0993878841400146,3.5177903175354004,4.111014074287382,3.787924441367014,16.72298121670391,13.48973792374768,-0.0001942634553415,0.108498990535736,0,0,0
1310,53708.23595966634,2011-01-19 04:12:38,1188.4955633798852,7,6,-1.0993878841400146,3.512124300003052,4.111014074287382,3.797091827325388,16.72298121670391,13.521961426622656,-0.0001618862152099,0.108498990535736,0,0,0
1311,53738.25128193993,2011-01-19 04:13:08,1218.5108856384372,7,6,-1.099568486213684,3.506620407104492,4.111014074287382,3.806259365354249,16.72298121670391,13.55413483611229,-0.0001618862152099,0.108498990535736,0,0,0
1312,53768.26619881815,2011-01-19 04:13:38,1248.525802506632,7,6,-1.0993878841400146,3.5012781620025635,4.111014074287382,3.815426758332311,16.72298121670391,13.586258255120793,-0.0001942634553415,0.108498990535736,0,0,0
1313,53798.28132639148,2011-01-19 04:14:08,1278.5409301050313,7,6,-1.099568486213684,3.4962596893310547,4.111014074287382,3.824594176551116,16.72298121670391,13.618333374482324,-6.47544875391759e-05,0.108498990535736,0,0,0
1314,53828.29655154301,2011-01-19 04:14:38,1308.5561552716,7,6,-1.099568486213684,3.490755558013916,4.111014074287382,3.833761667446098,16.72298121670391,13.650360601798576,-0.0001618862152099,0.108498990535736,0,0,0
1315,53858.31155751829,2011-01-19 04:15:08,1338.571161216802,7,6,-1.099568486213684,3.485898971557617,4.111014074287382,3.842929035876961,16.72298121670391,13.682340220603308,-0.0001618862152099,0.108498990535736,0,0,0
1316,53888.32666637498,2011-01-19 04:15:38,1368.586270063466,7,6,-1.099568486213684,3.4807186126708984,4.111014074287382,3.852096451774512,16.72298121670391,13.714273926676258,-0.0001618862152099,0.108498990535736,0,0,0
1317,53918.34178002361,2011-01-19 04:16:08,1398.6013838323977,7,6,-1.0993878841400146,3.4758620262146,4.111014074287382,3.861263769888381,16.72298121670391,13.746160887348948,-9.713172767078504e-05,0.108498990535736,0,0,0
1318,53948.35689588275,2011-01-19 04:16:38,1428.616499571239,7,6,-1.0993878841400146,3.470843553543091,4.111014074287382,3.870431151239637,16.72298121670391,13.778001861042238,-9.713172767078504e-05,0.108498990535736,0,0,0
1319,53978.37381891593,2011-01-19 04:17:08,1458.633422604414,7,6,-1.099568486213684,3.465663194656372,4.111014074287382,3.87959907579704,16.72298121670391,13.809798421871193,-0.0001295089750783,0.108498990535736,0,0,0
1320,54008.38716354061,2011-01-19 04:17:38,1488.646767249144,7,6,-1.099568486213684,3.4604828357696533,4.111014074287382,3.888765979525763,16.72298121670391,13.841544186442624,-0.0001618862152099,0.108498990535736,0,0,0
1321,54038.40225196638,2011-01-19 04:18:08,1518.661855684938,7,6,-1.099568486213684,3.4553024768829346,4.111014074287382,3.897933373417849,16.72298121670391,13.873243089700912,-9.713172767078504e-05,0.108498990535736,0,0,0
1322,54068.41757332267,2011-01-19 04:18:38,1548.6771771264537,7,6,-1.099568486213684,3.449474573135376,4.111014074287382,3.907100847380979,16.72298121670391,13.904892668881136,-0.0001618862152099,0.108498990535736,0,0,0
1323,54098.43261892171,2011-01-19 04:19:08,1578.692222645285,7,6,-1.0993878841400146,3.4441323280334477,4.111014074287382,3.916268211209321,16.72298121670391,13.93649067253223,-0.0001295089750783,0.108498990535736,0,0,0
1324,54128.44760392973,2011-01-19 04:19:38,1608.7072076182176,7,6,-1.099568486213684,3.4379806518554688,4.111014074287382,3.92543556190172,16.72298121670391,13.96803562919398,-0.0001942634553415,0.108498990535736,0,0,0
1325,54158.462710280175,2011-01-19 04:20:08,1638.7223139686605,7,6,-1.0993878841400146,3.4318289756774902,4.111014074287382,3.934602961385609,16.72298121670391,13.999525221725412,-0.0001618862152099,0.108498990535736,0,0,0
1326,54188.47783671066,2011-01-19 04:20:38,1668.7374404091738,7,6,-1.0993878841400146,3.425191879272461,4.111014074287382,3.943769823535658,16.72298121670391,14.030954366731995,-0.0002266406954731,0.108498990535736,0,0,0
1327,54218.49297321125,2011-01-19 04:21:08,1698.7525769047472,7,6,-1.099568486213684,3.4182307720184326,4.111014074287382,3.952936494120303,16.72298121670391,14.0623210204769,-0.0001942634553415,0.108498990535736,0,0,0
1328,54248.50821601176,2011-01-19 04:21:38,1728.7678197052653,7,6,-1.0993878841400146,3.4107840061187744,4.111014074287382,3.962103744658243,16.72298121670391,14.093623868206231,-0.0002266406954731,0.108498990535736,0,0,0
1329,54278.52320894453,2011-01-19 04:22:08,1758.782812633024,7,6,-1.099568486213684,3.4026896953582764,4.111014074287382,3.971271201123654,16.72298121670391,14.1248562654851,-0.0002590179501567,0.108498990535736,0,0,0
1330,54308.53833685872,2011-01-19 04:22:38,1788.79794054721,7,6,-1.0997490882873535,3.3939478397369385,4.111014074287382,3.980438655145496,16.72298121670391,14.15601224464481,-0.0002913951757363,0.108498990535736,0,0,0
1331,54338.55345095347,2011-01-19 04:23:08,1818.8130546419536,7,6,-1.0993878841400146,3.384396553039551,4.111014074287382,3.989606126513986,16.72298121670391,14.187084192326672,-0.0002590179501567,0.108498990535736,0,0,0
1332,54368.56883403862,2011-01-19 04:23:38,1848.828437762192,7,6,-1.0993878841400146,3.3737120628356934,4.111014074287382,3.998773667386304,16.72298121670391,14.218062520456206,-0.0002590179501567,0.108498990535736,0,0,0
1333,54398.58373508738,2011-01-19 04:24:08,1878.8433387808848,7,6,-1.099568486213684,3.3612468242645264,4.111014074287382,4.007941089033473,16.72298121670391,14.248935143618256,-0.0003561496851034,0.108498990535736,0,0,0
1334,54428.598815483136,2011-01-19 04:24:38,1908.8584191966904,7,6,-1.099568486213684,3.347162961959839,4.111014074287382,4.017108578114082,16.72298121670391,14.279687541664188,-0.0004209041653666,0.108498990535736,0,0,0
1335,54458.61392323708,2011-01-19 04:25:08,1938.8735269255685,7,6,-1.099568486213684,3.330488681793213,4.111014074287382,4.026276086188709,16.72298121670391,14.31029909125675,-0.0004532813909463,0.108498990535736,0,0,0
1336,54488.629159952434,2011-01-19 04:25:38,1968.8887636659829,7,6,-1.0993878841400146,3.310091018676758,4.111014074287382,4.035443550669605,16.72298121670391,14.340740777467506,-0.0006151676061563,0.108498990535736,0,0,0
1337,54518.64416395279,2011-01-19 04:26:08,1998.9037676513,7,6,-1.099568486213684,3.284512996673584,4.111014074287382,4.044610905086856,16.72298121670391,14.37097373693578,-0.0007770538213662,0.108498990535736,0,0,0
1338,54548.65926668421,2011-01-19 04:26:38,2028.9188703777104,7,6,-1.0997490882873535,3.252297878265381,4.111014074287382,4.053778321879559,16.72298121670391,14.400944204124722,-0.0009713172912597,0.108498990535736,0,0,0
1339,54578.67615313621,2011-01-19 04:27:08,2058.935756859789,7,6,-1.0993878841400146,3.211178779602051,4.111014074287382,4.062946387404447,16.72298121670391,14.430583466255046,-0.0013274669181555,0.108498990535736,0,0,0
1340,54608.689632216,2011-01-19 04:27:38,2088.9492359395726,7,6,-1.0997490882873535,3.156623363494873,4.111014074287382,4.072113430510533,16.72298121670391,14.459784412972168,-0.0016836166614666,0.108498990535736,0,0,0
1341,54638.7046359156,2011-01-19 04:28:08,2118.9642396040904,7,6,-1.099568486213684,3.08215594291687,4.111014074287382,4.081280850026067,16.72298121670391,14.488400314985704,-0.0022987842094153,0.108498990535736,0,0,0
1342,54668.71973865204,2011-01-19 04:28:38,2148.9793423555634,7,6,-1.0993878841400146,2.975311279296875,4.111014074287382,4.090448347176194,16.72298121670391,14.51620067261824,-0.0033996105194091,0.108498990535736,0,0,0
1343,54698.737143059945,2011-01-19 04:29:08,2178.9967468787595,7,6,-1.099568486213684,2.8132636547088623,4.111014074287382,4.099616487376558,16.72298121670391,14.542787434375988,-0.0050832270644605,0.108498990535736,0,0,0
1344,54714.89301110917,2011-01-19 04:29:24,2195.152614902912,7,6,-1.0997490882873535,2.699781894683838,4.111014074287382,4.104550940242167,16.72298121670391,14.556395311647996,-0.005892610643059,0.108498990535736,0,0,0
1345,54774.90851474548,2011-01-19 04:30:25,60.01459860074339,8,6,0.0,3.5754218101501465,4.111014074287382,4.104550940242167,16.72298121670391,14.556395311647996,0.0014245987404137,0.108498990535736,0,0,0
1346,54775.09619916535,2011-01-19 04:30:25,0.187491331086708,9,6,-1.9243103452026844e-05,3.5757455825805664,4.111014074287382,4.104550941244366,16.72298121670391,14.556395315231605,0.0,0.1060699149966239,0,0,0
1347,54779.924350238405,2011-01-19 04:30:30,5.015642414170702,9,6,0.0007031940040178,3.5840017795562744,4.111014937257391,4.104550941411413,16.72298430665082,14.55639531582892,0.0011979580158367,0.1060699149966239,0,0,0
