Data_Point,Test_Time(s),Date_Time,Step_Time(s),Step_Index,Cycle_Index,Current(A),Voltage(V),Charge_Capacity(Ah),Discharge_Capacity(Ah),Charge_Energy(Wh),Discharge_Energy(Wh),dV/dt(V/s),Internal_Resistance(Ohm),Is_FC_Data,AC_Impedance(Ohm),ACI_Phase_Angle(Deg)
5343,221719.35125811453,2011-01-21 02:53:13,30.015209327092137,1,26,0.0,3.655717134475708,16.376608387990288,16.32172926223787,66.75195071256388,57.57686103333947,0.0006475448608398,0.1077866628766059,0,0,0
5344,221749.36626956848,2011-01-21 02:53:43,60.03022077601098,1,26,0.0,3.6746575832366943,16.376608387990288,16.32172926223787,66.75195071256388,57.57686103333947,0.0004209041653666,0.1077866628766059,0,0,0
5345,221779.38136578863,2011-01-21 02:54:13,90.04531702126839,1,26,0.0,3.687608480453491,16.376608387990288,16.32172926223787,66.75195071256388,57.57686103333947,0.0002590179501567,0.1077866628766059,0,0,0
5346,221809.3495891272,2011-01-21 02:54:43,120.01354035981986,1,26,0.0,3.6979691982269287,16.376608387990288,16.32172926223787,66.75195071256388,57.57686103333947,0.0002266406954731,0.1077866628766059,0,0,0
5347,221839.37210173515,2011-01-21 02:55:13,30.015102851722755,2,26,0.5501165986061096,3.8180885314941406,16.38119558224094,16.32172926223787,66.76938103525653,57.57686103333947,0.0007446765666827,0.1077866628766059,0,0,0
5348,221869.3872372984,2011-01-21 02:55:43,60.030238409960205,2,26,0.5504778623580933,3.8384859561920166,16.38578275458795,16.32172926223787,66.7869458355002,57.57686103333947,0.0004209041653666,0.1077866628766059,0,0,0
5349,221899.4023283607,2011-01-21 02:56:13,90.04532947731268,2,26,0.5501165986061096,3.852408170700073,16.390369926283327,16.32172926223787,66.80458711072167,57.57686103333947,0.0003561496851034,0.1077866628766059,0,0,0
5350,221929.4176591957,2011-01-21 02:56:43,120.06066030221474,2,26,0.5501165986061096,3.863578319549561,16.394957143283573,16.32172926223787,66.82228556650652,57.57686103333947,0.0002913951757363,0.1077866628766059,0,0,0
5351,221959.432555658,2011-01-21 02:57:13,150.07555677457665,2,26,0.550297200679779,3.873129606246948,16.399544213966003,16.32172926223787,66.84003061501454,57.57686103333947,0.0002266406954731,0.1077866628766059,0,0,0
5352,221989.4476519684,2011-01-21 02:57:43,180.09065305993397,2,26,0.550297200679779,3.881871461868286,16.40413137205742,16.32172926223787,66.85781764595991,57.57686103333947,0.0002266406954731,0.1077866628766059,0,0,0
5353,222019.46289229777,2011-01-21 02:58:13,210.1058933892933,2,26,0.550297200679779,3.8894801139831534,16.40871855768444,16.32172926223787,66.87564223190519,57.57686103333947,0.0001618862152099,0.1077866628766059,0,0,0
5354,222049.47789281947,2011-01-21 02:58:43,240.1208939360406,2,26,0.550297200679779,3.8967649936676025,16.413305719034316,16.32172926223787,66.89350093041682,57.57686103333947,0.0001942634553415,0.1077866628766059,0,0,0
5355,222079.49301258835,2011-01-21 02:59:13,270.13601369991363,2,26,0.5501165986061096,3.903402328491211,16.417892890829624,16.32172926223787,66.91139136669484,57.57686103333947,0.0001618862152099,0.1077866628766059,0,0,0
5356,222109.50803904468,2011-01-21 02:59:43,300.15104015122307,2,26,0.550297200679779,3.9097158908844,16.422480058660206,16.32172926223787,66.92931160212851,57.57686103333947,0.0001618862152099,0.1077866628766059,0,0,0
5357,222139.52333779965,2011-01-21 03:00:13,330.166338916222,2,26,0.550297200679779,3.915705442428589,16.427067206738208,16.32172926223787,66.9472599654268,57.57686103333947,0.0001618862152099,0.1077866628766059,0,0,0
5358,222169.53833577,2011-01-21 03:00:43,360.18133687652306,2,26,0.550297200679779,3.921533346176148,16.431654341071685,16.32172926223787,66.9652352055726,57.57686103333947,0.0001295089750783,0.1077866628766059,0,0,0
5359,222199.5534416492,2011-01-21 03:01:13,390.19644275579134,2,26,0.5501165986061096,3.926875591278076,16.436241553480748,16.32172926223787,66.98323651543328,57.57686103333947,0.0001618862152099,0.1077866628766059,0,0,0
5360,222229.56849308783,2011-01-21 03:01:43,420.21149429462656,2,26,0.550297200679779,3.932379722595215,16.440828697642715,16.32172926223787,67.00126228549435,57.57686103333947,0.0001295089750783,0.1077866628766059,0,0,0
5361,222259.5837863441,2011-01-21 03:02:13,450.2267874456337,2,26,0.550297200679779,3.937398195266724,16.44541591346321,16.32172926223787,67.01931188952061,57.57686103333947,0.0001618862152099,0.1077866628766059,0,0,0
5362,222289.5987956276,2011-01-21 03:02:43,480.2417967391808,2,26,0.5501165986061096,3.9422547817230233,16.450002952326226,16.32172926223787,67.03738343839392,57.57686103333947,0.0001295089750783,0.1077866628766059,0,0,0
5363,222319.61401644332,2011-01-21 03:03:13,510.25701754488114,2,26,0.550297200679779,3.946787595748901,16.454590022849906,16.32172926223787,67.05547690439468,57.57686103333947,0.0001295089750783,0.1077866628766059,0,0,0
5364,222349.62899381737,2011-01-21 03:03:43,540.2719949339122,2,26,0.5501165986061096,3.9511585235595694,16.459177155923108,16.32172926223787,67.07359134894779,57.57686103333947,9.713172767078504e-05,0.1077866628766059,0,0,0
5365,222379.64429281792,2011-01-21 03:04:13,570.2872940046732,2,26,0.550297200679779,3.9555294513702393,16.463764282223572,16.32172926223787,67.09172568573375,57.57686103333947,0.0001295089750783,0.1077866628766059,0,0,0
5366,222409.659229716,2011-01-21 03:04:43,600.3022308326135,2,26,0.550297200679779,3.9594147205352783,16.46835137725472,16.32172926223787,67.1098789712222,57.57686103333947,6.47544875391759e-05,0.1077866628766059,0,0,0
5367,222439.67461462072,2011-01-21 03:05:13,630.3176157222616,2,26,0.5499359965324402,3.9634618759155273,16.472938615502137,16.32172926223787,67.12805125717922,57.57686103333947,9.713172767078504e-05,0.1077866628766059,0,0,0
5368,222469.68944379035,2011-01-21 03:05:43,660.3324448868718,2,26,0.550297200679779,3.967185258865357,16.47752570406498,16.32172926223787,67.14624065638783,57.57686103333947,9.713172767078504e-05,0.1077866628766059,0,0,0
5369,222499.7047150568,2011-01-21 03:06:13,690.347716173386,2,26,0.5501165986061096,3.9709086418151855,16.482113000625915,16.32172926223787,67.16444797255889,57.57686103333947,9.713172767078504e-05,0.1077866628766059,0,0,0
5370,222529.7196858093,2011-01-21 03:06:43,720.3626869258768,2,26,0.5499359965324402,3.9743082523345943,16.48670016974547,16.32172926223787,67.18267134996152,57.57686103333947,6.47544875391759e-05,0.1077866628766059,0,0,0
5371,222559.735045441,2011-01-21 03:07:13,750.3780466678492,2,26,0.5501165986061096,3.977869749069214,16.491287401102074,16.32172926223787,67.20091115100317,57.57686103333947,6.47544875391759e-05,0.1077866628766059,0,0,0
5372,222589.7499015428,2011-01-21 03:07:43,780.3929026593202,2,26,0.5501165986061096,3.981269359588623,16.495874417888434,16.32172926223787,67.21916575054969,57.57686103333947,9.713172767078504e-05,0.1077866628766059,0,0,0
5373,222619.76513873928,2011-01-21 03:08:13,810.4081398308091,2,26,0.550297200679779,3.984830856323242,16.50046161465262,16.32172926223787,67.2374368214545,57.57686103333947,9.713172767078504e-05,0.1077866628766059,0,0,0
5374,222649.7801691304,2011-01-21 03:08:43,840.4231702319627,2,26,0.5501165986061096,3.987906694412232,16.505048781348396,16.32172926223787,67.25572309680396,57.57686103333947,6.47544875391759e-05,0.1077866628766059,0,0,0
5375,222679.79536538493,2011-01-21 03:09:13,870.4383665015114,2,26,0.5501165986061096,3.9913063049316406,16.509635870182144,16.32172926223787,67.27402395776714,57.57686103333947,9.713172767078504e-05,0.1077866628766059,0,0,0
5376,222709.8104732241,2011-01-21 03:09:43,900.4534743306393,2,26,0.5501165986061096,3.9945437908172607,16.514222949125596,16.32172926223787,67.29233962613478,57.57686103333947,6.47544875391759e-05,0.1077866628766059,0,0,0
5377,222739.8254612496,2011-01-21 03:10:13,930.4684623662048,2,26,0.5501165986061096,3.99761962890625,16.518810086187603,16.32172926223787,67.31067010709182,57.57686103333947,9.713172767078504e-05,0.1077866628766059,0,0,0
5378,222769.840592863,2011-01-21 03:10:43,960.4835939595606,2,26,0.550297200679779,4.000857353210449,16.52339725630809,16.32172926223787,67.32901507751116,57.57686103333947,9.70840483205393e-05,0.1077866628766059,0,0,0
5379,222799.85603728608,2011-01-21 03:11:13,990.4990383875968,2,26,0.5501165986061096,4.0037713050842285,16.527984361643313,16.32172926223787,67.34737406890464,57.57686103333947,6.47544875391759e-05,0.1077866628766059,0,0,0
5380,222829.87079747376,2011-01-21 03:11:43,1020.5137985752954,2,26,0.5501165986061096,4.007009029388428,16.5325713635264,16.32172926223787,67.36574672058487,57.57686103333947,0.0001295089750783,0.1077866628766059,0,0,0
5381,222859.88589769392,2011-01-21 03:12:13,1050.528898810497,2,26,0.5501165986061096,4.009922981262207,16.53715850664533,16.32172926223787,67.3841339460822,57.57686103333947,9.70840483205393e-05,0.1077866628766059,0,0,0
5382,222889.9034156799,2011-01-21 03:12:43,1080.546416891715,2,26,0.5499359965324402,4.012836933135986,16.541745993069096,16.32172926223787,67.40253621600968,57.57686103333947,9.70840483205393e-05,0.1077866628766059,0,0,0
5383,222919.9161616476,2011-01-21 03:13:13,1110.55916276412,2,26,0.550297200679779,4.015750885009766,16.54633279322502,16.32172926223787,67.42094925100886,57.57686103333947,3.23295607813634e-05,0.1077866628766059,0,0,0
5384,222949.9312422288,2011-01-21 03:13:43,1140.5742433453377,2,26,0.550297200679779,4.018826961517334,16.550919953948153,16.32172926223787,67.4393772751738,57.57686103333947,9.71794142969884e-05,0.1077866628766059,0,0,0
5385,222979.94637603764,2011-01-21 03:14:13,1170.5893771542153,2,26,0.550297200679779,4.021740913391113,16.555507081244922,16.32172926223787,67.45781841803452,57.57686103333947,6.47544875391759e-05,0.1077866628766059,0,0,0
5386,223009.96147452848,2011-01-21 03:14:43,1200.6044756400568,2,26,0.5501165986061096,4.024492740631104,16.56009419996917,16.32172926223787,67.47627288495248,57.57686103333947,6.47544875391759e-05,0.1077866628766059,0,0,0
5387,223039.97657225243,2011-01-21 03:15:13,1230.6195733439497,2,26,0.5501165986061096,4.027245044708252,16.564681268112714,16.32172926223787,67.49474027282534,57.57686103333947,6.47544875391759e-05,0.1077866628766059,0,0,0
5388,223069.99168591108,2011-01-21 03:15:43,1260.634687087819,2,26,0.550297200679779,4.030320644378662,16.569268419287596,16.32172926223787,67.51322105464634,57.57686103333947,0.0001295089750783,0.1077866628766059,0,0,0
5389,223100.00679664745,2011-01-21 03:16:13,1290.6497977339675,2,26,0.5501165986061096,4.0329108238220215,16.573855499639727,16.32172926223787,67.53171450740908,57.57686103333947,3.23295607813634e-05,0.1077866628766059,0,0,0
5390,223130.02192825085,2011-01-21 03:16:43,1320.6649293573985,2,26,0.5501165986061096,4.035986423492432,16.5784426168168,16.32172926223787,67.55022100979173,57.57686103333947,9.70840483205393e-05,0.1077866628766059,0,0,0
5391,223160.0370186315,2011-01-21 03:17:13,1350.6800197480643,2,26,0.5501165986061096,4.03873872756958,16.58302971896633,16.32172926223787,67.5687402873377,57.57686103333947,9.71794142969884e-05,0.1077866628766059,0,0,0
5392,223190.05436838817,2011-01-21 03:17:43,1380.6973695949905,2,26,0.550297200679779,4.04149055480957,16.587617264392478,16.32172926223787,67.58727410486132,57.57686103333947,9.70840483205393e-05,0.1077866628766059,0,0,0
5393,223220.06725273567,2011-01-21 03:18:13,1410.7102538522934,2,26,0.550297200679779,4.044242858886719,16.592204076943784,16.32172926223787,67.60581765975277,57.57686103333947,9.71794142969884e-05,0.1077866628766059,0,0,0
5394,223250.08236938683,2011-01-21 03:18:43,1440.7253705034086,2,26,0.5501165986061096,4.046994686126709,16.596791226713727,16.32172926223787,67.62437532618009,57.57686103333947,9.70840483205393e-05,0.1077866628766059,0,0,0
5395,223280.0974661384,2011-01-21 03:19:13,1470.7404672549276,2,26,0.5501165986061096,4.049908638000488,16.601378411972096,16.32172926223787,67.64294594006076,57.57686103333947,6.47544875391759e-05,0.1077866628766059,0,0,0
5396,223310.1128961104,2011-01-21 03:19:43,1500.75589719686,2,26,0.5501165986061096,4.052498817443848,16.605965616783063,16.32172926223787,67.66152936453656,57.57686103333947,6.47544875391759e-05,0.1077866628766059,0,0,0
5397,223340.1278326175,2011-01-21 03:20:13,1530.7708337340755,2,26,0.550297200679779,4.055251121520996,16.610552753279872,16.32172926223787,67.6801253175825,57.57686103333947,6.47544875391759e-05,0.1077866628766059,0,0,0
5398,223370.14282073328,2011-01-21 03:20:44,1560.785821849841,2,26,0.5499359965324402,4.058002948760986,16.615139942884234,16.32172926223787,67.6987342301572,57.57686103333947,6.47544875391759e-05,0.1077866628766059,0,0,0
5399,223400.15804440613,2011-01-21 03:21:14,1590.801045517675,2,26,0.550297200679779,4.060755252838135,16.619727140511678,16.32172926223787,67.71735598869056,57.57686103333947,3.24249267578125e-05,0.1077866628766059,0,0,0
5400,223430.17304043155,2011-01-21 03:21:44,1620.816041528116,2,26,0.550297200679779,4.063830852508545,16.62431421236215,16.32172926223787,67.73598967537797,57.57686103333947,9.70840483205393e-05,0.1077866628766059,0,0,0
5401,223460.18814150387,2011-01-21 03:22:14,1650.831142620454,2,26,0.5501165986061096,4.066421031951904,16.628901332176685,16.32172926223787,67.75463655255429,57.57686103333947,9.70840483205393e-05,0.1077866628766059,0,0,0
5402,223490.20326262616,2011-01-21 03:22:44,1680.8462637427126,2,26,0.550297200679779,4.069334983825684,16.633488466838696,16.32172926223787,67.77329639178254,57.57686103333947,9.70840483205393e-05,0.1077866628766059,0,0,0
5403,223520.21835624485,2011-01-21 03:23:14,1710.8613573463865,2,26,0.550297200679779,4.072248935699463,16.638075605814194,16.32172926223787,67.7919692257745,57.57686103333947,9.70840483205393e-05,0.1077866628766059,0,0,0
5404,223550.2334870763,2011-01-21 03:23:44,1740.876488187868,2,26,0.550297200679779,4.075001239776611,16.642662753317435,16.32172926223787,67.81065510864245,57.57686103333947,9.71794142969884e-05,0.1077866628766059,0,0,0
5405,223580.2485862689,2011-01-21 03:24:14,1770.8915873854835,2,26,0.5501165986061096,4.077753067016602,16.647249910790414,16.32172926223787,67.8293541733913,57.57686103333947,6.47544875391759e-05,0.1077866628766059,0,0,0
5406,223610.2638376057,2011-01-21 03:24:44,1800.9068387072396,2,26,0.550297200679779,4.080667018890381,16.65183698894981,16.32172926223787,67.84806614643878,57.57686103333947,6.47544875391759e-05,0.1077866628766059,0,0,0
5407,223640.2790445168,2011-01-21 03:25:14,1830.922045633348,2,26,0.550297200679779,4.083743095397949,16.65642415305543,16.32172926223787,67.86679172530808,57.57686103333947,9.71794142969884e-05,0.1077866628766059,0,0,0
5408,223670.29391066852,2011-01-21 03:25:44,1860.936911785141,2,26,0.550297200679779,4.08649492263794,16.661011235807358,16.32172926223787,67.88553040733878,57.57686103333947,3.23295607813634e-05,0.1077866628766059,0,0,0
5409,223700.30918065688,2011-01-21 03:26:14,1890.9521817684072,2,26,0.5499359965324402,4.089408874511719,16.665598437676408,16.32172926223787,67.90428311905266,57.57686103333947,3.23295607813634e-05,0.1077866628766059,0,0,0
5410,223730.3241444169,2011-01-21 03:26:44,1920.9671455134337,2,26,0.5501165986061096,4.092484951019287,16.67018557693142,16.32172926223787,67.92304914211216,57.57686103333947,9.71794142969884e-05,0.1077866628766059,0,0,0
5411,223760.33926565948,2011-01-21 03:27:14,1950.9822667760416,2,26,0.5501165986061096,4.095398902893066,16.67477266625546,16.32172926223787,67.94182856245783,57.57686103333947,6.47544875391759e-05,0.1077866628766059,0,0,0
5412,223790.3543866514,2011-01-21 03:27:44,1980.997387767976,2,26,0.5501165986061096,4.098474502563477,16.679359822500782,16.32172926223787,67.96062214822815,57.57686103333947,9.70840483205393e-05,0.1077866628766059,0,0,0
5413,223820.36946941807,2011-01-21 03:28:14,2011.01247053464,2,26,0.5501165986061096,4.101550579071045,16.68394695393178,16.32172926223787,67.97942955116254,57.57686103333947,0.0001295089750783,0.1077866628766059,0,0,0
5414,223850.38478959145,2011-01-21 03:28:44,2041.0277907029829,2,26,0.5501165986061096,4.104626178741455,16.68853410797817,16.32172926223787,67.99825096548402,57.57686103333947,9.70840483205393e-05,0.1077866628766059,0,0,0
5415,223880.3996974672,2011-01-21 03:29:14,2071.042698583778,2,26,0.550297200679779,4.107863903045654,16.693121176178806,16.32172926223787,68.0170862092585,57.57686103333947,9.70840483205393e-05,0.1077866628766059,0,0,0
5416,223910.41480956692,2011-01-21 03:29:44,2101.0578106835496,2,26,0.5501165986061096,4.110777854919434,16.697708273778904,16.32172926223787,68.03593581667103,57.57686103333947,6.47544875391759e-05,0.1077866628766059,0,0,0
5417,223940.42992092992,2011-01-21 03:30:14,2131.072922046485,2,26,0.550297200679779,4.114177703857422,16.702295371847356,16.32172926223787,68.05479970964534,57.57686103333947,0.0001295089750783,0.1077866628766059,0,0,0
5418,223970.44504941552,2011-01-21 03:30:44,2161.088050527083,2,26,0.550297200679779,4.117253303527832,16.706882456496057,16.32172926223787,68.0736780615832,57.57686103333947,0.0001295089750783,0.1077866628766059,0,0,0
5419,224000.4601412849,2011-01-21 03:31:14,2191.1031423864088,2,26,0.550297200679779,4.120328903198242,16.71146949946598,16.32172926223787,68.09257078779497,57.57686103333947,6.47544875391759e-05,0.1077866628766059,0,0,0
5420,224030.4753031788,2011-01-21 03:31:44,2221.118304385546,2,26,0.5501165986061096,4.123566627502441,16.716056627666205,16.32172926223787,68.11147857805332,57.57686103333947,9.70840483205393e-05,0.1077866628766059,0,0,0
5421,224060.49035784532,2011-01-21 03:32:14,2251.133358961952,2,26,0.5499359965324402,4.12664270401001,16.720643594782615,16.32172926223787,68.13040050586449,57.57686103333947,6.47544875391759e-05,0.1077866628766059,0,0,0
5422,224090.5053751188,2011-01-21 03:32:44,2281.148376230374,2,26,0.5501165986061096,4.13004207611084,16.725229972873464,16.32172926223787,68.14933478619656,57.57686103333947,6.47544875391759e-05,0.1077866628766059,0,0,0
5423,224120.52058880177,2011-01-21 03:33:14,2311.1635899133225,2,26,0.550297200679779,4.133279800415039,16.729816512297596,16.32172926223787,68.16828488043681,57.57686103333947,6.47544875391759e-05,0.1077866628766059,0,0,0
5424,224150.53573178352,2011-01-21 03:33:44,2341.1787328950613,2,26,0.5501165986061096,4.136679649353027,16.734403705106356,16.32172926223787,68.18725298464994,57.57686103333947,9.71794142969884e-05,0.1077866628766059,0,0,0
5425,224180.55082316665,2011-01-21 03:34:14,2371.193824278201,2,26,0.550297200679779,4.140079021453857,16.73899080696575,16.32172926223787,68.20623601072525,57.57686103333947,9.70840483205393e-05,0.1077866628766059,0,0,0
5426,224210.56585753767,2011-01-21 03:34:44,2401.2088587394737,2,26,0.5501165986061096,4.143316745758057,16.743577930849643,16.32172926223787,68.22523467511368,57.57686103333947,3.23295607813634e-05,0.1077866628766059,0,0,0
5427,224240.58103317584,2011-01-21 03:35:14,2431.2240342723403,2,26,0.5499359965324402,4.146878242492676,16.74816502373822,16.32172926223787,68.24424896556974,57.57686103333947,6.47544875391759e-05,0.1077866628766059,0,0,0
5428,224270.5961483232,2011-01-21 03:35:44,2461.239149439757,2,26,0.5501165986061096,4.150439739227295,16.75275208757496,16.32172926223787,68.26327899514797,57.57686103333947,9.70840483205393e-05,0.1077866628766059,0,0,0
5429,224300.61128124484,2011-01-21 03:36:14,2491.2542823564117,2,26,0.5501165986061096,4.153839588165283,16.757339217054753,16.32172926223787,68.28232515200621,57.57686103333947,9.71794142969884e-05,0.1077866628766059,0,0,0
5430,224330.6263849988,2011-01-21 03:36:44,2521.2693861153957,2,26,0.5499359965324402,4.157238960266113,16.761926337187457,16.32172926223787,68.30138713032616,57.57686103333947,9.70840483205393e-05,0.1077866628766059,0,0,0
5431,224360.64161583956,2011-01-21 03:37:14,2551.284616951093,2,26,0.550297200679779,4.1609625816345215,16.766513450690073,16.32172926223787,68.32046517948322,57.57686103333947,0.0001295089750783,0.1077866628766059,0,0,0
5432,224390.65661387,2011-01-21 03:37:44,2581.299614981569,2,26,0.5504778623580933,4.164361953735352,16.771100570490745,16.32172926223787,68.339559523682,57.57686103333947,9.70840483205393e-05,0.1077866628766059,0,0,0
5433,224420.67173435065,2011-01-21 03:38:14,2611.314735447192,2,26,0.5501165986061096,4.16776180267334,16.77568762972355,16.32172926223787,68.358669899139,57.57686103333947,3.24249267578125e-05,0.1077866628766059,0,0,0
5434,224450.68683478635,2011-01-21 03:38:44,2641.3298359029427,2,26,0.5501165986061096,4.171647071838379,16.780274728327836,16.32172926223787,68.3777970060056,57.57686103333947,0.0001295089750783,0.1077866628766059,0,0,0
5435,224480.70215303992,2011-01-21 03:39:14,2671.345154141476,2,26,0.550297200679779,4.175208568572998,16.78486185124232,16.32172926223787,68.39694078275254,57.57686103333947,0.0001295089750783,0.1077866628766059,0,0,0
5436,224510.71703904623,2011-01-21 03:39:44,2701.3600401627905,2,26,0.5501165986061096,4.178770065307617,16.789448935245133,16.32172926223787,68.41610112997925,57.57686103333947,0.0001295089750783,0.1077866628766059,0,0,0
5437,224540.732159582,2011-01-21 03:40:14,2731.375160678537,2,26,0.5501165986061096,4.182493209838867,16.794036096544488,16.32172926223787,68.43527871922065,57.57686103333947,6.47544875391759e-05,0.1077866628766059,0,0,0
5438,224570.74727914532,2011-01-21 03:40:44,2761.3902802619605,2,26,0.550297200679779,4.186216831207275,16.798623255521765,16.32172926223787,68.45447329257647,57.57686103333947,9.71794142969884e-05,0.1077866628766059,0,0,0
5439,224600.76261626097,2011-01-21 03:41:14,2791.405617357491,2,26,0.5501165986061096,4.1901021003723145,16.80321037310489,16.32172926223787,68.47368487750022,57.57686103333947,0.0001295089750783,0.1077866628766059,0,0,0
5440,224630.77748843777,2011-01-21 03:41:44,2821.4204895543508,2,26,0.550297200679779,4.193663597106934,16.807797426696986,16.32172926223787,68.49291337079337,57.57686103333947,6.47544875391759e-05,0.1077866628766059,0,0,0
5441,224660.7926021416,2011-01-21 03:42:14,2851.4356032581204,2,26,0.5499359965324402,4.197386741638184,16.812384501326243,16.32172926223787,68.51215939979728,57.57686103333947,6.47544875391759e-05,0.1077866628766059,0,0,0
5442,224678.55792953863,2011-01-21 03:42:32,2869.200930650236,2,26,0.550297200679779,4.200138568878174,16.815099509397115,16.32172926223787,68.52355904964664,57.57686103333947,0.0001295089750783,0.1077866628766059,0,0,0
5443,224708.56717083824,2011-01-21 03:43:02,30.015271872975724,3,26,0.0,4.091027736663818,16.815099509397115,16.32172926223787,68.52355904964664,57.57686103333947,-0.0004857063177041,0.1077866628766059,0,0,0
5444,224738.58227833657,2011-01-21 03:43:32,60.03037938631667,3,26,0.0,4.076781749725342,16.815099509397115,16.32172926223787,68.52355904964664,57.57686103333947,-0.0002914428769145,0.1077866628766059,0,0,0
5445,224768.5976300435,2011-01-21 03:44:02,90.04573108323822,3,26,0.0,4.068039894104004,16.815099509397115,16.32172926223787,68.52355904964664,57.57686103333947,-0.0001942634553415,0.1077866628766059,0,0,0
5446,224798.56562820583,2011-01-21 03:44:32,120.0137292405688,3,26,0.0,4.0617265701293945,16.815099509397115,16.32172926223787,68.52355904964664,57.57686103333947,-0.0001618385285837,0.1077866628766059,0,0,0
5447,224798.57723233887,2011-01-21 03:44:32,0.01572960301058,4,26,1.0240353345870972,4.199814796447754,16.81510398374967,16.32172926223787,68.5235778410987,57.57686103333947,0.0,0.1077866628766059,0,0,0
5448,224799.23347155887,2011-01-21 03:44:33,0.671968808029242,4,26,0.9734647870063782,4.199976921081543,16.815284666654307,16.32172926223787,68.5243366928769,57.57686103333947,3.24249267578125e-05,0.1077866628766059,0,0,0
5449,224801.1239342286,2011-01-21 03:44:35,2.562431487707825,4,26,0.9234359860420228,4.199976921081543,16.815781714340474,16.32172926223787,68.52642422639097,57.57686103333947,3.24249267578125e-05,0.1077866628766059,0,0,0
5450,224804.04589333976,2011-01-21 03:44:38,5.484390588852216,4,26,0.873407244682312,4.199814796447754,16.816509850298132,16.32172926223787,68.5294822884826,57.57686103333947,0.0,0.1077866628766059,0,0,0
5451,224808.1083216962,2011-01-21 03:44:42,9.54681895030692,4,26,0.8230172395706177,4.199976921081543,16.817465719021016,16.32172926223787,68.53349681507207,57.57686103333947,3.24249267578125e-05,0.1077866628766059,0,0,0
5452,224813.45197640287,2011-01-21 03:44:47,14.890473647012554,4,26,0.7729884386062622,4.199976921081543,16.818648587338892,16.32172926223787,68.53846471909208,57.57686103333947,0.0,0.1077866628766059,0,0,0
5453,224820.35825607184,2011-01-21 03:44:54,21.796753320969188,4,26,0.7229596972465515,4.199814796447754,16.820081715437013,16.32172926223787,68.54448368761078,57.57686103333947,0.0,0.1077866628766059,0,0,0
5454,224829.60796148883,2011-01-21 03:45:03,31.046458737931463,4,26,0.672930896282196,4.199814796447754,16.821872391375287,16.32172926223787,68.55200431859112,57.57686103333947,0.0,0.1077866628766059,0,0,0
5455,224842.467007824,2011-01-21 03:45:16,43.90550505799068,4,26,0.6229021549224854,4.199814796447754,16.824181836401635,16.32172926223787,68.56170375042632,57.57686103333947,0.0,0.1077866628766059,0,0,0
5456,224861.99785196703,2011-01-21 03:45:36,63.43634921111077,4,26,0.5728733539581299,4.199976921081543,16.827415135931776,16.32172926223787,68.57528323515493,57.57686103333947,0.0,0.1077866628766059,0,0,0
5457,224896.106674162,2011-01-21 03:46:10,97.54517142108024,4,26,0.5228446125984192,4.199976921081543,16.832582120872082,16.32172926223787,68.59698403095288,57.57686103333947,3.24249267578125e-05,0.1077866628766059,0,0,0
5458,224964.77743228065,2011-01-21 03:47:18,166.21592953977606,4,26,0.4728158414363861,4.199976921081543,16.84202795539899,16.32172926223787,68.63665551728779,57.57686103333947,3.24249267578125e-05,0.1077866628766059,0,0,0
5459,225079.49424351676,2011-01-21 03:49:13,280.93274084101915,4,26,0.422787070274353,4.199814796447754,16.856255437849693,16.32172926223787,68.69640949156465,57.57686103333947,-3.24249267578125e-05,0.1077866628766059,0,0,0
5460,225228.00728681195,2011-01-21 03:51:42,429.4457840760819,4,26,0.3727582991123199,4.199976921081543,16.87263772465388,16.32172926223787,68.76521332143922,57.57686103333947,0.0,0.1077866628766059,0,0,0
5461,225407.47309649995,2011-01-21 03:54:41,608.9115937640736,4,26,0.3227295279502868,4.199814796447754,16.889945803071907,16.32172926223787,68.83790548702761,57.57686103333947,0.0,0.1077866628766059,0,0,0
5462,225622.53190508287,2011-01-21 03:58:16,823.9704023470033,4,26,0.2727007567882538,4.199976921081543,16.90769714163475,16.32172926223787,68.91245921673327,57.57686103333947,3.24249267578125e-05,0.1077866628766059,0,0,0
5463,225888.37102362796,2011-01-21 04:02:42,1089.8095208920697,4,26,0.2226720005273819,4.199814796447754,16.925945348885836,16.32172926223787,68.98909968096419,57.57686103333947,-3.24249267578125e-05,0.1077866628766059,0,0,0
5464,226231.8183082724,2011-01-21 04:08:26,1433.2568055314784,4,26,0.1726432293653488,4.199814796447754,16.944729431439647,16.32172926223787,69.06799087109965,57.57686103333947,-3.24249267578125e-05,0.1077866628766059,0,0,0
5465,226705.2633459968,2011-01-21 04:16:19,1906.701843255884,4,26,0.1226144582033157,4.199814796447754,16.963982863318826,16.32172926223787,69.14885327987028,57.57686103333947,-3.24249267578125e-05,0.1077866628766059,0,0,0
5466,227487.5155533104,2011-01-21 04:29:21,2688.954050554459,4,26,0.0725856870412826,4.199814796447754,16.984663175297694,16.32172926223787,69.23570825547908,57.57686103333947,3.23295607813634e-05,0.1077866628766059,0,0,0
5467,228123.97343285943,2011-01-21 04:39:58,3325.4119301185265,4,26,0.0498289167881011,4.199814796447754,16.99538309425564,16.32172926223787,69.28073090655475,57.57686103333947,0.0,0.1077866628766059,0,0,0
5468,228153.99463220165,2011-01-21 04:40:28,30.015240840633577,5,26,0.0,4.1896162033081055,16.99538309425564,16.32172926223787,69.28073090655475,57.57686103333947,-3.24249267578125e-05,0.1077866628766059,0,0,0
5469,228183.9939929993,2011-01-21 04:40:58,60.01460162828898,5,26,0.0,4.187997341156006,16.99538309425564,16.32172926223787,69.28073090655475,57.57686103333947,-3.24249267578125e-05,0.1077866628766059,0,0,0
5470,228184.1886331776,2011-01-21 04:40:58,0.187643209614732,6,26,0.0001613661734154,4.188483238220215,16.99538310266655,16.32172926223787,69.2807309417837,57.57686103333947,0.0,0.1126492172479629,0,0,0
5471,228189.01651431288,2011-01-21 04:41:03,5.015524274730868,6,26,0.0008838032954372,4.187835693359375,16.9953842624564,16.32172926223787,69.2807357990118,57.57686103333947,-6.47544875391759e-05,0.1126492172479629,0,0,0
5472,228202.32024152667,2011-01-21 04:41:16,13.296658805021748,7,26,-1.099568486213684,3.9877448081970215,16.9953842624564,16.325789908078804,69.2807357990118,57.59312682083392,-0.0018778324592858,0.1126492172479629,0,0,0
5473,228232.3354737909,2011-01-21 04:41:46,43.31189108933033,7,26,-1.099568486213684,3.9299514293670654,16.9953842624564,16.334956134458356,69.2807357990118,57.62940550642573,-0.0014569759368896,0.1126492172479629,0,0,0
5474,228262.35052947004,2011-01-21 04:42:16,73.32694684367192,7,26,-1.0993878841400146,3.8841378688812256,16.9953842624564,16.344122233203823,69.2807357990118,57.66521086293374,-0.0011008263099938,0.1126492172479629,0,0,0
5475,228292.3657026621,2011-01-21 04:42:46,103.34211997054196,7,26,-1.0992072820663452,3.846904039382935,16.9953842624564,16.35328839972618,69.2807357990118,57.70063538135078,-0.0009065627818927,0.1126492172479629,0,0,0
5476,228322.38063957525,2011-01-21 04:43:16,133.35705686865725,7,26,-1.0993878841400146,3.817440986633301,16.9953842624564,16.362454489555997,69.2807357990118,57.73575649569268,-0.0006799221155233,0.1126492172479629,0,0,0
5477,228352.39632169067,2011-01-21 04:43:46,163.37273906428328,7,26,-1.0993878841400146,3.7938055992126474,16.9953842624564,16.37162067817151,69.2807357990118,57.77063634057275,-0.0005504131549969,0.1126492172479629,0,0,0
5478,228382.3974694771,2011-01-21 04:44:16,193.37388685068944,7,26,-1.0992072820663452,3.7737317085266113,16.9953842624564,16.380782557208345,69.2807357990118,57.80530006943902,-0.0004532813909463,0.1126492172479629,0,0,0
5479,228412.41039366391,2011-01-21 04:44:46,223.38681104753385,7,26,-1.0993878841400146,3.7560861110687256,16.9953842624564,16.389948069857954,69.2807357990118,57.83980594670886,-0.0004532813909463,0.1126492172479629,0,0,0
5480,228442.4254582853,2011-01-21 04:45:16,253.4018755837626,7,26,-1.099568486213684,3.740221500396729,16.9953842624564,16.399114222826302,69.2807357990118,57.874161945065886,-0.0004209041653666,0.1126492172479629,0,0,0
5481,228472.44061594867,2011-01-21 04:45:46,283.41703323706776,7,26,-1.0992072820663452,3.725975513458252,16.9953842624564,16.40828031016517,69.2807357990118,57.90837959228498,-0.0003561496851034,0.1126492172479629,0,0,0
5482,228502.455700981,2011-01-21 04:46:16,313.4321182743916,7,26,-1.0993878841400146,3.712538957595825,16.9953842624564,16.41744692377196,69.2807357990118,57.94247141331826,-0.0003237724304199,0.1126492172479629,0,0,0
5483,228532.4709390748,2011-01-21 04:46:46,343.4473563731916,7,26,-1.0993878841400146,3.699911832809448,16.9953842624564,16.426613884591095,69.2807357990118,57.97644520530213,-0.0003237724304199,0.1126492172479629,0,0,0
5484,228562.48593412284,2011-01-21 04:47:17,373.462351416222,7,26,-1.0993878841400146,3.687932252883911,16.9953842624564,16.435780726832867,69.2807357990118,58.01030600156896,-0.0003237724304199,0.1126492172479629,0,0,0
5485,228592.5010511649,2011-01-21 04:47:47,403.47746845831153,7,26,-1.099568486213684,3.676438331604004,16.9953842624564,16.4449476916245,69.2807357990118,58.0440603410444,-0.0002913951757363,0.1126492172479629,0,0,0
5486,228622.51615624217,2011-01-21 04:48:17,433.492573535581,7,26,-1.0992072820663452,3.665592193603516,16.9953842624564,16.45411404249015,69.2807357990118,58.07770996051766,-0.0002590179501567,0.1126492172479629,0,0,0
5487,228652.5313934287,2011-01-21 04:48:47,463.5078107120824,7,26,-1.0993878841400146,3.655069589614868,16.9953842624564,16.463280272988786,69.2807357990118,58.11126050336089,-0.0002266406954731,0.1126492172479629,0,0,0
5488,228682.54639583005,2011-01-21 04:49:17,493.5228131385145,7,26,-1.0992072820663452,3.644708871841431,16.9953842624564,16.4724463612936,69.2807357990118,58.14471512033782,-0.0002913951757363,0.1126492172479629,0,0,0
5489,228712.56150408025,2011-01-21 04:49:47,523.5379213786669,7,26,-1.099568486213684,3.634510040283203,16.9953842624564,16.481612413602818,69.2807357990118,58.17807583990006,-0.0002590179501567,0.1126492172479629,0,0,0
5490,228742.57660213,2011-01-21 04:50:17,553.5530194234092,7,26,-1.0993878841400146,3.624958753585816,16.9953842624564,16.490778485867438,69.2807357990118,58.21134610446384,-0.0002266406954731,0.1126492172479629,0,0,0
5491,228772.5917005858,2011-01-21 04:50:47,583.5681178841883,7,26,-1.0993878841400146,3.6152455806732178,16.9953842624564,16.499944586437245,69.2807357990118,58.24452779622938,-0.0002913951757363,0.1126492172479629,0,0,0
5492,228802.6068237732,2011-01-21 04:51:17,613.5832410665813,7,26,-1.0993878841400146,3.60601806640625,16.9953842624564,16.50911068974848,69.2807357990118,58.27762367580453,-0.0002590179501567,0.1126492172479629,0,0,0
5493,228832.6221788485,2011-01-21 04:51:47,643.598596131898,7,26,-1.0993878841400146,3.5967905521392822,16.9953842624564,16.518276913408652,69.2807357990118,58.310635295214766,-0.0002266406954731,0.1126492172479629,0,0,0
5494,228862.6370598724,2011-01-21 04:52:17,673.6134771557573,7,26,-1.099568486213684,3.5880489349365234,16.9953842624564,16.527442979593904,69.2807357990118,58.343563737540144,-0.0002266406954731,0.1126492172479629,0,0,0
5495,228892.6522502372,2011-01-21 04:52:47,703.628667726102,7,26,-1.0993878841400146,3.5794689655303955,16.9953842624564,16.53660919329472,69.2807357990118,58.3764123445184,-0.0001942634553415,0.1126492172479629,0,0,0
5496,228922.6672803727,2011-01-21 04:53:17,733.6436976510688,7,26,-1.0993878841400146,3.570888996124268,16.9953842624564,16.545775314330218,69.2807357990118,58.4091824186934,-0.0002266406954731,0.1126492172479629,0,0,0
5497,228952.6823748736,2011-01-21 04:53:47,763.6587921770413,7,26,-1.099568486213684,3.562794685363769,16.9953842624564,16.554941432214772,69.2807357990118,58.44187639054973,-0.0001942634553415,0.1126492172479629,0,0,0
5498,228982.69751287796,2011-01-21 04:54:17,793.6739301713501,7,26,-1.099568486213684,3.5550241470336914,16.9953842624564,16.56410759906148,69.2807357990118,58.47449732105583,-0.0002266406954731,0.1126492172479629,0,0,0
5499,229012.71259163963,2011-01-21 04:54:47,823.6890089129832,7,26,-1.099568486213684,3.5472536087036133,16.9953842624564,16.57327372480074,69.2807357990118,58.50704720181847,-0.0002266406954731,0.1126492172479629,0,0,0
5500,229042.7279151212,2011-01-21 04:55:17,853.7043324196459,7,26,-1.0992072820663452,3.539968729019165,16.9953842624564,16.58243992694905,69.2807357990118,58.53952874849677,-0.0001942634553415,0.1126492172479629,0,0,0
5501,229072.7428337137,2011-01-21 04:55:47,883.7192510171504,7,26,-1.0993878841400146,3.532683849334717,16.9953842624564,16.591606073225353,69.2807357990118,58.5719429460271,-0.0001618862152099,0.1126492172479629,0,0,0
5502,229102.7579506004,2011-01-21 04:56:17,913.73436789884,7,26,-1.099568486213684,3.525398969650269,16.9953842624564,16.60077230855661,69.2807357990118,58.6042917861403,-0.0002266406954731,0.1126492172479629,0,0,0
5503,229132.7730508005,2011-01-21 04:56:47,943.7494681039668,7,26,-1.0993878841400146,3.51876163482666,16.9953842624564,16.609938489893832,69.2807357990118,58.63657698519221,-0.0001618862152099,0.1126492172479629,0,0,0
5504,229162.78817161705,2011-01-21 04:57:17,973.7645889104382,7,26,-1.0992072820663452,3.512448072433472,16.9953842624564,16.619104772356554,69.2807357990118,58.66880207576549,-0.0001618862152099,0.1126492172479629,0,0,0
5505,229192.80326974692,2011-01-21 04:57:47,1003.779687040393,7,26,-1.099568486213684,3.5058109760284424,16.9953842624564,16.628270936561737,69.2807357990118,58.70096723470721,-0.0001618862152099,0.1126492172479629,0,0,0
5506,229222.8183844733,2011-01-21 04:58:17,1033.794801771723,7,26,-1.0993878841400146,3.499821186065674,16.9953842624564,16.637437173534348,69.2807357990118,58.73307490600016,-0.0001618862152099,0.1126492172479629,0,0,0
5507,229252.83348959568,2011-01-21 04:58:47,1063.809906894105,7,26,-1.0993878841400146,3.4939932823181152,16.9953842624564,16.646603333127274,69.2807357990118,58.76512755012815,-0.0001295089750783,0.1126492172479629,0,0,0
5508,229282.848613134,2011-01-21 04:59:17,1093.825030427373,7,26,-1.0992072820663452,3.4880034923553467,16.9953842624564,16.655769508593323,69.2807357990118,58.79712619208776,-0.0001295089750783,0.1126492172479629,0,0,0
5509,229312.86373611083,2011-01-21 04:59:47,1123.8401533992412,7,26,-1.0993878841400146,3.482175588607788,16.9953842624564,16.664935726681524,69.2807357990118,58.82907127492933,-0.0001618862152099,0.1126492172479629,0,0,0
5510,229342.87882359928,2011-01-21 05:00:17,1153.855240867624,7,26,-1.0993878841400146,3.4761857986450195,16.9953842624564,16.67410187247582,69.2807357990118,58.860962572221965,-0.0001942634553415,0.1126492172479629,0,0,0
5511,229372.89395025533,2011-01-21 05:00:47,1183.8703675336994,7,26,-1.0993878841400146,3.470681667327881,16.9953842624564,16.683267989385755,69.2807357990118,58.89280118743446,-0.0001618862152099,0.1126492172479629,0,0,0
5512,229402.9090585406,2011-01-21 05:01:17,1213.8854758490393,7,26,-1.0993878841400146,3.4648537635803223,16.9953842624564,16.69243413972684,69.2807357990118,58.92458762477018,-0.0001618862152099,0.1126492172479629,0,0,0
5513,229432.92416308657,2011-01-21 05:01:47,1243.9005803548846,7,26,-1.0993878841400146,3.459349632263184,16.9953842624564,16.701600347713214,69.2807357990118,58.95632105137372,-0.0001295089750783,0.1126492172479629,0,0,0
5514,229462.9392671663,2011-01-21 05:02:17,1273.9156844697554,7,26,-1.099568486213684,3.453359842300415,16.9953842624564,16.71076660434953,69.2807357990118,58.988001857322935,-0.0001618862152099,0.1126492172479629,0,0,0
5515,229492.9544163636,2011-01-21 05:02:47,1303.9308336569604,7,26,-1.0993878841400146,3.4473700523376465,16.9953842624564,16.71993278104255,69.2807357990118,59.019628544542925,-0.0001942634553415,0.1126492172479629,0,0,0
5516,229522.9695213155,2011-01-21 05:03:17,1333.945938583855,7,26,-1.0993878841400146,3.441380262374878,16.9953842624564,16.729099031070636,69.2807357990118,59.051200605149646,-0.0001618862152099,0.1126492172479629,0,0,0
5517,229552.98473456732,2011-01-21 05:03:47,1363.9611518357292,7,26,-1.0993878841400146,3.4349048137664795,16.9953842624564,16.738265234857113,69.2807357990118,59.08271489081201,-0.0001618862152099,0.1126492172479629,0,0,0
5518,229582.99972459293,2011-01-21 05:04:17,1393.9761418712792,7,26,-1.0993878841400146,3.42859148979187,16.9953842624564,16.747431474653606,69.2807357990118,59.11417138453116,-0.0001618862152099,0.1126492172479629,0,0,0
5519,229613.0148561612,2011-01-21 05:04:47,1423.991273524785,7,26,-1.0993878841400146,3.4222779273986816,16.9953842624564,16.75659772437145,69.2807357990118,59.14556935178332,-0.0001942634553415,0.1126492172479629,0,0,0
5520,229643.0299531032,2011-01-21 05:05:17,1454.006370396604,7,26,-1.0992072820663452,3.4154787063598637,16.9953842624564,16.765763912916352,69.2807357990118,59.17690685745272,-0.0001295089750783,0.1126492172479629,0,0,0
5521,229673.04527789808,2011-01-21 05:05:47,1484.0216951814523,7,26,-1.0993878841400146,3.408355712890625,16.9953842624564,16.77493023287428,69.2807357990118,59.20818195066269,-0.0001942634553415,0.1126492172479629,0,0,0
5522,229703.0601955482,2011-01-21 05:06:17,1514.0366128416206,7,26,-1.0992072820663452,3.400747060775757,16.9953842624564,16.78409637988649,69.2807357990118,59.23938973965405,-0.0001942634553415,0.1126492172479629,0,0,0
5523,229733.0754178376,2011-01-21 05:06:47,1544.051835141044,7,26,-1.099568486213684,3.3928146362304688,16.9953842624564,16.793262552566436,69.2807357990118,59.270526480205,-0.0002590179501567,0.1126492172479629,0,0,0
5524,229763.090406194,2011-01-21 05:07:17,1574.066823487384,7,26,-1.0993878841400146,3.384396553039551,16.9953842624564,16.802428753183754,69.2807357990118,59.30158809548807,-0.0002266406954731,0.1126492172479629,0,0,0
5525,229793.10573744497,2011-01-21 05:07:47,1604.0821547233104,7,26,-1.0992072820663452,3.375169038772583,16.9953842624564,16.811595011401998,69.2807357990118,59.33256830373628,-0.0002590179501567,0.1126492172479629,0,0,0
5526,229823.12062928075,2011-01-21 05:08:17,1634.0970465591165,7,26,-1.0992072820663452,3.3652939796447754,16.9953842624564,16.820761165943956,69.2807357990118,59.363460623035344,-0.0002590179501567,0.1126492172479629,0,0,0
5527,229853.13584873307,2011-01-21 05:08:47,1664.1122660114438,7,26,-1.0993878841400146,3.354123830795288,16.9953842624564,16.829927397230083,69.2807357990118,59.394256759777335,-0.0003237724304199,0.1126492172479629,0,0,0
5528,229883.1508449841,2011-01-21 05:09:17,1694.1272622775225,7,26,-1.0992072820663452,3.3416588306427,16.9953842624564,16.839093534370715,69.2807357990118,59.42494492006392,-0.0003237724304199,0.1126492172479629,0,0,0
5529,229913.16608778463,2011-01-21 05:09:47,1724.142505153228,7,26,-1.0993878841400146,3.3272509574890137,16.9953842624564,16.848259780542104,69.2807357990118,59.45551079218506,-0.0004209041653666,0.1126492172479629,0,0,0
5530,229943.1812060648,2011-01-21 05:10:17,1754.157623348191,7,26,-1.099568486213684,3.310900449752808,16.9953842624564,16.857425916205976,69.2807357990118,59.48593623210692,-0.0004856586456298,0.1126492172479629,0,0,0
5531,229973.1961695642,2011-01-21 05:10:47,1784.1725868576298,7,26,-1.0993878841400146,3.291959762573242,16.9953842624564,16.86659206104675,69.2807357990118,59.516200542261984,-0.0005504131549969,0.1126492172479629,0,0,0
5532,230003.21396107192,2011-01-21 05:11:17,1814.1903784655603,7,26,-1.0993878841400146,3.268810272216797,16.9953842624564,16.87575902245022,69.2807357990118,59.546276573837744,-0.0007446288946084,0.1126492172479629,0,0,0
5533,230033.22642840008,2011-01-21 05:11:47,1844.202845788735,7,26,-1.0993878841400146,3.239832639694214,16.9953842624564,16.884924330113993,69.2807357990118,59.57611080309644,-0.0009065627818927,0.1126492172479629,0,0,0
5534,230063.24150070068,2011-01-21 05:12:17,1874.2179179940777,7,26,-1.0993878841400146,3.202760696411133,16.9953842624564,16.89409043782695,69.2807357990118,59.60564599888615,-0.0011008263099938,0.1126492172479629,0,0,0
5535,230093.25661155733,2011-01-21 05:12:47,1904.2330288657888,7,26,-1.0993878841400146,3.154518842697144,16.9953842624564,16.903256639099187,69.2807357990118,59.63479232357748,-0.0014245987404137,0.1126492172479629,0,0,0
5536,230123.27173832364,2011-01-21 05:13:17,1934.2481556271016,7,26,-1.0993878841400146,3.0884695053100586,16.9953842624564,16.912422787543424,69.2807357990118,59.66342037618911,-0.0020073889754712,0.1126492172479629,0,0,0
5537,230153.29084151043,2011-01-21 05:13:47,1964.267258904115,7,26,-1.0993878841400146,2.9947376251220703,16.9953842624564,16.92159017694481,69.2807357990118,59.69133039530248,-0.0028815746773034,0.1126492172479629,0,0,0
5538,230183.30196062848,2011-01-21 05:14:17,1994.27837790686,7,26,-1.0993878841400146,2.855515956878662,16.9953842624564,16.930755172926407,69.2807357990118,59.71818000826903,-0.0043385028839111,0.1126492172479629,0,0,0
5539,230208.2702922184,2011-01-21 05:14:42,2019.2467094867209,7,26,-1.0992072820663452,2.699943780899048,16.9953842624564,16.938380122703418,69.2807357990118,59.73938127043472,-0.0053421976044774,0.1126492172479629,0,0,0
5540,230268.279659705,2011-01-21 05:15:42,60.01460885129091,8,26,0.0,3.617835760116577,16.9953842624564,16.938380122703418,69.2807357990118,59.73938127043472,0.0012303352123126,0.1126492172479629,0,0,0
5541,230268.46323380523,2011-01-21 05:15:43,0.187786571917703,9,26,-1.9243103452026844e-05,3.618159532546997,16.9953842624564,16.938380123707194,69.2807357990118,59.73938127406655,0.0,0.1085970923304557,0,0,0
5542,230273.29100540257,2011-01-21 05:15:48,5.015558169206329,9,26,0.0008838032954372,3.625444412231445,16.99538543244678,16.938380123707194,69.28074003693276,59.73938127406655,0.0011008263099938,0.1085970923304557,0,0,0
