Data_Point,Test_Time(s),Date_Time,Step_Time(s),Step_Index,Cycle_Index,Current(A),Voltage(V),Charge_Capacity(Ah),Discharge_Capacity(Ah),Charge_Energy(Wh),Discharge_Energy(Wh),dV/dt(V/s),Internal_Resistance(Ohm),Is_FC_Data,AC_Impedance(Ohm),ACI_Phase_Angle(Deg)
7133,298495.79974497174,2011-01-22 00:13:00,30.01501843633363,1,35,0.0,3.665268421173096,21.902088058696407,21.8257098273292,89.33652692663622,76.87743400461828,0.0006151676061563,0.1100189909338951,0,0,0
7134,298525.81489348726,2011-01-22 00:13:30,60.0301670521145,1,35,0.0,3.683885097503662,21.902088058696407,21.8257098273292,89.33652692663622,76.87743400461828,0.0003885269106831,0.1100189909338951,0,0,0
7135,298555.8299464396,2011-01-22 00:14:00,90.04521990422283,1,35,0.0,3.696997880935669,21.902088058696407,21.8257098273292,89.33652692663622,76.87743400461828,0.0003237724304199,0.1100189909338951,0,0,0
7136,298585.7982277978,2011-01-22 00:14:30,120.01350135260188,1,35,0.0,3.7067110538482666,21.902088058696407,21.8257098273292,89.33652692663622,76.87743400461828,0.0002266406954731,0.1100189909338951,0,0,0
7137,298615.82169290306,2011-01-22 00:15:00,30.01528127641198,2,35,0.550297200679779,3.8268303871154794,21.906675290032133,21.8257098273292,89.35399829097203,76.87743400461828,0.0007770538213662,0.1100189909338951,0,0,0
7138,298645.83665689867,2011-01-22 00:15:30,60.03024528710016,2,35,0.550297200679779,3.847065925598145,21.911262411388343,21.8257098273292,89.37160239615078,76.87743400461828,0.0004209041653666,0.1100189909338951,0,0,0
7139,298675.8517498156,2011-01-22 00:16:00,90.04533820406243,2,35,0.550297200679779,3.861311912536621,21.91584959508393,21.8257098273292,89.38928375549747,76.87743400461828,0.0003237724304199,0.1100189909338951,0,0,0
7140,298705.8668593791,2011-01-22 00:16:30,120.06044776751288,2,35,0.5501165986061096,3.8726439476013184,21.920436717086183,21.8257098273292,89.40702272138445,76.87743400461828,0.0002590179501567,0.1100189909338951,0,0,0
7141,298735.8843411899,2011-01-22 00:17:00,150.0779295833462,2,35,0.550297200679779,3.882357120513916,21.925024277103876,21.8257098273292,89.42481133259132,76.87743400461828,0.0002590179501567,0.1100189909338951,0,0,0
7142,298765.89709236054,2011-01-22 00:17:30,180.09068074894353,2,35,0.5501165986061096,3.890937089920044,21.929611006370653,21.8257098273292,89.44263868337684,76.87743400461828,0.0002266406954731,0.1100189909338951,0,0,0
7143,298795.91218815965,2011-01-22 00:18:00,210.10577654808907,2,35,0.550297200679779,3.898869514465332,21.93419814289964,21.8257098273292,89.46050518840545,76.87743400461828,0.0002266406954731,0.1100189909338951,0,0,0
7144,298825.92730429955,2011-01-22 00:18:30,240.12089267289244,2,35,0.5501165986061096,3.9059925079345694,21.938785274469,21.8257098273292,89.47840633887931,76.87743400461828,0.0001618862152099,0.1100189909338951,0,0,0
7145,298855.942434735,2011-01-22 00:19:00,270.13602311838736,2,35,0.5499359965324402,3.9127917289733887,21.94337231656501,21.8257098273292,89.4963394261342,76.87743400461828,0.0001618862152099,0.1100189909338951,0,0,0
7146,298885.9576357764,2011-01-22 00:19:30,300.15122418990404,2,35,0.550297200679779,3.919266939163208,21.947959456849805,21.8257098273292,89.5143032841482,76.87743400461828,0.0001618862152099,0.1100189909338951,0,0,0
7147,298915.97262692475,2011-01-22 00:20:00,330.1662153131651,2,35,0.550297200679779,3.9254186153411865,21.95254655372684,21.8257098273292,89.5322956985871,76.87743400461828,0.0001618862152099,0.1100189909338951,0,0,0
7148,298945.9878501665,2011-01-22 00:20:30,360.1814385549369,2,35,0.550297200679779,3.931246519088745,21.95713372228608,21.8257098273292,89.55031564022933,76.87743400461828,0.0001618862152099,0.1100189909338951,0,0,0
7149,298976.00283908925,2011-01-22 00:21:00,390.19642747771366,2,35,0.5501165986061096,3.936750650405884,21.96172082887326,21.8257098273292,89.56836145223107,76.87743400461828,0.0001295089750783,0.1100189909338951,0,0,0
7150,299006.0180647772,2011-01-22 00:21:30,420.21165316558194,2,35,0.550297200679779,3.942092895507813,21.96630801660585,21.8257098273292,89.58643248752861,76.87743400461828,0.0001295089750783,0.1100189909338951,0,0,0
7151,299036.0359940933,2011-01-22 00:22:00,450.229582576961,2,35,0.550297200679779,3.9472732543945312,21.970895619017465,21.8257098273292,89.60452908338212,76.87743400461828,0.0001942634553415,0.1100189909338951,0,0,0
7152,299066.04824209487,2011-01-22 00:22:30,480.2418305735063,2,35,0.5501165986061096,3.95212984085083,21.975482336342925,21.8257098273292,89.62264499709235,76.87743400461828,0.0001295089750783,0.1100189909338951,0,0,0
7153,299096.06329657603,2011-01-22 00:23:00,510.2568849594373,2,35,0.5501165986061096,3.956662654876709,21.98006945046846,21.8257098273292,89.6407844169845,76.87743400461828,9.713172767078504e-05,0.1100189909338951,0,0,0
7154,299126.07840162324,2011-01-22 00:23:30,540.2719900116444,2,35,0.5501165986061096,3.961033582687378,21.98465664971738,21.8257098273292,89.65894497707092,76.87743400461828,9.713172767078504e-05,0.1100189909338951,0,0,0
7155,299156.0935099135,2011-01-22 00:24:00,570.2870983019218,2,35,0.5501165986061096,3.965566396713257,21.989243817546004,21.8257098273292,89.67712562066967,76.87743400461828,0.0001295089750783,0.1100189909338951,0,0,0
7156,299186.10859744204,2011-01-22 00:24:30,600.3021858304544,2,35,0.5501165986061096,3.969613552093506,21.99383096362725,21.8257098273292,89.6953255856022,76.87743400461828,9.713172767078504e-05,0.1100189909338951,0,0,0
7157,299216.12371905555,2011-01-22 00:25:01,630.3173074439371,2,35,0.5501165986061096,3.973660707473755,21.99841811794942,21.8257098273292,89.71354426599773,76.87743400461828,0.0001618862152099,0.1100189909338951,0,0,0
7158,299246.1388189599,2011-01-22 00:25:31,660.3324073433018,2,35,0.5501165986061096,3.977545976638794,22.0030053540578,21.8257098273292,89.73178154577235,76.87743400461828,0.0001295089750783,0.1100189909338951,0,0,0
7159,299276.1539412852,2011-01-22 00:26:01,690.347529673571,2,35,0.5501165986061096,3.981269359588623,22.00759240823259,21.8257098273292,89.75003541270358,76.87743400461828,6.47544875391759e-05,0.1100189909338951,0,0,0
7160,299306.1690432497,2011-01-22 00:26:31,720.36263163307,2,35,0.5501165986061096,3.984992742538452,22.012179512643627,21.8257098273292,89.76830669601009,76.87743400461828,6.47544875391759e-05,0.1100189909338951,0,0,0
7161,299336.1841578507,2011-01-22 00:27:01,750.3777462390882,2,35,0.550297200679779,3.9885542392730713,22.016766567754853,21.8257098273292,89.78659433807691,76.87743400461828,9.713172767078504e-05,0.1100189909338951,0,0,0
7162,299366.1992568227,2011-01-22 00:27:31,780.3928452061291,2,35,0.5499359965324402,3.9921157360076895,22.021353578347213,21.8257098273292,89.8048980594869,76.87743400461828,9.713172767078504e-05,0.1100189909338951,0,0,0
7163,299396.21432058205,2011-01-22 00:28:01,810.4079089704339,2,35,0.5501165986061096,3.995515108108521,22.02594060969751,21.8257098273292,89.82321789698187,76.87743400461828,9.713172767078504e-05,0.1100189909338951,0,0,0
7164,299426.2294470376,2011-01-22 00:28:31,840.4230354259846,2,35,0.5501165986061096,3.9989147186279297,22.03052765599424,21.8257098273292,89.84155342369705,76.87743400461828,9.713172767078504e-05,0.1100189909338951,0,0,0
7165,299456.2445623353,2011-01-22 00:29:01,870.4381507237268,2,35,0.550297200679779,4.002314567565918,22.035114668635327,21.8257098273292,89.85990418593141,76.87743400461828,9.71794142969884e-05,0.1100189909338951,0,0,0
7166,299486.25993610726,2011-01-22 00:29:31,900.4535244956661,2,35,0.5501165986061096,4.005552291870117,22.03970178195445,21.8257098273292,89.8782706871601,76.87743400461828,6.47544875391759e-05,0.1100189909338951,0,0,0
7167,299516.2747727956,2011-01-22 00:30:01,930.4683611840278,2,35,0.5501165986061096,4.008790016174316,22.044288749595967,21.8257098273292,89.89665165182913,76.87743400461828,6.47544875391759e-05,0.1100189909338951,0,0,0
7168,299546.28989382763,2011-01-22 00:30:31,960.4834822160616,2,35,0.550297200679779,4.012027740478516,22.04887576678844,21.8257098273292,89.91504755681356,76.87743400461828,6.47544875391759e-05,0.1100189909338951,0,0,0
7169,299576.3050140276,2011-01-22 00:31:01,990.4986024160216,2,35,0.5501165986061096,4.015103340148926,22.053462876811608,21.8257098273292,89.93345852639457,76.87743400461828,6.47544875391759e-05,0.1100189909338951,0,0,0
7170,299606.3201116463,2011-01-22 00:31:31,1020.513700034702,2,35,0.550297200679779,4.018503189086914,22.058049968080216,21.8257098273292,89.95188389368224,76.87743400461828,0.0001295089750783,0.1100189909338951,0,0,0
7171,299636.33521667845,2011-01-22 00:32:01,1050.5288050668587,2,35,0.5501165986061096,4.021255016326904,22.06263703318233,21.8257098273292,89.9703233215771,76.87743400461828,3.23295607813634e-05,0.1100189909338951,0,0,0
7172,299666.3504569527,2011-01-22 00:32:31,1080.5440453410808,2,35,0.550297200679779,4.024492740631104,22.06722407564419,21.8257098273292,89.98877680587182,76.87743400461828,9.70840483205393e-05,0.1100189909338951,0,0,0
7173,299696.36566175846,2011-01-22 00:33:01,1110.559250141892,2,35,0.550297200679779,4.027730464935303,22.071811140342877,21.8257098273292,90.00724436899134,76.87743400461828,0.0001295089750783,0.1100189909338951,0,0,0
7174,299726.38055125845,2011-01-22 00:33:31,1140.5741396468893,2,35,0.5501165986061096,4.030644416809082,22.076398198897536,21.8257098273292,90.02572572689769,76.87743400461828,0.0001295089750783,0.1100189909338951,0,0,0
7175,299756.3956492832,2011-01-22 00:34:01,1170.5892376715817,2,35,0.550297200679779,4.033396720886231,22.080985253849825,21.8257098273292,90.04422077793556,76.87743400461828,3.24249267578125e-05,0.1100189909338951,0,0,0
7176,299786.4107615734,2011-01-22 00:34:31,1200.6043499568154,2,35,0.5501165986061096,4.036472320556641,22.08557216282843,21.8257098273292,90.06272893234556,76.87743400461828,0.0001295089750783,0.1100189909338951,0,0,0
7177,299816.4260341581,2011-01-22 00:35:01,1230.6196225415651,2,35,0.5501165986061096,4.039547920227051,22.090158484290043,21.8257098273292,90.08124821118584,76.87743400461828,9.70840483205393e-05,0.1100189909338951,0,0,0
7178,299846.4410015924,2011-01-22 00:35:31,1260.6345899657606,2,35,0.5501165986061096,4.04246187210083,22.094744896259105,21.8257098273292,90.09978128947098,76.87743400461828,9.70840483205393e-05,0.1100189909338951,0,0,0
7179,299876.4561089553,2011-01-22 00:36:01,1290.6496973437645,2,35,0.5501165986061096,4.0452141761779785,22.099331962615864,21.8257098273292,90.11833059894884,76.87743400461828,6.47544875391759e-05,0.1100189909338951,0,0,0
7180,299906.47137430205,2011-01-22 00:36:31,1320.6649626904748,2,35,0.5501165986061096,4.048289775848389,22.10391910021274,21.8257098273292,90.13689357731828,76.87743400461828,9.70840483205393e-05,0.1100189909338951,0,0,0
7181,299936.4863932597,2011-01-22 00:37:01,1350.67998173332,2,35,0.5501165986061096,4.051042079925537,22.108506201854897,21.8257098273292,90.15546968034334,76.87743400461828,6.47544875391759e-05,0.1100189909338951,0,0,0
7182,299966.5015716447,2011-01-22 00:37:31,1380.6951600330824,2,35,0.5501165986061096,4.053793907165527,22.113093281386625,21.8257098273292,90.17405896599892,76.87743400461828,3.23295607813634e-05,0.1100189909338951,0,0,0
7183,299996.5166704864,2011-01-22 00:38:01,1410.7102588597736,2,35,0.5504778623580933,4.057031631469727,22.11768035620895,21.8257098273292,90.1926615957018,76.87743400461828,9.70840483205393e-05,0.1100189909338951,0,0,0
7184,300026.53168026614,2011-01-22 00:38:31,1440.725268744795,2,35,0.550297200679779,4.059945583343506,22.12226746826401,21.8257098273292,90.21127778306644,76.87743400461828,9.70840483205393e-05,0.1100189909338951,0,0,0
7185,300056.54690206435,2011-01-22 00:39:01,1470.740490452744,2,35,0.5501165986061096,4.062697887420654,22.1268546111765,21.8257098273292,90.2299070945728,76.87743400461828,9.71794142969884e-05,0.1100189909338951,0,0,0
7186,300086.5618771175,2011-01-22 00:39:31,1500.7554655109657,2,35,0.5501165986061096,4.065611839294434,22.13144159657333,21.8257098273292,90.24854913012094,76.87743400461828,9.71794142969884e-05,0.1100189909338951,0,0,0
7187,300116.5771298879,2011-01-22 00:40:01,1530.770718261282,2,35,0.550297200679779,4.068525791168213,22.13602860952975,21.8257098273292,90.26720465594312,76.87743400461828,6.47544875391759e-05,0.1100189909338951,0,0,0
7188,300146.59209615923,2011-01-22 00:40:31,1560.7856845576669,2,35,0.5501165986061096,4.071439743041992,22.14061570169125,21.8257098273292,90.28587395624967,76.87743400461828,6.47544875391759e-05,0.1100189909338951,0,0,0
7189,300176.60723032395,2011-01-22 00:41:01,1590.800818717419,2,35,0.5499359965324402,4.074191570281982,22.145202669169805,21.8257098273292,90.30455615355244,76.87743400461828,3.23295607813634e-05,0.1100189909338951,0,0,0
7190,300206.6225717504,2011-01-22 00:41:31,1620.8161601236927,2,35,0.5499359965324402,4.077429294586182,22.149789725071187,21.8257098273292,90.32325212831148,76.87743400461828,9.70840483205393e-05,0.1100189909338951,0,0,0
7191,300236.63742636336,2011-01-22 00:42:01,1650.8310147567786,2,35,0.5501165986061096,4.08018159866333,22.154376722672858,21.8257098273292,90.3419614128812,76.87743400461828,6.47544875391759e-05,0.1100189909338951,0,0,0
7192,300266.6525461924,2011-01-22 00:42:31,1680.8461345808014,2,35,0.5501165986061096,4.08325719833374,22.15896375497887,21.8257098273292,90.36068438411044,76.87743400461828,9.70840483205393e-05,0.1100189909338951,0,0,0
7193,300296.66766904393,2011-01-22 00:43:01,1710.8612574173324,2,35,0.550297200679779,4.086333274841309,22.16355076940033,21.8257098273292,90.37942092958048,76.87743400461828,9.71794142969884e-05,0.1100189909338951,0,0,0
7194,300326.68299649045,2011-01-22 00:43:31,1740.8765848588018,2,35,0.550297200679779,4.089085102081299,22.16813781477568,21.8257098273292,90.39817118603402,76.87743400461828,9.70840483205393e-05,0.1100189909338951,0,0,0
7195,300356.6978725469,2011-01-22 00:44:01,1770.8914609353312,2,35,0.5501165986061096,4.091999053955078,22.172724855493456,21.8257098273292,90.4169352544406,76.87743400461828,3.23295607813634e-05,0.1100189909338951,0,0,0
7196,300386.712970732,2011-01-22 00:44:31,1800.9065591204233,2,35,0.5501165986061096,4.095075130462647,22.177311894995068,21.8257098273292,90.43571317586914,76.87743400461828,6.47544875391759e-05,0.1100189909338951,0,0,0
7197,300416.72809373395,2011-01-22 00:45:01,1830.9216821223663,2,35,0.5501165986061096,4.098150730133057,22.181898933507917,21.8257098273292,90.4545049630038,76.87743400461828,6.47544875391759e-05,0.1100189909338951,0,0,0
7198,300446.74332370254,2011-01-22 00:45:31,1860.9369121209784,2,35,0.550297200679779,4.101388454437256,22.18648608419401,21.8257098273292,90.47331135957025,76.87743400461828,0.0001618385285837,0.1100189909338951,0,0,0
7199,300476.75830178324,2011-01-22 00:46:01,1890.9518901716583,2,35,0.5499359965324402,4.104464530944824,22.191073153331565,21.8257098273292,90.49213153260663,76.87743400461828,9.71794142969884e-05,0.1100189909338951,0,0,0
7200,300506.77353217284,2011-01-22 00:46:31,1920.9671205462075,2,35,0.550297200679779,4.107540130615234,22.195660222828387,21.8257098273292,90.51096600640602,76.87743400461828,6.47544875391759e-05,0.1100189909338951,0,0,0
7201,300536.788661295,2011-01-22 00:47:01,1950.982249768654,2,35,0.5501165986061096,4.110777854919434,22.20024734027294,21.8257098273292,90.5298149880002,76.87743400461828,9.70840483205393e-05,0.1100189909338951,0,0,0
7202,300566.8037541067,2011-01-22 00:47:31,1980.997342480104,2,35,0.5501165986061096,4.113691806793213,22.20483441826009,21.8257098273292,90.5486781160992,76.87743400461828,6.47544875391759e-05,0.1100189909338951,0,0,0
7203,300596.8187312101,2011-01-22 00:48:01,2011.0123195834235,2,35,0.5501165986061096,4.116929531097412,22.20942144691125,21.8257098273292,90.56755552739384,76.87743400461828,6.47544875391759e-05,0.1100189909338951,0,0,0
7204,300626.8338480867,2011-01-22 00:48:31,2041.0274364601005,2,35,0.550297200679779,4.120167255401611,22.214008514120096,21.8257098273292,90.58644774508066,76.87743400461828,6.47544875391759e-05,0.1100189909338951,0,0,0
7205,300656.8511641695,2011-01-22 00:49:01,2071.0447525478885,2,35,0.5501165986061096,4.1234049797058105,22.218595928571556,21.8257098273292,90.60535621260084,76.87743400461828,0.0001295089750783,0.1100189909338951,0,0,0
7206,300686.86408656184,2011-01-22 00:49:31,2101.057674935223,2,35,0.550297200679779,4.126804351806641,22.22318268101559,21.8257098273292,90.62427691028032,76.87743400461828,9.70840483205393e-05,0.1100189909338951,0,0,0
7207,300716.87919266167,2011-01-22 00:50:01,2131.0727810500784,2,35,0.550297200679779,4.130204200744629,22.22776980112637,21.8257098273292,90.6432141101623,76.87743400461828,0.0001295089750783,0.1100189909338951,0,0,0
7208,300746.89428171405,2011-01-22 00:50:31,2161.0878701024094,2,35,0.550297200679779,4.133279800415039,22.232356946848856,21.8257098273292,90.66216655817726,76.87743400461828,6.47544875391759e-05,0.1100189909338951,0,0,0
7209,300776.90941036,2011-01-22 00:51:01,2191.1029987283696,2,35,0.5501165986061096,4.136517524719238,22.236944066611787,21.8257098273292,90.68113406189129,76.87743400461828,6.47544875391759e-05,0.1100189909338951,0,0,0
7210,300806.9244835328,2011-01-22 00:51:31,2221.118071906136,2,35,0.5501165986061096,4.139917373657227,22.241531198550646,21.8257098273292,90.70011704059564,76.87743400461828,0.0001295089750783,0.1100189909338951,0,0,0
7211,300836.93910200725,2011-01-22 00:52:01,2251.132690365604,2,35,0.5501165986061096,4.143478870391846,22.246104377796748,21.8257098273292,90.7190576644758,76.87743400461828,0.0001295089750783,0.1100189909338951,0,0,0
7212,300866.9547018777,2011-01-22 00:52:31,2281.1482902510875,2,35,0.5501165986061096,4.146716594696045,22.25070535345731,21.8257098273292,90.73812913184314,76.87743400461828,6.47544875391759e-05,0.1100189909338951,0,0,0
7213,300896.9698380124,2011-01-22 00:53:01,2311.163426400799,2,35,0.5499359965324402,4.150278091430664,22.25529239228697,21.8257098273292,90.75715880526712,76.87743400461828,9.71794142969884e-05,0.1100189909338951,0,0,0
7214,300926.9849290246,2011-01-22 00:53:31,2341.178517413014,2,35,0.5501165986061096,4.153677463531494,22.25987941896058,21.8257098273292,90.77620433831429,76.87743400461828,6.47544875391759e-05,0.1100189909338951,0,0,0
7215,300957.0023376831,2011-01-22 00:54:01,2371.195926146704,2,35,0.5501165986061096,4.157238960266113,22.26446679323162,21.8257098273292,90.79526722455527,76.87743400461828,9.70840483205393e-05,0.1100189909338951,0,0,0
7216,300987.0152724663,2011-01-22 00:54:31,2401.2088608397084,2,35,0.5501165986061096,4.160800457000732,22.26905351116692,21.8257098273292,90.81434353078475,76.87743400461828,9.70840483205393e-05,0.1100189909338951,0,0,0
7217,301017.0302912536,2011-01-22 00:55:01,2431.223879636941,2,35,0.5501165986061096,4.164200305938721,22.273640532812472,21.8257098273292,90.83343733131728,76.87743400461828,6.47544875391759e-05,0.1100189909338951,0,0,0
7218,301047.0454857085,2011-01-22 00:55:31,2461.23907409698,2,35,0.5499359965324402,4.167923450469971,22.27822755856173,21.8257098273292,90.8525474349848,76.87743400461828,9.70840483205393e-05,0.1100189909338951,0,0,0
7219,301077.0605407762,2011-01-22 00:56:01,2491.2541291646103,2,35,0.550297200679779,4.171647071838379,22.282814526331837,21.8257098273292,90.87167387271433,76.87743400461828,0.0001295089750783,0.1100189909338951,0,0,0
7220,301107.07557826,2011-01-22 00:56:31,2521.2691666333785,2,35,0.5501165986061096,4.175208568572998,22.28740157017165,21.8257098273292,90.89081729231198,76.87743400461828,9.71794142969884e-05,0.1100189909338951,0,0,0
7221,301137.0907013472,2011-01-22 00:57:02,2551.2842897405844,2,35,0.5501165986061096,4.178770065307617,22.291988575812493,21.8257098273292,90.90997727959513,76.87743400461828,9.71794142969884e-05,0.1100189909338951,0,0,0
7222,301167.1059424234,2011-01-22 00:57:32,2581.299530796755,2,35,0.5501165986061096,4.182331562042236,22.296575662583265,21.8257098273292,90.92915448204492,76.87743400461828,3.24249267578125e-05,0.1100189909338951,0,0,0
7223,301197.1209121834,2011-01-22 00:58:02,2611.3145005718097,2,35,0.5501165986061096,4.186216831207275,22.301162699633224,21.8257098273292,90.94834843603812,76.87743400461828,6.47544875391759e-05,0.1100189909338951,0,0,0
7224,301227.1360159173,2011-01-22 00:58:32,2641.329604310743,2,35,0.5499359965324402,4.189939975738525,22.30574974877052,21.8257098273292,90.96755969994074,76.87743400461828,9.70840483205393e-05,0.1100189909338951,0,0,0
7225,301257.1512633694,2011-01-22 00:59:02,2671.3448517578427,2,35,0.5501165986061096,4.1938252449035645,22.310336881341943,21.8257098273292,90.98678854198008,76.87743400461828,0.0001295089750783,0.1100189909338951,0,0,0
7226,301287.1662332397,2011-01-22 00:59:32,2701.359821623122,2,35,0.5501165986061096,4.197548389434815,22.314923896976,21.8257098273292,91.00603408026387,76.87743400461828,9.70840483205393e-05,0.1100189909338951,0,0,0
7227,301305.9947037015,2011-01-22 00:59:50,2720.1882922703508,2,35,0.5501165986061096,4.200138568878174,22.31780133669687,21.8257098273292,91.01811571513524,76.87743400461828,9.70840483205393e-05,0.1100189909338951,0,0,0
7228,301336.0016430426,2011-01-22 01:00:21,30.015091157577345,3,35,0.0,4.089732646942139,22.31780133669687,21.8257098273292,91.01811571513524,76.87743400461828,-0.0005180359003134,0.1100189909338951,0,0,0
7229,301366.0167476938,2011-01-22 01:00:51,60.03019580377248,3,35,0.0,4.075486660003662,22.31780133669687,21.8257098273292,91.01811571513524,76.87743400461828,-0.0003237724304199,0.1100189909338951,0,0,0
7230,301396.0318791518,2011-01-22 01:01:21,90.04532726680341,3,35,0.0,4.066744804382324,22.31780133669687,21.8257098273292,91.01811571513524,76.87743400461828,-0.0001942634553415,0.1100189909338951,0,0,0
7231,301426.0001224451,2011-01-22 01:01:51,120.01357062525062,3,35,0.0,4.060593128204346,22.31780133669687,21.8257098273292,91.01811571513524,76.87743400461828,-6.47544875391759e-05,0.1100189909338951,0,0,0
7232,301426.01030214166,2011-01-22 01:01:51,2.706746044e-06,4,35,1.0287312269210815,4.199976921081543,22.31780133747035,21.8257098273292,91.0181157183838,76.87743400461828,0.0,0.1100189909338951,0,0,0
7233,301426.5571588669,2011-01-22 01:01:51,0.546859462043863,4,35,0.9779800176620485,4.199814796447754,22.31795232243713,21.8257098273292,91.01874983114664,76.87743400461828,-3.24249267578125e-05,0.1100189909338951,0,0,0
7234,301428.3383837523,2011-01-22 01:01:53,2.328084367577655,4,35,0.9272288084030152,4.199491024017334,22.31842241839688,21.8257098273292,91.02072414706788,76.87743400461828,-9.71794142969884e-05,0.1100189909338951,0,0,0
7235,301431.1976944293,2011-01-22 01:01:56,5.187395029535149,4,35,0.8768388032913208,4.199976921081543,22.319137829315384,21.8257098273292,91.02372876472528,76.87743400461828,3.24249267578125e-05,0.1100189909338951,0,0,0
7236,301435.16638413526,2011-01-22 01:02:00,9.15608475045498,4,35,0.8268100023269653,4.199976921081543,22.32007555346527,21.8257098273292,91.0276670536062,76.87743400461828,3.24249267578125e-05,0.1100189909338951,0,0,0
7237,301440.36941459804,2011-01-22 01:02:05,14.35911521330084,4,35,0.7767812609672546,4.199814796447754,22.32123299136771,21.8257098273292,91.03252811441568,76.87743400461828,-3.24249267578125e-05,0.1100189909338951,0,0,0
7238,301447.2599516967,2011-01-22 01:02:12,21.249652316928344,4,35,0.7267524600028992,4.199814796447754,22.322670136983408,21.8257098273292,91.03856392254862,76.87743400461828,0.0,0.1100189909338951,0,0,0
7239,301456.4004039662,2011-01-22 01:02:21,30.390104581418303,4,35,0.676543116569519,4.199976921081543,22.324448818637915,21.8257098273292,91.04603415473213,76.87743400461828,3.24249267578125e-05,0.1100189909338951,0,0,0
7240,301469.10341579525,2011-01-22 01:02:34,43.09311640550295,4,35,0.6265143156051636,4.199976921081543,22.326742524773877,21.8257098273292,91.0556674106795,76.87743400461828,3.24249267578125e-05,0.1100189909338951,0,0,0
7241,301488.1185958398,2011-01-22 01:02:53,62.10829645501095,4,35,0.5764855742454529,4.199814796447754,22.329909613850408,21.8257098273292,91.06896874832188,76.87743400461828,0.0,0.1100189909338951,0,0,0
7242,301521.43050026544,2011-01-22 01:03:26,95.4202008806564,4,35,0.5264567732810974,4.199814796447754,22.334989140546902,21.8257098273292,91.0903020691321,76.87743400461828,-3.24249267578125e-05,0.1100189909338951,0,0,0
7243,301587.58789580123,2011-01-22 01:04:32,161.57759651169067,4,35,0.4764280319213867,4.199976921081543,22.344154186421303,21.8257098273292,91.12879399386702,76.87743400461828,0.0,0.1100189909338951,0,0,0
7244,301701.20872160944,2011-01-22 01:06:26,275.19842221960886,4,35,0.4263992607593536,4.199976921081543,22.358358829093067,21.8257098273292,91.1884516193061,76.87743400461828,3.24249267578125e-05,0.1100189909338951,0,0,0
7245,301850.6436774995,2011-01-22 01:08:55,424.6333780946358,4,35,0.3763704895973205,4.199653148651123,22.37499117426621,21.8257098273292,91.25830530157984,76.87743400461828,-3.23295607813634e-05,0.1100189909338951,0,0,0
7246,302029.37510394846,2011-01-22 01:11:54,603.3648045536569,4,35,0.326161116361618,4.199814796447754,22.392406009129047,21.8257098273292,91.33144537014006,76.87743400461828,0.0,0.1100189909338951,0,0,0
7247,302246.6837113172,2011-01-22 01:15:31,820.6734119374441,4,35,0.2761323451995849,4.199976921081543,22.41055590555224,21.8257098273292,91.40767259643368,76.87743400461828,3.24249267578125e-05,0.1100189909338951,0,0,0
7248,302512.7572592274,2011-01-22 01:19:57,1086.7469598476202,4,35,0.2261035740375518,4.199814796447754,22.42907033469706,21.8257098273292,91.48543050561938,76.87743400461828,0.0,0.1100189909338951,0,0,0
7249,302852.34515770903,2011-01-22 01:25:37,1426.334858324208,4,35,0.1760748028755188,4.199814796447754,22.447973998594296,21.8257098273292,91.5648232001795,76.87743400461828,0.0,0.1100189909338951,0,0,0
7250,303323.0402060035,2011-01-22 01:33:28,1897.029906618804,4,35,0.1260460317134857,4.199814796447754,22.467576873961967,21.8257098273292,91.64715290733211,76.87743400461828,0.0,0.1100189909338951,0,0,0
7251,304079.29283174,2011-01-22 01:46:04,2653.2825323602674,4,35,0.0760172605514526,4.199976921081543,22.488343628615805,21.8257098273292,91.73437056126122,76.87743400461828,0.0,0.1100189909338951,0,0,0
7252,304796.3742483156,2011-01-22 01:58:01,3370.363949016009,4,35,0.0498289167881011,4.199814796447754,22.500716138417108,21.8257098273292,91.78633347854188,76.87743400461828,-3.24249267578125e-05,0.1100189909338951,0,0,0
7253,304826.3792390549,2011-01-22 01:58:31,30.01499505305531,5,35,0.0,4.1896162033081055,22.500716138417108,21.8257098273292,91.78633347854188,76.87743400461828,-3.24249267578125e-05,0.1100189909338951,0,0,0
7254,304856.3788376352,2011-01-22 01:59:01,60.014593623338165,5,35,0.0,4.187835693359375,22.500716138417108,21.8257098273292,91.78633347854188,76.87743400461828,-3.23295607813634e-05,0.1100189909338951,0,0,0
7255,304856.5728592495,2011-01-22 01:59:02,0.187484975245998,6,35,-1.9243103452026844e-05,4.187673568725586,22.500716142118,21.8257098273292,91.78633349404,76.87743400461828,0.0,0.1119400113821029,0,0,0
7256,304861.4008986291,2011-01-22 01:59:06,5.015524329868287,6,35,0.0008838032954372,4.187673568725586,22.50071733646453,21.82570982749633,91.78633849571467,76.87743400531816,-3.24249267578125e-05,0.1119400113821029,0,0,0
7257,304873.54805852217,2011-01-22 01:59:19,12.140391882075326,7,35,-1.0992072820663452,3.987582921981812,22.50071733646453,21.829417270520683,91.78633849571467,76.89228076377154,-0.0020073414780199,0.1119400113821029,0,0,0
7258,304903.56315675733,2011-01-22 01:59:49,42.15549011227984,7,35,-1.0992072820663452,3.927523136138916,22.50071733646453,21.838583217966303,91.78633849571467,76.92854522074029,-0.0014893531333655,0.1119400113821029,0,0,0
7259,304933.5783744353,2011-01-22 02:00:19,72.17070787539714,7,35,-1.0992072820663452,3.878795623779297,22.50071733646453,21.847749236650728,91.78633849571467,76.96431488372586,-0.0012303352123126,0.1119400113821029,0,0,0
7260,304963.5934381244,2011-01-22 02:00:49,102.18577149433976,7,35,-1.099568486213684,3.839133501052856,22.50071733646453,21.856915325331368,91.78633849571467,76.99967923210595,-0.0009713172912597,0.1119400113821029,0,0,0
7261,304993.60867182224,2011-01-22 02:01:19,132.20100518715876,7,35,-1.099568486213684,3.808213472366333,22.50071733646453,21.86608146979148,91.78633849571467,77.03472297963071,-0.0007446765666827,0.1119400113821029,0,0,0
7262,305023.6236368605,2011-01-22 02:01:49,162.21597023042045,7,35,-1.0993878841400146,3.783282995223999,22.50071733646453,21.87524752340147,91.78633849571467,77.06951095646723,-0.0005827903514727,0.1119400113821029,0,0,0
7263,305053.6387460981,2011-01-22 02:02:19,192.2310794630464,7,35,-1.0993878841400146,3.762561559677124,22.50071733646453,21.88441365285981,91.78633849571467,77.10409103672916,-0.0004856586456298,0.1119400113821029,0,0,0
7264,305083.6540154598,2011-01-22 02:02:49,222.2463488247633,7,35,-1.0992072820663452,3.7445924282073975,22.50071733646453,21.89357982612137,91.78633849571467,77.13849406389795,-0.0004209041653666,0.1119400113821029,0,0,0
7265,305113.6689679217,2011-01-22 02:03:19,252.2613012916808,7,35,-1.0993878841400146,3.728241920471192,22.50071733646453,21.90274593799788,91.78633849571467,77.17274085058142,-0.0004209041653666,0.1119400113821029,0,0,0
7266,305143.6842308524,2011-01-22 02:03:49,282.27656420231966,7,35,-1.0992072820663452,3.713834047317505,22.50071733646453,21.911912119352923,91.78633849571467,77.20684779913958,-0.0003237724304199,0.1119400113821029,0,0,0
7267,305173.69919163006,2011-01-22 02:04:19,312.291524989975,7,35,-1.099568486213684,3.6997499465942383,22.50071733646453,21.921078233348283,91.78633849571467,77.2408235363961,-0.0003885269106831,0.1119400113821029,0,0,0
7268,305203.7145085604,2011-01-22 02:04:49,342.30684192525985,7,35,-1.0993878841400146,3.6869609355926514,22.50071733646453,21.930244495319936,91.78633849571467,77.27467753393033,-0.0003561496851034,0.1119400113821029,0,0,0
7269,305233.72940930835,2011-01-22 02:05:19,372.3217426732781,7,35,-1.099568486213684,3.674495697021485,22.50071733646453,21.93941064611858,91.78633849571467,77.30841570750255,-0.0003561496851034,0.1119400113821029,0,0,0
7270,305263.7445076538,2011-01-22 02:05:49,402.3368410237823,7,35,-1.0993878841400146,3.6628401279449454,22.50071733646453,21.94857680733809,91.78633849571467,77.34204362144169,-0.0003237724304199,0.1119400113821029,0,0,0
7271,305293.75962250045,2011-01-22 02:06:19,432.3519558653876,7,35,-1.099568486213684,3.651669979095459,22.50071733646453,21.95774297652376,91.78633849571467,77.37556671399093,-0.0002913951757363,0.1119400113821029,0,0,0
7272,305323.7747369661,2011-01-22 02:06:49,462.3670703360684,7,35,-1.0993878841400146,3.640823602676392,22.50071733646453,21.966909117844413,91.78633849571467,77.40898817767116,-0.0002913951757363,0.1119400113821029,0,0,0
7273,305353.78987457446,2011-01-22 02:07:19,492.3822079644653,7,35,-1.0992072820663452,3.630300998687744,22.50071733646453,21.97607523603861,91.78633849571467,77.44231175568726,-0.0002913951757363,0.1119400113821029,0,0,0
7274,305383.8049513161,2011-01-22 02:07:49,522.3972846910762,7,35,-1.0992072820663452,3.620264053344727,22.50071733646453,21.98524140312129,91.78633849571467,77.47554076843771,-0.0002590179501567,0.1119400113821029,0,0,0
7275,305413.82005575683,2011-01-22 02:08:19,552.4123891317591,7,35,-1.0992072820663452,3.610388994216919,22.50071733646453,21.99440755308391,91.78633849571467,77.5086781301227,-0.0002913951757363,0.1119400113821029,0,0,0
7276,305443.8351741021,2011-01-22 02:08:49,582.4275074720842,7,35,-1.0993878841400146,3.6005139350891118,22.50071733646453,22.00357369813225,91.78633849571467,77.54172587167744,-0.0002590179501567,0.1119400113821029,0,0,0
7277,305473.85027534986,2011-01-22 02:09:19,612.4426087047718,7,35,-1.0993878841400146,3.5911247730255127,22.50071733646453,22.01273983968328,91.78633849571467,77.57468551138264,-0.0002589702489785,0.1119400113821029,0,0,0
7278,305503.8653853494,2011-01-22 02:09:49,642.4577187143342,7,35,-1.0993878841400146,3.582059144973755,22.50071733646453,22.02190597566,91.78633849571467,77.60756008491414,-0.0002266406954731,0.1119400113821029,0,0,0
7279,305533.8805005419,2011-01-22 02:10:19,672.4728339820012,7,35,-1.0993878841400146,3.572831630706787,22.50071733646453,22.031072187920515,91.78633849571467,77.64035085558686,-0.0002266406954731,0.1119400113821029,0,0,0
7280,305563.8956270375,2011-01-22 02:10:49,702.4879604074771,7,35,-1.0992072820663452,3.564251661300659,22.50071733646453,22.04023838145268,91.78633849571467,77.67306045665501,-0.0001942634553415,0.1119400113821029,0,0,0
7281,305593.9107182903,2011-01-22 02:11:19,732.5030516602918,7,35,-1.099568486213684,3.5556716918945312,22.50071733646453,22.049404522595506,91.78633849571467,77.70569190800533,-0.0002266406954731,0.1119400113821029,0,0,0
7282,305623.9258174228,2011-01-22 02:11:49,762.5181507927449,7,35,-1.0993878841400146,3.547739267349243,22.50071733646453,22.058570669693832,91.78633849571467,77.73824707214182,-0.0001618862152099,0.1119400113821029,0,0,0
7283,305653.9409302193,2011-01-22 02:12:19,792.5332635842407,7,35,-1.099568486213684,3.539644956588745,22.50071733646453,22.067736893964465,91.78633849571467,77.77072859141764,-0.0001942634553415,0.1119400113821029,0,0,0
7284,305683.95612182724,2011-01-22 02:12:49,822.5484552773837,7,35,-1.0993878841400146,3.531874418258667,22.50071733646453,22.076903108166302,91.78633849571467,77.80313799912715,-0.0002266406954731,0.1119400113821029,0,0,0
7285,305713.9715252581,2011-01-22 02:13:19,852.5638586982171,7,35,-1.0993878841400146,3.524427652359009,22.50071733646453,22.086069430016835,91.78633849571467,77.8354776736973,-0.0001942634553415,0.1119400113821029,0,0,0
7286,305743.9862617768,2011-01-22 02:13:49,882.5785951467504,7,35,-1.0993878841400146,3.5171427726745605,22.50071733646453,22.095235526091987,91.78633849571467,77.86774881514076,-0.0001618862152099,0.1119400113821029,0,0,0
7287,305774.0013932749,2011-01-22 02:14:19,912.5937266348436,7,35,-1.0993878841400146,3.5098581314086914,22.50071733646453,22.10440170750314,91.78633849571467,77.89995455942781,-0.0002266406954731,0.1119400113821029,0,0,0
7288,305804.0164893848,2011-01-22 02:14:49,942.6088227598016,7,35,-1.0993878841400146,3.503058910369873,22.50071733646453,22.113567955629243,91.78633849571467,77.9320965750984,-0.0001942634553415,0.1119400113821029,0,0,0
7289,305834.03180644545,2011-01-22 02:15:19,972.6241398805485,7,35,-1.099568486213684,3.4964215755462646,22.50071733646453,22.12273430594449,91.78633849571467,77.9641765496916,-0.0001942634553415,0.1119400113821029,0,0,0
7290,305864.046692988,2011-01-22 02:15:49,1002.6390263479748,7,35,-1.0997490882873535,3.489946126937866,22.50071733646453,22.13190049521831,91.78633849571467,77.9961960555457,-0.0001942634553415,0.1119400113821029,0,0,0
7291,305894.0617979701,2011-01-22 02:16:19,1032.6541313450446,7,35,-1.0993878841400146,3.4836325645446777,22.50071733646453,22.14106671709499,91.78633849571467,78.028156901019,-0.0001618862152099,0.1119400113821029,0,0,0
7292,305924.0769135385,2011-01-22 02:16:49,1062.6692469084487,7,35,-1.0993878841400146,3.4773190021514893,22.50071733646453,22.150232874745296,91.78633849571467,78.06005890745067,-0.0001295089750783,0.1119400113821029,0,0,0
7293,305954.0922845736,2011-01-22 02:17:19,1092.684617933542,7,35,-1.0992072820663452,3.4713292121887207,22.50071733646453,22.159399169290587,91.78633849571467,78.09190435501449,-0.0001295089750783,0.1119400113821029,0,0,0
7294,305984.1071443395,2011-01-22 02:17:49,1122.6994776994202,7,35,-1.099568486213684,3.465015649795532,22.50071733646453,22.168565294052623,91.78633849571467,78.1236931025378,-0.0001942634553415,0.1119400113821029,0,0,0
7295,306014.1222361688,2011-01-22 02:18:19,1152.714569543709,7,35,-1.0993878841400146,3.4588639736175537,22.50071733646453,22.17773145523657,91.78633849571467,78.15542607351878,-0.0001942634553415,0.1119400113821029,0,0,0
7296,306044.137505761,2011-01-22 02:18:49,1182.7298391159504,7,35,-1.0993878841400146,3.452550411224365,22.50071733646453,22.186897666137625,91.78633849571467,78.18710288132905,-0.0001618862152099,0.1119400113821029,0,0,0
7297,306074.15247574664,2011-01-22 02:19:19,1212.7448091115548,7,35,-1.0992072820663452,3.4463987350463867,22.50071733646453,22.196063903585397,91.78633849571467,78.21872171598314,-0.0001618862152099,0.1119400113821029,0,0,0
7298,306104.16768607625,2011-01-22 02:19:49,1242.760019426108,7,35,-1.099568486213684,3.4400851726531982,22.50071733646453,22.20523013679065,91.78633849571467,78.25028337963444,-0.0001942634553415,0.1119400113821029,0,0,0
7299,306134.1826748586,2011-01-22 02:20:19,1272.7750082085352,7,35,-1.0993878841400146,3.4336097240448,22.50071733646453,22.214396287122216,91.78633849571467,78.28178639372395,-0.0001942634553415,0.1119400113821029,0,0,0
7300,306164.20017024834,2011-01-22 02:20:49,1302.7925036182485,7,35,-1.099568486213684,3.4268107414245605,22.50071733646453,22.22356321169174,91.78633849571467,78.31323156565304,-0.0001942634553415,0.1119400113821029,0,0,0
7301,306194.2129337897,2011-01-22 02:21:19,1332.8052671546775,7,35,-1.0993878841400146,3.420173406600952,22.50071733646453,22.23272874844735,91.78633849571467,78.34460998819213,-0.0001618862152099,0.1119400113821029,0,0,0
7302,306224.2280006819,2011-01-22 02:21:49,1362.8203340517907,7,35,-1.0993878841400146,3.412726640701294,22.50071733646453,22.24189503282996,91.78633849571467,78.37592627023396,-0.0002266406954731,0.1119400113821029,0,0,0
7303,306254.24310990947,2011-01-22 02:22:19,1392.835443284417,7,35,-1.0993878841400146,3.405279874801636,22.50071733646453,22.25106127693977,91.78633849571467,78.40717565690521,-0.0002590179501567,0.1119400113821029,0,0,0
7304,306284.25823124225,2011-01-22 02:22:49,1422.850564612187,7,35,-1.0993878841400146,3.3975093364715576,22.50071733646453,22.260227524920857,91.78633849571467,78.4383537865559,-0.0002266406954731,0.1119400113821029,0,0,0
7305,306314.2734525893,2011-01-22 02:23:19,1452.8657859441994,7,35,-1.0993878841400146,3.38909125328064,22.50071733646453,22.269393768043884,91.78633849571467,78.46945761617154,-0.0002266406954731,0.1119400113821029,0,0,0
7306,306344.2884827048,2011-01-22 02:23:49,1482.8808160746785,7,35,-1.0993878841400146,3.380511283874512,22.50071733646453,22.278559985960708,91.78633849571467,78.50048406279208,-0.0002266406954731,0.1119400113821029,0,0,0
7307,306374.3035469753,2011-01-22 02:24:19,1512.8958803502576,7,35,-1.0993878841400146,3.371445655822754,22.50071733646453,22.28772626865416,91.78633849571467,78.53142926697082,-0.0002590179501567,0.1119400113821029,0,0,0
7308,306404.3186753256,2011-01-22 02:24:49,1542.9110087005306,7,35,-1.0993878841400146,3.3614087104797363,22.50071733646453,22.296892525939217,91.78633849571467,78.56228760378268,-0.0002913951757363,0.1119400113821029,0,0,0
7309,306434.3337689493,2011-01-22 02:25:19,1572.9261023192416,7,35,-1.0993878841400146,3.350562572479248,22.50071733646453,22.306058790062263,91.78633849571467,78.59305115698291,-0.0003237247583456,0.1119400113821029,0,0,0
7310,306464.3511024555,2011-01-22 02:25:49,1602.9434358104045,7,35,-1.0993878841400146,3.338906764984131,22.50071733646453,22.315225703245808,91.78633849571467,78.62371373985465,-0.0003237724304199,0.1119400113821029,0,0,0
7311,306494.364117594,2011-01-22 02:26:19,1632.956450943891,7,35,-1.0992072820663452,3.325793981552124,22.50071733646453,22.324391241727703,91.78633849571467,78.6542573840072,-0.0003237724304199,0.1119400113821029,0,0,0
7312,306524.3791029429,2011-01-22 02:26:49,1662.9714363128105,7,35,-1.0993878841400146,3.310900449752808,22.50071733646453,22.333557411782536,91.78633849571467,78.68467578251737,-0.0004209041653666,0.1119400113821029,0,0,0
7313,306554.394325117,2011-01-22 02:27:19,1692.9866584819088,7,35,-1.0992072820663452,3.2939023971557617,22.50071733646453,22.342723599664183,91.78633849571467,78.71494859631063,-0.0004856586456298,0.1119400113821029,0,0,0
7314,306584.40931052604,2011-01-22 02:27:49,1723.0016438959406,7,35,-1.0993878841400146,3.2738285064697266,22.50071733646453,22.35188972353784,91.78633849571467,78.74505286929423,-0.0006475448608398,0.1119400113821029,0,0,0
7315,306614.424454024,2011-01-22 02:28:19,1753.016787479179,7,35,-1.0993878841400146,3.2495458126068115,22.50071733646453,22.36105594479785,91.78633849571467,78.7749549156607,-0.0006799221155233,0.1119400113821029,0,0,0
7316,306644.439542545,2011-01-22 02:28:50,1783.0318759149727,7,35,-1.0992072820663452,3.219434976577759,22.50071733646453,22.370222052480667,91.78633849571467,78.80460689089965,-0.0008741855854168,0.1119400113821029,0,0,0
7317,306674.4547624986,2011-01-22 02:29:20,1813.0470958434869,7,35,-1.0993878841400146,3.1805825233459477,22.50071733646453,22.379388273940407,91.78633849571467,78.83394455528112,-0.0011008263099938,0.1119400113821029,0,0,0
7318,306704.46974184253,2011-01-22 02:29:50,1843.0620751823776,7,35,-1.099568486213684,3.1300740242004395,22.50071733646453,22.388554372849057,91.78633849571467,78.86287777218482,-0.0015217304462566,0.1119400113821029,0,0,0
7319,306734.48488570144,2011-01-22 02:30:20,1873.0772190463151,7,35,-1.0992072820663452,3.061920166015625,22.50071733646453,22.39772054392219,91.78633849571467,78.89127321871688,-0.0020721436012536,0.1119400113821029,0,0,0
7320,306764.50039747736,2011-01-22 02:30:50,1903.0927308222035,7,35,-1.0993878841400146,2.964464902877808,22.50071733646453,22.406886889498047,91.78633849571467,78.91892135390727,-0.0030434608925133,0.1119400113821029,0,0,0
7321,306794.51520130376,2011-01-22 02:31:20,1933.1075346536752,7,35,-1.0993878841400146,2.8215198516845703,22.50071733646453,22.41605298081712,91.78633849571467,78.94547880125863,-0.0043709278106689,0.1119400113821029,0,0,0
7322,306814.48347904097,2011-01-22 02:31:40,1953.0758124159445,7,35,-1.099568486213684,2.699943780899048,22.50071733646453,22.42215103126074,91.78633849571467,78.96232293427208,-0.0051155565306544,0.1119400113821029,0,0,0
7323,306874.50726781454,2011-01-22 02:32:40,60.01471531663531,8,35,0.0,3.6280345916748047,22.50071733646453,22.42215103126074,91.78633849571467,78.96232293427208,0.0012303352123126,0.1119400113821029,0,0,0
7324,306874.7047779841,2011-01-22 02:32:40,0.18751924565841,9,35,-1.9243103452026844e-05,3.6283583641052246,22.50071733646453,22.422151032263088,91.78633849571467,78.96232293790897,0.0,0.1093086898326873,0,0,0
7325,306879.5328079404,2011-01-22 02:32:45,5.015549201856936,9,35,0.0005225847125984,3.635643243789673,22.50071847578441,22.422151032347443,91.7863426342776,78.96232293821504,0.0010684489971026,0.1093086898326873,0,0,0
