Data_Point,Test_Time(s),Date_Time,Step_Time(s),Step_Index,Cycle_Index,Current(A),Voltage(V),Charge_Capacity(Ah),Discharge_Capacity(Ah),Charge_Energy(Wh),Discharge_Energy(Wh),dV/dt(V/s),Internal_Resistance(Ohm),Is_FC_Data,AC_Impedance(Ohm),ACI_Phase_Angle(Deg)
8429,353113.1475103618,2011-01-22 15:23:26,30.01512958835868,1,42,0.0,3.684694528579712,25.86196208605715,25.794308072339405,105.52877736955293,90.71730467678242,0.0004856586456298,0.1116369217634201,0,0,0
8430,353143.16261660703,2011-01-22 15:23:56,60.030235833538974,1,42,0.0,3.6997499465942383,25.86196208605715,25.794308072339405,105.52877736955293,90.71730467678242,0.0003237724304199,0.1116369217634201,0,0,0
8431,353173.1777389523,2011-01-22 15:24:26,90.04535817884573,1,42,0.0,3.7105963230133057,25.86196208605715,25.794308072339405,105.52877736955293,90.71730467678242,0.0002266406954731,0.1116369217634201,0,0,0
8432,353203.1459517095,2011-01-22 15:24:56,120.01357091096271,1,42,0.0,3.718366861343384,25.86196208605715,25.794308072339405,105.52877736955293,90.71730467678242,0.0001618862152099,0.1116369217634201,0,0,0
8433,353233.1720758091,2011-01-22 15:25:26,30.01524940698356,2,42,0.5504778623580933,3.837028980255127,25.86654927440147,25.794308072339405,105.54630052379729,90.71730467678242,0.0007122993702068,0.1116369217634201,0,0,0
8434,353263.1870280855,2011-01-22 15:25:56,60.03020169846386,2,42,0.5501165986061096,3.856293439865112,25.8711364454424,25.794308072339405,105.5639487006241,90.71730467678242,0.0004209041653666,0.1116369217634201,0,0,0
8435,353293.2021339097,2011-01-22 15:26:26,90.04530752259477,2,42,0.550297200679779,3.870215654373169,25.87572365083491,25.794308072339405,105.58167189344714,90.71730467678242,0.0003237724304199,0.1116369217634201,0,0,0
8436,353323.21725330764,2011-01-22 15:26:56,120.06042692055586,2,42,0.5499359965324402,3.8812239170074463,25.880310830911856,25.794308072339405,105.59945149349088,90.71730467678242,0.0002913951757363,0.1116369217634201,0,0,0
8437,353353.2323879536,2011-01-22 15:27:26,150.07556156651964,2,42,0.550297200679779,3.890613317489624,25.88489796048801,25.794308072339405,105.6172777164514,90.71730467678242,0.0001942634553415,0.1116369217634201,0,0,0
8438,353383.24745828426,2011-01-22 15:27:56,180.09063189718992,2,42,0.5501165986061096,3.899031400680542,25.88948508131479,25.794308072339405,105.6351444350217,90.71730467678242,0.0002266406954731,0.1116369217634201,0,0,0
8439,353413.2626913606,2011-01-22 15:28:26,210.1058649584349,2,42,0.550297200679779,3.90680193901062,25.894072209579125,25.794308072339405,105.65304762671012,90.71730467678242,0.0002266406954731,0.1116369217634201,0,0,0
8440,353443.27769923554,2011-01-22 15:28:56,240.1208728484839,2,42,0.5501165986061096,3.913762807846069,25.89865930106507,25.794308072339405,105.6709842071474,90.71730467678242,0.0001942157687153,0.1116369217634201,0,0,0
8441,353473.2929198157,2011-01-22 15:29:26,270.13609341358466,2,42,0.550297200679779,3.9204001426696777,25.903246441583292,25.794308072339405,105.6889520200766,90.71730467678242,0.0001942634553415,0.1116369217634201,0,0,0
8442,353503.3078920669,2011-01-22 15:29:56,300.1510656798483,2,42,0.550297200679779,3.9263899326324463,25.907833460883364,25.794308072339405,105.70694823883863,90.71730467678242,0.0001618862152099,0.1116369217634201,0,0,0
8443,353533.3229999963,2011-01-22 15:30:26,330.16617360922606,2,42,0.5501165986061096,3.932055950164795,25.912420575462065,25.794308072339405,105.72497199684906,90.71730467678242,0.0001618862152099,0.1116369217634201,0,0,0
8444,353563.3381493439,2011-01-22 15:30:56,360.18132295181834,2,42,0.5501165986061096,3.937398195266724,25.917007721145552,25.794308072339405,105.74302126547788,90.71730467678242,0.0001618862152099,0.1116369217634201,0,0,0
8445,353593.353449748,2011-01-22 15:31:26,390.1966233609149,2,42,0.550297200679779,3.942416667938232,25.92159486138211,25.794308072339405,105.7610945392055,90.71730467678242,0.0001295089750783,0.1116369217634201,0,0,0
8446,353623.36830006033,2011-01-22 15:31:56,420.21147367323175,2,42,0.5501165986061096,3.947435140609741,25.92618195764208,25.794308072339405,105.7791906900696,90.71730467678242,0.0001295089750783,0.1116369217634201,0,0,0
8447,353653.38352124195,2011-01-22 15:32:26,450.2266948348191,2,42,0.5501165986061096,3.95196795463562,25.930769128542188,25.794308072339405,105.79730925769888,90.71730467678242,9.713172767078504e-05,0.1116369217634201,0,0,0
8448,353683.39857784845,2011-01-22 15:32:56,480.2417514613344,2,42,0.5501165986061096,3.956662654876709,25.935356255351536,25.794308072339405,105.81544869016336,90.71730467678242,0.0001295089750783,0.1116369217634201,0,0,0
8449,353713.41390624223,2011-01-22 15:33:26,510.25707986019,2,42,0.5501165986061096,3.961033582687378,25.93994344845976,25.794308072339405,105.83360853625804,90.71730467678242,0.0001295089750783,0.1116369217634201,0,0,0
8450,353743.4287871157,2011-01-22 15:33:56,540.2719607236497,2,42,0.5501165986061096,3.964918851852417,25.944530560465275,25.794308072339405,105.8517874493924,90.71730467678242,6.47544875391759e-05,0.1116369217634201,0,0,0
8451,353773.4438991704,2011-01-22 15:34:26,570.287072778309,2,42,0.550297200679779,3.969127893447876,25.949117731927185,25.794308072339405,105.86998523820748,90.71730467678242,9.713172767078504e-05,0.1116369217634201,0,0,0
8452,353803.45901320496,2011-01-22 15:34:56,600.3021868279404,2,42,0.550297200679779,3.973013162612915,25.953704842495483,25.794308072339405,105.88820088719956,90.71730467678242,9.713172767078504e-05,0.1116369217634201,0,0,0
8453,353833.47431859653,2011-01-22 15:35:26,630.3174921943921,2,42,0.5501165986061096,3.976736545562744,25.95829208466928,25.794308072339405,105.90643470951971,90.71730467678242,9.713172767078504e-05,0.1116369217634201,0,0,0
8454,353863.4892380211,2011-01-22 15:35:56,660.332411639008,2,42,0.5499359965324402,3.9802980422973633,25.96287919832236,25.794308072339405,105.92468474342483,90.71730467678242,6.47544875391759e-05,0.1116369217634201,0,0,0
8455,353893.50442434085,2011-01-22 15:36:26,690.3475980590086,2,42,0.5501165986061096,3.984021425247192,25.96746626609776,25.794308072339405,105.94295140813372,90.71730467678242,9.713172767078504e-05,0.1116369217634201,0,0,0
8456,353923.51944881724,2011-01-22 15:36:56,720.362622435146,2,42,0.550297200679779,3.987582921981812,25.97205329083157,25.794308072339405,105.9612341113651,90.71730467678242,6.47544875391759e-05,0.1116369217634201,0,0,0
8457,353953.5346715978,2011-01-22 15:37:26,750.3778452057436,2,42,0.5501165986061096,3.9909825325012207,25.97664036372035,25.794308072339405,105.97953274610258,90.71730467678242,9.713172767078504e-05,0.1116369217634201,0,0,0
8458,353983.5496467212,2011-01-22 15:37:56,780.392820339153,2,42,0.5501165986061096,3.994381904602051,25.981227491123327,25.794308072339405,105.99784740107329,90.71730467678242,9.70840483205393e-05,0.1116369217634201,0,0,0
8459,354013.5647605353,2011-01-22 15:38:26,810.4079341481846,2,42,0.5501165986061096,3.99761962890625,25.98581457554304,25.794308072339405,106.0161772489646,90.71730467678242,0.0001295089750783,0.1116369217634201,0,0,0
8460,354043.58204637765,2011-01-22 15:38:56,840.4252199855795,2,42,0.5501165986061096,4.000857353210449,25.990402010700286,25.794308072339405,106.034523610059,90.71730467678242,6.47544875391759e-05,0.1116369217634201,0,0,0
8461,354073.59501664934,2011-01-22 15:39:26,870.4381902622689,2,42,0.5501165986061096,4.004095077514648,25.99498874154625,25.794308072339405,106.05288211706004,90.71730467678242,6.47544875391759e-05,0.1116369217634201,0,0,0
8462,354103.61010800744,2011-01-22 15:39:56,900.4532816053087,2,42,0.5501165986061096,4.007332801818848,25.99957582334302,25.794308072339405,106.071256834765,90.71730467678242,9.70840483205393e-05,0.1116369217634201,0,0,0
8463,354133.6251952653,2011-01-22 15:40:26,930.4683688782042,2,42,0.550297200679779,4.010570526123047,26.00416288981061,25.794308072339405,106.08964617593836,90.71730467678242,9.70840483205393e-05,0.1116369217634201,0,0,0
8464,354163.640321756,2011-01-22 15:40:56,960.4834953688425,2,42,0.5504778623580933,4.013808250427246,26.00874993644413,25.794308072339405,106.10804999078267,90.71730467678242,9.70840483205393e-05,0.1116369217634201,0,0,0
8465,354193.6554166779,2011-01-22 15:41:26,990.4985902757644,2,42,0.550297200679779,4.016884326934815,26.013337060185496,25.794308072339405,106.1264685578682,90.71730467678242,9.71794142969884e-05,0.1116369217634201,0,0,0
8466,354223.67053292296,2011-01-22 15:41:56,1020.5137065359048,2,42,0.5501165986061096,4.019798278808594,26.01792422308213,25.794308072339405,106.14490150907042,90.71730467678242,6.47544875391759e-05,0.1116369217634201,0,0,0
8467,354253.685623855,2011-01-22 15:42:26,1050.52879746792,2,42,0.5501165986061096,4.022873878479004,26.022511283839613,25.794308072339405,106.16334803959802,90.71730467678242,6.47544875391759e-05,0.1116369217634201,0,0,0
8468,354283.7007560198,2011-01-22 15:42:56,1080.5439296327002,2,42,0.5501165986061096,4.025949954986572,26.02709842263665,25.794308072339405,106.1818087516089,90.71730467678242,9.71794142969884e-05,0.1116369217634201,0,0,0
8469,354313.71584778884,2011-01-22 15:43:26,1110.5590214018014,2,42,0.5501165986061096,4.029025554656982,26.031685538005004,25.794308072339405,106.20028316316645,90.71730467678242,0.0001295089750783,0.1116369217634201,0,0,0
8470,354343.73316556594,2011-01-22 15:43:56,1140.5763393642617,2,42,0.5501165986061096,4.031939506530762,26.03627293471513,25.794308072339405,106.21877247538228,90.71730467678242,9.70840483205393e-05,0.1116369217634201,0,0,0
8471,354373.7460662291,2011-01-22 15:44:26,1170.5892398419908,2,42,0.5501165986061096,4.034853458404541,26.04085965231869,25.794308072339405,106.23727288598413,90.71730467678242,6.47544875391759e-05,0.1116369217634201,0,0,0
8472,354403.7611816621,2011-01-22 15:44:56,1200.60435527507,2,42,0.5499359965324402,4.03776741027832,26.04544674071832,25.794308072339405,106.25578849256458,90.71730467678242,6.47544875391759e-05,0.1116369217634201,0,0,0
8473,354433.7762878672,2011-01-22 15:45:26,1230.619461475138,2,42,0.550297200679779,4.04100513458252,26.05003388496003,25.794308072339405,106.27431784658803,90.71730467678242,6.47544875391759e-05,0.1116369217634201,0,0,0
8474,354463.7914147238,2011-01-22 15:45:56,1260.6345883367007,2,42,0.5501165986061096,4.043919086456299,26.05462091221105,25.794308072339405,106.29286019669298,90.71730467678242,9.71794142969884e-05,0.1116369217634201,0,0,0
8475,354493.80651005177,2011-01-22 15:46:26,1290.6496836646718,2,42,0.5501165986061096,4.046833038330078,26.059207992559564,25.794308072339405,106.3114162296406,90.71730467678242,9.71794142969884e-05,0.1116369217634201,0,0,0
8476,354523.8216149887,2011-01-22 15:46:57,1320.664788596579,2,42,0.5501165986061096,4.049584865570068,26.063795119486297,25.794308072339405,106.32998599877509,90.71730467678242,3.23295607813634e-05,0.1116369217634201,0,0,0
8477,354553.8368783554,2011-01-22 15:47:27,1350.68005195333,2,42,0.5499359965324402,4.052498817443848,26.068382253287076,25.794308072339405,106.34856925267452,90.71730467678242,6.47544875391759e-05,0.1116369217634201,0,0,0
8478,354583.8518104867,2011-01-22 15:47:57,1380.6949840845646,2,42,0.550297200679779,4.055574893951416,26.0729692946072,25.794308072339405,106.36716568921656,90.71730467678242,9.71794142969884e-05,0.1116369217634201,0,0,0
8479,354613.8669283709,2011-01-22 15:48:27,1410.7101019837903,2,42,0.550297200679779,4.058488845825195,26.07755635848397,25.794308072339405,106.38577569261535,90.71730467678242,6.47544875391759e-05,0.1116369217634201,0,0,0
8480,354643.882041804,2011-01-22 15:48:57,1440.7252154018477,2,42,0.5501165986061096,4.061402797698975,26.08214355429753,25.794308072339405,106.40439943480786,90.71730467678242,6.47544875391759e-05,0.1116369217634201,0,0,0
8481,354673.89714233496,2011-01-22 15:49:27,1470.740315942811,2,42,0.5501165986061096,4.064316749572754,26.08673060560952,25.794308072339405,106.42303577807664,90.71730467678242,9.71794142969884e-05,0.1116369217634201,0,0,0
8482,354703.9122645399,2011-01-22 15:49:57,1500.7554381577934,2,42,0.5501165986061096,4.067068576812744,26.091317677807996,25.794308072339405,106.4416855126693,90.71730467678242,6.47544875391759e-05,0.1116369217634201,0,0,0
8483,354733.9273546047,2011-01-22 15:50:27,1530.7705282176346,2,42,0.550297200679779,4.069982528686523,26.0959047634426,25.794308072339405,106.460348614063,90.71730467678242,6.47544875391759e-05,0.1116369217634201,0,0,0
8484,354763.94248363667,2011-01-22 15:50:57,1560.7856572345693,2,42,0.550297200679779,4.073058605194092,26.100491823272804,25.794308072339405,106.47902478065852,90.71730467678242,0.0001295089750783,0.1116369217634201,0,0,0
8485,354793.9577010439,2011-01-22 15:51:27,1590.8008746568369,2,42,0.5499359965324402,4.075810432434082,26.10507888335024,25.794308072339405,106.4977141455036,90.71730467678242,9.70840483205393e-05,0.1116369217634201,0,0,0
8486,354823.9726749543,2011-01-22 15:51:57,1620.8158485722106,2,42,0.5501165986061096,4.078724384307861,26.109665996740592,25.794308072339405,106.51641696550818,90.71730467678242,6.47544875391759e-05,0.1116369217634201,0,0,0
8487,354853.9879096596,2011-01-22 15:52:27,1650.8310832725408,2,42,0.5501165986061096,4.08147668838501,26.114253200192817,25.794308072339405,106.53513340630737,90.71730467678242,6.47544875391759e-05,0.1116369217634201,0,0,0
8488,354884.0029042716,2011-01-22 15:52:57,1680.8460778895092,2,42,0.5501165986061096,4.084390640258789,26.118840250445704,25.794308072339405,106.55386248213487,90.71730467678242,6.47544875391759e-05,0.1116369217634201,0,0,0
8489,354914.0180230681,2011-01-22 15:53:27,1710.8611966759463,2,42,0.550297200679779,4.087466239929199,26.123427342252267,25.794308072339405,106.57260515577768,90.71730467678242,9.70840483205393e-05,0.1116369217634201,0,0,0
8490,354944.0331212381,2011-01-22 15:53:57,1740.8762948359758,2,42,0.550297200679779,4.0903801918029785,26.12801441436504,25.794308072339405,106.59136122317553,90.71730467678242,3.23295607813634e-05,0.1116369217634201,0,0,0
8491,354974.0482667662,2011-01-22 15:54:27,1770.8914403590488,2,42,0.5501165986061096,4.093294143676758,26.13260153070976,25.794308072339405,106.6101310435873,90.71730467678242,6.47544875391759e-05,0.1116369217634201,0,0,0
8492,355004.06354622805,2011-01-22 15:54:57,1800.906719846001,2,42,0.550297200679779,4.096370220184326,26.137188654826925,25.794308072339405,106.62891455319708,90.71730467678242,9.71794142969884e-05,0.1116369217634201,0,0,0
8493,355034.0784470062,2011-01-22 15:55:27,1830.9216206190813,2,42,0.5501165986061096,4.0992841720581055,26.141775731524657,25.794308072339405,106.64771156981575,90.71730467678242,9.71794142969884e-05,0.1116369217634201,0,0,0
8494,355064.0935921784,2011-01-22 15:55:57,1860.9367657862672,2,42,0.5501165986061096,4.102035999298096,26.1463628910682,25.794308072339405,106.66652274199409,90.71730467678242,0.0,0.1116369217634201,0,0,0
8495,355094.1087919868,2011-01-22 15:56:27,1890.951965594636,2,42,0.550297200679779,4.105435848236084,26.15095003030232,25.794308072339405,106.68534779180584,90.71730467678242,6.47544875391759e-05,0.1116369217634201,0,0,0
8496,355124.1238084331,2011-01-22 15:56:57,1920.9669820359973,2,42,0.5501165986061096,4.108349800109863,26.15553711130243,25.794308072339405,106.70418663949133,90.71730467678242,3.24249267578125e-05,0.1116369217634201,0,0,0
8497,355154.13889516966,2011-01-22 15:57:27,1950.982068782581,2,42,0.550297200679779,4.111749172210693,26.16012417360362,25.794308072339405,106.72303950253176,90.71730467678242,0.0001295089750783,0.1116369217634201,0,0,0
8498,355184.1539936906,2011-01-22 15:57:57,1980.9971673085229,2,42,0.5501165986061096,4.114663124084473,26.164711008635656,25.794308072339405,106.74190550351638,90.71730467678242,9.70840483205393e-05,0.1116369217634201,0,0,0
8499,355214.1691210134,2011-01-22 15:58:27,2011.0122946262225,2,42,0.5501165986061096,4.117738723754883,26.16929741748008,25.794308072339405,106.76078406031266,90.71730467678242,6.47544875391759e-05,0.1116369217634201,0,0,0
8500,355244.1842580703,2011-01-22 15:58:57,2041.0274316831951,2,42,0.5501165986061096,4.120976448059082,26.173884162018965,25.794308072339405,106.7796785083666,90.71730467678242,6.47544875391759e-05,0.1116369217634201,0,0,0
8501,355274.1993603456,2011-01-22 15:59:27,2071.0425339584813,2,42,0.5501165986061096,4.124214172363281,26.17847131533393,25.794308072339405,106.79858937201864,90.71730467678242,6.47544875391759e-05,0.1116369217634201,0,0,0
8502,355304.2144697937,2011-01-22 15:59:57,2101.0576434066443,2,42,0.5501165986061096,4.1274518966674805,26.183058472141276,25.794308072339405,106.81751501709704,90.71730467678242,9.70840483205393e-05,0.1116369217634201,0,0,0
8503,355334.2297258473,2011-01-22 16:00:27,2131.072899445156,2,42,0.550297200679779,4.13068962097168,26.187645631576917,25.794308072339405,106.83645547413651,90.71730467678242,9.70840483205393e-05,0.1116369217634201,0,0,0
8504,355364.2446842941,2011-01-22 16:00:57,2161.087857891977,2,42,0.550297200679779,4.133765697479248,26.192232783298085,25.794308072339405,106.85541073822972,90.71730467678242,9.71794142969884e-05,0.1116369217634201,0,0,0
8505,355394.2599297863,2011-01-22 16:01:27,2191.103103384204,2,42,0.550297200679779,4.137003421783447,26.19681993185857,25.794308072339405,106.87438096409666,90.71730467678242,3.24249267578125e-05,0.1116369217634201,0,0,0
8506,355424.27490282955,2011-01-22 16:01:57,2221.118076442441,2,42,0.550297200679779,4.140564918518066,26.20140713370072,25.794308072339405,106.8933665186282,90.71730467678242,9.71794142969884e-05,0.1116369217634201,0,0,0
8507,355454.29002143047,2011-01-22 16:02:27,2251.133195043416,2,42,0.5501165986061096,4.143640518188477,26.20599440427493,25.794308072339405,106.91236755469758,90.71730467678242,6.47544875391759e-05,0.1116369217634201,0,0,0
8508,355484.30527318834,2011-01-22 16:02:57,2281.1484468012586,2,42,0.5501165986061096,4.147202014923096,26.2105815167324,25.794308072339405,106.93138355024692,90.71730467678242,9.70840483205393e-05,0.1116369217634201,0,0,0
8509,355514.32037426566,2011-01-22 16:03:27,2311.163547878559,2,42,0.5501165986061096,4.150601863861084,26.215168645974057,25.794308072339405,106.95041508743876,90.71730467678242,9.71794142969884e-05,0.1116369217634201,0,0,0
8510,355544.3354194737,2011-01-22 16:03:57,2341.178593081603,2,42,0.5501165986061096,4.154001235961914,26.21975576418461,25.794308072339405,106.96946211878463,90.71730467678242,0.0001295089750783,0.1116369217634201,0,0,0
8511,355574.3504951327,2011-01-22 16:04:27,2371.193668745566,2,42,0.5501165986061096,4.157401084899902,26.22434292383557,25.794308072339405,106.98852493007304,90.71730467678242,6.47544875391759e-05,0.1116369217634201,0,0,0
8512,355604.36561778374,2011-01-22 16:04:57,2401.208791391622,2,42,0.550297200679779,4.160800457000732,26.2289300862296,25.794308072339405,107.00760357615036,90.71730467678242,6.47544875391759e-05,0.1116369217634201,0,0,0
8513,355634.3809430949,2011-01-22 16:05:27,2431.224116692757,2,42,0.550297200679779,4.164361953735352,26.233517212628858,25.794308072339405,107.02669803698844,90.71730467678242,6.47544875391759e-05,0.1116369217634201,0,0,0
8514,355664.3958315974,2011-01-22 16:05:57,2461.239005205281,2,42,0.550297200679779,4.167923450469971,26.23810436263713,25.794308072339405,107.0458087038624,90.71730467678242,9.70840483205393e-05,0.1116369217634201,0,0,0
8515,355694.41094736126,2011-01-22 16:06:27,2491.254120974197,2,42,0.5501165986061096,4.17148494720459,26.242691464615337,25.794308072339405,107.064935453485,90.71730467678242,9.70840483205393e-05,0.1116369217634201,0,0,0
8516,355724.42615338514,2011-01-22 16:06:57,2521.269327088281,2,42,0.5501165986061096,4.175046443939209,26.24727865033328,25.794308072339405,107.08407886128984,90.71730467678242,9.70840483205393e-05,0.1116369217634201,0,0,0
8517,355754.4413266524,2011-01-22 16:07:27,2551.2845002301888,2,42,0.5501165986061096,4.178770065307617,26.251865757376567,25.794308072339405,107.10323841572168,90.71730467678242,0.0001295089750783,0.1116369217634201,0,0,0
8518,355784.456378106,2011-01-22 16:07:57,2581.299551713887,2,42,0.550297200679779,4.182331562042236,26.256452859288235,25.794308072339405,107.12241453556544,90.71730467678242,0.0001295089750783,0.1116369217634201,0,0,0
8519,355814.4715352831,2011-01-22 16:08:27,2611.3147088960177,2,42,0.5501165986061096,4.185893058776856,26.26104004199289,25.794308072339405,107.14160765943288,90.71730467678242,9.71794142969884e-05,0.1116369217634201,0,0,0
8520,355844.48653789004,2011-01-22 16:08:57,2641.3297114878624,2,42,0.5501165986061096,4.1896162033081055,26.26562717072669,25.794308072339405,107.16081752334112,90.71730467678242,9.70840483205393e-05,0.1116369217634201,0,0,0
8521,355874.50164499227,2011-01-22 16:09:27,2671.344818605216,2,42,0.550297200679779,4.193339824676514,26.270214328393664,25.794308072339405,107.18004455132068,90.71730467678242,9.71794142969884e-05,0.1116369217634201,0,0,0
8522,355904.5167648264,2011-01-22 16:09:57,2701.359938439264,2,42,0.550297200679779,4.1972246170043945,26.274801521959667,25.794308072339405,107.19928890325194,90.71730467678242,0.0001295089750783,0.1116369217634201,0,0,0
8523,355926.6570303153,2011-01-22 16:10:19,2723.5002039232395,2,42,0.550297200679779,4.200138568878174,26.27818518244744,25.794308072339405,107.21349518850845,90.71730467678242,0.0001295089750783,0.1116369217634201,0,0,0
8524,355956.6829550137,2011-01-22 16:10:50,30.015256409435825,3,42,0.0,4.089408874511719,26.27818518244744,25.794308072339405,107.21349518850845,90.71730467678242,-0.0004857063177041,0.1116369217634201,0,0,0
8525,355986.6979479214,2011-01-22 16:11:20,60.03024933218175,3,42,0.0,4.075162887573242,26.27818518244744,25.794308072339405,107.21349518850845,90.71730467678242,-0.0002590179501567,0.1116369217634201,0,0,0
8526,356016.71320323314,2011-01-22 16:11:50,90.04550462884418,3,42,0.0,4.066097259521484,26.27818518244744,25.794308072339405,107.21349518850845,90.71730467678242,-0.0001942634553415,0.1116369217634201,0,0,0
8527,356046.6813258807,2011-01-22 16:12:20,120.0136272914803,3,42,0.0,4.059945583343506,26.27818518244744,25.794308072339405,107.21349518850845,90.71730467678242,-0.0001295089750783,0.1116369217634201,0,0,0
8528,356046.69400280376,2011-01-22 16:12:20,0.015621257981431,4,42,1.0397483110427856,4.199814796447754,26.278189694163125,25.794308072339405,107.21351413687874,90.71730467678242,0.0,0.1116369217634201,0,0,0
8529,356047.209629865,2011-01-22 16:12:20,0.531248319272649,4,42,0.9891777634620668,4.199653148651123,26.2783336021281,25.794308072339405,107.21411852341286,90.71730467678242,-3.23295607813634e-05,0.1116369217634201,0,0,0
8530,356048.9127169621,2011-01-22 16:12:22,2.234335416345353,4,42,0.939149022102356,4.199814796447754,26.278788693215,25.794308072339405,107.2160298077534,90.71730467678242,0.0,0.1116369217634201,0,0,0
8531,356051.6314167134,2011-01-22 16:12:25,4.953035167648601,4,42,0.888939619064331,4.199976921081543,26.279477879839927,25.794308072339405,107.21892425147708,90.71730467678242,6.47544875391759e-05,0.1116369217634201,0,0,0
8532,356055.3814114591,2011-01-22 16:12:28,8.703029908387057,4,42,0.8389108777046204,4.199653148651123,26.28037657986286,25.794308072339405,107.22269862820744,90.71730467678242,-3.23295607813634e-05,0.1116369217634201,0,0,0
8533,356060.3656576743,2011-01-22 16:12:33,13.687276218806872,4,42,0.7888820767402649,4.199814796447754,26.28150220374735,25.794308072339405,107.22742604690816,90.71730467678242,-3.24249267578125e-05,0.1116369217634201,0,0,0
8534,356066.86555581045,2011-01-22 16:12:40,20.18717426470588,4,42,0.7388533353805542,4.199814796447754,26.2828800593242,25.794308072339405,107.2332128106658,90.71730467678242,0.0,0.1116369217634201,0,0,0
8535,356075.44353514933,2011-01-22 16:12:48,28.76515360359665,4,42,0.6888245344161987,4.199814796447754,26.284579156744545,25.794308072339405,107.24034872983532,90.71730467678242,-3.24249267578125e-05,0.1116369217634201,0,0,0
8536,356087.34957845765,2011-01-22 16:13:00,40.671196906906445,4,42,0.638795793056488,4.199814796447754,26.28677062732416,25.794308072339405,107.24955254744576,90.71730467678242,-3.24249267578125e-05,0.1116369217634201,0,0,0
8537,356104.7555320597,2011-01-22 16:13:18,58.077150513973294,4,42,0.5887669920921326,4.199653148651123,26.289730355057603,25.794308072339405,107.26198291420133,90.71730467678242,-3.23295607813634e-05,0.1116369217634201,0,0,0
8538,356134.4426859517,2011-01-22 16:13:47,87.76430438593108,4,42,0.5387382507324219,4.199814796447754,26.294360401481956,25.794308072339405,107.28142837526023,90.71730467678242,0.0,0.1116369217634201,0,0,0
8539,356193.0979330603,2011-01-22 16:14:46,146.41955150451895,4,42,0.4887094497680664,4.199814796447754,26.302686199856904,25.794308072339405,107.31639527929713,90.71730467678242,0.0,0.1116369217634201,0,0,0
8540,356300.8459895603,2011-01-22 16:16:34,254.16760801960268,4,42,0.4386806786060333,4.199653148651123,26.316515504223368,25.794308072339405,107.374476087013,90.71730467678242,-3.23295607813634e-05,0.1116369217634201,0,0,0
8541,356446.67165922857,2011-01-22 16:19:00,399.9932776627903,4,42,0.3886519074440002,4.199814796447754,26.33324401824088,25.794308072339405,107.44473327434947,90.71730467678242,-3.24249267578125e-05,0.1116369217634201,0,0,0
8542,356623.4811030956,2011-01-22 16:21:56,576.8027215298127,4,42,0.3386231362819671,4.199814796447754,26.351082039923178,25.794308072339405,107.5196501697556,90.71730467678242,0.0,0.1116369217634201,0,0,0
8543,356837.4619615151,2011-01-22 16:25:30,790.7835799793331,4,42,0.2885943949222564,4.199653148651123,26.369698968693807,25.794308072339405,107.59783838277365,90.71730467678242,-3.23295607813634e-05,0.1116369217634201,0,0,0
8544,357100.0203200366,2011-01-22 16:29:53,1053.3419384809065,4,42,0.2385656088590622,4.199814796447754,26.38888646639248,25.794308072339405,107.67842272740222,90.71730467678242,0.0,0.1116369217634201,0,0,0
8545,357434.9988300489,2011-01-22 16:35:28,1388.3204485132176,4,42,0.1883562356233596,4.199653148651123,26.408684198995932,25.794308072339405,107.76156977754016,90.71730467678242,-3.23295607813634e-05,0.1116369217634201,0,0,0
8546,357890.3996375445,2011-01-22 16:43:03,1843.7212561140843,4,42,0.1383274644613266,4.199814796447754,26.429223084897657,25.794308072339405,107.8478293114966,90.71730467678242,0.0,0.1116369217634201,0,0,0
8547,358603.6667914789,2011-01-22 16:54:57,2556.988409923193,4,42,0.0882986932992935,4.199814796447754,26.45131590878518,25.794308072339405,107.94061553843817,90.71730467678242,0.0,0.1116369217634201,0,0,0
8548,359636.3526506445,2011-01-22 17:12:09,3589.6742691037666,4,42,0.0498289167881011,4.199814796447754,26.470540956211693,25.794308072339405,108.02135753255912,90.71730467678242,0.0,0.1116369217634201,0,0,0
8549,359666.3781025266,2011-01-22 17:12:40,30.015129468058856,5,42,0.0,4.1896162033081055,26.470540956211693,25.794308072339405,108.02135753255912,90.71730467678242,-6.47544875391759e-05,0.1116369217634201,0,0,0
8550,359696.37764807977,2011-01-22 17:13:10,60.01467501118172,5,42,0.0,4.187997341156006,26.470540956211693,25.794308072339405,108.02135753255912,90.71730467678242,-3.24249267578125e-05,0.1116369217634201,0,0,0
8551,359696.5607295,2011-01-22 17:13:10,0.187438845275918,6,42,-1.9243103452026844e-05,4.187997341156006,26.470540956211693,25.794308073341323,108.02135753255912,90.71730468097844,0.0,0.1124458834528923,0,0,0
8552,359701.38899665733,2011-01-22 17:13:15,5.01570599262778,6,42,0.0007031940040178,4.187997341156006,26.47054210384808,25.79430807342577,108.02136233892548,90.71730468133214,0.0,0.1124458834528923,0,0,0
8553,359715.60318377404,2011-01-22 17:13:29,14.203034958280638,7,42,-1.0993878841400146,3.987906694412232,26.47054210384808,25.79864579834477,108.02136233892548,90.73468482825076,-0.0019102096557617,0.1124458834528923,0,0,0
8554,359745.61817428574,2011-01-22 17:13:59,44.218025485055065,7,42,-1.099568486213684,3.930275201797485,26.47054210384808,25.80781259613914,108.02136233892548,90.77096796004928,-0.0014245987404137,0.1124458834528923,0,0,0
8555,359775.63328367885,2011-01-22 17:14:29,74.23313488309326,7,42,-1.099568486213684,3.8838140964508057,26.47054210384808,25.81697938036216,108.02136233892548,90.80677782917846,-0.0011655807029455,0.1124458834528923,0,0,0
8556,359805.6484030617,2011-01-22 17:14:59,104.24825426100436,7,42,-1.099568486213684,3.846580266952514,26.47054210384808,25.826146111117165,108.02136233892548,90.8422038094333,-0.0009065627818927,0.1124458834528923,0,0,0
8557,359835.6635290411,2011-01-22 17:15:29,134.26338024036832,7,42,-1.099568486213684,3.817117214202881,26.47054210384808,25.83531285197986,108.02136233892548,90.8773255579653,-0.0007446765666827,0.1124458834528923,0,0,0
8558,359865.6786902332,2011-01-22 17:15:59,164.27854142246832,7,42,-1.0992072820663452,3.7934818267822266,26.47054210384808,25.844479615516505,108.02136233892548,90.91220403591696,-0.0005504131549969,0.1124458834528923,0,0,0
8559,359895.69403336884,2011-01-22 17:16:29,194.2938845630649,7,42,-1.0993878841400146,3.773246049880981,26.47054210384808,25.85364643236624,108.02136233892548,90.94688317568176,-0.0005504131549969,0.1124458834528923,0,0,0
8560,359925.70892140013,2011-01-22 17:16:59,224.3087725994016,7,42,-1.0993878841400146,3.755924224853516,26.47054210384808,25.862813123920727,108.02136233892548,90.9813906378872,-0.0004532813909463,0.1124458834528923,0,0,0
8561,359955.72405108373,2011-01-22 17:17:29,254.3239022829976,7,42,-1.0993878841400146,3.740059614181519,26.47054210384808,25.871979962337768,108.02136233892548,91.01574653753632,-0.0003885269106831,0.1124458834528923,0,0,0
8562,359985.73916773987,2011-01-22 17:17:59,284.3390189391252,7,42,-1.0993878841400146,3.725813627243042,26.47054210384808,25.88114672235353,108.02136233892548,91.04996386517706,-0.0003237724304199,0.1124458834528923,0,0,0
8563,360015.7545152914,2011-01-22 17:18:29,314.3543664756778,7,42,-1.099568486213684,3.712215185165405,26.47054210384808,25.89031363237712,108.02136233892548,91.08405403348269,-0.0003237724304199,0.1124458834528923,0,0,0
8564,360045.7694063203,2011-01-22 17:18:59,344.36925751951014,7,42,-1.0993878841400146,3.6994261741638175,26.47054210384808,25.89948032400994,108.02136233892548,91.1180236598687,-0.0003237724304199,0.1124458834528923,0,0,0
8565,360075.78466148657,2011-01-22 17:19:29,374.3845126708103,7,42,-1.099568486213684,3.687446594238281,26.47054210384808,25.908647181142985,108.02136233892548,91.15187992938893,-0.0002913951757363,0.1124458834528923,0,0,0
8566,360105.7996692212,2011-01-22 17:19:59,404.3995204255221,7,42,-1.099568486213684,3.675790786743164,26.47054210384808,25.917813952894303,108.02136233892548,91.18562754861834,-0.0002913951757363,0.1124458834528923,0,0,0
8567,360135.81494784605,2011-01-22 17:20:29,434.4147990403004,7,42,-1.0992072820663452,3.664944648742676,26.47054210384808,25.92698074408628,108.02136233892548,91.21927217401476,-0.0002590179501567,0.1124458834528923,0,0,0
8568,360165.8299289844,2011-01-22 17:20:59,464.42978018870105,7,42,-1.0993878841400146,3.6542601585388175,26.47054210384808,25.93614750336678,108.02136233892548,91.25281819617216,-0.0002913951757363,0.1124458834528923,0,0,0
8569,360195.84504672827,2011-01-22 17:21:29,494.4448979275271,7,42,-1.0993878841400146,3.644061326980591,26.47054210384808,25.94531430372179,108.02136233892548,91.28626887841804,-0.0002266406954731,0.1124458834528923,0,0,0
8570,360225.86017965,2011-01-22 17:21:59,524.4600308491933,7,42,-1.099568486213684,3.6338624954223633,26.47054210384808,25.95448110922992,108.02136233892548,91.31962665447374,-0.0003237724304199,0.1124458834528923,0,0,0
8571,360255.87529557926,2011-01-22 17:22:29,554.4751467785095,7,42,-1.099568486213684,3.624311208724976,26.47054210384808,25.963647987929665,108.02136233892548,91.3528953824577,-0.0002590179501567,0.1124458834528923,0,0,0
8572,360285.8905475075,2011-01-22 17:22:59,584.4903986917394,7,42,-1.0993878841400146,3.615083694458008,26.47054210384808,25.97281481441924,108.02136233892548,91.38607699300472,-0.0002590179501567,0.1124458834528923,0,0,0
8573,360315.9056813064,2011-01-22 17:23:29,614.505532510642,7,42,-1.099568486213684,3.60601806640625,26.47054210384808,25.98198164187052,108.02136233892548,91.41917424768944,-0.0002590179501567,0.1124458834528923,0,0,0
8574,360345.9230447271,2011-01-22 17:23:59,644.5228959263858,7,42,-1.0993878841400146,3.596952438354492,26.47054210384808,25.99114911616187,108.02136233892548,91.45219135316124,-0.0002913951757363,0.1124458834528923,0,0,0
8575,360375.9359566585,2011-01-22 17:24:29,674.5358078426232,7,42,-1.099568486213684,3.5885345935821533,26.47054210384808,26.00031526999371,108.02136233892548,91.48512390452096,-0.0002266406954731,0.1124458834528923,0,0,0
8576,360405.9509337316,2011-01-22 17:24:59,704.5507849309048,7,42,-1.0992072820663452,3.5802783966064453,26.47054210384808,26.00948202356399,108.02136233892548,91.51798086076153,-0.0001942634553415,0.1124458834528923,0,0,0
8577,360435.9660576258,2011-01-22 17:25:29,734.5659088200592,7,42,-1.099568486213684,3.5721840858459477,26.47054210384808,26.018648910875864,108.02136233892548,91.55076280901665,-0.0001942634553415,0.1124458834528923,0,0,0
8578,360465.9811962517,2011-01-22 17:25:59,764.5810474559672,7,42,-1.099568486213684,3.564413547515869,26.47054210384808,26.027815799539475,108.02136233892548,91.58347202464964,-0.0001618862152099,0.1124458834528923,0,0,0
8579,360495.9964367314,2011-01-22 17:26:29,794.5962879306888,7,42,-1.0993878841400146,3.556643009185791,26.47054210384808,26.036982632350146,108.02136233892548,91.61611042924392,-0.0002590179501567,0.1124458834528923,0,0,0
8580,360526.0114539146,2011-01-22 17:26:59,824.6113051138993,7,42,-1.099568486213684,3.5493581295013428,26.47054210384808,26.046149442818567,108.02136233892548,91.6486797911201,-0.0001618862152099,0.1124458834528923,0,0,0
8581,360556.02671238926,2011-01-22 17:27:29,854.626563568432,7,42,-1.099568486213684,3.5422351360321045,26.47054210384808,26.055316318577702,108.02136233892548,91.68118261530748,-0.0001618862152099,0.1124458834528923,0,0,0
8582,360586.0417228858,2011-01-22 17:27:59,884.6415740599649,7,42,-1.0993878841400146,3.535274028778076,26.47054210384808,26.064483193068632,108.02136233892548,91.71362132226582,-0.0001618862152099,0.1124458834528923,0,0,0
8583,360616.05682389287,2011-01-22 17:28:29,914.6566750921528,7,42,-1.099568486213684,3.528474807739258,26.47054210384808,26.073650126815178,108.02136233892548,91.74599721728694,-0.0001942634553415,0.1124458834528923,0,0,0
8584,360646.0741575244,2011-01-22 17:28:59,944.6740087988528,7,42,-1.0993878841400146,3.5218374729156494,26.47054210384808,26.082817704232024,108.02136233892548,91.77831439058367,-0.0001942634553415,0.1124458834528923,0,0,0
8585,360676.0872046576,2011-01-22 17:29:29,974.6870558418676,7,42,-1.0993878841400146,3.515685796737671,26.47054210384808,26.09198398906865,108.02136233892548,91.81056862752828,-0.0001942634553415,0.1124458834528923,0,0,0
8586,360706.1022112645,2011-01-22 17:29:59,1004.702062463756,7,42,-1.0993878841400146,3.509696245193481,26.47054210384808,26.101150860261452,108.02136233892548,91.84276871114544,-0.0001295089750783,0.1124458834528923,0,0,0
8587,360736.1173444067,2011-01-22 17:30:29,1034.717195605972,7,42,-1.099568486213684,3.503706455230713,26.47054210384808,26.11031774799918,108.02136233892548,91.87491375307638,-0.0001618862152099,0.1124458834528923,0,0,0
8588,360766.1325246964,2011-01-22 17:30:59,1064.7323758956938,7,42,-1.0993878841400146,3.4978785514831543,26.47054210384808,26.119484676553917,108.02136233892548,91.90700498940096,-0.0001618862152099,0.1124458834528923,0,0,0
8589,360796.1475925258,2011-01-22 17:31:29,1094.7474437151052,7,42,-1.099568486213684,3.492050647735596,26.47054210384808,26.12865161129499,108.02136233892548,91.93904376386348,-0.0001618862152099,0.1124458834528923,0,0,0
8590,360826.1627242997,2011-01-22 17:32:00,1124.7625754989358,7,42,-1.0993878841400146,3.486546516418457,26.47054210384808,26.13781845219357,108.02136233892548,91.9710304096458,-0.0001618862152099,0.1124458834528923,0,0,0
8591,360856.17786598817,2011-01-22 17:32:30,1154.7777171874518,7,42,-1.099568486213684,3.4810423851013184,26.47054210384808,26.146985345372915,108.02136233892548,92.00296609889403,-0.0001295089750783,0.1124458834528923,0,0,0
8592,360886.1929598274,2011-01-22 17:33:00,1184.7928110116752,7,42,-1.099568486213684,3.4753763675689697,26.47054210384808,26.156152166097563,108.02136233892548,92.03485007947752,-0.0001942634553415,0.1124458834528923,0,0,0
8593,360916.208218693,2011-01-22 17:33:30,1214.80806989227,7,42,-1.0992072820663452,3.470034122467041,26.47054210384808,26.16531909398649,108.02136233892548,92.06668456370456,-0.0001618862152099,0.1124458834528923,0,0,0
8594,360946.223238227,2011-01-22 17:34:00,1244.8230895065392,7,42,-1.0993878841400146,3.4645299911499023,26.47054210384808,26.17448591190317,108.02136233892548,92.09846837608464,-0.0001295089750783,0.1124458834528923,0,0,0
8595,360976.2384965513,2011-01-22 17:34:30,1274.83834773551,7,42,-1.099568486213684,3.459025859832764,26.47054210384808,26.18365280444361,108.02136233892548,92.13020120379034,-9.713172767078504e-05,0.1124458834528923,0,0,0
8596,361006.25346545415,2011-01-22 17:35:00,1304.8533166534287,7,42,-1.099568486213684,3.453359842300415,26.47054210384808,26.19281962134864,108.02136233892548,92.1618828872702,-0.0001295089750783,0.1124458834528923,0,0,0
8597,361036.2691387076,2011-01-22 17:35:30,1334.8689898867176,7,42,-1.099568486213684,3.4470462799072266,26.47054210384808,26.20198664309167,108.02136233892548,92.19351146382664,-0.0002266406954731,0.1124458834528923,0,0,0
8598,361066.2837325106,2011-01-22 17:36:00,1364.8835836997594,7,42,-1.0993878841400146,3.440894603729248,26.47054210384808,26.211153386290523,108.02136233892548,92.22508248654196,-0.0001942634553415,0.1124458834528923,0,0,0
8599,361096.2989847395,2011-01-22 17:36:30,1394.8988359388013,7,42,-1.0993878841400146,3.4344191551208496,26.47054210384808,26.22032034620132,108.02136233892548,92.25659561386968,-0.0001942634553415,0.1124458834528923,0,0,0
8600,361126.3139769806,2011-01-22 17:37:00,1424.9138281798482,7,42,-1.099568486213684,3.4276201725006104,26.47054210384808,26.229487239102063,108.02136233892548,92.28804792852618,-0.0001942634553415,0.1124458834528923,0,0,0
8601,361156.3292271746,2011-01-22 17:37:30,1454.9290783587558,7,42,-1.099568486213684,3.420497179031372,26.47054210384808,26.23865423948557,108.02136233892548,92.31943663254832,-0.0001942634553415,0.1124458834528923,0,0,0
8602,361186.3442518514,2011-01-22 17:38:00,1484.94410305068,7,42,-1.0997490882873535,3.412726640701294,26.47054210384808,26.247821106668727,108.02136233892548,92.35075724388022,-0.0002590179501567,0.1124458834528923,0,0,0
8603,361216.35935681337,2011-01-22 17:38:30,1514.9592080126624,7,42,-1.0993878841400146,3.404794216156006,26.47054210384808,26.25698797529503,108.02136233892548,92.38200505085275,-0.0001942634553415,0.1124458834528923,0,0,0
8604,361246.3744892288,2011-01-22 17:39:00,1544.9743404330793,7,42,-1.099568486213684,3.395890474319458,26.47054210384808,26.266154899452037,108.02136233892548,92.41317477245832,-0.0002590179501567,0.1124458834528923,0,0,0
8605,361276.38961201016,2011-01-22 17:39:30,1574.9894631894106,7,42,-1.0993878841400146,3.3863391876220703,26.47054210384808,26.275321765916058,108.02136233892548,92.44426135341187,-0.0002266406954731,0.1124458834528923,0,0,0
8606,361306.4049598124,2011-01-22 17:40:00,1605.0048110016503,7,42,-1.0993878841400146,3.375978469848633,26.47054210384808,26.28448876417941,108.02136233892548,92.47525680162909,-0.0002590179501567,0.1124458834528923,0,0,0
8607,361336.4198721143,2011-01-22 17:40:30,1635.0197233134893,7,42,-1.099568486213684,3.364322662353516,26.47054210384808,26.29365560025058,108.02136233892548,92.50615114761897,-0.0003237724304199,0.1124458834528923,0,0,0
8608,361366.43501464487,2011-01-22 17:41:00,1665.0348658340788,7,42,-1.0997490882873535,3.351047992706299,26.47054210384808,26.30282254621427,108.02136233892548,92.5369327083108,-0.0003885269106831,0.1124458834528923,0,0,0
8609,361396.45014462416,2011-01-22 17:41:30,1695.049995813412,7,42,-1.0993878841400146,3.3363165855407715,26.47054210384808,26.311989458304808,108.02136233892548,92.5675857430182,-0.0004209041653666,0.1124458834528923,0,0,0
8610,361426.465262368,2011-01-22 17:42:00,1725.0651135722878,7,42,-1.0993878841400146,3.3189947605133057,26.47054210384808,26.32115635923405,108.02136233892548,92.59809221246876,-0.0005180359003134,0.1124458834528923,0,0,0
8611,361456.4803952596,2011-01-22 17:42:30,1755.0802464488415,7,42,-1.099568486213684,3.2979495525360107,26.47054210384808,26.330323232882343,108.02136233892548,92.6284229890114,-0.0005827903514727,0.1124458834528923,0,0,0
8612,361486.4955014948,2011-01-22 17:43:00,1785.0953526990347,7,42,-1.0993878841400146,3.272533416748047,26.47054210384808,26.339490138129538,108.02136233892548,92.65854211894889,-0.0007122993702068,0.1124458834528923,0,0,0
8613,361516.5107176538,2011-01-22 17:43:30,1815.110568938354,7,42,-1.0993878841400146,3.240642070770264,26.47054210384808,26.3486570818804,108.02136233892548,92.68839959630787,-0.0009389400365762,0.1124458834528923,0,0,0
8614,361546.52578127786,2011-01-22 17:44:00,1845.1256324720844,7,42,-1.099568486213684,3.199361085891724,26.47054210384808,26.35782400303255,108.02136233892548,92.71792572752987,-0.0012627125252038,0.1124458834528923,0,0,0
8615,361576.54088999407,2011-01-22 17:44:30,1875.140741173385,7,42,-1.099568486213684,3.144967555999756,26.47054210384808,26.366990925239964,108.02136233892548,92.74701735484469,-0.0016512393485754,0.1124458834528923,0,0,0
8616,361606.5560607903,2011-01-22 17:45:00,1905.1559119594224,7,42,-1.0993878841400146,3.069366931915283,26.47054210384808,26.376157869071378,108.02136233892548,92.77552065996085,-0.0023311614058911,0.1124458834528923,0,0,0
8617,361636.5712727489,2011-01-22 17:45:30,1935.171123948148,7,42,-1.0993878841400146,2.958151340484619,26.47054210384808,26.38532488385232,108.02136233892548,92.80318235082554,-0.0034967423416674,0.1124458834528923,0,0,0
8618,361666.58627205255,2011-01-22 17:46:00,1965.1861232517967,7,42,-1.099568486213684,2.7925422191619877,26.47054210384808,26.39449185605584,108.02136233892548,92.82958302871468,-0.0049860952422022,0.1124458834528923,0,0,0
8619,361680.3361759388,2011-01-22 17:46:14,1978.9360271029336,7,42,-1.0993878841400146,2.699781894683838,26.47054210384808,26.39869124431329,108.02136233892548,92.8411176453009,-0.0056012151762843,0.1124458834528923,0,0,0
8620,361740.3480461465,2011-01-22 17:47:14,60.01462482109257,8,42,0.0,3.610227108001709,26.47054210384808,26.39869124431329,108.02136233892548,92.8411176453009,0.0013598442310467,0.1124458834528923,0,0,0
8621,361740.53409324697,2011-01-22 17:47:14,0.187741269008915,9,42,0.0001613661734154,3.610712766647339,26.470542112263388,26.39869124431329,108.02136236931072,92.8411176453009,0.0,0.108498990535736,0,0,0
8622,361745.3618898216,2011-01-22 17:47:19,5.015537853573521,9,42,0.0008838032954372,3.618483304977417,26.470543196407817,26.39869124431329,108.02136628871128,92.8411176453009,0.0011979580158367,0.108498990535736,0,0,0
