Data_Point,Test_Time(s),Date_Time,Step_Time(s),Step_Index,Cycle_Index,Current(A),Voltage(V),Charge_Capacity(Ah),Discharge_Capacity(Ah),Charge_Energy(Wh),Discharge_Energy(Wh),dV/dt(V/s),Internal_Resistance(Ohm),Is_FC_Data,AC_Impedance(Ohm),ACI_Phase_Angle(Deg)
5543,230303.3174755876,2011-01-21 05:16:18,30.01507468652641,1,27,0.0,3.656364679336548,16.99538543244678,16.938380123707194,69.28074003693276,59.73938127406655,0.0006799221155233,0.1085970923304557,0,0,0
5544,230333.3330795332,2011-01-21 05:16:48,60.030678612079335,1,27,0.0,3.675143241882324,16.99538543244678,16.938380123707194,69.28074003693276,59.73938127406655,0.0003885269106831,0.1085970923304557,0,0,0
5545,230363.34771731583,2011-01-21 05:17:18,90.04531640974427,1,27,0.0,3.688579797744751,16.99538543244678,16.938380123707194,69.28074003693276,59.73938127406655,0.0002913951757363,0.1085970923304557,0,0,0
5546,230393.31608004172,2011-01-21 05:17:48,120.01367914070453,1,27,0.0,3.698454856872559,16.99538543244678,16.938380123707194,69.28074003693276,59.73938127406655,0.0002266406954731,0.1085970923304557,0,0,0
5547,230423.32898911412,2011-01-21 05:18:18,30.01510361863413,2,27,0.5501165986061096,3.8185741901397705,16.999972622683085,16.938380123707194,69.29817304923152,59.73938127406655,0.0007122993702068,0.1085970923304557,0,0,0
5548,230453.34409724904,2011-01-21 05:18:48,60.03021172846172,2,27,0.550297200679779,3.839133501052856,17.0045598375429,16.938380123707194,69.31574083467501,59.73938127406655,0.0004209041653666,0.1085970923304557,0,0,0
5549,230483.3592103764,2011-01-21 05:19:18,90.04532488085691,2,27,0.5501165986061096,3.853217601776123,17.00914706114092,16.938380123707194,69.33338532560494,59.73938127406655,0.0003561496851034,0.1085970923304557,0,0,0
5550,230513.37447145747,2011-01-21 05:19:48,120.0605859669484,2,27,0.5499359965324402,3.8643877506256095,17.01373428529244,16.938380123707194,69.35108696370258,59.73938127406655,0.0002913951757363,0.1085970923304557,0,0,0
5551,230543.38943390927,2011-01-21 05:20:18,150.0755483987014,2,27,0.550297200679779,3.873939037322998,17.018321496038183,16.938380123707194,69.36883598831541,59.73938127406655,0.0002590179501567,0.1085970923304557,0,0,0
5552,230573.4046682888,2011-01-21 05:20:48,180.0907827782319,2,27,0.550297200679779,3.882519006729126,17.0229087405996,16.938380123707194,69.38662665630017,59.73938127406655,0.0002266406954731,0.1085970923304557,0,0,0
5553,230603.41977275457,2011-01-21 05:21:18,210.10588726402727,2,27,0.550297200679779,3.890451431274414,17.02749591708454,16.938380123707194,69.40445466982293,59.73938127406655,0.0002590179501567,0.1085970923304557,0,0,0
5554,230633.43478882496,2011-01-21 05:21:48,240.12090332945183,2,27,0.5501165986061096,3.897574424743652,17.032083087341768,16.938380123707194,69.42231683009385,59.73938127406655,0.0002266406954731,0.1085970923304557,0,0,0
5555,230663.43817497007,2011-01-21 05:22:18,270.1242895747864,2,27,0.550297200679779,3.9042117595672607,17.03666849122104,16.938380123707194,69.44020375226148,59.73938127406655,0.0001942634553415,0.1085970923304557,0,0,0
5556,230693.44970428044,2011-01-21 05:22:48,300.13581886509456,2,27,0.5501165986061096,3.910687208175659,17.041255145904696,16.938380123707194,69.45812567087212,59.73938127406655,0.0001618862152099,0.1085970923304557,0,0,0
5557,230723.46447786657,2011-01-21 05:23:18,330.1505923559487,2,27,0.5501165986061096,3.9166767597198486,17.045842259949254,16.938380123707194,69.4760777915134,59.73938127406655,0.0001942634553415,0.1085970923304557,0,0,0
5558,230753.479709414,2011-01-21 05:23:48,360.1658239184584,2,27,0.550297200679779,3.922342777252197,17.050429436481437,16.938380123707194,69.49405727154158,59.73938127406655,0.0001295089750783,0.1085970923304557,0,0,0
5559,230783.49469523405,2011-01-21 05:24:18,390.18080974351466,2,27,0.550297200679779,3.927846908569336,17.05501651316189,16.938380123707194,69.51206235470194,59.73938127406655,0.0001618862152099,0.1085970923304557,0,0,0
5560,230813.5100051468,2011-01-21 05:24:48,420.19611963624726,2,27,0.550297200679779,3.9331891536712646,17.059603684900715,16.938380123707194,69.53009264655276,59.73938127406655,6.47544875391759e-05,0.1085970923304557,0,0,0
5561,230843.52515573756,2011-01-21 05:25:18,450.21127041742494,2,27,0.550297200679779,3.938369512557984,17.064190877329402,16.938380123707194,69.54814679607672,59.73938127406655,0.0001618862152099,0.1085970923304557,0,0,0
5562,230873.5400295584,2011-01-21 05:25:48,480.2261440628952,2,27,0.5501165986061096,3.943226099014282,17.06877802782775,16.938380123707194,69.56622355236375,59.73938127406655,0.0001295089750783,0.1085970923304557,0,0,0
5563,230903.5553259926,2011-01-21 05:26:18,510.24144055723497,2,27,0.5501165986061096,3.947597026824951,17.07336522452142,16.938380123707194,69.58432218255099,59.73938127406655,6.47544875391759e-05,0.1085970923304557,0,0,0
5564,230933.5703681681,2011-01-21 05:26:48,540.2564826775965,2,27,0.550297200679779,3.95196795463562,17.07795235719087,16.938380123707194,69.60244122758942,59.73938127406655,9.713172767078504e-05,0.1085970923304557,0,0,0
5565,230963.5854889746,2011-01-21 05:27:18,570.2716034590055,2,27,0.550297200679779,3.956338882446289,17.082539569822295,16.938380123707194,69.62058054908286,59.73938127406655,6.47544875391759e-05,0.1085970923304557,0,0,0
5566,230993.60045783737,2011-01-21 05:27:48,600.286572356874,2,27,0.5501165986061096,3.960547924041748,17.087126766070654,16.938380123707194,69.63873900860416,59.73938127406655,0.0001295089750783,0.1085970923304557,0,0,0
5567,231023.61561434783,2011-01-21 05:28:18,630.3017288522934,2,27,0.550297200679779,3.964433193206787,17.09171396223677,16.938380123707194,69.65691595808566,59.73938127406655,9.713172767078504e-05,0.1085970923304557,0,0,0
5568,231053.6306786184,2011-01-21 05:28:48,660.3167931378975,2,27,0.550297200679779,3.968318462371826,17.09630124714336,16.938380123707194,69.67511103607158,59.73938127406655,9.713172767078504e-05,0.1085970923304557,0,0,0
5569,231083.6458228232,2011-01-21 05:29:18,690.3319373276473,2,27,0.550297200679779,3.9720418453216553,17.100888458409372,16.938380123707194,69.6933229882575,59.73938127406655,9.713172767078504e-05,0.1085970923304557,0,0,0
5570,231113.6610362856,2011-01-21 05:29:48,720.3471507900459,2,27,0.5501165986061096,3.9756033420562735,17.105475719846574,16.938380123707194,69.71155188883876,59.73938127406655,9.713172767078504e-05,0.1085970923304557,0,0,0
5571,231143.6783905836,2011-01-21 05:30:18,750.3645050980906,2,27,0.5501165986061096,3.9791648387908936,17.110063280704015,16.938380123707194,69.72979817135824,59.73938127406655,9.713172767078504e-05,0.1085970923304557,0,0,0
5572,231173.69113198988,2011-01-21 05:30:48,780.3772464742898,2,27,0.5499359965324402,3.982564449310303,17.114650066947192,16.938380123707194,69.74805773749219,59.73938127406655,6.47544875391759e-05,0.1085970923304557,0,0,0
5573,231203.706257468,2011-01-21 05:31:18,810.3923719724545,2,27,0.550297200679779,3.986125946044922,17.119237197143796,16.938380123707194,69.76633425702715,59.73938127406655,0.0001295089750783,0.1085970923304557,0,0,0
5574,231233.7214776822,2011-01-21 05:31:48,840.4075921967057,2,27,0.550297200679779,3.989363670349121,17.12382438487915,16.938380123707194,69.78462631509747,59.73938127406655,9.713172767078504e-05,0.1085970923304557,0,0,0
5575,231263.73648652964,2011-01-21 05:32:18,870.4226010491533,2,27,0.550297200679779,3.99260139465332,17.128411453515678,16.938380123707194,69.80293302825632,59.73938127406655,0.0001295089750783,0.1085970923304557,0,0,0
5576,231293.751716418,2011-01-21 05:32:48,900.4378310327277,2,27,0.5501165986061096,3.995838880538941,17.132998577985436,16.938380123707194,69.82125476584925,59.73938127406655,9.713172767078504e-05,0.1085970923304557,0,0,0
5577,231323.7666891003,2011-01-21 05:33:18,930.4528036147784,2,27,0.5501165986061096,3.99875283241272,17.137585683770677,16.938380123707194,69.83959103602253,59.73938127406655,6.47544875391759e-05,0.1085970923304557,0,0,0
5578,231353.781784729,2011-01-21 05:33:48,960.4678992434992,2,27,0.5501165986061096,4.002152442932129,17.142172728902036,16.938380123707194,69.85794144396979,59.73938127406655,9.70840483205393e-05,0.1085970923304557,0,0,0
5579,231383.79692547012,2011-01-21 05:34:18,990.4830399896664,2,27,0.5501165986061096,4.005066394805908,17.146759828553552,16.938380123707194,69.8763064320113,59.73938127406655,6.47544875391759e-05,0.1085970923304557,0,0,0
5580,231413.8120186829,2011-01-21 05:34:48,1020.4981331873284,2,27,0.5501165986061096,4.007980346679688,17.151346979621028,16.938380123707194,69.89468571478965,59.73938127406655,6.47544875391759e-05,0.1085970923304557,0,0,0
5581,231443.82936645963,2011-01-21 05:35:18,1050.5154809590829,2,27,0.5501165986061096,4.011380195617676,17.15593444992633,16.938380123707194,69.91308015465712,59.73938127406655,0.0001295089750783,0.1085970923304557,0,0,0
5582,231473.8422477796,2011-01-21 05:35:48,1080.5283622840773,2,27,0.5501165986061096,4.014294147491455,17.16052124613068,16.938380123707194,69.93148578886498,59.73938127406655,9.71794142969884e-05,0.1085970923304557,0,0,0
5583,231503.85737823017,2011-01-21 05:36:18,1110.543492729572,2,27,0.5501165986061096,4.017045974731445,17.165108400355262,16.938380123707194,69.94990647689963,59.73938127406655,6.47544875391759e-05,0.1085970923304557,0,0,0
5584,231533.8725984243,2011-01-21 05:36:48,1140.5587129137234,2,27,0.550297200679779,4.019959926605225,17.16969562042255,16.938380123707194,69.96834088365398,59.73938127406655,6.47544875391759e-05,0.1085970923304557,0,0,0
5585,231563.8875759637,2011-01-21 05:37:18,1170.573690473179,2,27,0.550297200679779,4.023036003112793,17.174282721924694,16.938380123707194,69.9867882581258,59.73938127406655,9.71794142969884e-05,0.1085970923304557,0,0,0
5586,231593.9026885096,2011-01-21 05:37:48,1200.5888030240756,2,27,0.5501165986061096,4.025949954986572,17.178869864617536,16.938380123707194,70.0052490623071,59.73938127406655,0.0001295089750783,0.1085970923304557,0,0,0
5587,231623.91781549144,2011-01-21 05:38:19,1230.6039300009254,2,27,0.5499359965324402,4.028863906860352,17.183456991696755,16.938380123707194,70.0237230879614,59.73938127406655,9.71794142969884e-05,0.1085970923304557,0,0,0
5588,231653.9329089548,2011-01-21 05:38:49,1260.6190234692615,2,27,0.5501165986061096,4.031615734100342,17.18804415431554,16.938380123707194,70.04221036617308,59.73938127406655,6.47544875391759e-05,0.1085970923304557,0,0,0
5589,231683.9480221272,2011-01-21 05:39:19,1290.634136631682,2,27,0.5501165986061096,4.034529685974121,17.19263129655759,16.938380123707194,70.06071063663789,59.73938127406655,9.70840483205393e-05,0.1085970923304557,0,0,0
5590,231713.9631929834,2011-01-21 05:39:49,1320.6493074828802,2,27,0.550297200679779,4.037281513214111,17.197218427797253,16.938380123707194,70.07922375691138,59.73938127406655,9.70840483205393e-05,0.1085970923304557,0,0,0
5591,231743.97824985057,2011-01-21 05:40:19,1350.6643643700452,2,27,0.5501165986061096,4.04003381729126,17.201805530899996,16.938380123707194,70.09774963833983,59.73938127406655,6.47544875391759e-05,0.1085970923304557,0,0,0
5592,231773.99347617,2011-01-21 05:40:49,1380.6795906794628,2,27,0.5499359965324402,4.04278564453125,17.20639266928627,16.938380123707194,70.11628843264961,59.73938127406655,6.47544875391759e-05,0.1085970923304557,0,0,0
5593,231804.00859457545,2011-01-21 05:41:19,1410.6947090598878,2,27,0.550297200679779,4.045699596405029,17.210979852224543,16.938380123707194,70.13484040960762,59.73938127406655,6.47544875391759e-05,0.1085970923304557,0,0,0
5594,231834.02357103216,2011-01-21 05:41:49,1440.70968554667,2,27,0.5501165986061096,4.048451900482178,17.215566986154077,16.938380123707194,70.15340505859962,59.73938127406655,6.47544875391759e-05,0.1085970923304557,0,0,0
5595,231864.03882134132,2011-01-21 05:42:19,1470.7249358559025,2,27,0.550297200679779,4.051365852355957,17.220154148284408,16.938380123707194,70.17198271992591,59.73938127406655,9.71794142969884e-05,0.1085970923304557,0,0,0
5596,231894.0540353301,2011-01-21 05:42:49,1500.740149829575,2,27,0.5501165986061096,4.054279804229736,17.224741252294795,16.938380123707194,70.19057303350135,59.73938127406655,9.71794142969884e-05,0.1085970923304557,0,0,0
5597,231924.06893435385,2011-01-21 05:43:19,1530.7550488633208,2,27,0.550297200679779,4.057193756103516,17.22932837583356,16.938380123707194,70.20917637998765,59.73938127406655,0.0001295089750783,0.1085970923304557,0,0,0
5598,231954.08401725083,2011-01-21 05:43:49,1560.7701317552978,2,27,0.5501165986061096,4.059945583343506,17.233915504482447,16.938380123707194,70.2277927266107,59.73938127406655,0.0001618385285837,0.1085970923304557,0,0,0
5599,231984.09913574657,2011-01-21 05:44:19,1590.7852502359726,2,27,0.5501165986061096,4.062535762786865,17.238502655358005,16.938380123707194,70.24642168420323,59.73938127406655,6.47544875391759e-05,0.1085970923304557,0,0,0
5600,232014.11436542936,2011-01-21 05:44:49,1620.8004799388475,2,27,0.5501165986061096,4.065288066864014,17.243089812294215,16.938380123707194,70.26506361984889,59.73938127406655,3.24249267578125e-05,0.1085970923304557,0,0,0
5601,232044.12936312903,2011-01-21 05:45:19,1650.8154776334866,2,27,0.5501165986061096,4.068202018737793,17.247676910273274,16.938380123707194,70.28371820253822,59.73938127406655,6.47544875391759e-05,0.1085970923304557,0,0,0
5602,232074.1444651988,2011-01-21 05:45:49,1680.8305797032604,2,27,0.550297200679779,4.070953845977783,17.252264103151187,16.938380123707194,70.3023862567794,59.73938127406655,3.23295607813634e-05,0.1085970923304557,0,0,0
5603,232104.15981470025,2011-01-21 05:46:19,1710.8459291996976,2,27,0.5501165986061096,4.0738677978515625,17.256851282147345,16.938380123707194,70.32106719447081,59.73938127406655,6.47544875391759e-05,0.1085970923304557,0,0,0
5604,232134.17483255512,2011-01-21 05:46:49,1740.8609470395447,2,27,0.550297200679779,4.076781749725342,17.26143840708023,16.938380123707194,70.33976102968707,59.73938127406655,6.47544875391759e-05,0.1085970923304557,0,0,0
5605,232164.1897988615,2011-01-21 05:47:19,1770.8759133710173,2,27,0.550297200679779,4.079695701599121,17.266025497643316,16.938380123707194,70.3584679237125,59.73938127406655,6.47544875391759e-05,0.1085970923304557,0,0,0
5606,232194.20490900145,2011-01-21 05:47:49,1800.891023510904,2,27,0.550297200679779,4.0826096534729,17.270612677435047,16.938380123707194,70.37718843140944,59.73938127406655,9.70840483205393e-05,0.1085970923304557,0,0,0
5607,232224.2200390309,2011-01-21 05:48:19,1830.906153540362,2,27,0.5501165986061096,4.08552360534668,17.275199736280832,16.938380123707194,70.3959218652516,59.73938127406655,6.47544875391759e-05,0.1085970923304557,0,0,0
5608,232254.23513390773,2011-01-21 05:48:49,1860.9212485224712,2,27,0.5501165986061096,4.088437557220459,17.27978687266916,16.938380123707194,70.4146690215369,59.73938127406655,9.70840483205393e-05,0.1085970923304557,0,0,0
5609,232284.2500619989,2011-01-21 05:49:19,1890.9361765083747,2,27,0.550297200679779,4.091351509094238,17.28437401136046,16.938380123707194,70.43342966170678,59.73938127406655,9.70840483205393e-05,0.1085970923304557,0,0,0
5610,232314.26530027817,2011-01-21 05:49:49,1920.9514147876248,2,27,0.5499359965324402,4.094265460968018,17.28896118287163,16.938380123707194,70.45220395900535,59.73938127406655,6.47544875391759e-05,0.1085970923304557,0,0,0
5611,232344.28026398807,2011-01-21 05:50:19,1950.966378497563,2,27,0.5501165986061096,4.097179412841797,17.293548299021044,16.938380123707194,70.47099178570117,59.73938127406655,6.47544875391759e-05,0.1085970923304557,0,0,0
5612,232374.29539268423,2011-01-21 05:50:49,1980.981507193698,2,27,0.550297200679779,4.100417137145996,17.29813545816205,16.938380123707194,70.48979364295961,59.73938127406655,9.70840483205393e-05,0.1085970923304557,0,0,0
5613,232404.31049852332,2011-01-21 05:51:19,2010.9966130128169,2,27,0.5501165986061096,4.103331089019775,17.302722619062603,16.938380123707194,70.5086094414903,59.73938127406655,6.47544875391759e-05,0.1085970923304557,0,0,0
5614,232434.32577733864,2011-01-21 05:51:49,2041.0118918481448,2,27,0.5501165986061096,4.106407165527344,17.307309756363455,16.938380123707194,70.52743924619494,59.73938127406655,6.47544875391759e-05,0.1085970923304557,0,0,0
5615,232464.3407792839,2011-01-21 05:52:19,2071.026893793377,2,27,0.5504778623580933,4.109644889831543,17.31189691145283,16.938380123707194,70.5462832699117,59.73938127406655,9.71794142969884e-05,0.1085970923304557,0,0,0
5616,232494.3558763913,2011-01-21 05:52:49,2101.0419909007837,2,27,0.550297200679779,4.112720489501953,17.316484097171262,16.938380123707194,70.5651417409461,59.73938127406655,9.70840483205393e-05,0.1085970923304557,0,0,0
5617,232524.3709827618,2011-01-21 05:53:19,2131.057097271276,2,27,0.550297200679779,4.115796089172363,17.321071219260293,16.938380123707194,70.58401432625094,59.73938127406655,3.23295607813634e-05,0.1085970923304557,0,0,0
5618,232554.3870396964,2011-01-21 05:53:49,2161.073154296092,2,27,0.5501165986061096,4.1190338134765625,17.325658502351924,16.938380123707194,70.60290214417321,59.73938127406655,9.70840483205393e-05,0.1085970923304557,0,0,0
5619,232584.40123409897,2011-01-21 05:54:19,2191.0873486084547,2,27,0.5499359965324402,4.122271537780762,17.33024518143128,16.938380123707194,70.62180214239642,59.73938127406655,0.0001295089750783,0.1085970923304557,0,0,0
5620,232614.41651604205,2011-01-21 05:54:49,2221.102630551529,2,27,0.5499359965324402,4.125509262084961,17.334831693920037,16.938380123707194,70.64071606923522,59.73938127406655,6.47544875391759e-05,0.1085970923304557,0,0,0
5621,232644.43158161087,2011-01-21 05:55:19,2251.1176961905057,2,27,0.5501165986061096,4.12874698638916,17.339418470437614,16.938380123707194,70.6596460624106,59.73938127406655,9.70840483205393e-05,0.1085970923304557,0,0,0
5622,232674.4465682379,2011-01-21 05:55:49,2281.1326827323483,2,27,0.550297200679779,4.131984710693359,17.34400565669868,16.938380123707194,70.67859291537893,59.73938127406655,6.47544875391759e-05,0.1085970923304557,0,0,0
5623,232704.46170304928,2011-01-21 05:56:19,2311.1478175587617,2,27,0.550297200679779,4.135222434997559,17.348592842537123,16.938380123707194,70.69755491413967,59.73938127406655,3.23295607813634e-05,0.1085970923304557,0,0,0
5624,232734.4770104107,2011-01-21 05:56:49,2341.163124920185,2,27,0.550297200679779,4.138783931732178,17.353180046479704,16.938380123707194,70.71653225151961,59.73938127406655,9.70840483205393e-05,0.1085970923304557,0,0,0
5625,232764.4919149181,2011-01-21 05:57:19,2371.178029412536,2,27,0.5501165986061096,4.142021656036377,17.357767223331678,16.938380123707194,70.73552489247648,59.73938127406655,6.47544875391759e-05,0.1085970923304557,0,0,0
5626,232794.5070132536,2011-01-21 05:57:49,2401.1931277580275,2,27,0.550297200679779,4.145745277404785,17.362354354414443,16.938380123707194,70.75453290597093,59.73938127406655,0.0001295089750783,0.1085970923304557,0,0,0
5627,232824.52213487704,2011-01-21 05:58:19,2431.208249386548,2,27,0.550297200679779,4.148983001708984,17.36694143556689,16.938380123707194,70.77355665165058,59.73938127406655,6.47544875391759e-05,0.1085970923304557,0,0,0
5628,232854.5373781187,2011-01-21 05:58:49,2461.2234926281653,2,27,0.550297200679779,4.152544498443604,17.371528551286254,16.938380123707194,70.79259627170053,59.73938127406655,0.0001295089750783,0.1085970923304557,0,0,0
5629,232884.5523782544,2011-01-21 05:59:19,2491.2384927638886,2,27,0.550297200679779,4.155782222747803,17.376115640939258,16.938380123707194,70.81165164384514,59.73938127406655,3.24249267578125e-05,0.1085970923304557,0,0,0
5630,232914.56746130172,2011-01-21 05:59:49,2521.2535758112526,2,27,0.5501165986061096,4.159181594848633,17.380702753933573,16.938380123707194,70.83072305884522,59.73938127406655,6.47544875391759e-05,0.1085970923304557,0,0,0
5631,232944.58257749173,2011-01-21 06:00:19,2551.2686920012184,2,27,0.550297200679779,4.162905216217041,17.38528985387491,16.938380123707194,70.84981052255681,59.73938127406655,9.71794142969884e-05,0.1085970923304557,0,0,0
5632,232974.5977113758,2011-01-21 06:00:49,2581.283825880271,2,27,0.550297200679779,4.16646671295166,17.389877040099122,16.938380123707194,70.86891461272928,59.73938127406655,0.0001295089750783,0.1085970923304557,0,0,0
5633,233004.6128085233,2011-01-21 06:01:19,2611.2989230327894,2,27,0.5501165986061096,4.170028209686279,17.394464178374562,16.938380123707194,70.8880349533264,59.73938127406655,9.71794142969884e-05,0.1085970923304557,0,0,0
5634,233034.627919806,2011-01-21 06:01:49,2641.3140343205373,2,27,0.5501165986061096,4.173589706420898,17.399051322830964,16.938380123707194,70.90717190597107,59.73938127406655,9.71794142969884e-05,0.1085970923304557,0,0,0
5635,233064.64538172228,2011-01-21 06:02:19,2671.3314962317622,2,27,0.5501165986061096,4.177312850952148,17.40363887216436,16.938380123707194,70.92632716224395,59.73938127406655,9.70840483205393e-05,0.1085970923304557,0,0,0
5636,233094.65821022564,2011-01-21 06:02:49,2701.344324800272,2,27,0.550297200679779,4.180874347686768,17.408225653578153,16.938380123707194,70.94549595110695,59.73938127406655,3.23295607813634e-05,0.1085970923304557,0,0,0
5637,233124.67323890748,2011-01-21 06:03:19,2731.359353416978,2,27,0.5501165986061096,4.184759616851807,17.41281277563315,16.938380123707194,70.96468305148454,59.73938127406655,0.0001295089750783,0.1085970923304557,0,0,0
5638,233154.68834513763,2011-01-21 06:03:49,2761.3744596471206,2,27,0.5501165986061096,4.188321113586426,17.41739985956551,16.938380123707194,70.98388703866024,59.73938127406655,9.70840483205393e-05,0.1085970923304557,0,0,0
5639,233184.7034878086,2011-01-21 06:04:19,2791.3896023030475,2,27,0.5501165986061096,4.192044734954834,17.421986976657948,16.938380123707194,71.00310851611215,59.73938127406655,9.71794142969884e-05,0.1085970923304557,0,0,0
5640,233214.7187273159,2011-01-21 06:04:49,2821.4048418053458,2,27,0.5501165986061096,4.196091651916504,17.426574166562812,16.938380123707194,71.02234765452853,59.73938127406655,0.0001295089750783,0.1085970923304557,0,0,0
5641,233244.7336861888,2011-01-21 06:05:19,2851.419800698279,2,27,0.5504778623580933,4.199814796447754,17.43116120284283,16.938380123707194,71.04160360147647,59.73938127406655,6.47544875391759e-05,0.1085970923304557,0,0,0
5642,233245.18682121573,2011-01-21 06:05:20,2851.8729357251923,2,27,0.550297200679779,4.200138568878174,17.431230459316705,16.938380123707194,71.04189446852916,59.73938127406655,0.0001618385285837,0.1085970923304557,0,0,0
5643,233275.2020224805,2011-01-21 06:05:50,30.01519707154755,3,27,0.0,4.090703964233398,17.431230459316705,16.938380123707194,71.04189446852916,59.73938127406655,-0.0004857063177041,0.1085970923304557,0,0,0
5644,233305.21701564887,2011-01-21 06:06:20,60.03019016973071,3,27,0.0,4.076457977294922,17.431230459316705,16.938380123707194,71.04189446852916,59.73938127406655,-0.0003237724304199,0.1085970923304557,0,0,0
5645,233335.23211611464,2011-01-21 06:06:50,90.04529063550696,3,27,0.0,4.067878246307373,17.431230459316705,16.938380123707194,71.04189446852916,59.73938127406655,-0.0001618385285837,0.1085970923304557,0,0,0
5646,233365.20036996424,2011-01-21 06:07:20,120.01354448510132,3,27,0.0,4.0615644454956055,17.431230459316705,16.938380123707194,71.04189446852916,59.73938127406655,-0.0001295089750783,0.1085970923304557,0,0,0
5647,233365.20243652505,2011-01-21 06:07:20,2.556371264e-06,4,27,1.0314403772354126,4.199976921081543,17.431230460049132,16.938380123707194,71.04189447160535,59.73938127406655,0.0,0.1085970923304557,0,0,0
5648,233365.70243843368,2011-01-21 06:07:21,0.5000044950492,4,27,0.980869710445404,4.199976921081543,17.431368943291705,16.938380123707194,71.04247608123892,59.73938127406655,0.0,0.1085970923304557,0,0,0
5649,233367.46799531463,2011-01-21 06:07:22,2.265561396094883,4,27,0.9301185607910156,4.199976921081543,17.431836385640036,16.938380123707194,71.04443926730752,59.73938127406655,0.0,0.1085970923304557,0,0,0
5650,233370.28044142577,2011-01-21 06:07:25,5.07800750717172,4,27,0.8795479536056519,4.199814796447754,17.432542230265078,16.938380123707194,71.04740372687866,59.73938127406655,0.0,0.1085970923304557,0,0,0
5651,233374.1868631857,2011-01-21 06:07:29,8.98442926717357,4,27,0.829338550567627,4.199814796447754,17.433468254696223,16.938380123707194,71.05129291258403,59.73938127406655,-3.24249267578125e-05,0.1085970923304557,0,0,0
5652,233379.37405083844,2011-01-21 06:07:34,14.171616904824331,4,27,0.7793098092079163,4.199814796447754,17.434625686940244,16.938380123707194,71.05615398360237,59.73938127406655,3.23295607813634e-05,0.1085970923304557,0,0,0
5653,233386.12404947195,2011-01-21 06:07:41,20.9216155483667,4,27,0.7289198040962219,4.199653148651123,17.436037992292746,16.938380123707194,71.06208551212056,59.73938127406655,-6.47544875391759e-05,0.1085970923304557,0,0,0
5654,233395.0769181454,2011-01-21 06:07:50,29.874484226842284,4,27,0.6788910031318665,4.199814796447754,17.437786159061208,16.938380123707194,71.06942762119898,59.73938127406655,-3.24249267578125e-05,0.1085970923304557,0,0,0
5655,233407.467307458,2011-01-21 06:08:02,42.26487353943675,4,27,0.6288622617721558,4.200138568878174,17.44003198290502,16.938380123707194,71.07885984213314,59.73938127406655,6.47544875391759e-05,0.1085970923304557,0,0,0
5656,233425.93574251572,2011-01-21 06:08:21,60.73330858215861,4,27,0.5788334608078003,4.199976921081543,17.443120580642905,16.938380123707194,71.09183161572625,59.73938127406655,3.24249267578125e-05,0.1085970923304557,0,0,0
5657,233457.71652474377,2011-01-21 06:08:53,92.51409089037293,4,27,0.5288047194480896,4.199814796447754,17.447988207333413,16.938380123707194,71.1122751545318,59.73938127406655,3.23295607813634e-05,0.1085970923304557,0,0,0
5658,233521.13736125245,2011-01-21 06:09:56,155.93492733389368,4,27,0.4785953462123871,4.199814796447754,17.456814878618644,16.938380123707194,71.14934623330508,59.73938127406655,-3.24249267578125e-05,0.1085970923304557,0,0,0
5659,233631.44786164112,2011-01-21 06:11:46,266.2454277075172,4,27,0.428566575050354,4.199814796447754,17.470672147422395,16.938380123707194,71.20754535008258,59.73938127406655,-6.47544875391759e-05,0.1085970923304557,0,0,0
5660,233776.33601422835,2011-01-21 06:14:11,411.1335803047595,4,27,0.3785378038883209,4.199653148651123,17.486895394803938,16.938380123707194,71.27568133509308,59.73938127406655,-6.47544875391759e-05,0.1085970923304557,0,0,0
5661,233952.27060968897,2011-01-21 06:17:07,587.0681757703816,4,27,0.3285090327262878,4.199814796447754,17.504151615346906,16.938380123707194,71.34815572868483,59.73938127406655,0.0,0.1085970923304557,0,0,0
5662,234164.65751851056,2011-01-21 06:20:40,799.4550845869708,4,27,0.2784802615642547,4.199653148651123,17.52202722842173,16.938380123707194,71.42323143873028,59.73938127406655,0.0,0.1085970923304557,0,0,0
5663,234425.32491058696,2011-01-21 06:25:00,1060.1224766483388,4,27,0.2284514904022216,4.199814796447754,17.540336445504014,16.938380123707194,71.50012822771775,59.73938127406655,0.0,0.1085970923304557,0,0,0
5664,234757.19422298708,2011-01-21 06:30:32,1391.991789068525,4,27,0.1782421171665191,4.199814796447754,17.559020505942204,16.938380123707194,71.57859927836043,59.73938127406655,0.0,0.1085970923304557,0,0,0
5665,235215.4519818496,2011-01-21 06:38:10,1850.2495479410225,4,27,0.128213346004486,4.199814796447754,17.57839212322228,16.938380123707194,71.6599579010402,59.73938127406655,-3.24249267578125e-05,0.1085970923304557,0,0,0
5666,235945.86149868192,2011-01-21 06:50:21,2580.659064743283,4,27,0.078184574842453,4.199814796447754,17.598874619618464,16.938380123707194,71.74598180779186,59.73938127406655,-3.24249267578125e-05,0.1085970923304557,0,0,0
5667,236702.87977213305,2011-01-21 07:02:58,3337.677338214473,4,27,0.0498289167881011,4.199976921081543,17.612114373451615,16.938380123707194,71.80158736302582,59.73938127406655,3.24249267578125e-05,0.1085970923304557,0,0,0
5668,236732.89146518544,2011-01-21 07:03:28,30.0150984407292,5,27,0.0,4.1896162033081055,17.612114373451615,16.938380123707194,71.80158736302582,59.73938127406655,-3.24249267578125e-05,0.1085970923304557,0,0,0
5669,236762.89095642825,2011-01-21 07:03:58,60.01458970858138,5,27,0.0,4.187673568725586,17.612114373451615,16.938380123707194,71.80158736302582,59.73938127406655,-9.71794142969884e-05,0.1085970923304557,0,0,0
5670,236763.0760876172,2011-01-21 07:03:58,0.187404840525618,6,27,-1.9243103452026844e-05,4.187997341156006,17.612114373451615,16.938380124708928,71.80158736302582,59.73938127826182,0.0,0.1118387952446937,0,0,0
5671,236767.9040107471,2011-01-21 07:04:03,5.015327985517752,6,27,0.0008838032954372,4.187673568725586,17.61211557050086,16.93838012487523,71.80159237625195,59.73938127895829,-0.0001295089750783,0.1118387952446937,0,0,0
5672,236781.12035532604,2011-01-21 07:04:16,13.218527046639316,7,27,-1.0992072820663452,3.987582921981812,17.61211557050086,16.942416838798973,71.80159237625195,59.7555496458843,-0.0018778324592858,0.1118387952446937,0,0,0
5673,236811.1377396589,2011-01-21 07:04:46,43.23591137450261,7,27,-1.0993878841400146,3.9293038845062256,17.61211557050086,16.951583625958637,71.80159237625195,59.79182421914943,-0.0014245987404137,0.1118387952446937,0,0,0
5674,236841.15058437263,2011-01-21 07:05:16,73.24875609827569,7,27,-1.099568486213684,3.882680892944336,17.61211557050086,16.96074906674774,71.80159237625195,59.82761855591962,-0.0011655807029455,0.1118387952446937,0,0,0
5675,236871.16576508345,2011-01-21 07:05:46,103.26393689927204,7,27,-1.0992072820663452,3.845608949661255,17.61211557050086,16.969915183320335,71.80159237625195,59.86303108356898,-0.0008418083307333,0.1118387952446937,0,0,0
5676,236901.18078159,2011-01-21 07:06:16,133.27895330053363,7,27,-1.0992072820663452,3.815984010696411,17.61211557050086,16.97908124460571,71.80159237625195,59.89813774858784,-0.0006799221155233,0.1118387952446937,0,0,0
5677,236931.1960086262,2011-01-21 07:06:46,163.29418035179987,7,27,-1.0993878841400146,3.792024850845337,17.61211557050086,16.9882476401595,71.80159237625195,59.93300277782334,-0.0005827903514727,0.1118387952446937,0,0,0
5678,236961.21102991464,2011-01-21 07:07:16,193.30920163522936,7,27,-1.0993878841400146,3.7719509601593018,17.61211557050086,16.99741444429361,71.80159237625195,59.96766871085581,-0.0004532813909463,0.1118387952446937,0,0,0
5679,236991.22615692657,2011-01-21 07:07:47,223.32432865217928,7,27,-1.0993878841400146,3.754467248916626,17.61211557050086,17.006581339250467,71.80159237625195,60.002162627308856,-0.0003885269106831,0.1118387952446937,0,0,0
5680,237021.2412905399,2011-01-21 07:08:17,253.3394622655696,7,27,-1.0997490882873535,3.738440752029419,17.61211557050086,17.015748225416747,71.80159237625195,60.03650472058197,-0.0004209041653666,0.1118387952446937,0,0,0
5681,237051.2563716525,2011-01-21 07:08:47,283.35454337309915,7,27,-1.099568486213684,3.724032878875733,17.61211557050086,17.024914720815538,71.80159237625195,60.070707265041314,-0.0003885269106831,0.1118387952446937,0,0,0
5682,237081.27149908047,2011-01-21 07:09:17,313.36967079104846,7,27,-1.099568486213684,3.7105963230133057,17.61211557050086,17.03408082955224,71.80159237625195,60.1047810024656,-0.0003561496851034,0.1118387952446937,0,0,0
5683,237111.28660321533,2011-01-21 07:09:47,343.3847749410068,7,27,-1.099568486213684,3.6979691982269287,17.61211557050086,17.0432469866549,71.80159237625195,60.13873594423893,-0.0003561496851034,0.1118387952446937,0,0,0
5684,237141.30170159097,2011-01-21 07:10:17,373.3998733165736,7,27,-1.0993878841400146,3.6861515045166016,17.61211557050086,17.05241317314919,71.80159237625195,60.17257857404799,-0.0002913951757363,0.1118387952446937,0,0,0
5685,237171.3168079565,2011-01-21 07:10:47,403.41497968205374,7,27,-1.0993878841400146,3.674495697021485,17.61211557050086,17.06157933335488,71.80159237625195,60.206312799839765,-0.0002913951757363,0.1118387952446937,0,0,0
5686,237201.3319189585,2011-01-21 07:11:17,433.4300906840896,7,27,-1.0993878841400146,3.663649559020996,17.61211557050086,17.070745516057844,71.80159237625195,60.23994436972077,-0.0002913951757363,0.1118387952446937,0,0,0
5687,237231.3470520957,2011-01-21 07:11:47,463.4452238212931,7,27,-1.0993878841400146,3.653288841247559,17.61211557050086,17.07991175143899,71.80159237625195,60.27347725925702,-0.0002266406954731,0.1118387952446937,0,0,0
5688,237261.3622744904,2011-01-21 07:12:17,493.4604462159536,7,27,-1.0993878841400146,3.642766237258911,17.61211557050086,17.08907798742983,71.80159237625195,60.30691442375424,-0.0002913951757363,0.1118387952446937,0,0,0
5689,237291.377254922,2011-01-21 07:12:47,523.4754266425552,7,27,-1.099568486213684,3.632567405700684,17.61211557050086,17.098244081572933,71.80159237625195,60.34025728967985,-0.0002913951757363,0.1118387952446937,0,0,0
5690,237321.3923688914,2011-01-21 07:13:17,553.4905406169993,7,27,-1.099568486213684,3.622854232788086,17.61211557050086,17.107410241164036,71.80159237625195,60.37350962065644,-0.0002590179501567,0.1118387952446937,0,0,0
5691,237351.4074860187,2011-01-21 07:13:47,583.5056577443012,7,27,-1.0993878841400146,3.613464832305908,17.61211557050086,17.116576391352506,71.80159237625195,60.40667407057525,-0.0002590179501567,0.1118387952446937,0,0,0
5692,237381.422584284,2011-01-21 07:14:17,613.5207559945557,7,27,-1.0993878841400146,3.6043992042541504,17.61211557050086,17.12574253908151,71.80159237625195,60.43975344692358,-0.0001942634553415,0.1118387952446937,0,0,0
5693,237411.43774393728,2011-01-21 07:14:47,643.5359156628829,7,27,-1.0993878841400146,3.5953335762023926,17.61211557050086,17.134908676946974,71.80159237625195,60.4727492912309,-0.0002590179501567,0.1118387952446937,0,0,0
5694,237441.45283195705,2011-01-21 07:15:17,673.5510036826398,7,27,-1.0992072820663452,3.586430072784424,17.61211557050086,17.14407483848389,71.80159237625195,60.50566260530801,-0.0002266406954731,0.1118387952446937,0,0,0
5695,237471.46814028083,2011-01-21 07:15:47,703.5663120014498,7,27,-1.0993878841400146,3.577526330947876,17.61211557050086,17.153241077895196,71.80159237625195,60.53849495200837,-0.0002590179501567,0.1118387952446937,0,0,0
5696,237501.4830460113,2011-01-21 07:16:17,733.5812177218606,7,27,-1.0993878841400146,3.569108247756958,17.61211557050086,17.16240724891596,71.80159237625195,60.571248504872926,-0.0002590179501567,0.1118387952446937,0,0,0
5697,237531.49814056235,2011-01-21 07:16:47,763.5963122728955,7,27,-1.099568486213684,3.56117582321167,17.61211557050086,17.17157339607378,71.80159237625195,60.60392672271558,-0.0002266406954731,0.1118387952446937,0,0,0
5698,237561.5132491734,2011-01-21 07:17:17,793.6114208990098,7,27,-1.099568486213684,3.553243398666382,17.61211557050086,17.180739600770607,71.80159237625195,60.63653220458755,-0.0001942634553415,0.1118387952446937,0,0,0
5699,237591.5283781553,2011-01-21 07:17:47,823.6265498658194,7,27,-1.099568486213684,3.5453109741210938,17.61211557050086,17.18990581118901,71.80159237625195,60.66906599745499,-0.0001942634553415,0.1118387952446937,0,0,0
5700,237621.5435976477,2011-01-21 07:18:17,853.6417693582467,7,27,-1.0993878841400146,3.5378642082214355,17.61211557050086,17.199072045864288,71.80159237625195,60.70153018196096,-0.0002266406954731,0.1118387952446937,0,0,0
5701,237651.55859723705,2011-01-21 07:18:47,883.6567689626453,7,27,-1.099568486213684,3.5309031009674072,17.61211557050086,17.208238263976362,71.80159237625195,60.73392761320245,-0.0001942634553415,0.1118387952446937,0,0,0
5702,237681.57369899104,2011-01-21 07:19:17,913.6718707166324,7,27,-1.0993878841400146,3.523780107498169,17.61211557050086,17.217404475254046,71.80159237625195,60.76625971078388,-0.0002266406954731,0.1118387952446937,0,0,0
5703,237711.5888173514,2011-01-21 07:19:47,943.6869890770072,7,27,-1.0993878841400146,3.5171427726745605,17.61211557050086,17.226570694811073,71.80159237625195,60.7985285584744,-0.0001618862152099,0.1118387952446937,0,0,0
5704,237741.6039189099,2011-01-21 07:20:17,973.7020906355068,7,27,-1.0993878841400146,3.510667562484741,17.61211557050086,17.235736923776084,71.80159237625195,60.83073732417101,-0.0001618862152099,0.1118387952446937,0,0,0
5705,237771.619155129,2011-01-21 07:20:47,1003.7173268395848,7,27,-1.0992072820663452,3.5043540000915527,17.61211557050086,17.244903233782313,71.80159237625195,60.8628876393102,-0.0001618862152099,0.1118387952446937,0,0,0
5706,237801.63413541025,2011-01-21 07:21:17,1033.7323071358617,7,27,-1.0993878841400146,3.498202323913574,17.61211557050086,17.254069465459892,71.80159237625195,60.89498054011209,-0.0001618862152099,0.1118387952446937,0,0,0
5707,237831.64927629675,2011-01-21 07:21:47,1063.7474480173664,7,27,-1.099568486213684,3.4922125339508057,17.61211557050086,17.26323571848498,71.80159237625195,60.92701812443428,-0.0001942634553415,0.1118387952446937,0,0,0
5708,237861.6643879454,2011-01-21 07:22:17,1093.7625596760388,7,27,-1.0993878841400146,3.486384630203247,17.61211557050086,17.27240190967932,71.80159237625195,60.9590011999873,-0.0001295089750783,0.1118387952446937,0,0,0
5709,237891.6794749025,2011-01-21 07:22:47,1123.7776466130972,7,27,-1.0992072820663452,3.4803948402404785,17.61211557050086,17.281568110626022,71.80159237625195,60.99093023987571,-0.0001618862152099,0.1118387952446937,0,0,0
5710,237921.69459277167,2011-01-21 07:23:17,1153.7927644972856,7,27,-1.0993878841400146,3.47472882270813,17.61211557050086,17.290734221799312,71.80159237625195,61.022805705135006,-0.0001295089750783,0.1118387952446937,0,0,0
5711,237951.7097042048,2011-01-21 07:23:47,1183.8078759303958,7,27,-1.0993878841400146,3.469062805175781,17.61211557050086,17.29990041528041,71.80159237625195,61.05462898238741,-0.0001295089750783,0.1118387952446937,0,0,0
5712,237981.7250569644,2011-01-21 07:24:17,1213.8232286749285,7,27,-1.0993878841400146,3.4632349014282227,17.61211557050086,17.309066767338148,71.80159237625195,61.08640009109104,-0.0001618862152099,0.1118387952446937,0,0,0
5713,238011.73991517132,2011-01-21 07:24:47,1243.8380868969584,7,27,-1.0993878841400146,3.457406997680664,17.61211557050086,17.318232840099565,71.80159237625195,61.118117917574594,-0.0001295089750783,0.1118387952446937,0,0,0
5714,238041.75516081395,2011-01-21 07:25:17,1273.85333253956,7,27,-1.0993878841400146,3.451579093933105,17.61211557050086,17.327399125518323,71.80159237625195,61.14978285311405,-0.0001618862152099,0.1118387952446937,0,0,0
5715,238071.7701700323,2011-01-21 07:25:47,1303.8683417579196,7,27,-1.0992072820663452,3.445589303970337,17.61211557050086,17.336565258556167,71.80159237625195,61.18139359213975,-0.0001295089750783,0.1118387952446937,0,0,0
5716,238101.78559645044,2011-01-21 07:26:17,1333.8837681760697,7,27,-1.0993878841400146,3.4395995140075684,17.61211557050086,17.345731600710923,71.80159237625195,61.212950451169085,-0.0001618862152099,0.1118387952446937,0,0,0
5717,238131.80036100905,2011-01-21 07:26:47,1363.8985327196242,7,27,-1.099568486213684,3.43344783782959,17.61211557050086,17.35489764182201,71.80159237625195,61.244450747066566,-0.0001942634553415,0.1118387952446937,0,0,0
5718,238161.8155961204,2011-01-21 07:27:17,1393.9137678460163,7,27,-1.0993878841400146,3.4272964000701904,17.61211557050086,17.364063893507787,71.80159237625195,61.27589465759203,-0.0001618862152099,0.1118387952446937,0,0,0
5719,238191.8306178399,2011-01-21 07:27:47,1423.9287895655325,7,27,-1.0990266799926758,3.420659065246582,17.61211557050086,17.373230136623697,71.80159237625195,61.30727920488049,-0.0001618862152099,0.1118387952446937,0,0,0
5720,238221.8458290317,2011-01-21 07:28:17,1453.9440007422345,7,27,-1.0993878841400146,3.4136979579925537,17.61211557050086,17.38239644698784,71.80159237625195,61.33860238631623,-0.0001618862152099,0.1118387952446937,0,0,0
5721,238251.86080113755,2011-01-21 07:28:47,1483.9589728480985,7,27,-1.0993878841400146,3.4062511920928955,17.61211557050086,17.39156274640456,71.80159237625195,61.36985971186738,-0.0002266406954731,0.1118387952446937,0,0,0
5722,238281.87610372703,2011-01-21 07:29:17,1513.9742754526667,7,27,-1.0993878841400146,3.3984806537628174,17.61211557050086,17.400729060289446,71.80159237625195,61.40104738262082,-0.0001942634553415,0.1118387952446937,0,0,0
5723,238311.89105213387,2011-01-21 07:29:47,1543.9892238594653,7,27,-1.0993878841400146,3.3905482292175293,17.61211557050086,17.409895150599397,71.80159237625195,61.43216100465416,-0.0001942634553415,0.1118387952446937,0,0,0
5724,238341.90614858965,2011-01-21 07:30:17,1574.0043203152472,7,27,-1.0997490882873535,3.3818063735961914,17.61211557050086,17.419061376399828,71.80159237625195,61.46320081093237,-0.0002590179501567,0.1118387952446937,0,0,0
5725,238371.92125886484,2011-01-21 07:30:47,1604.0194305904718,7,27,-1.0993878841400146,3.3727407455444336,17.61211557050086,17.428227562772584,71.80159237625195,61.49415939172635,-0.0002590179501567,0.1118387952446937,0,0,0
5726,238401.9363942477,2011-01-21 07:31:17,1634.0345659732718,7,27,-1.0992072820663452,3.362541913986206,17.61211557050086,17.437393851265142,71.80159237625195,61.52502880903346,-0.0002913951757363,0.1118387952446937,0,0,0
5727,238431.95168319825,2011-01-21 07:31:47,1664.0498549187978,7,27,-1.0993878841400146,3.3513717651367188,17.61211557050086,17.446560178197622,71.80159237625195,61.555800050361086,-0.0002913951757363,0.1118387952446937,0,0,0
5728,238461.95337603305,2011-01-21 07:32:17,1694.0515478388445,7,27,-1.0993878841400146,3.338582992553711,17.61211557050086,17.45572233844149,71.80159237625195,61.58644829967681,-0.0003885269106831,0.1118387952446937,0,0,0
5729,238491.9661246824,2011-01-21 07:32:47,1724.064296503208,7,27,-1.0993878841400146,3.3240132331848145,17.61211557050086,17.464887863771164,71.80159237625195,61.616982048282274,-0.0004209041653666,0.1118387952446937,0,0,0
5730,238521.9811827725,2011-01-21 07:33:17,1754.079354498134,7,27,-1.0993878841400146,3.3073389530181885,17.61211557050086,17.47405404270619,71.80159237625195,61.647376215145,-0.0005180359003134,0.1118387952446937,0,0,0
5731,238551.99634297212,2011-01-21 07:33:47,1784.0945147729726,7,27,-1.0993878841400146,3.2874269485473637,17.61211557050086,17.483220251426566,71.80159237625195,61.677604042590616,-0.0005827903514727,0.1118387952446937,0,0,0
5732,238582.0113957792,2011-01-21 07:34:17,1814.109567494756,7,27,-1.099568486213684,3.2629823684692383,17.61211557050086,17.492386473065952,71.80159237625195,61.70763002162028,-0.0007122993702068,0.1118387952446937,0,0,0
5733,238612.0264967412,2011-01-21 07:34:47,1844.124668456769,7,27,-1.0993878841400146,3.232709646224976,17.61211557050086,17.501552693295675,71.80159237625195,61.73740581056083,-0.0008741855854168,0.1118387952446937,0,0,0
5734,238642.0416446502,2011-01-21 07:35:17,1874.1398163958631,7,27,-1.099568486213684,3.193695068359375,17.61211557050086,17.51071883506194,71.80159237625195,61.76686659949634,-0.0011979580158367,0.1118387952446937,0,0,0
5735,238672.0568880773,2011-01-21 07:35:47,1904.1550597928683,7,27,-1.0993878841400146,3.1427011489868164,17.61211557050086,17.519885084284578,71.80159237625195,61.79592006619701,-0.0015864849556237,0.1118387952446937,0,0,0
5736,238702.07196615727,2011-01-21 07:36:17,1934.1701378728524,7,27,-1.0993878841400146,3.0730903148651123,17.61211557050086,17.529051315043365,71.80159237625195,61.824425564176906,-0.0021045207977294,0.1118387952446937,0,0,0
5737,238732.0869441879,2011-01-21 07:36:47,1964.1851159084947,7,27,-1.0993878841400146,2.9725592136383057,17.61211557050086,17.538217541719003,71.80159237625195,61.85216487106607,-0.0031405924819409,0.1118387952446937,0,0,0
5738,238762.1043896481,2011-01-21 07:37:17,1994.2025614539311,7,27,-1.0993878841400146,2.8252432346343994,17.61211557050086,17.547384598844143,71.80159237625195,61.87878100474979,-0.0045328140258789,0.1118387952446937,0,0,0
5739,238781.8673349537,2011-01-21 07:37:37,2013.965506684352,7,27,-1.0993878841400146,2.699943780899048,17.61211557050086,17.55341995873022,71.80159237625195,61.89546389759231,-0.0053745745681226,0.1118387952446937,0,0,0
5740,238841.8831541187,2011-01-21 07:38:37,60.014732765122304,8,27,0.0,3.618159532546997,17.61211557050086,17.55341995873022,71.80159237625195,61.89546389759231,0.0012303352123126,0.1118387952446937,0,0,0
5741,238842.08775813525,2011-01-21 07:38:38,0.202640497470619,9,27,-1.9243103452026844e-05,3.618159532546997,17.61211557050086,17.55341995973287,71.80159237625195,61.89546390122005,0.0,0.1075921058654785,0,0,0
5742,238846.88517252804,2011-01-21 07:38:42,5.000054905302446,9,27,0.0008838032954372,3.625768184661865,17.61211666197091,17.553419959901163,71.80159633021775,61.89546390182897,0.0010684489971026,0.1075921058654785,0,0,0
