Data_Point,Test_Time(s),Date_Time,Step_Time(s),Step_Index,Cycle_Index,Current(A),Voltage(V),Charge_Capacity(Ah),Discharge_Capacity(Ah),Charge_Energy(Wh),Discharge_Energy(Wh),dV/dt(V/s),Internal_Resistance(Ohm),Is_FC_Data,AC_Impedance(Ohm),ACI_Phase_Angle(Deg)
2441,99543.90506753152,2011-01-19 16:56:40,30.01529191793393,1,12,0.0,3.629005908966065,7.448656114279944,7.432173444521087,30.3129352722424,26.323052808386656,0.0007122993702068,0.1053553819656372,0,0,0
2442,99573.9200585846,2011-01-19 16:57:10,60.03028289082019,1,12,0.0,3.650698661804199,7.448656114279944,7.432173444521087,30.3129352722424,26.323052808386656,0.0004856586456298,0.1053553819656372,0,0,0
2443,99603.93513057944,2011-01-19 16:57:40,90.04535486558808,1,12,0.0,3.6657540798187256,7.448656114279944,7.432173444521087,30.3129352722424,26.323052808386656,0.0003561496851034,0.1053553819656372,0,0,0
2444,99633.9034136368,2011-01-19 16:58:10,120.01363793300224,1,12,0.0,3.677085876464844,7.448656114279944,7.432173444521087,30.3129352722424,26.323052808386656,0.0002913951757363,0.1053553819656372,0,0,0
2445,99663.92208747308,2011-01-19 16:58:40,30.01523475045498,2,12,0.550297200679779,3.800442934036255,7.453242427745721,7.432173444521087,30.330274178426,26.323052808386656,0.0008094310760498,0.1053553819656372,0,0,0
2446,99693.93707964396,2011-01-19 16:59:10,60.03022690628952,2,12,0.5499359965324402,3.8218119144439697,7.457828706711704,7.432173444521087,30.347757773075337,26.323052808386656,0.0004532813909463,0.1053553819656372,0,0,0
2447,99723.95220255067,2011-01-19 16:59:40,90.04534980798297,2,12,0.5501165986061096,3.835572004318237,7.462415037073774,7.432173444521087,30.365319175188347,26.323052808386656,0.0003237724304199,0.1053553819656372,0,0,0
2448,99753.96740724624,2011-01-19 17:00:10,120.0605546188192,2,12,0.550297200679779,3.8460946083068848,7.467001324631665,7.432173444521087,30.382935074841686,26.323052808386656,0.0002266406954731,0.1053553819656372,0,0,0
2449,99783.9825729897,2011-01-19 17:00:40,150.07572025201273,2,12,0.5499359965324402,3.8551602363586426,7.471587648209998,7.432173444521087,30.400595830104635,26.323052808386656,0.0001942634553415,0.1053553819656372,0,0,0
2450,99813.9977118261,2011-01-19 17:01:10,180.09085919869523,2,12,0.5501165986061096,3.863416433334351,7.476174020746711,7.432173444521087,30.418296240441528,26.323052808386656,0.0002266406954731,0.1053553819656372,0,0,0
2451,99844.01269580156,2011-01-19 17:01:40,210.1058430588544,2,12,0.5499359965324402,3.870863199234009,7.480760302370746,7.432173444521087,30.43603199704176,26.323052808386656,0.0001942634553415,0.1053553819656372,0,0,0
2452,99874.02966713012,2011-01-19 17:02:10,240.1228143924088,2,12,0.5501165986061096,3.877986192703247,7.485346895978207,7.432173444521087,30.453802123133578,26.323052808386656,0.0001942634553415,0.1053553819656372,0,0,0
2453,99904.04334807296,2011-01-19 17:02:40,270.13649535033466,2,12,0.5499359965324402,3.884299755096436,7.489933024044298,7.432173444521087,30.47160143204387,26.323052808386656,0.0001618862152099,0.1053553819656372,0,0,0
2454,99934.05805263705,2011-01-19 17:03:10,300.15119989435203,2,12,0.5501165986061096,3.890451431274414,7.494519272467246,7.432173444521087,30.489430107662184,26.323052808386656,0.0001295089750783,0.1053553819656372,0,0,0
2455,99964.0730831986,2011-01-19 17:03:40,330.166230490993,2,12,0.5499359965324402,3.8961174488067623,7.499105449736226,7.432173444521087,30.507285694422148,26.323052808386656,0.0001295089750783,0.1053553819656372,0,0,0
2456,99994.08824254113,2011-01-19 17:04:10,360.1813898184706,2,12,0.5501165986061096,3.9017834663391113,7.503690926266454,7.432173444521087,30.5251641652086,26.323052808386656,0.0001618862152099,0.1053553819656372,0,0,0
2457,100024.10344142218,2011-01-19 17:04:40,390.196588689503,2,12,0.550297200679779,3.90696382522583,7.508276520241072,7.432173444521087,30.54306811701853,26.323052808386656,0.0001618862152099,0.1053553819656372,0,0,0
2458,100054.11848524676,2011-01-19 17:05:10,420.2116325341621,2,12,0.5499359965324402,3.912144184112549,7.512862067306068,7.432173444521087,30.56099591180289,26.323052808386656,0.0001295089750783,0.1053553819656372,0,0,0
2459,100084.13402264152,2011-01-19 17:05:40,450.2271699990745,2,12,0.5499359965324402,3.9171624183654794,7.517447603002049,7.432173444521087,30.57894660377347,26.323052808386656,0.0001618862152099,0.1053553819656372,0,0,0
2460,100114.14874946103,2011-01-19 17:06:10,480.2418967283846,2,12,0.5501165986061096,3.922019004821777,7.522033035084894,7.432173444521087,30.59691897103504,26.323052808386656,0.0001618862152099,0.1053553819656372,0,0,0
2461,100144.16386639788,2011-01-19 17:06:40,510.2570136601992,2,12,0.5501165986061096,3.926551818847656,7.526618579257348,7.432173444521087,30.614913136493577,26.323052808386656,0.0001295089750783,0.1053553819656372,0,0,0
2462,100174.17906733406,2011-01-19 17:07:10,540.2722146114161,2,12,0.5499359965324402,3.9307608604431152,7.53120487478921,7.432173444521087,30.63293068471795,26.323052808386656,0.0001295089750783,0.1053553819656372,0,0,0
2463,100204.19409929911,2011-01-19 17:07:40,570.28724656143,2,12,0.5501165986061096,3.934969902038574,7.53579134766188,7.432173444521087,30.65096853216873,26.323052808386656,0.0001295089750783,0.1053553819656372,0,0,0
2464,100234.21162155073,2011-01-19 17:08:10,600.3047689333416,2,12,0.5499359965324402,3.938855171203613,7.540378124526431,7.432173444521087,30.669026306879296,26.323052808386656,9.713172767078504e-05,0.1053553819656372,0,0,0
2465,100264.2243620748,2011-01-19 17:08:40,630.3175093321046,2,12,0.5501165986061096,3.942740440368652,7.544964162644476,7.432173444521087,30.68709912903939,26.323052808386656,9.713172767078504e-05,0.1053553819656372,0,0,0
2466,100294.23947392395,2011-01-19 17:09:10,660.3326211862642,2,12,0.5501165986061096,3.946301937103272,7.549550594322263,7.432173444521087,30.705190594219783,26.323052808386656,9.713172767078504e-05,0.1053553819656372,0,0,0
2467,100324.25520703648,2011-01-19 17:09:40,690.3483544090657,2,12,0.5501165986061096,3.9500253200531006,7.554137121891094,7.432173444521087,30.723298682161907,26.323052808386656,0.0001295089750783,0.1053553819656372,0,0,0
2468,100354.26977691989,2011-01-19 17:10:10,720.36292417718,2,12,0.5497553944587708,3.9532630443573,7.558723441795581,7.432173444521087,30.741421762432093,26.323052808386656,0.0001295089750783,0.1053553819656372,0,0,0
2469,100384.28485909004,2011-01-19 17:10:40,750.3780063523704,2,12,0.5501165986061096,3.956500768661499,7.563309914961166,7.432173444521087,30.759560790016,26.323052808386656,9.713172767078504e-05,0.1053553819656372,0,0,0
2470,100414.29995805208,2011-01-19 17:11:10,780.393105314399,2,12,0.5501165986061096,3.959738492965698,7.567896395698531,7.432173444521087,30.77771469183425,26.323052808386656,9.713172767078504e-05,0.1053553819656372,0,0,0
2471,100444.31507020198,2011-01-19 17:11:40,810.4082174542707,2,12,0.5499359965324402,3.962814331054688,7.572482852869264,7.432173444521087,30.795882992074684,26.323052808386656,6.47544875391759e-05,0.1053553819656372,0,0,0
2472,100474.3319728293,2011-01-19 17:12:10,840.4251201166753,2,12,0.5499359965324402,3.9658901691436768,7.577069530793253,7.432173444521087,30.814066458493876,26.323052808386656,9.713172767078504e-05,0.1053553819656372,0,0,0
2473,100504.34543962848,2011-01-19 17:12:40,870.4385869008144,2,12,0.5501165986061096,3.968966007232666,7.581655734142348,7.432173444521087,30.83226194508963,26.323052808386656,9.713172767078504e-05,0.1053553819656372,0,0,0
2474,100534.36137068937,2011-01-19 17:13:10,900.4545180819889,2,12,0.5501165986061096,3.971879959106445,7.586242355432955,7.432173444521087,30.850472717541187,26.323052808386656,9.713172767078504e-05,0.1053553819656372,0,0,0
2475,100564.37558122214,2011-01-19 17:13:40,930.468728519541,2,12,0.550297200679779,3.9747939109802246,7.590828667083182,7.432173444521087,30.868695765621272,26.323052808386656,6.47544875391759e-05,0.1053553819656372,0,0,0
2476,100594.3907155122,2011-01-19 17:14:10,960.4838627995928,2,12,0.5499359965324402,3.977545976638794,7.595415208929593,7.432173444521087,30.8869331453639,26.323052808386656,6.47544875391759e-05,0.1053553819656372,0,0,0
2477,100624.40580126632,2011-01-19 17:14:40,990.4989485236282,2,12,0.5501165986061096,3.980621814727783,7.600001629972387,7.432173444521087,30.90518293428886,26.323052808386656,6.47544875391759e-05,0.1053553819656372,0,0,0
2478,100654.42091579716,2011-01-19 17:15:10,1020.5140630544588,2,12,0.5497553944587708,3.983373880386353,7.604588035309145,7.432173444521087,30.923445978023025,26.323052808386656,9.713172767078504e-05,0.1053553819656372,0,0,0
2479,100684.436038358,2011-01-19 17:15:40,1050.5291856153028,2,12,0.5501165986061096,3.986125946044922,7.609174433502236,7.432173444521087,30.941721918181884,26.323052808386656,6.47544875391759e-05,0.1053553819656372,0,0,0
2480,100714.45117030723,2011-01-19 17:16:11,1080.5443175645455,2,12,0.5499359965324402,3.988878011703491,7.613760836632194,7.432173444521087,30.9600105937771,26.323052808386656,3.237724376958795e-05,0.1053553819656372,0,0,0
2481,100744.46627571032,2011-01-19 17:16:41,1110.559422977652,2,12,0.5499359965324402,3.991630077362061,7.618347186248315,7.432173444521087,30.978311614807584,26.323052808386656,6.47544875391759e-05,0.1053553819656372,0,0,0
2482,100774.4813747726,2011-01-19 17:17:11,1140.5745220349177,2,12,0.5501165986061096,3.994381904602051,7.622933610219988,7.432173444521087,30.996625401038816,26.323052808386656,6.47544875391759e-05,0.1053553819656372,0,0,0
2483,100804.49655780416,2011-01-19 17:17:41,1170.5897050865235,2,12,0.5501165986061096,3.99713397026062,7.627520008330157,7.432173444521087,31.01495147471284,26.323052808386656,6.47544875391759e-05,0.1053553819656372,0,0,0
2484,100834.51168929726,2011-01-19 17:18:11,1200.6048366498042,2,12,0.550297200679779,3.99972414970398,7.632106343849949,7.432173444521087,31.033289443876413,26.323052808386656,9.713172767078504e-05,0.1053553819656372,0,0,0
2485,100864.52691446384,2011-01-19 17:18:41,1230.6200617612355,2,12,0.5499359965324402,4.002476215362549,7.636692627948173,7.432173444521087,31.05163941271756,26.323052808386656,6.47544875391759e-05,0.1053553819656372,0,0,0
2486,100894.54191582762,2011-01-19 17:19:11,1260.6350631149942,2,12,0.5499359965324402,4.004904747009277,7.641278882445961,7.432173444521087,31.070001272388875,26.323052808386656,6.47544875391759e-05,0.1053553819656372,0,0,0
2487,100924.55716381104,2011-01-19 17:19:41,1290.6503110884048,2,12,0.5501165986061096,4.007656574249268,7.645865180966806,7.432173444521087,31.08837525509276,26.323052808386656,9.70840483205393e-05,0.1053553819656372,0,0,0
2488,100954.57215940044,2011-01-19 17:20:11,1320.6653066627596,2,12,0.5501165986061096,4.010246753692627,7.650451513325906,7.432173444521087,31.106761247584597,26.323052808386656,9.70840483205393e-05,0.1053553819656372,0,0,0
2489,100984.58740327864,2011-01-19 17:20:41,1350.6805505359507,2,12,0.5499359965324402,4.012675285339356,7.655037823116493,7.432173444521087,31.125158994538776,26.323052808386656,6.47544875391759e-05,0.1053553819656372,0,0,0
2490,101014.60240886796,2011-01-19 17:21:11,1380.695556150329,2,12,0.550297200679779,4.015265464782715,7.659624112085732,7.432173444521087,31.14356840890612,26.323052808386656,6.47544875391759e-05,0.1053553819656372,0,0,0
2491,101044.61751946398,2011-01-19 17:21:41,1410.7106667263026,2,12,0.5501165986061096,4.017855644226074,7.664210442888342,7.432173444521087,31.161989738618622,26.323052808386656,6.47544875391759e-05,0.1053553819656372,0,0,0
2492,101074.6345157848,2011-01-19 17:22:11,1440.7276631373577,2,12,0.5501165986061096,4.020445823669434,7.668797040418713,7.432173444521087,31.18042374966812,26.323052808386656,6.47544875391759e-05,0.1053553819656372,0,0,0
2493,101104.64776892649,2011-01-19 17:22:41,1470.740916188809,2,12,0.5501165986061096,4.023036003112793,7.673383059187867,7.432173444521087,31.19886708097549,26.323052808386656,6.47544875391759e-05,0.1053553819656372,0,0,0
2494,101134.66290954736,2011-01-19 17:23:11,1500.7560568046515,2,12,0.5501165986061096,4.025464057922363,7.677969364611268,7.432173444521087,31.21732318661138,26.323052808386656,6.47544875391759e-05,0.1053553819656372,0,0,0
2495,101164.67800325628,2011-01-19 17:23:41,1530.7711505135878,2,12,0.5501165986061096,4.027892589569092,7.682555674109468,7.432173444521087,31.23579094739204,26.323052808386656,6.47544875391759e-05,0.1053553819656372,0,0,0
2496,101194.69333758994,2011-01-19 17:24:11,1560.7864848472343,2,12,0.5501165986061096,4.030482769012451,7.687142109779246,7.432173444521087,31.25427080849575,26.323052808386656,6.47544875391759e-05,0.1053553819656372,0,0,0
2497,101224.7082594606,2011-01-19 17:24:41,1590.8014067229094,2,12,0.5499359965324402,4.0330729484558105,7.691728306600788,7.432173444521087,31.272761283609693,26.323052808386656,6.47544875391759e-05,0.1053553819656372,0,0,0
2498,101254.72344116383,2011-01-19 17:25:11,1620.816588441192,2,12,0.5501165986061096,4.035662651062012,7.696314661242376,7.432173444521087,31.291264040671223,26.323052808386656,6.47544875391759e-05,0.1053553819656372,0,0,0
2499,101284.7384327332,2011-01-19 17:25:41,1650.8315799955274,2,12,0.550297200679779,4.03809118270874,7.700900895850185,7.432173444521087,31.30977793137053,26.323052808386656,6.47544875391759e-05,0.1053553819656372,0,0,0
2500,101314.75373678138,2011-01-19 17:26:11,1680.8468840537184,2,12,0.5501165986061096,4.0406813621521,7.705487241000354,7.432173444521087,31.3283039092967,26.323052808386656,6.47544875391759e-05,0.1053553819656372,0,0,0
2501,101344.76872530815,2011-01-19 17:26:41,1710.8618725654708,2,12,0.5499359965324402,4.04310941696167,7.710073489679579,7.432173444521087,31.346841254779022,26.323052808386656,6.47544875391759e-05,0.1053553819656372,0,0,0
2502,101374.78384876624,2011-01-19 17:27:11,1740.8769960285636,2,12,0.550297200679779,4.045861721038818,7.714659778283121,7.432173444521087,31.365390489273857,26.323052808386656,0.0001295089750783,0.1053553819656372,0,0,0
2503,101404.79898111148,2011-01-19 17:27:41,1770.892128403868,2,12,0.5501165986061096,4.048451900482178,7.719246158364422,7.432173444521087,31.38395186717503,26.323052808386656,9.71794142969884e-05,0.1053553819656372,0,0,0
2504,101434.81411921103,2011-01-19 17:28:11,1800.9072664934142,2,12,0.550297200679779,4.051042079925537,7.723832562452741,7.432173444521087,31.40252520852325,26.323052808386656,9.71794142969884e-05,0.1053553819656372,0,0,0
2505,101464.82921287988,2011-01-19 17:28:41,1830.9223601672632,2,12,0.5501165986061096,4.053470134735107,7.728418868439766,7.432173444521087,31.4211100475162,26.323052808386656,6.47544875391759e-05,0.1053553819656372,0,0,0
2506,101494.84432812248,2011-01-19 17:29:11,1860.9374753797929,2,12,0.5499359965324402,4.056060314178467,7.733005242099422,7.432173444521087,31.43970707362729,26.323052808386656,3.23295607813634e-05,0.1053553819656372,0,0,0
2507,101524.85957438665,2011-01-19 17:29:41,1890.9527216589809,2,12,0.5501165986061096,4.058974266052246,7.737591616849556,7.432173444521087,31.4583161196146,26.323052808386656,0.0001295089750783,0.1053553819656372,0,0,0
2508,101554.87472831568,2011-01-19 17:30:11,1920.967875673216,2,12,0.5499359965324402,4.061402797698975,7.742177978933841,7.432173444521087,31.476937141161645,26.323052808386656,9.71794142969884e-05,0.1053553819656372,0,0,0
2509,101584.88969313838,2011-01-19 17:30:41,1950.982840400691,2,12,0.5499359965324402,4.063992977142334,7.746764299949891,7.432173444521087,31.49557014756199,26.323052808386656,6.47544875391759e-05,0.1053553819656372,0,0,0
2510,101614.9048546964,2011-01-19 17:31:11,1980.998001958728,2,12,0.5501165986061096,4.066744804382324,7.751350610356364,7.432173444521087,31.514215413785617,26.323052808386656,6.47544875391759e-05,0.1053553819656372,0,0,0
2511,101644.9200713217,2011-01-19 17:31:41,2011.0132185990467,2,12,0.5501165986061096,4.069497108459473,7.755936983396454,7.432173444521087,31.53287342562639,26.323052808386656,3.24249267578125e-05,0.1053553819656372,0,0,0
2512,101674.93692079656,2011-01-19 17:32:11,2041.03006806888,2,12,0.5501165986061096,4.072248935699463,7.760523531360279,7.432173444521087,31.551544712048976,26.323052808386656,9.70840483205393e-05,0.1053553819656372,0,0,0
2513,101704.95030476929,2011-01-19 17:32:41,2071.0434520265894,2,12,0.5501165986061096,4.075162887573242,7.765109540853842,7.432173444521087,31.570226585228504,26.323052808386656,9.70840483205393e-05,0.1053553819656372,0,0,0
2514,101734.9652942334,2011-01-19 17:33:11,2101.0584414907157,2,12,0.5499359965324402,4.077915191650391,7.769695802985433,7.432173444521087,31.588922309883618,26.323052808386656,9.71794142969884e-05,0.1053553819656372,0,0,0
2515,101764.98043923016,2011-01-19 17:33:41,2131.073586577701,2,12,0.550297200679779,4.080667018890381,7.774282087277318,7.432173444521087,31.60763095169078,26.323052808386656,9.70840483205393e-05,0.1053553819656372,0,0,0
2516,101794.99554872846,2011-01-19 17:34:11,2161.088695985765,2,12,0.5501165986061096,4.08358097076416,7.778868382263428,7.432173444521087,31.626352575051083,26.323052808386656,6.47544875391759e-05,0.1053553819656372,0,0,0
2517,101825.01088676132,2011-01-19 17:34:41,2191.104034043693,2,12,0.550297200679779,4.08649492263794,7.783455529009082,7.432173444521087,31.64509101641391,26.323052808386656,9.70840483205393e-05,0.1053553819656372,0,0,0
2518,101855.02575331413,2011-01-19 17:35:11,2221.1189005764363,2,12,0.550297200679779,4.089408874511719,7.788042741517104,7.432173444521087,31.663843018963043,26.323052808386656,9.70840483205393e-05,0.1053553819656372,0,0,0
2519,101885.04101079122,2011-01-19 17:35:41,2251.1341580635585,2,12,0.5501165986061096,4.092322826385498,7.792629814821156,7.432173444521087,31.68260774388786,26.323052808386656,9.70840483205393e-05,0.1053553819656372,0,0,0
2520,101915.0560050874,2011-01-19 17:36:11,2281.14915234469,2,12,0.550297200679779,4.095236778259277,7.797216965646014,7.432173444521087,31.701386300386616,26.323052808386656,9.70840483205393e-05,0.1053553819656372,0,0,0
2521,101945.07124436912,2011-01-19 17:36:41,2311.1643916414755,2,12,0.550297200679779,4.098312854766846,7.801804141487149,7.432173444521087,31.72017860733961,26.323052808386656,0.0001295089750783,0.1053553819656372,0,0,0
2522,101975.08622870046,2011-01-19 17:37:11,2341.179375962784,2,12,0.5501165986061096,4.101064682006836,7.806391352900047,7.432173444521087,31.738984925485077,26.323052808386656,3.23295607813634e-05,0.1053553819656372,0,0,0
2523,102005.10147735557,2011-01-19 17:37:41,2371.194624627919,2,12,0.550297200679779,4.104302406311035,7.810978075983218,7.432173444521087,31.757803062041297,26.323052808386656,6.47544875391759e-05,0.1053553819656372,0,0,0
2524,102035.11650094976,2011-01-19 17:38:11,2401.2096482120824,2,12,0.5499359965324402,4.107216358184815,7.815564430472427,7.432173444521087,31.776633738077305,26.323052808386656,6.47544875391759e-05,0.1053553819656372,0,0,0
2525,102065.13174525402,2011-01-19 17:38:41,2431.224892551436,2,12,0.5501165986061096,4.110454082489014,7.820150097930362,7.432173444521087,31.795475526016013,26.323052808386656,0.0001295089750783,0.1053553819656372,0,0,0
2526,102095.1467179664,2011-01-19 17:39:11,2461.2398652487736,2,12,0.5499359965324402,4.113530158996582,7.82473574030922,7.432173444521087,31.81433152515904,26.323052808386656,6.47544875391759e-05,0.1053553819656372,0,0,0
2527,102125.16184194578,2011-01-19 17:39:41,2491.2549891980784,2,12,0.5497553944587708,4.116443634033203,7.829321302380027,7.432173444521087,31.833201655507985,26.323052808386656,3.23295607813634e-05,0.1053553819656372,0,0,0
2528,102155.1771234678,2011-01-19 17:40:11,2521.27027073514,2,12,0.5501165986061096,4.119843482971191,7.833907048643895,7.432173444521087,31.85208722588614,26.323052808386656,9.71794142969884e-05,0.1053553819656372,0,0,0
2529,102185.17888093372,2011-01-19 17:40:41,2551.27202829128,2,12,0.550297200679779,4.1232428550720215,7.83849153153759,7.432173444521087,31.870982413348145,26.323052808386656,9.70840483205393e-05,0.1053553819656372,0,0,0
2530,102215.19164788869,2011-01-19 17:41:11,2581.284795246229,2,12,0.550297200679779,4.126480579376221,7.843077636466013,7.432173444521087,31.889899037420538,26.323052808386656,9.70840483205393e-05,0.1053553819656372,0,0,0
2531,102245.20670731718,2011-01-19 17:41:41,2611.2998545744776,2,12,0.550297200679779,4.12971830368042,7.847664147441178,7.432173444521087,31.90883226953915,26.323052808386656,9.70840483205393e-05,0.1053553819656372,0,0,0
2532,102275.22194786208,2011-01-19 17:42:11,2641.3150951594744,2,12,0.5501165986061096,4.132794380187988,7.852250634435669,7.432173444521087,31.927780540055977,26.323052808386656,3.24249267578125e-05,0.1053553819656372,0,0,0
2533,102305.238780124,2011-01-19 17:42:41,2671.331927386332,2,12,0.5499359965324402,4.136193752288818,7.856837335805015,7.432173444521087,31.94674484420673,26.323052808386656,9.70840483205393e-05,0.1053553819656372,0,0,0
2534,102335.2520721526,2011-01-19 17:43:11,2701.3452194099136,2,12,0.5501165986061096,4.1397552490234375,7.861423462178203,7.432173444521087,31.96572212012017,26.323052808386656,0.0001295089750783,0.1053553819656372,0,0,0
2535,102365.26732707334,2011-01-19 17:43:41,2731.3604743506894,2,12,0.5499359965324402,4.143155097961426,7.866010007452164,7.432173444521087,31.9847165913486,26.323052808386656,9.71794142969884e-05,0.1053553819656372,0,0,0
2536,102395.28229752004,2011-01-19 17:44:11,2761.3754447823803,2,12,0.5499359965324402,4.146392822265625,7.870596447430354,7.432173444521087,32.00372628393731,26.323052808386656,6.47544875391759e-05,0.1053553819656372,0,0,0
2537,102425.29761347792,2011-01-19 17:44:41,2791.390760755267,2,12,0.550297200679779,4.149954319000244,7.875182983631582,7.432173444521087,32.02275227543342,26.323052808386656,9.71794142969884e-05,0.1053553819656372,0,0,0
2538,102455.31255656145,2011-01-19 17:45:11,2821.405703848824,2,12,0.5501165986061096,4.153353691101074,7.879769439886849,7.432173444521087,32.041793828229906,26.323052808386656,9.70840483205393e-05,0.1053553819656372,0,0,0
2539,102485.32822670204,2011-01-19 17:45:41,2851.4213740495543,2,12,0.5501165986061096,4.156915187835693,7.884355932623407,7.432173444521087,32.060851527159734,26.323052808386656,9.70840483205393e-05,0.1053553819656372,0,0,0
2540,102515.32963687235,2011-01-19 17:46:11,2881.422784229927,2,12,0.5501165986061096,4.1604766845703125,7.888940232390501,7.432173444521087,32.07991640537544,26.323052808386656,6.47544875391759e-05,0.1053553819656372,0,0,0
2541,102545.34232735672,2011-01-19 17:46:41,2911.435474624063,2,12,0.550297200679779,4.164200305938721,7.893526357145426,7.432173444521087,32.09900531242498,26.323052808386656,0.0001295089750783,0.1053553819656372,0,0,0
2542,102575.35747595246,2011-01-19 17:47:11,2941.450623229819,2,12,0.550297200679779,4.16776180267334,7.898112784320617,7.432173444521087,32.11811176925544,26.323052808386656,0.0001295089750783,0.1053553819656372,0,0,0
2543,102605.37252306026,2011-01-19 17:47:41,2971.465670317561,2,12,0.550297200679779,4.171323299407959,7.902699265175552,7.432173444521087,32.1372351464679,26.323052808386656,9.71794142969884e-05,0.1053553819656372,0,0,0
2544,102635.38763943069,2011-01-19 17:48:11,3001.4807866879764,2,12,0.5499359965324402,4.174884796142578,7.907285777618182,7.432173444521087,32.156375315029564,26.323052808386656,9.71794142969884e-05,0.1053553819656372,0,0,0
2545,102665.40276854784,2011-01-19 17:48:41,3031.495915815186,2,12,0.5499359965324402,4.178607940673828,7.911872201152675,7.432173444521087,32.17553188854859,26.323052808386656,0.0001295089750783,0.1053553819656372,0,0,0
2546,102695.41789747456,2011-01-19 17:49:12,3061.5110447318702,2,12,0.550297200679779,4.182331562042236,7.91645869353856,7.432173444521087,32.19470578348538,26.323052808386656,3.24249267578125e-05,0.1053553819656372,0,0,0
2547,102725.43312785412,2011-01-19 17:49:42,3091.5262751214564,2,12,0.5501165986061096,4.186054706573486,7.921045227704377,7.432173444521087,32.21389686191083,26.323052808386656,9.70840483205393e-05,0.1053553819656372,0,0,0
2548,102755.44811956384,2011-01-19 17:50:12,3121.541266826167,2,12,0.5499359965324402,4.189778327941895,7.925631633281229,7.432173444521087,32.23310466581626,26.323052808386656,6.47544875391759e-05,0.1053553819656372,0,0,0
2549,102785.46335947217,2011-01-19 17:50:42,3151.556506854776,2,12,0.5499359965324402,4.1935014724731445,7.930218059831083,7.432173444521087,32.25232997740899,26.323052808386656,3.23295607813634e-05,0.1053553819656372,0,0,0
2550,102815.4783812368,2011-01-19 17:51:12,3181.5715284991056,2,12,0.5499359965324402,4.197548389434815,7.934804469168364,7.432173444521087,32.27157291290998,26.323052808386656,9.70840483205393e-05,0.1053553819656372,0,0,0
2551,102833.57180655489,2011-01-19 17:51:30,3199.664953817206,2,12,0.550297200679779,4.200138568878174,7.937569244565029,7.432173444521087,32.28318150311262,26.323052808386656,0.0001618385285837,0.1053553819656372,0,0,0
2552,102863.57588369692,2011-01-19 17:52:00,30.00150498164657,3,12,0.0,4.095236778259277,7.937569244565029,7.432173444521087,32.28318150311262,26.323052808386656,-0.0004857063177041,0.1053553819656372,0,0,0
2553,102893.58898728584,2011-01-19 17:52:30,60.01460848036645,3,12,0.0,4.08147668838501,7.937569244565029,7.432173444521087,32.28318150311262,26.323052808386656,-0.0002913475036621,0.1053553819656372,0,0,0
2554,102923.60409983172,2011-01-19 17:53:00,90.02972102123755,3,12,0.0,4.073220252990723,7.937569244565029,7.432173444521087,32.28318150311262,26.323052808386656,-0.0002266883820993,0.1053553819656372,0,0,0
2555,102953.5880140468,2011-01-19 17:53:30,120.01363528139362,3,12,0.0,4.067716121673584,7.937569244565029,7.432173444521087,32.28318150311262,26.323052808386656,-9.71794142969884e-05,0.1053553819656372,0,0,0
2556,102953.60037680082,2011-01-19 17:53:30,0.015631057404608,4,12,1.0162692070007324,4.199814796447754,7.937573695205402,7.432173444521087,32.283200194977915,26.323052808386656,0.0,0.1053553819656372,0,0,0
2557,102954.42847756774,2011-01-19 17:53:31,0.843731834340973,4,12,0.9651567339897156,4.199814796447754,7.937800174270079,7.432173444521087,32.28415136637534,26.323052808386656,0.0,0.1053553819656372,0,0,0
2558,102956.41282283672,2011-01-19 17:53:33,2.828077098306549,4,12,0.91512793302536,4.199976921081543,7.938317531999269,7.432173444521087,32.28632418790472,26.323052808386656,3.24249267578125e-05,0.1053553819656372,0,0,0
2559,102959.42846514024,2011-01-19 17:53:36,5.843719406829329,4,12,0.8650991916656494,4.199976921081543,7.939062113802407,7.432173444521087,32.2894513086103,26.323052808386656,3.24249267578125e-05,0.1053553819656372,0,0,0
2560,102963.52207793789,2011-01-19 17:53:40,9.937332194469292,4,12,0.8148897886276245,4.199653148651123,7.94001608015019,7.432173444521087,32.29345780883146,26.323052808386656,-3.23295607813634e-05,0.1053553819656372,0,0,0
2561,102968.95949149052,2011-01-19 17:53:45,15.374745752105248,4,12,0.764499843120575,4.199814796447754,7.941207597908034,7.432173444521087,32.298461998354014,26.323052808386656,-3.24249267578125e-05,0.1053553819656372,0,0,0
2562,102976.099993268,2011-01-19 17:53:52,22.515247529612264,4,12,0.7141098380088806,4.199976921081543,7.942672160098302,7.432173444521087,32.30461292851269,26.323052808386656,3.24249267578125e-05,0.1053553819656372,0,0,0
2563,102985.57055348813,2011-01-19 17:54:02,31.985807769749226,4,12,0.6639004349708557,4.199814796447754,7.944481840326717,7.432173444521087,32.31221333344842,26.323052808386656,-3.24249267578125e-05,0.1053553819656372,0,0,0
2564,102998.7558930764,2011-01-19 17:54:15,45.1711473429933,4,12,0.6136910915374756,4.199814796447754,7.946816545927998,7.432173444521087,32.32201878768463,26.323052808386656,-6.47544875391759e-05,0.1053553819656372,0,0,0
2565,103018.91192702984,2011-01-19 17:54:35,65.32718132152442,4,12,0.5636622905731201,4.199814796447754,7.950102854439444,7.432173444521087,32.33582083540842,26.323052808386656,-3.24249267578125e-05,0.1053553819656372,0,0,0
2566,103055.00507305532,2011-01-19 17:55:11,101.42032733697832,4,12,0.5136335492134094,4.199814796447754,7.955478704470298,7.432173444521087,32.358398662409,26.323052808386656,-3.24249267578125e-05,0.1053553819656372,0,0,0
2567,103126.535007025,2011-01-19 17:56:23,172.95026131165366,4,12,0.4636047780513763,4.199976921081543,7.965139060323581,7.432173444521087,32.398970730745326,26.323052808386656,3.24249267578125e-05,0.1053553819656372,0,0,0
2568,103241.6892938649,2011-01-19 17:58:18,288.1045481264844,4,12,0.4133954048156738,4.199814796447754,7.979131954709338,7.432173444521087,32.45773889789418,26.323052808386656,0.0,0.1053553819656372,0,0,0
2569,103387.42120058704,2011-01-19 18:00:44,433.8364548536353,4,12,0.3633666336536407,4.199814796447754,7.994839320013239,7.432173444521087,32.523707602098355,26.323052808386656,0.0,0.1053553819656372,0,0,0
2570,103563.84021986584,2011-01-19 18:03:40,610.2554741625282,4,12,0.3133378624916076,4.199814796447754,8.011397839746966,7.432173444521087,32.59325099555368,26.323052808386656,0.0,0.1053553819656372,0,0,0
2571,103774.63356553776,2011-01-19 18:07:11,821.0488197993461,4,12,0.2633090913295746,4.199814796447754,8.028253366024508,7.432173444521087,32.66404191962359,26.323052808386656,0.0,0.1053553819656372,0,0,0
2572,104038.59776438102,2011-01-19 18:11:35,1085.0130186676795,4,12,0.2130997031927108,4.199653148651123,8.045682785818483,7.432173444521087,32.73724313915132,26.323052808386656,-3.23295607813634e-05,0.1053553819656372,0,0,0
2573,104381.93569911184,2011-01-19 18:17:18,1428.3509533934575,4,12,0.1630709320306778,4.199814796447754,8.063551894124599,7.432173444521087,32.81229099998654,26.323052808386656,-3.24249267578125e-05,0.1053553819656372,0,0,0
2574,104866.7088081104,2011-01-19 18:25:23,1913.1240623719889,4,12,0.1130421608686447,4.199814796447754,8.081976503123801,7.432173444521087,32.889671845393046,26.323052808386656,3.23295607813634e-05,0.1053553819656372,0,0,0
2575,105717.96007444958,2011-01-19 18:39:34,2764.375328716185,4,12,0.0630133971571922,4.199814796447754,8.102165432464027,7.432173444521087,32.9744626457755,26.323052808386656,-3.24249267578125e-05,0.1053553819656372,0,0,0
2576,106098.188148348,2011-01-19 18:45:55,3144.6034026246184,4,12,0.0498289167881011,4.199814796447754,8.108137141069543,7.432173444521087,32.99954301660818,26.323052808386656,0.0,0.1053553819656372,0,0,0
2577,106128.20600585762,2011-01-19 18:46:25,30.01510861107684,5,12,0.0,4.1901021003723145,8.108137141069543,7.432173444521087,32.99954301660818,26.323052808386656,-3.23295607813634e-05,0.1053553819656372,0,0,0
2578,106158.20562270343,2011-01-19 18:46:55,60.01472547695795,5,12,0.0,4.188483238220215,8.108137141069543,7.432173444521087,32.99954301660818,26.323052808386656,0.0,0.1053553819656372,0,0,0
2579,106158.39801047504,2011-01-19 18:46:55,0.188624014081249,6,12,-1.9243103452026844e-05,4.188321113586426,8.108137141069543,7.432173444521101,32.99954301660818,26.32305280838672,0.0,0.1091115549206733,0,0,0
2580,106163.22483672624,2011-01-19 18:47:00,5.015450155001696,6,12,0.0008838032954372,4.188321113586426,8.108138055022051,7.432173445608149,32.999546844629464,26.323052812939626,-3.24249267578125e-05,0.1091115549206733,0,0,0
2581,106180.416010435,2011-01-19 18:47:17,17.18720552955057,7,12,-1.0997490882873535,3.9882304668426514,8.108138055022051,7.437422955135852,32.999546844629464,26.3440970093895,-0.0016835689311847,0.1091115549206733,0,0,0
2582,106210.43114550202,2011-01-19 18:47:47,47.20234057651377,7,12,-1.0993878841400146,3.936750650405884,8.108138055022051,7.446590410883665,32.999546844629464,26.380413565076765,-0.0011979580158367,0.1091115549206733,0,0,0
2583,106240.4462703686,2011-01-19 18:48:17,77.21746544310435,7,12,-1.0992072820663452,3.896926879882813,8.108138055022051,7.455757563051916,32.999546844629464,26.416310869411856,-0.0009065627818927,0.1091115549206733,0,0,0
2584,106270.46153264266,2011-01-19 18:48:47,107.23272775725655,7,12,-1.0993878841400146,3.8658447265625,8.108138055022051,7.464924238610895,32.999546844629464,26.45188375315224,-0.0007122993702068,0.1091115549206733,0,0,0
2585,106300.4765055856,2011-01-19 18:49:17,137.24770066010672,7,12,-1.099568486213684,3.840590476989746,8.108138055022051,7.474090865230911,32.999546844629464,26.48720097233847,-0.0006475448608398,0.1091115549206733,0,0,0
2586,106330.49410445818,2011-01-19 18:49:47,167.26529966801877,7,12,-1.0997490882873535,3.81986927986145,8.108138055022051,7.483258866501369,32.999546844629464,26.52231512698839,-0.0005180359003134,0.1091115549206733,0,0,0
2587,106360.50688992428,2011-01-19 18:50:17,197.27808500377867,7,12,-1.099568486213684,3.801899909973145,8.108138055022051,7.492425477658026,32.999546844629464,26.557247085819707,-0.0004856586456298,0.1091115549206733,0,0,0
2588,106390.52186284718,2011-01-19 18:50:47,227.29305793670372,7,12,-1.0993878841400146,3.785711288452149,8.108138055022051,7.501592797564888,32.999546844629464,26.592025541101773,-0.0004209041653666,0.1091115549206733,0,0,0
2589,106420.5369906561,2011-01-19 18:51:17,257.30818575064006,7,12,-1.099568486213684,3.770655870437622,8.108138055022051,7.510760092336322,32.999546844629464,26.62666125802004,-0.0004209041653666,0.1091115549206733,0,0,0
2590,106450.55224376732,2011-01-19 18:51:47,287.3234388718807,7,12,-1.0997490882873535,3.757057428359986,8.108138055022051,7.519927472814245,32.999546844629464,26.66116600789642,-0.0003561496851034,0.1091115549206733,0,0,0
2591,106480.56724157724,2011-01-19 18:52:17,317.3384366767945,7,12,-1.0993878841400146,3.744106769561768,8.108138055022051,7.529094766793465,32.999546844629464,26.695548487986827,-0.0003561496851034,0.1091115549206733,0,0,0
2592,106510.58233780746,2011-01-19 18:52:47,347.35353288195193,7,12,-1.0993878841400146,3.7318034172058105,8.108138055022051,7.53826213110388,32.999546844629464,26.729815343456828,-0.0003237724304199,0.1091115549206733,0,0,0
2593,106540.59746066404,2011-01-19 18:53:17,377.3686557335205,7,12,-1.0993878841400146,3.720147609710693,8.108138055022051,7.547429487387452,32.999546844629464,26.76397220808592,-0.0002913951757363,0.1091115549206733,0,0,0
2594,106570.61258149556,2011-01-19 18:53:47,407.38377657006686,7,12,-1.0993878841400146,3.708653688430786,8.108138055022051,7.556596816703783,32.999546844629464,26.79802311580305,-0.0003237724304199,0.1091115549206733,0,0,0
2595,106600.62781827609,2011-01-19 18:54:17,437.3990133656189,7,12,-1.0997490882873535,3.697807312011719,8.108138055022051,7.565764205185179,32.999546844629464,26.831972911527306,-0.0003561496851034,0.1091115549206733,0,0,0
2596,106630.64518926572,2011-01-19 18:54:47,467.4163844504766,7,12,-1.099568486213684,3.687446594238281,8.108138055022051,7.574932302384457,32.999546844629464,26.86582804078975,-0.0002913951757363,0.1091115549206733,0,0,0
2597,106660.65793504288,2011-01-19 18:55:17,497.429130112357,7,12,-1.099568486213684,3.677085876464844,8.108138055022051,7.584098959534672,32.999546844629464,26.89958254516702,-0.0002913951757363,0.1091115549206733,0,0,0
2598,106690.67308515238,2011-01-19 18:55:47,527.4442802519355,7,12,-1.0993878841400146,3.667049169540405,8.108138055022051,7.593266383742875,32.999546844629464,26.933246999464497,-0.0003237724304199,0.1091115549206733,0,0,0
2599,106720.68818216457,2011-01-19 18:56:17,557.4593772340295,7,12,-1.099568486213684,3.6574978828430176,8.108138055022051,7.602433753247426,32.999546844629464,26.96682127699489,-0.0002590179501567,0.1091115549206733,0,0,0
2600,106750.7032983445,2011-01-19 18:56:47,587.4744934189828,7,12,-1.099568486213684,3.64810848236084,8.108138055022051,7.611601171795792,32.999546844629464,27.00030793601908,-0.0002590179501567,0.1091115549206733,0,0,0
2601,106780.71841302568,2011-01-19 18:57:17,617.4896081001882,7,12,-1.0993878841400146,3.638719081878662,8.108138055022051,7.620768493325396,32.999546844629464,27.03370809446284,-0.0002266406954731,0.1091115549206733,0,0,0
2602,106810.73358522024,2011-01-19 18:57:48,647.5047803047595,7,12,-1.099568486213684,3.629977226257324,8.108138055022051,7.629935843753229,32.999546844629464,27.06702492831078,-0.0001942634553415,0.1091115549206733,0,0,0
2603,106840.74865235796,2011-01-19 18:58:18,677.5198474274346,7,12,-1.099568486213684,3.620749711990357,8.108138055022051,7.639103251524319,32.999546844629464,27.10025994519657,-0.0002913951757363,0.1091115549206733,0,0,0
2604,106870.7637546132,2011-01-19 18:58:48,707.5349496826707,7,12,-1.099568486213684,3.6123316287994394,8.108138055022051,7.648270612116139,32.999546844629464,27.133415114766493,-0.0002590179501567,0.1091115549206733,0,0,0
2605,106900.7789031588,2011-01-19 18:59:18,737.5500982533392,7,12,-1.0993878841400146,3.604237318038941,8.108138055022051,7.657438020025898,32.999546844629464,27.16649303624269,-0.0001295089750783,0.1091115549206733,0,0,0
2606,106930.79582848768,2011-01-19 18:59:48,767.5670235872482,7,12,-1.099568486213684,3.5956573486328125,8.108138055022051,7.666605989813665,32.999546844629464,27.19949684181189,-0.0002266406954731,0.1091115549206733,0,0,0
2607,106960.80911738348,2011-01-19 19:00:18,797.5803124780223,7,12,-1.099929690361023,3.5877251625061035,8.108138055022051,7.675772806400557,32.999546844629464,27.23242152238232,-0.0002266406954731,0.1091115549206733,0,0,0
2608,106990.82465686844,2011-01-19 19:00:48,827.5958520531941,7,12,-1.099568486213684,3.5799546241760254,8.108138055022051,7.684940377345302,32.999546844629464,27.265276149722684,-0.0001942634553415,0.1091115549206733,0,0,0
2609,107020.83936916175,2011-01-19 19:01:18,857.6105642412629,7,12,-1.0993878841400146,3.5720221996307373,8.108138055022051,7.694107646498299,32.999546844629464,27.29805786354465,-0.0002590179501567,0.1091115549206733,0,0,0
2610,107050.85460829812,2011-01-19 19:01:48,887.6258034127364,7,12,-1.099568486213684,3.564575433731079,8.108138055022051,7.703275095800033,32.999546844629464,27.33077008432005,-0.0001942634553415,0.1091115549206733,0,0,0
2611,107080.86971093432,2011-01-19 19:02:18,917.640906048922,7,12,-1.099568486213684,3.557290554046631,8.108138055022051,7.712442497950557,32.999546844629464,27.3634146374381,-0.0001942634553415,0.1091115549206733,0,0,0
2612,107110.88487295852,2011-01-19 19:02:48,947.6560680430456,7,12,-1.099568486213684,3.5501675605773926,8.108138055022051,7.721609910605624,32.999546844629464,27.39599296871863,-0.0001942634553415,0.1091115549206733,0,0,0
2613,107140.89994132932,2011-01-19 19:03:18,977.6711364138314,7,12,-1.099568486213684,3.5432064533233643,8.108138055022051,7.730777346925155,32.999546844629464,27.428507230082133,-0.0001618862152099,0.1091115549206733,0,0,0
2614,107170.91494115928,2011-01-19 19:03:48,1007.6861362437922,7,12,-1.099568486213684,3.536569118499756,8.108138055022051,7.739944765372543,32.999546844629464,27.46095904757573,-0.0001618862152099,0.1091115549206733,0,0,0
2615,107200.93002540965,2011-01-19 19:04:18,1037.701220499167,7,12,-1.0997490882873535,3.5299317836761475,8.108138055022051,7.74911216661548,32.999546844629464,27.493350109008706,-0.0001942634553415,0.1091115549206733,0,0,0
2616,107230.94516522848,2011-01-19 19:04:48,1067.7163602979736,7,12,-1.0993878841400146,3.523780107498169,8.108138055022051,7.758279282240057,32.999546844629464,27.525681105587022,-0.0001295089750783,0.1091115549206733,0,0,0
2617,107260.9602597294,2011-01-19 19:05:18,1097.7314548239458,7,12,-1.0993878841400146,3.5176284313201904,8.108138055022051,7.767446393272852,32.999546844629464,27.55795531072929,-0.0001295089750783,0.1091115549206733,0,0,0
2618,107290.97539536784,2011-01-19 19:05:48,1127.7465904673957,7,12,-1.0993878841400146,3.511800527572632,8.108138055022051,7.776613515481766,32.999546844629464,27.590174373202395,-0.0001295089750783,0.1091115549206733,0,0,0
2619,107320.99051483595,2011-01-19 19:06:18,1157.7617099355318,7,12,-1.0993878841400146,3.5059728622436523,8.108138055022051,7.785780665551396,32.999546844629464,27.62234018704392,-0.0001618862152099,0.1091115549206733,0,0,0
2620,107351.00562140196,2011-01-19 19:06:48,1187.7768165015116,7,12,-1.099568486213684,3.500306844711304,8.108138055022051,7.794948139926427,32.999546844629464,27.654454820114697,-0.0001295089750783,0.1091115549206733,0,0,0
2621,107381.02073598791,2011-01-19 19:07:18,1217.7919310574046,7,12,-1.099568486213684,3.494802713394165,8.108138055022051,7.8041155791036,32.999546844629464,27.686518411881888,-0.0001618862152099,0.1091115549206733,0,0,0
2622,107411.03599344497,2011-01-19 19:07:48,1247.8071885244765,7,12,-1.099568486213684,3.4892985820770264,8.108138055022051,7.813283059981106,32.999546844629464,27.71853151081332,-0.0001295089750783,0.1091115549206733,0,0,0
2623,107441.05097663846,2011-01-19 19:08:18,1277.822171707949,7,12,-1.099568486213684,3.483794450759888,8.108138055022051,7.822450540011831,32.999546844629464,27.750493993364376,-0.0001618862152099,0.1091115549206733,0,0,0
2624,107471.06637765832,2011-01-19 19:08:48,1307.8375727578734,7,12,-1.099568486213684,3.478128433227539,8.108138055022051,7.831617981460333,32.999546844629464,27.78240616707998,-0.0001618862152099,0.1091115549206733,0,0,0
2625,107501.08120778031,2011-01-19 19:09:18,1337.8524028497948,7,12,-1.099568486213684,3.4727861881256104,8.108138055022051,7.840785308820092,32.999546844629464,27.81426786429352,-0.0001618862152099,0.1091115549206733,0,0,0
2626,107531.09816129948,2011-01-19 19:09:48,1367.8693564090504,7,12,-1.099568486213684,3.467282056808472,8.108138055022051,7.849953274423984,32.999546844629464,27.846081432644407,-0.0001618862152099,0.1091115549206733,0,0,0
2627,107561.11169430868,2011-01-19 19:10:18,1397.882889478392,7,12,-1.099568486213684,3.461777925491333,8.108138055022051,7.859120182808066,32.999546844629464,27.877840424925488,-0.0001295089750783,0.1091115549206733,0,0,0
2628,107591.12655633016,2011-01-19 19:10:48,1427.8977514297171,7,12,-1.0993878841400146,3.4564356803894043,8.108138055022051,7.868287464419496,32.999546844629464,27.90955025306916,-0.0001295089750783,0.1091115549206733,0,0,0
2629,107621.14168470047,2011-01-19 19:11:18,1457.912879769965,7,12,-1.099568486213684,3.450769662857056,8.108138055022051,7.877454829193568,32.999546844629464,27.941210009639427,-0.0001295089750783,0.1091115549206733,0,0,0
2630,107651.156806324,2011-01-19 19:11:48,1487.928001393473,7,12,-1.099568486213684,3.444941759109497,8.108138055022051,7.886622210056297,32.999546844629464,27.97281789031188,-0.0001618862152099,0.1091115549206733,0,0,0
2631,107681.17191262932,2011-01-19 19:12:18,1517.9431077238658,7,12,-1.099568486213684,3.4389519691467285,8.108138055022051,7.895789611510524,32.999546844629464,28.004371805452976,-0.0001618862152099,0.1091115549206733,0,0,0
2632,107711.18702567145,2011-01-19 19:12:48,1547.9582207409237,7,12,-1.099568486213684,3.43328595161438,8.108138055022051,7.904956931310197,32.999546844629464,28.03587145058411,-6.47544875391759e-05,0.1091115549206733,0,0,0
2633,107741.20218104908,2011-01-19 19:13:18,1577.9733761386071,7,12,-1.0993878841400146,3.4266488552093506,8.108138055022051,7.9141243652081,32.999546844629464,28.06731399177101,-0.0001295089750783,0.1091115549206733,0,0,0
2634,107771.2172955348,2011-01-19 19:13:48,1607.9884906143004,7,12,-1.0993878841400146,3.4196877479553223,8.108138055022051,7.923291755188803,32.999546844629464,28.09869578408658,-0.0002266406954731,0.1091115549206733,0,0,0
2635,107801.23250840572,2011-01-19 19:14:18,1638.0037034852246,7,12,-1.099568486213684,3.412564754486084,8.108138055022051,7.932459113990583,32.999546844629464,28.13001371652369,-0.0001942634553415,0.1091115549206733,0,0,0
2636,107831.24749616058,2011-01-19 19:14:48,1668.0186912300655,7,12,-1.099568486213684,3.404956102371216,8.108138055022051,7.941626474572178,32.999546844629464,28.16126438669581,-0.0001942634553415,0.1091115549206733,0,0,0
2637,107861.2626272928,2011-01-19 19:15:18,1698.0338223873346,7,12,-1.099568486213684,3.396699905395508,8.108138055022051,7.950793882356916,32.999546844629464,28.19244297214801,-0.0002266406954731,0.1091115549206733,0,0,0
2638,107891.27774122212,2011-01-19 19:15:48,1728.048936296616,7,12,-1.0997490882873535,3.38811993598938,8.108138055022051,7.959961227912706,32.999546844629464,28.223544495357583,-0.0002590179501567,0.1091115549206733,0,0,0
2639,107921.2932517098,2011-01-19 19:16:18,1758.0644467993309,7,12,-1.0993878841400146,3.378892421722412,8.108138055022051,7.96912874761475,32.999546844629464,28.254563767730268,-0.0002590179501567,0.1091115549206733,0,0,0
2640,107951.30798749167,2011-01-19 19:16:48,1788.0791825912274,7,12,-1.099568486213684,3.3682079315185547,8.108138055022051,7.978296038015206,32.999546844629464,28.285490329040577,-0.0002913951757363,0.1091115549206733,0,0,0
2641,107981.32327012146,2011-01-19 19:17:18,1818.0944660881737,7,12,-1.099568486213684,3.3562283515930176,8.108138055022051,7.987463610246222,32.999546844629464,28.316315166366245,-0.0003561496851034,0.1091115549206733,0,0,0
2642,108011.33822810212,2011-01-19 19:17:48,1848.109423181622,7,12,-1.0997490882873535,3.34279203414917,8.108138055022051,7.996631009514671,32.999546844629464,28.34702381021829,-0.0003885269106831,0.1091115549206733,0,0,0
2643,108041.3534694039,2011-01-19 19:18:18,1878.1246644834048,7,12,-1.0993878841400146,3.3269271850585938,8.108138055022051,8.005798545370315,32.999546844629464,28.37759794628061,-0.0004209041653666,0.1091115549206733,0,0,0
2644,108071.36844334936,2011-01-19 19:18:48,1908.139638423841,7,12,-1.0993878841400146,3.3075008392333984,8.108138055022051,8.01496586998523,32.999546844629464,28.408009201514275,-0.0005180359003134,0.1091115549206733,0,0,0
2645,108101.38358735364,2011-01-19 19:19:18,1938.1547825484283,7,12,-1.099568486213684,3.283703565597534,8.108138055022051,8.024133208256135,32.999546844629464,28.438224701184595,-0.0007122993702068,0.1091115549206733,0,0,0
2646,108131.40051850204,2011-01-19 19:19:48,1968.1717136116167,7,12,-1.099568486213684,3.2539167404174805,8.108138055022051,8.033301209238505,32.999546844629464,28.46819834554995,-0.0008741855854168,0.1091115549206733,0,0,0
2647,108161.41393111116,2011-01-19 19:20:18,1998.185126205697,7,12,-1.099568486213684,3.21587347984314,8.108138055022051,8.042468120246777,32.999546844629464,28.49785917609901,-0.0011332035064697,0.1091115549206733,0,0,0
2648,108191.4289125152,2011-01-19 19:20:48,2028.2001076097351,7,12,-1.099568486213684,3.1661746501922607,8.108138055022051,8.051635563040634,32.999546844629464,28.527123449509265,-0.0015217304462566,0.1091115549206733,0,0,0
2649,108221.44443238123,2011-01-19 19:21:18,2058.215627571023,7,12,-1.0997490882873535,3.098344564437866,8.108138055022051,8.060803123844197,32.999546844629464,28.55585509720396,-0.0020397664047777,0.1091115549206733,0,0,0
2650,108251.4615376085,2011-01-19 19:21:48,2088.2327327932694,7,12,-1.0993878841400146,3.001698732376098,8.108138055022051,8.069971251537456,32.999546844629464,28.583844877543537,-0.002978706266731,0.1091115549206733,0,0,0
2651,108281.47429084926,2011-01-19 19:22:18,2118.245485923764,7,12,-1.099568486213684,2.857296705245972,8.108138055022051,8.079137971654564,32.999546844629464,28.610741574520105,-0.004500389099121,0.1091115549206733,0,0,0
2652,108305.27076654368,2011-01-19 19:22:42,2142.041961618187,7,12,-1.099568486213684,2.699620008468628,8.108138055022051,8.086406149511365,32.999546844629464,28.63095705098337,-0.0057631013914942,0.1091115549206733,0,0,0
2653,108365.28648395903,2011-01-19 19:23:42,60.01463988363306,8,12,0.0,3.592743396759033,8.108138055022051,8.086406149511365,32.999546844629464,28.63095705098337,0.0013274193042889,0.1091115549206733,0,0,0
2654,108365.47621935957,2011-01-19 19:23:43,0.187670021438046,9,12,-1.9243103452026844e-05,3.593067169189453,8.108138055022051,8.086406150514518,32.999546844629464,28.630957054587768,0.0,0.1052602156996727,0,0,0
2655,108370.30407917168,2011-01-19 19:23:47,5.015529818547765,9,12,0.0005225847125984,3.600999593734741,8.108138934831484,8.086406150597549,32.99955000971329,28.630957054886103,0.0011332035064697,0.1052602156996727,0,0,0
