Data_Point,Test_Time(s),Date_Time,Step_Time(s),Step_Index,Cycle_Index,Current(A),Voltage(V),Charge_Capacity(Ah),Discharge_Capacity(Ah),Charge_Energy(Wh),Discharge_Energy(Wh),dV/dt(V/s),Internal_Resistance(Ohm),Is_FC_Data,AC_Impedance(Ohm),ACI_Phase_Angle(Deg)
8279,348739.03680544824,2011-01-22 14:10:30,30.01508898716802,1,41,0.0,3.6704487800598153,25.461656465597336,25.37147750688649,103.90855810137047,89.26055372106087,0.0006799221155233,0.1100189909338951,0,0,0
8280,348769.0519434476,2011-01-22 14:11:01,60.03022698147692,1,41,0.0,3.688903570175171,25.461656465597336,25.37147750688649,103.90855810137047,89.26055372106087,0.0003885269106831,0.1100189909338951,0,0,0
8281,348799.0670263396,2011-01-22 14:11:31,90.04530990352879,1,41,0.0,3.701854467391968,25.461656465597336,25.37147750688649,103.90855810137047,89.26055372106087,0.0003237724304199,0.1100189909338951,0,0,0
8282,348829.0352585351,2011-01-22 14:12:00,120.01354209915482,1,41,0.0,3.711567640304565,25.461656465597336,25.37147750688649,103.90855810137047,89.26055372106087,0.0002590179501567,0.1100189909338951,0,0,0
8283,348859.0640407087,2011-01-22 14:12:31,30.0151183503501,2,41,0.5501165986061096,3.8307156562805176,25.466243599140853,25.37147750688649,103.92604815572793,89.26055372106087,0.0007122993702068,0.1100189909338951,0,0,0
8284,348889.0792738752,2011-01-22 14:13:01,60.030351511844906,2,41,0.5501165986061096,3.850951194763184,25.47083073599791,25.37147750688649,103.94367027002777,89.26055372106087,0.0004209041653666,0.1100189909338951,0,0,0
8285,348919.09427650215,2011-01-22 14:13:31,90.04535411872665,2,41,0.5501165986061096,3.86519718170166,25.475417769377525,25.37147750688649,103.96136927590123,89.26055372106087,0.0003237724304199,0.1100189909338951,0,0,0
8286,348949.1093712637,2011-01-22 14:14:01,120.06044890534872,2,41,0.550297200679779,3.876852989196777,25.480004919615546,25.37147750688649,103.9791272365466,89.26055372106087,0.0002590179501567,0.1100189909338951,0,0,0
8287,348979.1244911028,2011-01-22 14:14:31,150.07556872937167,2,41,0.5501165986061096,3.886728048324585,25.484591989646763,25.37147750688649,103.99693342997904,89.26055372106087,0.0002590179501567,0.1100189909338951,0,0,0
8288,349009.1395761301,2011-01-22 14:15:01,180.09065376669548,2,41,0.550297200679779,3.895146131515503,25.489179082080465,25.37147750688649,104.01478211652066,89.26055372106087,0.0001618862152099,0.1100189909338951,0,0,0
8289,349039.1548308453,2011-01-22 14:15:31,210.10590847689627,2,41,0.5501165986061096,3.903240442276001,25.493766159709992,25.37147750688649,104.03266857525352,89.26055372106087,0.0001618862152099,0.1100189909338951,0,0,0
8290,349069.1697875678,2011-01-22 14:16:01,240.12086520443256,2,41,0.5501165986061096,3.910687208175659,25.49835324667583,25.37147750688649,104.05059014888502,89.26055372106087,0.0001942634553415,0.1100189909338951,0,0,0
8291,349099.1851158363,2011-01-22 14:16:31,270.1361934779759,2,41,0.550297200679779,3.9174861907958975,25.502940399517303,25.37147750688649,104.0685447047096,89.26055372106087,0.0001942634553415,0.1100189909338951,0,0,0
8292,349129.2000287046,2011-01-22 14:17:01,300.15110634620135,2,41,0.550297200679779,3.924123525619507,25.507527420385493,25.37147750688649,104.08652963644482,89.26055372106087,0.0001618862152099,0.1100189909338951,0,0,0
8293,349159.2151331904,2011-01-22 14:17:31,330.1662108169592,2,41,0.5501165986061096,3.9304370880126953,25.51211455690241,25.37147750688649,104.10454440091908,89.26055372106087,0.0001942634553415,0.1100189909338951,0,0,0
8294,349189.2302572249,2011-01-22 14:18:01,360.18133486150094,2,41,0.5501165986061096,3.936264991760254,25.516701701169104,25.37147750688649,104.12258725276972,89.26055372106087,0.0001295089750783,0.1100189909338951,0,0,0
8295,349219.2454670281,2011-01-22 14:18:31,390.19654466478,2,41,0.550297200679779,3.942092895507813,25.521288777497663,25.37147750688649,104.14065634534002,89.26055372106087,0.0002266406954731,0.1100189909338951,0,0,0
8296,349249.2604375601,2011-01-22 14:19:01,420.211515176671,2,41,0.5501165986061096,3.9472732543945312,25.525875858305536,25.37147750688649,104.15875084273172,89.26055372106087,0.0001295089750783,0.1100189909338951,0,0,0
8297,349279.2755449531,2011-01-22 14:19:31,450.2266225897621,2,41,0.5501165986061096,3.95245361328125,25.530462984890693,25.37147750688649,104.17686987041664,89.26055372106087,0.0001295089750783,0.1100189909338951,0,0,0
8298,349309.29065835115,2011-01-22 14:20:01,480.24173598275706,2,41,0.5501165986061096,3.957472085952759,25.53505008061569,25.37147750688649,104.19501196419226,89.26055372106087,0.0001295089750783,0.1100189909338951,0,0,0
8299,349339.3057816087,2011-01-22 14:20:31,510.25685923532495,2,41,0.5501165986061096,3.962166786193848,25.539637175703096,25.37147750688649,104.21317645089046,89.26055372106087,0.0001295089750783,0.1100189909338951,0,0,0
8300,349369.32099957234,2011-01-22 14:21:01,540.272077188917,2,41,0.5501165986061096,3.966861486434937,25.54422434093129,25.37147750688649,104.23136254813495,89.26055372106087,0.0001618862152099,0.1100189909338951,0,0,0
8301,349399.3359732321,2011-01-22 14:21:31,570.2870508687035,2,41,0.5501165986061096,3.971394300460816,25.54881144268924,25.37147750688649,104.24956878244768,89.26055372106087,0.0001618862152099,0.1100189909338951,0,0,0
8302,349429.3512098021,2011-01-22 14:22:01,600.3022874186433,2,41,0.550297200679779,3.975441455841065,25.553398624883304,25.37147750688649,104.26779506134984,89.26055372106087,0.0001295089750783,0.1100189909338951,0,0,0
8303,349459.3662106295,2011-01-22 14:22:31,630.3172882711527,2,41,0.5501165986061096,3.9794886112213135,25.557985784741632,25.37147750688649,104.2860400322232,89.26055372106087,9.713172767078504e-05,0.1100189909338951,0,0,0
8304,349489.3814284177,2011-01-22 14:23:01,660.3325060392825,2,41,0.5501165986061096,3.9835357666015625,25.56257281527922,25.37147750688649,104.30430323662756,89.26055372106087,0.0001295089750783,0.1100189909338951,0,0,0
8305,349519.3964085485,2011-01-22 14:23:31,690.3474861851846,2,41,0.5501165986061096,3.9874210357666016,25.567159805730043,25.37147750688649,104.32258424875975,89.26055372106087,0.0001295089750783,0.1100189909338951,0,0,0
8306,349549.41166108334,2011-01-22 14:24:01,720.3627387049261,2,41,0.550297200679779,3.991144418716431,25.571746860361472,25.37147750688649,104.34088299414152,89.26055372106087,9.713172767078504e-05,0.1100189909338951,0,0,0
8307,349579.42664082325,2011-01-22 14:24:31,750.3777184648662,2,41,0.550297200679779,3.9948675632476807,25.57633391985176,25.37147750688649,104.35919894636284,89.26055372106087,0.0001295089750783,0.1100189909338951,0,0,0
8308,349609.4418649522,2011-01-22 14:25:01,780.3929425788118,2,41,0.5504778623580933,3.9984290599823,25.580921021188477,25.37147750688649,104.37753179370264,89.26055372106087,9.713172767078504e-05,0.1100189909338951,0,0,0
8309,349639.45685106795,2011-01-22 14:25:31,810.4079286996051,2,41,0.5501165986061096,4.001990795135498,25.585507990394632,25.37147750688649,104.39588039625656,89.26055372106087,9.71794142969884e-05,0.1100189909338951,0,0,0
8310,349669.47209151264,2011-01-22 14:26:01,840.4231691342269,2,41,0.550297200679779,4.005552291870117,25.59009507238355,25.37147750688649,104.41424577236997,89.26055372106087,9.71794142969884e-05,0.1100189909338951,0,0,0
8311,349699.48720117635,2011-01-22 14:26:31,870.4382788129644,2,41,0.5499359965324402,4.008627891540527,25.59468207506801,25.37147750688649,104.4326268257456,89.26055372106087,0.0,0.1100189909338951,0,0,0
8312,349729.5023853407,2011-01-22 14:27:01,900.4534629572936,2,41,0.550297200679779,4.012351512908936,25.599269086470297,25.37147750688649,104.45102361016772,89.26055372106087,9.71794142969884e-05,0.1100189909338951,0,0,0
8313,349759.5172910812,2011-01-22 14:27:31,930.4683686977544,2,41,0.5501165986061096,4.015750885009766,25.603856008552324,25.37147750688649,104.4694355846291,89.26055372106087,0.0001295089750783,0.1100189909338951,0,0,0
8314,349789.53240618843,2011-01-22 14:28:01,960.4834838150468,2,41,0.5501165986061096,4.018988609313965,25.608443005997145,25.37147750688649,104.48786309286956,89.26055372106087,9.70840483205393e-05,0.1100189909338951,0,0,0
8315,349819.5474979124,2011-01-22 14:28:31,990.4985755540732,2,41,0.5501165986061096,4.022226333618164,25.613030074530556,25.37147750688649,104.50630582809792,89.26055372106087,6.47544875391759e-05,0.1100189909338951,0,0,0
8316,349849.5628416395,2011-01-22 14:29:01,1020.513919256069,2,41,0.5501165986061096,4.025464057922363,25.61761714430323,25.37147750688649,104.52476339025168,89.26055372106087,6.47544875391759e-05,0.1100189909338951,0,0,0
8317,349879.57770451816,2011-01-22 14:29:31,1050.5287821597674,2,41,0.550297200679779,4.0287017822265625,25.622204099258006,25.37147750688649,104.54323507460153,89.26055372106087,9.70840483205393e-05,0.1100189909338951,0,0,0
8318,349909.59294241143,2011-01-22 14:30:01,1080.5440200380178,2,41,0.550297200679779,4.031615734100342,25.626791200303224,25.37147750688649,104.56172176333362,89.26055372106087,6.47544875391759e-05,0.1100189909338951,0,0,0
8319,349939.60788997606,2011-01-22 14:30:31,1110.5589676127424,2,41,0.5501165986061096,4.034853458404541,25.63137761114808,25.37147750688649,104.5802199333129,89.26055372106087,0.0001295089750783,0.1100189909338951,0,0,0
8320,349969.62300314853,2011-01-22 14:31:01,1140.5740807851876,2,41,0.550297200679779,4.037929058074951,25.63596395096621,25.37147750688649,104.59873198018376,89.26055372106087,9.70840483205393e-05,0.1100189909338951,0,0,0
8321,349999.63811547385,2011-01-22 14:31:31,1170.5891931105216,2,41,0.5499359965324402,4.0408430099487305,25.640550506686,25.37147750688649,104.61725911501595,89.26055372106087,3.23295607813634e-05,0.1100189909338951,0,0,0
8322,350029.65322142333,2011-01-22 14:32:01,1200.604299059965,2,41,0.5501165986061096,4.04408073425293,25.645136892989942,25.37147750688649,104.63579961406587,89.26055372106087,9.70840483205393e-05,0.1100189909338951,0,0,0
8323,350059.670693144,2011-01-22 14:32:31,1230.621770780638,2,41,0.5499359965324402,4.046994686126709,25.649723550143268,25.37147750688649,104.65435515589392,89.26055372106087,6.47544875391759e-05,0.1100189909338951,0,0,0
8324,350089.6834508359,2011-01-22 14:33:01,1260.6345284725007,2,41,0.5501165986061096,4.050070762634277,25.654309552563618,25.37147750688649,104.67292210217248,89.26055372106087,6.47544875391759e-05,0.1100189909338951,0,0,0
8325,350119.698561472,2011-01-22 14:33:31,1290.649639083562,2,41,0.550297200679779,4.053146362304688,25.65889643943192,25.37147750688649,104.69150652846577,89.26055372106087,9.70840483205393e-05,0.1100189909338951,0,0,0
8326,350149.71379429766,2011-01-22 14:34:01,1320.664871919245,2,41,0.5501165986061096,4.056222438812256,25.663483627412425,25.37147750688649,104.71010608802594,89.26055372106087,6.47544875391759e-05,0.1100189909338951,0,0,0
8327,350179.7288065736,2011-01-22 14:34:31,1350.6798842102623,2,41,0.550297200679779,4.059136390686035,25.668070794193035,25.37147750688649,104.72871938793443,89.26055372106087,6.47544875391759e-05,0.1100189909338951,0,0,0
8328,350209.7438767489,2011-01-22 14:35:01,1380.6949543855455,2,41,0.5501165986061096,4.062050342559815,25.67265793845106,25.37147750688649,104.747346068011,89.26055372106087,6.47544875391759e-05,0.1100189909338951,0,0,0
8329,350239.7591130332,2011-01-22 14:35:31,1410.7101906447608,2,41,0.550297200679779,4.065125942230225,25.677245094207,25.37147750688649,104.76598646970112,89.26055372106087,9.70840483205393e-05,0.1100189909338951,0,0,0
8330,350269.7740864123,2011-01-22 14:36:01,1440.7251640488605,2,41,0.5501165986061096,4.068202018737793,25.68183222506782,25.37147750688649,104.78464053103968,89.26055372106087,0.0001295089750783,0.1100189909338951,0,0,0
8331,350299.7892183915,2011-01-22 14:36:31,1470.740296028178,2,41,0.5499359965324402,4.070953845977783,25.68641933214881,25.37147750688649,104.80330824066051,89.26055372106087,3.23295607813634e-05,0.1100189909338951,0,0,0
8332,350329.8043046218,2011-01-22 14:37:01,1500.755382258475,2,41,0.5501165986061096,4.074191570281982,25.69100649985784,25.37147750688649,104.82198999158751,89.26055372106087,9.70840483205393e-05,0.1100189909338951,0,0,0
8333,350359.8194242052,2011-01-22 14:37:31,1530.7705018368856,2,41,0.5501165986061096,4.077105522155762,25.695593546229127,25.37147750688649,104.84068522137812,89.26055372106087,6.47544875391759e-05,0.1100189909338951,0,0,0
8334,350389.8211816712,2011-01-22 14:38:01,1560.7722593028006,2,41,0.5501165986061096,4.08018159866333,25.700178513223445,25.37147750688649,104.85938584067844,89.26055372106087,6.47544875391759e-05,0.1100189909338951,0,0,0
8335,350419.8342294711,2011-01-22 14:38:31,1590.785307082652,2,41,0.550297200679779,4.083419322967529,25.704765352390293,25.37147750688649,104.8781080103175,89.26055372106087,9.71794142969884e-05,0.1100189909338951,0,0,0
8336,350449.8491272818,2011-01-22 14:39:01,1620.800204918412,2,41,0.5499359965324402,4.086009502410889,25.70935239089549,25.37147750688649,104.89684498850517,89.26055372106087,3.24249267578125e-05,0.1100189909338951,0,0,0
8337,350479.86422274006,2011-01-22 14:39:31,1650.815300376708,2,41,0.550297200679779,4.089408874511719,25.71393952252385,25.37147750688649,104.91559638540724,89.26055372106087,9.70840483205393e-05,0.1100189909338951,0,0,0
8338,350509.8793257722,2011-01-22 14:40:01,1680.8304034138932,2,41,0.5501165986061096,4.092484951019287,25.718526635746084,25.37147750688649,104.93436180632092,89.26055372106087,6.47544875391759e-05,0.1100189909338951,0,0,0
8339,350539.8945844122,2011-01-22 14:40:31,1710.8456620288257,2,41,0.550297200679779,4.095560550689697,25.7231138307935,25.37147750688649,104.95314170897932,89.26055372106087,9.70840483205393e-05,0.1100189909338951,0,0,0
8340,350569.90955326497,2011-01-22 14:41:02,1740.8606309016316,2,41,0.5501165986061096,4.098474502563477,25.727701039574377,25.37147750688649,104.97193580886724,89.26055372106087,3.23295607813634e-05,0.1100189909338951,0,0,0
8341,350599.9247828225,2011-01-22 14:41:32,1770.875860439094,2,41,0.550297200679779,4.101874351501465,25.73228826243164,25.37147750688649,104.99074428098584,89.26055372106087,9.71794142969884e-05,0.1100189909338951,0,0,0
8342,350629.93975566525,2011-01-22 14:42:02,1800.8908333068573,2,41,0.5501165986061096,4.104949951171875,25.73687545583788,25.37147750688649,105.00956685169828,89.26055372106087,9.70840483205393e-05,0.1100189909338951,0,0,0
8343,350659.9548721359,2011-01-22 14:42:32,1830.9059497775224,2,41,0.5501165986061096,4.108026027679443,25.741462639658224,25.37147750688649,105.02840386649224,89.26055372106087,3.24249267578125e-05,0.1100189909338951,0,0,0
8344,350689.96998479706,2011-01-22 14:43:02,1860.9210624336808,2,41,0.5499359965324402,4.1111016273498535,25.746049787764846,25.37147750688649,105.04725523021514,89.26055372106087,9.70840483205393e-05,0.1100189909338951,0,0,0
8345,350719.98508328287,2011-01-22 14:43:32,1890.9361609195223,2,41,0.550297200679779,4.114501476287842,25.750636910916068,25.37147750688649,105.06612113513614,89.26055372106087,0.0001295089750783,0.1100189909338951,0,0,0
8346,350750.0003393214,2011-01-22 14:44:02,1920.9514170432465,2,41,0.5501165986061096,4.117577075958252,25.7552240595721,25.37147750688649,105.08500188324032,89.26055372106087,6.47544875391759e-05,0.1100189909338951,0,0,0
8347,350780.01542543643,2011-01-22 14:44:32,1950.9665030529936,2,41,0.5501165986061096,4.120814800262451,25.759811244718243,25.37147750688649,105.10389768590176,89.26055372106087,6.47544875391759e-05,0.1100189909338951,0,0,0
8348,350810.0304345846,2011-01-22 14:45:02,1980.9815122112032,2,41,0.5501165986061096,4.12405252456665,25.764398385789168,25.37147750688649,105.12280831985338,89.26055372106087,9.71794142969884e-05,0.1100189909338951,0,0,0
8349,350840.0456465282,2011-01-22 14:45:32,2010.9967241648417,2,41,0.5501165986061096,4.1274518966674805,25.768985496344957,25.37147750688649,105.14173392727176,89.26055372106087,0.0001295089750783,0.1100189909338951,0,0,0
8350,350870.0606367542,2011-01-22 14:46:02,2041.0117143808416,2,41,0.5499359965324402,4.130527973175049,25.77357259168352,25.37147750688649,105.16067466508991,89.26055372106087,3.24249267578125e-05,0.1100189909338951,0,0,0
8351,350900.07573606214,2011-01-22 14:46:32,2071.026813678707,2,41,0.550297200679779,4.134089469909668,25.77815977086208,25.37147750688649,105.17963100418562,89.26055372106087,9.71794142969884e-05,0.1100189909338951,0,0,0
8352,350930.0908644124,2011-01-22 14:47:02,2101.041942039005,2,41,0.5501165986061096,4.137488842010498,25.78274693674072,25.37147750688649,105.1986026621722,89.26055372106087,6.47544875391759e-05,0.1100189909338951,0,0,0
8353,350960.10597073275,2011-01-22 14:47:32,2131.0570483693973,2,41,0.5501165986061096,4.140888690948486,25.787334132553585,25.37147750688649,105.21759003449476,89.26055372106087,6.47544875391759e-05,0.1100189909338951,0,0,0
8354,350990.1211079702,2011-01-22 14:48:02,2161.072185601808,2,41,0.550297200679779,4.1444501876831055,25.791921413966207,25.37147750688649,105.23659342715018,89.26055372106087,0.0001295089750783,0.1100189909338951,0,0,0
8355,351020.13624013995,2011-01-22 14:48:32,2191.087317766588,2,41,0.550297200679779,4.148011684417725,25.796508527417902,25.37147750688649,105.25561216965824,89.26055372106087,0.0001619339018361,0.1100189909338951,0,0,0
8356,351050.1514902888,2011-01-22 14:49:02,2221.10256791542,2,41,0.5501165986061096,4.151087284088135,25.80109569849459,25.37147750688649,105.27464702488638,89.26055372106087,3.23295607813634e-05,0.1100189909338951,0,0,0
8357,351080.1663910619,2011-01-22 14:49:32,2251.117468698525,2,41,0.5501165986061096,4.154810905456543,25.80568283960604,25.37147750688649,105.29369779176984,89.26055372106087,6.47544875391759e-05,0.1100189909338951,0,0,0
8358,351110.1815857826,2011-01-22 14:50:02,2281.132663579614,2,41,0.550297200679779,4.158534049987793,25.81026996205085,25.37147750688649,105.31276467279189,89.26055372106087,0.0001295089750783,0.1100189909338951,0,0,0
8359,351140.1965997728,2011-01-22 14:50:32,2311.147677394429,2,41,0.5501165986061096,4.161933898925781,25.8148570575686,25.37147750688649,105.3318477082484,89.26055372106087,6.47544875391759e-05,0.1100189909338951,0,0,0
8360,351170.2117383085,2011-01-22 14:51:02,2341.162815950137,2,41,0.5501165986061096,4.1654953956604,25.819444162548685,25.37147750688649,105.35094704317802,89.26055372106087,9.71794142969884e-05,0.1100189909338951,0,0,0
8361,351200.226816584,2011-01-22 14:51:32,2371.1778942256087,2,41,0.5501165986061096,4.16905689239502,25.82403121045392,25.37147750688649,105.37006260286348,89.26055372106087,9.71794142969884e-05,0.1100189909338951,0,0,0
8362,351230.2419277514,2011-01-22 14:52:02,2401.193005388044,2,41,0.550297200679779,4.1727800369262695,25.828618297888024,25.37147750688649,105.38919491984927,89.26055372106087,9.70840483205393e-05,0.1100189909338951,0,0,0
8363,351260.257034548,2011-01-22 14:52:32,2431.2081121845986,2,41,0.5501165986061096,4.176341533660889,25.83320548083704,25.37147750688649,105.40834434331336,89.26055372106087,6.47544875391759e-05,0.1100189909338951,0,0,0
8364,351290.27214264777,2011-01-22 14:53:02,2461.223220284401,2,41,0.5501165986061096,4.179903030395508,25.83779195492237,25.37147750688649,105.4275075137434,89.26055372106087,6.47544875391759e-05,0.1100189909338951,0,0,0
8365,351320.28724431654,2011-01-22 14:53:32,2491.238321958188,2,41,0.550297200679779,4.183788299560547,25.84237837126101,25.37147750688649,105.44668741118728,89.26055372106087,9.70840483205393e-05,0.1100189909338951,0,0,0
8366,351350.3023707119,2011-01-22 14:54:02,2521.253448338552,2,41,0.5501165986061096,4.187511920928955,25.84696481239947,25.37147750688649,105.46588441238524,89.26055372106087,0.0001295089750783,0.1100189909338951,0,0,0
8367,351380.3176086854,2011-01-22 14:54:32,2551.268686322064,2,41,0.5501165986061096,4.191235065460205,25.8515511755684,25.37147750688649,105.48509829471398,89.26055372106087,9.70840483205393e-05,0.1100189909338951,0,0,0
8368,351410.33257902187,2011-01-22 14:55:02,2581.283656628443,2,41,0.5501165986061096,4.195120334625244,25.85613812061812,25.37147750688649,105.50433214579152,89.26055372106087,9.70840483205393e-05,0.1100189909338951,0,0,0
8369,351440.347799176,2011-01-22 14:55:32,2611.2988768125947,2,41,0.5501165986061096,4.198843479156494,25.86072521640345,25.37147750688649,105.52358404976894,89.26055372106087,9.70840483205393e-05,0.1100189909338951,0,0,0
8370,351448.4256633891,2011-01-22 14:55:40,2619.3767410307228,2,41,0.550297200679779,4.200138568878174,25.861959707397013,25.37147750688649,105.52876819987084,89.26055372106087,0.0001295089750783,0.1100189909338951,0,0,0
8371,351478.4528253025,2011-01-22 14:56:10,30.0152359684907,3,41,0.0,4.088761329650879,25.861959707397013,25.37147750688649,105.52876819987084,89.26055372106087,-0.0005180359003134,0.1100189909338951,0,0,0
8372,351508.46778926306,2011-01-22 14:56:40,60.03019994910392,3,41,0.0,4.074839115142822,25.861959707397013,25.37147750688649,105.52876819987084,89.26055372106087,-0.0002590179501567,0.1100189909338951,0,0,0
8373,351538.48302031925,2011-01-22 14:57:10,90.04543099532681,3,41,0.0,4.0657734870910645,25.861959707397013,25.37147750688649,105.52876819987084,89.26055372106087,-0.0001619339018361,0.1100189909338951,0,0,0
8374,351568.45137209294,2011-01-22 14:57:40,120.0137827539406,3,41,0.0,4.059460163116455,25.861959707397013,25.37147750688649,105.52876819987084,89.26055372106087,-0.0001295089750783,0.1100189909338951,0,0,0
8375,351598.4785954101,2011-01-22 14:58:10,30.015112841620656,5,41,0.0,4.054927349090576,25.86195970739713,25.37147750688649,105.52876819987132,89.26055372106087,-9.70840483205393e-05,0.1100189909338951,0,0,0
8376,351628.47805663804,2011-01-22 14:58:40,60.01457405957926,5,41,0.0,4.051203727722168,25.86195970739713,25.37147750688649,105.52876819987132,89.26055372106087,-9.71794142969884e-05,0.1100189909338951,0,0,0
8377,351628.665082599,2011-01-22 14:58:41,0.187624157130078,6,41,-1.9243103452026844e-05,4.051365852355957,25.86195970739713,25.3714775078894,105.52876819987132,89.26055372512403,0.0,0.1151846498250961,0,0,0
8378,351633.4929674886,2011-01-22 14:58:46,5.015508976603226,6,41,0.0008838032954372,4.050879955291748,25.861960901675715,25.37147750797243,105.52877303807747,89.26055372546041,-6.47544875391759e-05,0.1151846498250961,0,0,0
8379,351646.91407370486,2011-01-22 14:58:59,13.421616182254237,7,41,-1.0993878841400146,3.850627422332764,25.861960901675715,25.37557623999647,105.52877303807747,89.27641352162065,-0.0020073889754712,0.1151846498250961,0,0,0
8380,351676.92919360404,2011-01-22 14:59:29,43.43673608146457,7,41,-1.0993878841400146,3.787168264389038,25.861960901675715,25.384742344887,105.52877303807747,89.31140879898383,-0.0015541076427325,0.1151846498250961,0,0,0
8381,351706.94443341705,2011-01-22 14:59:59,73.45197587448716,7,41,-1.099568486213684,3.7350411415100098,25.861960901675715,25.39390842161224,105.52877303807747,89.34587443148108,-0.0012627125252038,0.1151846498250961,0,0,0
8382,351736.95939458074,2011-01-22 15:00:29,103.46693705812947,7,41,-1.0992072820663452,3.6942458152771,25.861960901675715,25.403074454518897,105.52877303807747,89.379914763505,-0.0009713172912597,0.1151846498250961,0,0,0
8383,351766.97450081084,2011-01-22 15:00:59,133.4820432882723,7,41,-1.099568486213684,3.663325786590576,25.861960901675715,25.41224049234334,105.52877303807747,89.41362811436427,-0.0007122993702068,0.1151846498250961,0,0,0
8384,351796.9896522036,2011-01-22 15:01:29,163.49719467596162,7,41,-1.0993878841400146,3.638719081878662,25.861960901675715,25.42140646917865,105.52877303807747,89.44708892918838,-0.0006151676061563,0.1151846498250961,0,0,0
8385,351827.0048650043,2011-01-22 15:01:59,193.5124074616737,7,41,-1.0992072820663452,3.618968963623047,25.861960901675715,25.430572455499263,105.52877303807747,89.48034753532507,-0.0004532813909463,0.1151846498250961,0,0,0
8386,351857.0198237068,2011-01-22 15:02:29,223.5273661841821,7,41,-1.0992072820663452,3.601970911026001,25.861960901675715,25.43973838411932,105.52877303807747,89.51343843999072,-0.0004532813909463,0.1151846498250961,0,0,0
8387,351887.0350605224,2011-01-22 15:02:59,253.5426029897591,7,41,-1.099568486213684,3.587401390075684,25.861960901675715,25.448904449657903,105.52877303807747,89.5463867460481,-0.0003561496851034,0.1151846498250961,0,0,0
8388,351917.0524397425,2011-01-22 15:03:29,283.55998228507974,7,41,-1.0993878841400146,3.5749361515045166,25.861960901675715,25.458071116539685,105.52877303807747,89.57921333999991,-0.0003237724304199,0.1151846498250961,0,0,0
8389,351947.0652865164,2011-01-22 15:03:59,313.57282897374995,7,41,-1.0993878841400146,3.5634422302246094,25.861960901675715,25.467236409752765,105.52877303807747,89.61192533060891,-0.0002913951757363,0.1151846498250961,0,0,0
8390,351977.0802739605,2011-01-22 15:04:29,343.5878164228539,7,41,-1.0992072820663452,3.553081512451172,25.861960901675715,25.476402299288413,105.52877303807747,89.64454026301468,-0.0002590179501567,0.1151846498250961,0,0,0
8391,352007.0953961003,2011-01-22 15:04:59,373.6029385726733,7,41,-1.0992072820663452,3.543853998184204,25.861960901675715,25.485568352091757,105.52877303807747,89.67706450641637,-0.0001942634553415,0.1151846498250961,0,0,0
8392,352037.11050154845,2011-01-22 15:05:29,403.61804410607976,7,41,-1.0993878841400146,3.5347883701324463,25.861960901675715,25.49473435415536,105.52877303807747,89.70950479350334,-0.0002590179501567,0.1151846498250961,0,0,0
8393,352067.1257183191,2011-01-22 15:05:59,433.63326078649874,7,41,-1.099568486213684,3.5262084007263184,25.861960901675715,25.50390046631999,105.52877303807747,89.7418665621758,-0.0002590179501567,0.1151846498250961,0,0,0
8394,352097.14070010907,2011-01-22 15:06:29,463.6482425815109,7,41,-1.0993878841400146,3.5182759761810303,25.861960901675715,25.513066525548552,105.52877303807747,89.77415228053516,-0.0002266406954731,0.1151846498250961,0,0,0
8395,352127.1557106858,2011-01-22 15:06:59,493.6632531532434,7,41,-1.0993878841400146,3.5103437900543213,25.861960901675715,25.522232529813017,105.52877303807747,89.80636438517942,-0.0001942634553415,0.1151846498250961,0,0,0
8396,352157.17111875326,2011-01-22 15:07:29,523.6786612056202,7,41,-1.0992072820663452,3.502735137939453,25.861960901675715,25.53139869006057,105.52877303807747,89.83850553640859,-0.0001942634553415,0.1151846498250961,0,0,0
8397,352187.186069135,2011-01-22 15:07:59,553.6936115873407,7,41,-1.0993878841400146,3.495450258255005,25.861960901675715,25.540564742015647,105.52877303807747,89.8705778324395,-0.0002266406954731,0.1151846498250961,0,0,0
8398,352217.2034852621,2011-01-22 15:08:29,583.7110277144576,7,41,-1.0993878841400146,3.4883272647857666,25.861960901675715,25.549731460548337,105.52877303807747,89.9025869313881,-0.0001942634553415,0.1151846498250961,0,0,0
8399,352247.2160995014,2011-01-22 15:08:59,613.7236419638175,7,41,-1.0992072820663452,3.4812042713165283,25.861960901675715,25.55889671990504,105.52877303807747,89.93452572065043,-0.0001942634553415,0.1151846498250961,0,0,0
8400,352277.23135284823,2011-01-22 15:09:29,643.7388953156328,7,41,-1.0992072820663452,3.47440505027771,25.861960901675715,25.56806276598141,105.52877303807747,89.96640221521491,-0.0001295089750783,0.1151846498250961,0,0,0
8401,352307.246577298,2011-01-22 15:09:59,673.7541197604028,7,41,-1.099568486213684,3.4674439430236816,25.861960901675715,25.5772288229024,105.52877303807747,89.99821611318609,-0.0002266406954731,0.1151846498250961,0,0,0
8402,352337.2615512735,2011-01-22 15:10:29,703.769093740939,7,41,-1.099568486213684,3.460806608200073,25.861960901675715,25.586394821514837,105.52877303807747,90.02996922373158,-0.0002266406954731,0.1151846498250961,0,0,0
8403,352367.2767903498,2011-01-22 15:10:59,733.7843328021376,7,41,-1.0993878841400146,3.454007387161255,25.861960901675715,25.595560872185768,105.52877303807747,90.06166046120127,-0.0001942634553415,0.1151846498250961,0,0,0
8404,352397.2917804655,2011-01-22 15:11:30,763.7993229329251,7,41,-1.0993878841400146,3.4470462799072266,25.861960901675715,25.604726865696232,105.52877303807747,90.093287839048,-0.0001942634553415,0.1151846498250961,0,0,0
8405,352427.3069156178,2011-01-22 15:12:00,793.8144581703631,7,41,-1.0993878841400146,3.4399232864379883,25.861960901675715,25.613892967154104,105.52877303807747,90.12485083679096,-0.0001942634553415,0.1151846498250961,0,0,0
8406,352457.3220190409,2011-01-22 15:12:30,823.8295614882475,7,41,-1.0993878841400146,3.43263840675354,25.861960901675715,25.62305894232293,105.52877303807747,90.1563480670404,-0.0002266406954731,0.1151846498250961,0,0,0
8407,352487.3371023188,2011-01-22 15:13:00,853.8446447862365,7,41,-1.099568486213684,3.425191879272461,25.861960901675715,25.63222503173975,105.52877303807747,90.18777805330004,-0.0001942634553415,0.1151846498250961,0,0,0
8408,352517.352212168,2011-01-22 15:13:30,883.859754635399,7,41,-1.0992072820663452,3.417421340942383,25.861960901675715,25.641391098042384,105.52877303807747,90.21913863848276,-0.0002266406954731,0.1151846498250961,0,0,0
8409,352547.36731415754,2011-01-22 15:14:00,913.8748566249732,7,41,-1.0992072820663452,3.409003257751465,25.861960901675715,25.65055710421954,105.52877303807747,90.25042497915874,-0.0002266406954731,0.1151846498250961,0,0,0
8410,352577.38244070834,2011-01-22 15:14:30,943.8899831757612,7,41,-1.0993878841400146,3.400099515914917,25.861960901675715,25.659723204255,105.52877303807747,90.28163223122536,-0.0002590179501567,0.1151846498250961,0,0,0
8411,352607.3975458909,2011-01-22 15:15:00,973.9050883432552,7,41,-1.099568486213684,3.3905482292175293,25.861960901675715,25.66888931678321,105.52877303807747,90.31275576744726,-0.0002913951757363,0.1151846498250961,0,0,0
8412,352637.4128031825,2011-01-22 15:15:30,1003.92034563489,7,41,-1.0993878841400146,3.380187511444092,25.861960901675715,25.678055433306795,105.52877303807747,90.34378732129043,-0.0002590179501567,0.1151846498250961,0,0,0
8413,352667.42785864114,2011-01-22 15:16:00,1033.9354010934946,7,41,-1.0993878841400146,3.368693590164185,25.861960901675715,25.687221447486426,105.52877303807747,90.37471869648634,-0.0003237724304199,0.1151846498250961,0,0,0
8414,352697.44284946367,2011-01-22 15:16:30,1063.9503919109934,7,41,-1.0993878841400146,3.356066465377808,25.861960901675715,25.6963873722388,105.52877303807747,90.40553960629954,-0.0003561496851034,0.1151846498250961,0,0,0
8415,352727.4579591324,2011-01-22 15:17:00,1093.9655015847188,7,41,-1.0993878841400146,3.34198260307312,25.861960901675715,25.705553316381707,105.52877303807747,90.4362386448782,-0.0004209041653666,0.1151846498250961,0,0,0
8416,352757.47311275057,2011-01-22 15:17:30,1123.980655218005,7,41,-1.0993878841400146,3.326279640197754,25.861960901675715,25.71471938030973,105.52877303807747,90.46680228325512,-0.0004532813909463,0.1151846498250961,0,0,0
8417,352787.488203016,2011-01-22 15:18:00,1153.9957454833586,7,41,-1.0993878841400146,3.3076627254486084,25.861960901675715,25.72388537385639,105.52877303807747,90.49721012985152,-0.0005504131549969,0.1151846498250961,0,0,0
8418,352817.5033516718,2011-01-22 15:18:30,1184.010894124202,7,41,-1.0993878841400146,3.284674882888794,25.861960901675715,25.733051378364493,105.52877303807747,90.52742622001692,-0.0006475448608398,0.1151846498250961,0,0,0
8419,352847.5184412555,2011-01-22 15:19:00,1214.025983722894,7,41,-1.0992072820663452,3.25650691986084,25.861960901675715,25.74221744083109,105.52877303807747,90.5574099455296,-0.0008094310760498,0.1151846498250961,0,0,0
8420,352877.53374414577,2011-01-22 15:19:30,1244.041286608162,7,41,-1.0993878841400146,3.2199206352233887,25.861960901675715,25.751383555588664,105.52877303807747,90.58709949744753,-0.0011008263099938,0.1151846498250961,0,0,0
8421,352907.54863718955,2011-01-22 15:20:00,1274.0561796519787,7,41,-1.099568486213684,3.16989803314209,25.861960901675715,25.76054953989319,105.52877303807747,90.61639756059728,-0.0015217304462566,0.1151846498250961,0,0,0
8422,352937.56375531433,2011-01-22 15:20:30,1304.0712977667415,7,41,-1.0993878841400146,3.099963426589966,25.861960901675715,25.769715625713577,105.52877303807747,90.64515262674276,-0.0022016048897057,0.1151846498250961,0,0,0
8423,352967.5789763707,2011-01-22 15:21:00,1334.0865188681792,7,41,-1.0993878841400146,2.99781346321106,25.861960901675715,25.778881795777863,105.52877303807747,90.67312996460736,-0.0031729699112474,0.1151846498250961,0,0,0
8424,352997.5939680604,2011-01-22 15:21:30,1364.101510527777,7,41,-1.0993878841400146,2.8422412872314453,25.861960901675715,25.78804783429368,105.52877303807747,90.6999454011495,-0.0049213408492505,0.1151846498250961,0,0,0
8425,353018.0937011529,2011-01-22 15:21:50,1384.6012436202536,7,41,-1.0992072820663452,2.699781894683838,25.861960901675715,25.79430807125125,105.52877303807747,90.71730467280672,-0.005892610643059,0.1151846498250961,0,0,0
8426,353078.11495023256,2011-01-22 15:22:50,60.01364984615503,8,41,0.0,3.653774499893189,25.861960901675715,25.79430807125125,105.52877303807747,90.71730467280672,0.0010684489971026,0.1151846498250961,0,0,0
8427,353078.29554381734,2011-01-22 15:22:51,0.187512173031247,9,41,-1.9243103452026844e-05,3.6536126136779785,25.861960901675715,25.794308072253564,105.52877303807747,90.7173046764688,0.0,0.1116369217634201,0,0,0
8428,353083.12370053446,2011-01-22 15:22:56,5.015668875119529,9,41,0.0008838032954372,3.659764289855957,25.86196208605715,25.794308072339405,105.52877736955293,90.71730467678242,0.0009065627818927,0.1116369217634201,0,0,0
