Data_Point,Test_Time(s),Date_Time,Step_Time(s),Step_Index,Cycle_Index,Current(A),Voltage(V),Charge_Capacity(Ah),Discharge_Capacity(Ah),Charge_Energy(Wh),Discharge_Energy(Wh),dV/dt(V/s),Internal_Resistance(Ohm),Is_FC_Data,AC_Impedance(Ohm),ACI_Phase_Angle(Deg)
4528,187184.98662121096,2011-01-20 17:17:33,30.015095648770785,1,22,0.0,3.641147375106812,13.868107469982217,13.830817944932429,56.50774208308015,48.83526888242239,0.0006799221155233,0.108498990535736,0,0,0
4529,187215.0017367944,2011-01-20 17:18:03,60.03021124224991,1,22,0.0,3.661706924438477,13.868107469982217,13.830817944932429,56.50774208308015,48.83526888242239,0.0004532813909463,0.108498990535736,0,0,0
4530,187245.01686042792,2011-01-20 17:18:33,90.0453348757673,1,22,0.0,3.675952672958374,13.868107469982217,13.830817944932429,56.50774208308015,48.83526888242239,0.0003561496851034,0.108498990535736,0,0,0
4531,187274.9850886386,2011-01-20 17:19:03,120.01356309147414,1,22,0.0,3.686637163162232,13.868107469982217,13.830817944932429,56.50774208308015,48.83526888242239,0.0002590179501567,0.108498990535736,0,0,0
4532,187304.9959083221,2011-01-20 17:19:33,30.015150179678585,2,22,0.5501165986061096,3.807889699935913,13.872694845652155,13.830817944932429,56.52512357070552,48.83526888242239,0.0007446765666827,0.108498990535736,0,0,0
4533,187335.0109844572,2011-01-20 17:20:03,60.03022631982788,2,22,0.5501165986061096,3.828934907913208,13.877282168370757,13.830817944932429,56.54264424485409,48.83526888242239,0.0004532813909463,0.108498990535736,0,0,0
4534,187365.0262172428,2011-01-20 17:20:33,90.04545908032327,2,22,0.5501165986061096,3.842694997787476,13.881869497048728,13.830817944932429,56.56024197404918,48.83526888242239,0.0002913951757363,0.108498990535736,0,0,0
4535,187395.0412864156,2011-01-20 17:21:03,120.06052826814522,2,22,0.550297200679779,3.853865146636963,13.886456811408456,13.830817944932429,56.57789589008929,48.83526888242239,0.0003237724304199,0.108498990535736,0,0,0
4536,187425.056460565,2011-01-20 17:21:33,150.0757024576637,2,22,0.550297200679779,3.863416433334351,13.891044117798158,13.830817944932429,56.595596265015146,48.83526888242239,0.0002913951757363,0.108498990535736,0,0,0
4537,187455.07367463352,2011-01-20 17:22:03,180.09291648107592,2,22,0.5499359965324402,3.871348857879639,13.895631673635076,13.830817944932429,56.613338485696616,48.83526888242239,0.0001618862152099,0.108498990535736,0,0,0
4538,187485.08658083552,2011-01-20 17:22:33,210.1058226981091,2,22,0.550297200679779,3.879281282424927,13.900218632332145,13.830817944932429,56.63111492783657,48.83526888242239,0.0002266406954731,0.108498990535736,0,0,0
4539,187515.10173795748,2011-01-20 17:23:03,240.1209798100651,2,22,0.550297200679779,3.886080503463745,13.904805895652464,13.830817944932429,56.64892588865483,48.83526888242239,0.0001942634553415,0.108498990535736,0,0,0
4540,187545.11692974588,2011-01-20 17:23:33,270.1361716084703,2,22,0.5501165986061096,3.892555952072144,13.909393152491594,13.830817944932429,56.666767798489694,48.83526888242239,0.0001618862152099,0.108498990535736,0,0,0
4541,187575.13192460843,2011-01-20 17:24:03,300.1511664610259,2,22,0.5501165986061096,3.898707628250122,13.913980423785048,13.830817944932429,56.684638486052265,48.83526888242239,0.0001295089750783,0.108498990535736,0,0,0
4542,187605.14703743003,2011-01-20 17:24:33,330.1662792575342,2,22,0.550297200679779,3.90469741821289,13.918567652075629,13.830817944932429,56.70253660873415,48.83526888242239,0.0001295089750783,0.108498990535736,0,0,0
4543,187635.1621773341,2011-01-20 17:25:04,360.1814191916777,2,22,0.550297200679779,3.9103634357452393,13.923154949920391,13.830817944932429,56.72046145191968,48.83526888242239,0.0001618862152099,0.108498990535736,0,0,0
4544,187665.17727775977,2011-01-20 17:25:34,390.1965195973041,2,22,0.550297200679779,3.915705442428589,13.927742241965223,13.830817944932429,56.73841162566783,48.83526888242239,0.0001618862152099,0.108498990535736,0,0,0
4545,187695.1924086313,2011-01-20 17:26:04,420.2116504989359,2,22,0.5504778623580933,3.9210476875305176,13.932329510104838,13.830817944932429,56.75638601650034,48.83526888242239,0.0001295089750783,0.108498990535736,0,0,0
4546,187725.20754598905,2011-01-20 17:26:34,450.2267878466331,2,22,0.550297200679779,3.925904273986816,13.936916765917132,13.830817944932429,56.77438353876957,48.83526888242239,0.0001295089750783,0.108498990535736,0,0,0
4547,187755.22265549732,2011-01-20 17:27:04,480.2418973399088,2,22,0.550297200679779,3.9307608604431152,13.941504043710738,13.830817944932429,56.79240325326302,48.83526888242239,0.0001618862152099,0.108498990535736,0,0,0
4548,187785.2378714309,2011-01-20 17:27:34,510.2571132634412,2,22,0.5501165986061096,3.934969902038574,13.946091332553015,13.830817944932429,56.81044428178875,48.83526888242239,9.713172767078504e-05,0.108498990535736,0,0,0
4549,187815.25288632343,2011-01-20 17:28:04,540.272128160955,2,22,0.550297200679779,3.939664602279663,13.950678642580408,13.830817944932429,56.82850591420404,48.83526888242239,0.0001942634553415,0.108498990535736,0,0,0
4550,187845.268107866,2011-01-20 17:28:34,570.2873497235418,2,22,0.5501165986061096,3.943549871444702,13.955265915735712,13.830817944932429,56.84658698971888,48.83526888242239,6.47544875391759e-05,0.108498990535736,0,0,0
4551,187875.28311232745,2011-01-20 17:29:04,600.3023541900583,2,22,0.550297200679779,3.947597026824951,13.959853131511954,13.830817944932429,56.86468653182672,48.83526888242239,9.713172767078504e-05,0.108498990535736,0,0,0
4552,187905.2984651221,2011-01-20 17:29:34,630.3177069696783,2,22,0.550297200679779,3.9516441822052,13.964440399536288,13.830817944932429,56.8828042203148,48.83526888242239,0.0001618862152099,0.108498990535736,0,0,0
4553,187935.31348308225,2011-01-20 17:30:04,660.3327249398501,2,22,0.5501165986061096,3.9552056789398193,13.969027644878368,13.830817944932429,56.90093908018036,48.83526888242239,0.0001295089750783,0.108498990535736,0,0,0
4554,187965.3284577345,2011-01-20 17:30:34,690.3476996020852,2,22,0.550297200679779,3.9587671756744394,13.973614853454064,13.830817944932429,56.91909041352434,48.83526888242239,9.713172767078504e-05,0.108498990535736,0,0,0
4555,187995.3435902201,2011-01-20 17:31:04,720.3628320575897,2,22,0.5501165986061096,3.962166786193848,13.978202200543786,13.830817944932429,56.93725855423241,48.83526888242239,9.713172767078504e-05,0.108498990535736,0,0,0
4556,188025.35868913692,2011-01-20 17:31:34,750.3779309945556,2,22,0.550297200679779,3.965566396713257,13.982789523934937,13.830817944932429,56.95544243772592,48.83526888242239,6.47544875391759e-05,0.108498990535736,0,0,0
4557,188055.3737539088,2011-01-20 17:32:04,780.3929957563465,2,22,0.550297200679779,3.968966007232666,13.987376866452912,13.830817944932429,56.97364166410373,48.83526888242239,9.713172767078504e-05,0.108498990535736,0,0,0
4558,188085.3889411458,2011-01-20 17:32:34,810.408182998396,2,22,0.5501165986061096,3.9720418453216553,13.991964167718216,13.830817944932429,56.9918555554967,48.83526888242239,6.47544875391759e-05,0.108498990535736,0,0,0
4559,188115.404260061,2011-01-20 17:33:04,840.423501898578,2,22,0.5501165986061096,3.975117683410645,13.996551558573175,13.830817944932429,57.01008433554951,48.83526888242239,3.237724376958795e-05,0.108498990535736,0,0,0
4560,188145.4191959767,2011-01-20 17:33:34,870.4384378292823,2,22,0.550297200679779,3.978031635284424,14.001138875812943,13.830817944932429,57.0283269444403,48.83526888242239,6.47544875391759e-05,0.108498990535736,0,0,0
4561,188175.4342166486,2011-01-20 17:34:04,900.4534585162252,2,22,0.5501165986061096,3.981431245803833,14.005726037033975,13.830817944932429,57.04658328640289,48.83526888242239,6.47544875391759e-05,0.108498990535736,0,0,0
4562,188205.44940981545,2011-01-20 17:34:34,930.4686516479532,2,22,0.5501165986061096,3.984345197677612,14.01031322556318,13.830817944932429,57.064853791965454,48.83526888242239,3.237724376958795e-05,0.108498990535736,0,0,0
4563,188235.46453440635,2011-01-20 17:35:04,960.4837762589068,2,22,0.5506584644317627,3.9877448081970215,14.01490046042544,13.830817944932429,57.08313833811224,48.83526888242239,0.0001618862152099,0.108498990535736,0,0,0
4564,188265.47964467647,2011-01-20 17:35:34,990.4988865341312,2,22,0.5501165986061096,3.990496873855591,14.019487687608532,13.830817944932429,57.10143642993215,48.83526888242239,6.47544875391759e-05,0.108498990535736,0,0,0
4565,188295.4947706459,2011-01-20 17:36:04,1020.5140124733952,2,22,0.5501165986061096,3.99324893951416,14.024074884400912,13.830817944932429,57.11974776273699,48.83526888242239,9.713172767078504e-05,0.108498990535736,0,0,0
4566,188325.50990109137,2011-01-20 17:36:34,1050.52914293894,2,22,0.5501165986061096,3.99616265296936,14.028662079641451,13.830817944932429,57.13807234244141,48.83526888242239,6.47544875391759e-05,0.108498990535736,0,0,0
4567,188355.52502191288,2011-01-20 17:37:04,1080.544263770474,2,22,0.550297200679779,3.99907660484314,14.033249327490516,13.830817944932429,57.15641037528805,48.83526888242239,9.713172767078504e-05,0.108498990535736,0,0,0
4568,188385.5401200228,2011-01-20 17:37:34,1110.5593618503035,2,22,0.5501165986061096,4.001828670501709,14.037836547873724,13.830817944932429,57.17476136809009,48.83526888242239,6.47544875391759e-05,0.108498990535736,0,0,0
4569,188415.55523210752,2011-01-20 17:38:04,1140.5744739651132,2,22,0.5501165986061096,4.004742622375488,14.04242371246174,13.830817944932429,57.19312507867425,48.83526888242239,6.47544875391759e-05,0.108498990535736,0,0,0
4570,188445.57036501417,2011-01-20 17:38:34,1170.5896068416669,2,22,0.550297200679779,4.007494926452637,14.047010882113955,13.830817944932429,57.21150168364063,48.83526888242239,6.47544875391759e-05,0.108498990535736,0,0,0
4571,188475.58546573052,2011-01-20 17:39:04,1200.6047075781178,2,22,0.5501165986061096,4.010246753692627,14.051598077010627,13.830817944932429,57.22989109689581,48.83526888242239,3.23295607813634e-05,0.108498990535736,0,0,0
4572,188505.6005799105,2011-01-20 17:39:34,1230.619821768099,2,22,0.550297200679779,4.012999057769775,14.056185242922108,13.830817944932429,57.24829303073965,48.83526888242239,6.47544875391759e-05,0.108498990535736,0,0,0
4573,188535.6158121196,2011-01-20 17:40:04,1260.6350539621826,2,22,0.550297200679779,4.015750885009766,14.060772548476644,13.830817944932429,57.26670809143034,48.83526888242239,9.70840483205393e-05,0.108498990535736,0,0,0
4574,188565.6308699341,2011-01-20 17:40:34,1290.6501117816713,2,22,0.550297200679779,4.018503189086914,14.065359834288452,13.830817944932429,57.28513551321337,48.83526888242239,6.47544875391759e-05,0.108498990535736,0,0,0
4575,188595.6459857682,2011-01-20 17:41:04,1320.6652276207626,2,22,0.550297200679779,4.021093368530273,14.069947103017816,13.830817944932429,57.30357516301508,48.83526888242239,6.47544875391759e-05,0.108498990535736,0,0,0
4576,188625.6612169197,2011-01-20 17:41:34,1350.6804587772604,2,22,0.5504778623580933,4.023845195770264,14.074534273637736,13.830817944932429,57.32202670251963,48.83526888242239,6.47544875391759e-05,0.108498990535736,0,0,0
4577,188655.67620980737,2011-01-20 17:42:04,1380.695451664919,2,22,0.550297200679779,4.026597499847412,14.079121400552554,13.830817944932429,57.34049030266704,48.83526888242239,9.71794142969884e-05,0.108498990535736,0,0,0
4578,188685.6914685225,2011-01-20 17:42:34,1410.7107103600513,2,22,0.5501165986061096,4.029025554656982,14.08370864328861,13.830817944932429,57.3589666902741,48.83526888242239,3.23295607813634e-05,0.108498990535736,0,0,0
4579,188715.7064639465,2011-01-20 17:43:04,1440.7257058040807,2,22,0.5501165986061096,4.031777858734131,14.088295803277497,13.830817944932429,57.377454880134025,48.83526888242239,6.47544875391759e-05,0.108498990535736,0,0,0
4580,188745.72178719752,2011-01-20 17:43:34,1470.7410290400692,2,22,0.550297200679779,4.034691333770752,14.092883045014114,13.830817944932429,57.39595572033197,48.83526888242239,9.70840483205393e-05,0.108498990535736,0,0,0
4581,188775.7367004868,2011-01-20 17:44:04,1500.7559423393689,2,22,0.5497553944587708,4.036957740783691,14.097470184765417,13.830817944932429,57.41446832631623,48.83526888242239,0.0,0.108498990535736,0,0,0
4582,188805.7519493524,2011-01-20 17:44:34,1530.771191205003,2,22,0.5499359965324402,4.03971004486084,14.102057388319883,13.830817944932429,57.432993334330845,48.83526888242239,3.24249267578125e-05,0.108498990535736,0,0,0
4583,188835.76688612023,2011-01-20 17:45:04,1560.7861279477313,2,22,0.5501165986061096,4.042300224304199,14.106644530453668,13.830817944932429,57.45153022512747,48.83526888242239,6.47544875391759e-05,0.108498990535736,0,0,0
4584,188865.78229869387,2011-01-20 17:45:34,1590.8015405514514,2,22,0.5501165986061096,4.044890403747559,14.111231096776704,13.830817944932429,57.4700769214787,48.83526888242239,-3.23295607813634e-05,0.108498990535736,0,0,0
4585,188895.7971001544,2011-01-20 17:46:04,1620.8163420120145,2,22,0.550297200679779,4.047966003417969,14.115817567664877,13.830817944932429,57.4886354847035,48.83526888242239,0.0001295089750783,0.108498990535736,0,0,0
4586,188925.81229558188,2011-01-20 17:46:34,1650.831537439465,2,22,0.5501165986061096,4.050394535064697,14.120404805225206,13.830817944932429,57.5072096740679,48.83526888242239,3.24249267578125e-05,0.108498990535736,0,0,0
4587,188955.82755092863,2011-01-20 17:47:04,1680.846792786252,2,22,0.5501165986061096,4.052984714508057,14.124991997934217,13.830817944932429,57.52579594439566,48.83526888242239,6.47544875391759e-05,0.108498990535736,0,0,0
4588,188985.84254700423,2011-01-20 17:47:34,1710.8617888518306,2,22,0.5501165986061096,4.055736541748047,14.129579153828669,13.830817944932429,57.54439452128464,48.83526888242239,3.23295607813634e-05,0.108498990535736,0,0,0
4589,189015.85764742497,2011-01-20 17:48:04,1740.8768892624694,2,22,0.550297200679779,4.058650493621826,14.134166418769436,13.830817944932429,57.56300606264004,48.83526888242239,6.47544875391759e-05,0.108498990535736,0,0,0
4590,189045.87288711267,2011-01-20 17:48:34,1770.8921289702798,2,22,0.5501165986061096,4.0612406730651855,14.138753733405116,13.830817944932429,57.58163019923043,48.83526888242239,9.70840483205393e-05,0.108498990535736,0,0,0
4591,189075.89027813723,2011-01-20 17:49:04,1800.9095200900706,2,22,0.550297200679779,4.063992977142334,14.1433411772112,13.830817944932429,57.60026721894526,48.83526888242239,6.47544875391759e-05,0.108498990535736,0,0,0
4592,189105.9030145962,2011-01-20 17:49:34,1830.9222564487643,2,22,0.550297200679779,4.066744804382324,14.147928036141412,13.830817944932429,57.6189145753362,48.83526888242239,6.47544875391759e-05,0.108498990535736,0,0,0
4593,189135.91758726156,2011-01-20 17:50:04,1860.9368291842748,2,22,0.5501165986061096,4.069497108459473,14.152512883378996,13.830817944932429,57.637566498453786,48.83526888242239,9.71794142969884e-05,0.108498990535736,0,0,0
4594,189165.91761643,2011-01-20 17:50:34,1890.9368582875784,2,22,0.5501165986061096,4.072248935699463,14.157100017945696,13.830817944932429,57.656240495147046,48.83526888242239,9.70840483205393e-05,0.108498990535736,0,0,0
4595,189195.9327364846,2011-01-20 17:51:04,1920.951978342176,2,22,0.5501165986061096,4.075162887573242,14.16168719031166,13.830817944932429,57.67492748600312,48.83526888242239,6.47544875391759e-05,0.108498990535736,0,0,0
4596,189225.9478613311,2011-01-20 17:51:34,1950.9671031887165,2,22,0.550297200679779,4.0780768394470215,14.166274408073484,13.830817944932429,57.69362768124103,48.83526888242239,9.70840483205393e-05,0.108498990535736,0,0,0
4597,189255.9629829296,2011-01-20 17:52:04,1980.9822247821496,2,22,0.550297200679779,4.080990791320801,14.170861708378968,13.830817944932429,57.712341384071046,48.83526888242239,6.47544875391759e-05,0.108498990535736,0,0,0
4598,189285.9780885933,2011-01-20 17:52:34,2010.9973304508928,2,22,0.550297200679779,4.08390474319458,14.17544893953962,13.830817944932429,57.731067890613495,48.83526888242239,9.70840483205393e-05,0.108498990535736,0,0,0
4599,189315.99332682244,2011-01-20 17:53:04,2041.012568680018,2,22,0.550297200679779,4.0866570472717285,14.180036164690817,13.830817944932429,57.74980772497587,48.83526888242239,6.47544875391759e-05,0.108498990535736,0,0,0
4600,189346.0083641709,2011-01-20 17:53:34,2071.027606033499,2,22,0.5501165986061096,4.089570999145508,14.184623347279294,13.830817944932429,57.76856073622867,48.83526888242239,6.47544875391759e-05,0.108498990535736,0,0,0
4601,189376.0234691981,2011-01-20 17:54:04,2101.0427110556307,2,22,0.5501165986061096,4.092484951019287,14.189210665065874,13.830817944932429,57.787327929238224,48.83526888242239,6.47544875391759e-05,0.108498990535736,0,0,0
4602,189406.04090979116,2011-01-20 17:54:34,2131.060151728924,2,22,0.5501165986061096,4.095560550689697,14.193798199043922,13.830817944932429,57.80610967440835,48.83526888242239,6.47544875391759e-05,0.108498990535736,0,0,0
4603,189436.0536799039,2011-01-20 17:55:04,2161.0729217314693,2,22,0.5501165986061096,4.098636627197266,14.198385036190176,13.830817944932429,57.82490246442565,48.83526888242239,9.71794142969884e-05,0.108498990535736,0,0,0
4604,189466.0688092668,2011-01-20 17:55:34,2191.088051119328,2,22,0.5501165986061096,4.101712226867676,14.202972240903778,13.830817944932429,57.84371069262074,48.83526888242239,9.70840483205393e-05,0.108498990535736,0,0,0
4605,189496.08390937664,2011-01-20 17:56:04,2221.103151209168,2,22,0.550297200679779,4.104626178741455,14.20755942623029,13.830817944932429,57.86253289655473,48.83526888242239,6.47544875391759e-05,0.108498990535736,0,0,0
4606,189526.0990288849,2011-01-20 17:56:34,2251.1182707374533,2,22,0.5501165986061096,4.107702255249023,14.212146628238854,13.830817944932429,57.88136938858878,48.83526888242239,3.24249267578125e-05,0.108498990535736,0,0,0
4607,189556.1141704832,2011-01-20 17:57:04,2281.133412330732,2,22,0.5501165986061096,4.110939979553223,14.216733818203576,13.830817944932429,57.90022023799512,48.83526888242239,9.71794142969884e-05,0.108498990535736,0,0,0
4608,189586.12927964065,2011-01-20 17:57:35,2311.148521503208,2,22,0.5499359965324402,4.114177703857422,14.221320996422866,13.830817944932429,57.91908538838508,48.83526888242239,9.71794142969884e-05,0.108498990535736,0,0,0
4609,189616.14451616045,2011-01-20 17:58:05,2341.163758013048,2,22,0.550297200679779,4.117414951324463,14.225908182813107,13.830817944932429,57.93796505245571,48.83526888242239,9.70840483205393e-05,0.108498990535736,0,0,0
4610,189646.15949560463,2011-01-20 17:58:35,2371.1787374321384,2,22,0.5501165986061096,4.120491027832031,14.23049532482753,13.830817944932429,57.95685919195049,48.83526888242239,6.47544875391759e-05,0.108498990535736,0,0,0
4611,189676.17462361403,2011-01-20 17:59:05,2401.1938654465744,2,22,0.5501165986061096,4.123728752136231,14.235082606363834,13.830817944932429,57.97576873015733,48.83526888242239,9.71794142969884e-05,0.108498990535736,0,0,0
4612,189706.18986684064,2011-01-20 17:59:35,2431.209108668142,2,22,0.550297200679779,4.12696647644043,14.239669857209464,13.830817944932429,57.9946930388836,48.83526888242239,6.47544875391759e-05,0.108498990535736,0,0,0
4613,189736.2048551268,2011-01-20 18:00:05,2461.2240969643576,2,22,0.5501165986061096,4.130204200744629,14.244257072048946,13.830817944932429,58.0136322757433,48.83526888242239,6.47544875391759e-05,0.108498990535736,0,0,0
4614,189766.22010792224,2011-01-20 18:00:35,2491.2393497898606,2,22,0.550297200679779,4.133603572845459,14.248844295247432,13.830817944932429,58.03258675783348,48.83526888242239,6.47544875391759e-05,0.108498990535736,0,0,0
4615,189796.23508714084,2011-01-20 18:01:05,2521.2543289934147,2,22,0.5499359965324402,4.136841297149658,14.253431572886749,13.830817944932429,58.05155676372331,48.83526888242239,6.47544875391759e-05,0.108498990535736,0,0,0
4616,189826.25021628308,2011-01-20 18:01:35,2551.269458145686,2,22,0.5501165986061096,4.140402793884277,14.258018780781695,13.830817944932429,58.07054192674969,48.83526888242239,9.70840483205393e-05,0.108498990535736,0,0,0
4617,189856.26556190988,2011-01-20 18:02:05,2581.2848037474164,2,22,0.5501165986061096,4.143640518188477,14.262606099124053,13.830817944932429,58.0895432233173,48.83526888242239,6.47544875391759e-05,0.108498990535736,0,0,0
4618,189886.2805294443,2011-01-20 18:02:35,2611.2997713971745,2,22,0.5501165986061096,4.147364139556885,14.26719326233993,13.830817944932429,58.10855996575653,48.83526888242239,6.47544875391759e-05,0.108498990535736,0,0,0
4619,189916.29555460744,2011-01-20 18:03:05,2641.314796465036,2,22,0.550297200679779,4.150763511657715,14.27178038345182,13.830817944932429,58.127592510898616,48.83526888242239,9.70840483205393e-05,0.108498990535736,0,0,0
4620,189946.3106873988,2011-01-20 18:03:35,2671.329929256377,2,22,0.5501165986061096,4.154487133026123,14.276367589071508,13.830817944932429,58.14664147134254,48.83526888242239,0.0001295089750783,0.108498990535736,0,0,0
4621,189976.3259338434,2011-01-20 18:04:05,2701.3451756859404,2,22,0.550297200679779,4.158048629760742,14.280954748980472,13.830817944932429,58.16570646916942,48.83526888242239,0.0001295089750783,0.108498990535736,0,0,0
4622,190006.34093034503,2011-01-20 18:04:35,2731.3601722026438,2,22,0.5501165986061096,4.161610126495361,14.285541874041687,13.830817944932429,58.18478776939399,48.83526888242239,9.71794142969884e-05,0.108498990535736,0,0,0
4623,190036.3560468157,2011-01-20 18:05:05,2761.3752886682964,2,22,0.5501165986061096,4.165009498596191,14.290129101243016,13.830817944932429,58.20388593953907,48.83526888242239,6.47544875391759e-05,0.108498990535736,0,0,0
4624,190066.3713610092,2011-01-20 18:05:35,2791.390602871773,2,22,0.5501165986061096,4.168894767761231,14.29471626316899,13.830817944932429,58.22300043627694,48.83526888242239,0.0001295089750783,0.108498990535736,0,0,0
4625,190096.38627445887,2011-01-20 18:06:05,2821.4055163114226,2,22,0.550297200679779,4.17245626449585,14.299303436291222,13.830817944932429,58.24213175900873,48.83526888242239,9.70840483205393e-05,0.108498990535736,0,0,0
4626,190126.4013735161,2011-01-20 18:06:35,2851.420615368688,2,22,0.5501165986061096,4.176179885864258,14.303890643072435,13.830817944932429,58.2612801275871,48.83526888242239,0.0001295089750783,0.108498990535736,0,0,0
4627,190156.41661352463,2011-01-20 18:07:05,2881.435855347173,2,22,0.5501165986061096,4.179741382598877,14.308477850441358,13.830817944932429,58.28044563420555,48.83526888242239,6.47544875391759e-05,0.108498990535736,0,0,0
4628,190186.4316329234,2011-01-20 18:07:35,2911.4508747809923,2,22,0.5501165986061096,4.183788299560547,14.3130650479151,13.830817944932429,58.29962847552643,48.83526888242239,0.0001295089750783,0.108498990535736,0,0,0
4629,190216.44672587543,2011-01-20 18:08:05,2941.46596770798,2,22,0.550297200679779,4.187511920928955,14.317652215986229,13.830817944932429,58.3188286584732,48.83526888242239,6.47544875391759e-05,0.108498990535736,0,0,0
4630,190246.4618413837,2011-01-20 18:08:35,2971.481083236297,2,22,0.5501165986061096,4.191235065460205,14.322239399393682,13.830817944932429,58.33804656577087,48.83526888242239,3.23295607813634e-05,0.108498990535736,0,0,0
4631,190276.4769666463,2011-01-20 18:09:05,3001.496208473812,2,22,0.550297200679779,4.195281982421875,14.326826531319,13.830817944932429,58.35728201154828,48.83526888242239,9.70840483205393e-05,0.108498990535736,0,0,0
4632,190306.4921054175,2011-01-20 18:09:35,3031.51134727012,2,22,0.5501165986061096,4.199167251586914,14.331413685566767,13.830817944932429,58.37653524879241,48.83526888242239,9.70840483205393e-05,0.108498990535736,0,0,0
4633,190311.96073601264,2011-01-20 18:09:40,3036.9799778652177,2,22,0.550297200679779,4.200138568878174,14.332249455850242,13.830817944932429,58.38004509356527,48.83526888242239,0.0001618385285837,0.108498990535736,0,0,0
4634,190341.97588185128,2011-01-20 18:10:10,30.015099919414546,3,22,0.0,4.093617916107178,14.332249455850242,13.830817944932429,58.38004509356527,48.83526888242239,-0.0005180359003134,0.108498990535736,0,0,0
4635,190371.9910061214,2011-01-20 18:10:41,60.0302241895185,3,22,0.0,4.080019474029541,14.332249455850242,13.830817944932429,58.38004509356527,48.83526888242239,-0.0002914428769145,0.108498990535736,0,0,0
4636,190402.0063308561,2011-01-20 18:11:11,90.04554901947932,3,22,0.0,4.071439743041992,14.332249455850242,13.830817944932429,58.38004509356527,48.83526888242239,-0.0001618385285837,0.108498990535736,0,0,0
4637,190431.97435417617,2011-01-20 18:11:40,120.01357224428575,3,22,0.0,4.065611839294434,14.332249455850242,13.830817944932429,58.38004509356527,48.83526888242239,-0.0001618385285837,0.108498990535736,0,0,0
4638,190431.97643704133,2011-01-20 18:11:41,2.616521176e-06,4,22,1.045708417892456,4.199976921081543,14.332249456610274,13.830817944932429,58.38004509675739,48.83526888242239,0.0,0.108498990535736,0,0,0
4639,190432.210842537,2011-01-20 18:11:41,0.234408162265955,4,22,0.9935123920440674,4.199814796447754,14.332314977539816,13.830817944932429,58.38032027433723,48.83526888242239,-3.24249267578125e-05,0.108498990535736,0,0,0
4640,190433.6170286605,2011-01-20 18:11:42,1.640594290770844,4,22,0.943122386932373,4.199814796447754,14.332691989356483,13.830817944932429,58.38190365562994,48.83526888242239,-3.24249267578125e-05,0.108498990535736,0,0,0
4641,190436.08574313155,2011-01-20 18:11:45,4.109308761837195,4,22,0.8927324414253235,4.199814796447754,14.333320385723509,13.830817944932429,58.38454281877313,48.83526888242239,3.23295607813634e-05,0.108498990535736,0,0,0
4642,190439.6013035799,2011-01-20 18:11:48,7.624869205172892,4,22,0.8423424363136292,4.199976921081543,14.334166397715371,13.830817944932429,58.38809593173626,48.83526888242239,3.24249267578125e-05,0.108498990535736,0,0,0
4643,190444.304393482,2011-01-20 18:11:53,12.327959087263642,4,22,0.7921330332756042,4.199814796447754,14.335232778611998,13.830817944932429,58.39257457591538,48.83526888242239,0.0,0.108498990535736,0,0,0
4644,190450.44495355716,2011-01-20 18:11:59,18.46851927264876,4,22,0.7419236898422241,4.199814796447754,14.336539576235138,13.830817944932429,58.398062938004855,48.83526888242239,0.0,0.108498990535736,0,0,0
4645,190458.5230038841,2011-01-20 18:12:07,26.54656951440513,4,22,0.6917142868041992,4.199814796447754,14.338145735932844,13.830817944932429,58.40480859109627,48.83526888242239,-3.24249267578125e-05,0.108498990535736,0,0,0
4646,190469.4603093396,2011-01-20 18:12:18,37.48387494987508,4,22,0.6415048837661743,4.199814796447754,14.34016741260035,13.830817944932429,58.41329935701414,48.83526888242239,0.0,0.108498990535736,0,0,0
4647,190485.36617185813,2011-01-20 18:12:34,53.3897374884327,4,22,0.5912955403327942,4.199976921081543,14.342883947248918,13.830817944932429,58.42470846582718,48.83526888242239,3.24249267578125e-05,0.108498990535736,0,0,0
4648,190511.08449271703,2011-01-20 18:13:00,79.10805834233011,4,22,0.5412667393684387,4.199814796447754,14.346914185747968,13.830817944932429,58.44163496148046,48.83526888242239,0.0,0.108498990535736,0,0,0
4649,190560.33375593452,2011-01-20 18:13:49,128.3573215598877,4,22,0.491237998008728,4.199814796447754,14.353940565458972,13.830817944932429,58.47114485480464,48.83526888242239,-3.24249267578125e-05,0.108498990535736,0,0,0
4650,190652.44159913072,2011-01-20 18:15:21,220.4651647459823,4,22,0.4412092268466949,4.199814796447754,14.365820730821165,13.830817944932429,58.52104004474606,48.83526888242239,-3.24249267578125e-05,0.108498990535736,0,0,0
4651,190781.97050008192,2011-01-20 18:17:31,349.99406570722414,4,22,0.3911804556846618,4.199814796447754,14.380766920282651,13.830817944932429,58.58381214478102,48.83526888242239,0.0,0.108498990535736,0,0,0
4652,190940.1084593242,2011-01-20 18:20:09,508.132024954502,4,22,0.3411516845226288,4.199976921081543,14.39682971748944,13.830817944932429,58.651273807896814,48.83526888242239,3.24249267578125e-05,0.108498990535736,0,0,0
4653,191131.69895741137,2011-01-20 18:23:20,699.7225230366452,4,22,0.2911229133605957,4.199814796447754,14.41363580365424,13.830817944932429,58.72185723900404,48.83526888242239,0.0,0.108498990535736,0,0,0
4654,191367.3826505627,2011-01-20 18:27:16,935.4062161830254,4,22,0.2410941421985626,4.199814796447754,14.431026170275484,13.830817944932429,58.79489464746664,48.83526888242239,0.0,0.108498990535736,0,0,0
4655,191664.06493894223,2011-01-20 18:32:13,1232.0885045725502,4,22,0.1910653710365295,4.199814796447754,14.448773860730908,13.830817944932429,58.86943273716317,48.83526888242239,0.0,0.108498990535736,0,0,0
4656,192061.9956086564,2011-01-20 18:38:51,1630.0191742816712,4,22,0.1410365998744964,4.199814796447754,14.467021983301755,13.830817944932429,58.94607211534228,48.83526888242239,0.0,0.108498990535736,0,0,0
4657,192670.18836850012,2011-01-20 18:48:59,2238.2119342056358,4,22,0.0910078287124633,4.199814796447754,14.486342345369865,13.830817944932429,59.02721514210425,48.83526888242239,-3.24249267578125e-05,0.108498990535736,0,0,0
4658,193642.203203315,2011-01-20 19:05:11,3210.2267689302566,4,22,0.0498289167881011,4.199976921081543,14.50472204464896,13.830817944932429,59.10440765642699,48.83526888242239,3.24249267578125e-05,0.108498990535736,0,0,0
4659,193672.2125057775,2011-01-20 19:05:41,30.015238244162376,5,22,0.0,4.189778327941895,14.50472204464896,13.830817944932429,59.10440765642699,48.83526888242239,-6.47544875391759e-05,0.108498990535736,0,0,0
4660,193702.21187096616,2011-01-20 19:06:11,60.01460345283631,5,22,0.0,4.187997341156006,14.50472204464896,13.830817944932429,59.10440765642699,48.83526888242239,-3.24249267578125e-05,0.108498990535736,0,0,0
4661,193702.3947243612,2011-01-20 19:06:11,0.187638141984639,6,22,0.0007031940040178,4.188483238220215,14.504722081300628,13.830817944932429,59.104407809941904,48.83526888242239,0.0,0.1096057146787643,0,0,0
4662,193707.22275251284,2011-01-20 19:06:16,5.015666293685802,6,22,0.0007031940040178,4.187997341156006,14.504723046794426,13.830817944932429,59.10441185360976,48.83526888242239,-3.24249267578125e-05,0.1096057146787643,0,0,0
4663,193721.4364470541,2011-01-20 19:06:31,14.2185116208859,7,22,-1.0997490882873535,3.987906694412232,14.504723046794426,13.835160524055642,59.10441185360976,48.85266833704463,-0.0018454551463946,0.1096057146787643,0,0,0
4664,193751.4515520411,2011-01-20 19:07:01,44.23361659790555,7,22,-1.099568486213684,3.931570291519165,14.504723046794426,13.844327615947412,59.10441185360976,48.88895683799142,-0.0013274669181555,0.1096057146787643,0,0,0
4665,193781.46680942297,2011-01-20 19:07:31,74.24887406998982,7,22,-1.0993878841400146,3.8875374794006343,14.504723046794426,13.853494733870022,59.10441185360976,48.92478789761742,-0.0011008263099938,0.1096057146787643,0,0,0
4666,193811.48179637585,2011-01-20 19:08:01,104.2638609175946,7,22,-1.0992072820663452,3.852408170700073,14.504723046794426,13.86266167187364,59.10441185360976,48.96025650014086,-0.0008094310760498,0.1096057146787643,0,0,0
4667,193841.49690039543,2011-01-20 19:08:31,134.2789649272032,7,22,-1.0993878841400146,3.824402093887329,14.504723046794426,13.871828031026151,59.10441185360976,48.99543552084134,-0.0006799221155233,0.1096057146787643,0,0,0
4668,193871.5120062647,2011-01-20 19:09:01,164.29407080647152,7,22,-1.0993878841400146,3.801738023757935,14.504723046794426,13.88099432933896,59.10441185360976,49.03038402236499,-0.0005504131549969,0.1096057146787643,0,0,0
4669,193901.5271444094,2011-01-20 19:09:31,194.3092089712052,7,22,-1.0993878841400146,3.782473564147949,14.504723046794426,13.890160713665448,59.10441185360976,49.065141813283326,-0.0004856586456298,0.1096057146787643,0,0,0
4670,193931.5422484691,2011-01-20 19:10:01,224.32431303093864,7,22,-1.099568486213684,3.765313625335693,14.504723046794426,13.899327054927292,59.10441185360976,49.09973343807495,-0.0004532813909463,0.1096057146787643,0,0,0
4671,193961.5575228333,2011-01-20 19:10:31,254.3395873700608,7,22,-1.099568486213684,3.749772787094116,14.504723046794426,13.90849344580535,59.10441185360976,49.13417626367396,-0.0004209041653666,0.1096057146787643,0,0,0
4672,193991.57246235292,2011-01-20 19:11:01,284.3545269047472,7,22,-1.099568486213684,3.7356886863708496,14.504723046794426,13.91765978485553,59.10441185360976,49.16848284918643,-0.0003237724304199,0.1096057146787643,0,0,0
4673,194021.5875726382,2011-01-20 19:11:31,314.3696371699466,7,22,-1.0992072820663452,3.7225759029388423,14.504723046794426,13.926826146171704,59.10441185360976,49.20266364466397,-0.0002913951757363,0.1096057146787643,0,0,0
4674,194051.60269423164,2011-01-20 19:12:01,344.384758788442,7,22,-1.099568486213684,3.709786891937256,14.504723046794426,13.935992552691856,59.10441185360976,49.23672652308451,-0.0003561496851034,0.1096057146787643,0,0,0
4675,194081.6178040507,2011-01-20 19:12:31,374.399868602517,7,22,-1.0993878841400146,3.697807312011719,14.504723046794426,13.945158920172553,59.10441185360976,49.270677012901714,-0.0003237724304199,0.1096057146787643,0,0,0
4676,194111.63293680697,2011-01-20 19:13:01,404.4150013637836,7,22,-1.0992072820663452,3.686313390731812,14.504723046794426,13.954325342053997,59.10441185360976,49.30452031404168,-0.0002913951757363,0.1096057146787643,0,0,0
4677,194141.6481668858,2011-01-20 19:13:31,434.43023141252047,7,22,-1.099568486213684,3.675467014312744,14.504723046794426,13.963491795983945,59.10441185360976,49.338260775231085,-0.0002590179501567,0.1096057146787643,0,0,0
4678,194171.66337043847,2011-01-20 19:14:01,464.4454349702335,7,22,-1.099568486213684,3.664782762527466,14.504723046794426,13.97265826231484,59.10441185360976,49.371902682442624,-0.0003237724304199,0.1096057146787643,0,0,0
4679,194201.6783911906,2011-01-20 19:14:31,494.4604557423887,7,22,-1.099568486213684,3.654422044754028,14.504723046794426,13.981824627357415,59.10441185360976,49.40544825470004,-0.0003237724304199,0.1096057146787643,0,0,0
4680,194231.69342231852,2011-01-20 19:15:01,524.4754868452914,7,22,-1.0993878841400146,3.6443850994110103,14.504723046794426,13.99099103677211,59.10441185360976,49.43890048877721,-0.0002590179501567,0.1096057146787643,0,0,0
4681,194261.708492554,2011-01-20 19:15:31,554.4905571809742,7,22,-1.0992072820663452,3.634671926498413,14.504723046794426,14.000157352378446,59.10441185360976,49.47226200624172,-0.0002913951757363,0.1096057146787643,0,0,0
4682,194291.7236004984,2011-01-20 19:16:01,584.5056650451895,7,22,-1.0997490882873535,3.6251206398010254,14.504723046794426,14.009323709478489,59.10441185360976,49.50553583537823,-0.0002913951757363,0.1096057146787643,0,0,0
4683,194321.73872537503,2011-01-20 19:16:31,614.5207899318301,7,22,-1.0993878841400146,3.616055011749268,14.504723046794426,14.018490100509622,59.10441185360976,49.53872389150786,-0.0002266406954731,0.1096057146787643,0,0,0
4684,194351.75381559023,2011-01-20 19:17:01,644.5358801219963,7,22,-1.099568486213684,3.6068274974823,14.504723046794426,14.02765648795542,59.10441185360976,49.571827817844,-0.0002590179501567,0.1096057146787643,0,0,0
4685,194381.76902905767,2011-01-20 19:17:31,674.5510936194823,7,22,-1.0993878841400146,3.598085641860962,14.504723046794426,14.036822840226462,59.10441185360976,49.60484913860978,-0.0002266406954731,0.1096057146787643,0,0,0
4686,194411.78402792523,2011-01-20 19:18:01,704.5660924920571,7,22,-1.0993878841400146,3.589505910873413,14.504723046794426,14.045989074367483,59.10441185360976,49.637790105197865,-0.0001942634553415,0.1096057146787643,0,0,0
4687,194441.7992573323,2011-01-20 19:18:31,734.5813218941825,7,22,-1.0993878841400146,3.580925941467285,14.504723046794426,14.055155412289905,59.10441185360976,49.670652454105415,-0.0002590179501567,0.1096057146787643,0,0,0
4688,194471.8142503704,2011-01-20 19:19:01,764.5963149322157,7,22,-1.0993878841400146,3.572993516921997,14.504723046794426,14.064321721407952,59.10441185360976,49.70343903150364,-0.0001618862152099,0.1096057146787643,0,0,0
4689,194501.8293617885,2011-01-20 19:19:31,794.611426355301,7,22,-1.0992072820663452,3.564899206161499,14.504723046794426,14.073488074503569,59.10441185360976,49.73615251886688,-0.0002266406954731,0.1096057146787643,0,0,0
4690,194531.8444946199,2011-01-20 19:20:01,824.6265591767173,7,22,-1.0993878841400146,3.557290554046631,14.504723046794426,14.082654337966538,59.10441185360976,49.76879420777539,-0.0001618862152099,0.1096057146787643,0,0,0
4691,194561.85958916592,2011-01-20 19:20:31,854.6416537277523,7,22,-1.0992072820663452,3.5498437881469727,14.504723046794426,14.091820642762109,59.10441185360976,49.80136632056652,-0.0001618862152099,0.1096057146787643,0,0,0
4692,194591.8748452295,2011-01-20 19:21:01,884.6569097662635,7,22,-1.099568486213684,3.5423970222473145,14.504723046794426,14.100986976032486,59.10441185360976,49.83387110497223,-0.0001942634553415,0.1096057146787643,0,0,0
4693,194621.88981335043,2011-01-20 19:21:31,914.6718778922084,7,22,-1.0993878841400146,3.535435914993286,14.504723046794426,14.1101532604543,59.10441185360976,49.86631019590406,-0.0001942634553415,0.1096057146787643,0,0,0
4694,194651.90495466805,2011-01-20 19:22:01,944.6870191997748,7,22,-1.099568486213684,3.528960466384888,14.504723046794426,14.119319604939378,59.10441185360976,49.89868719222502,-0.0001618862152099,0.1096057146787643,0,0,0
4695,194681.9201110933,2011-01-20 19:22:31,974.7021756400568,7,22,-1.0993878841400146,3.5224850177764893,14.504723046794426,14.128486007652484,59.10441185360976,49.93100470124335,-0.0001942634553415,0.1096057146787643,0,0,0
4696,194711.9351350233,2011-01-20 19:23:01,1004.7171995801074,7,22,-1.0993878841400146,3.516171455383301,14.504723046794426,14.137652290150914,59.10441185360976,49.96326299361386,-0.0001295089750783,0.1096057146787643,0,0,0
4697,194741.95039120212,2011-01-20 19:23:31,1034.7324557489435,7,22,-1.0993878841400146,3.5098581314086914,14.504723046794426,14.146818664777411,59.10441185360976,49.99546442256552,-0.0001618862152099,0.1096057146787643,0,0,0
4698,194771.965514149,2011-01-20 19:24:01,1064.747578710787,7,22,-1.0993878841400146,3.503868341445923,14.504723046794426,14.15598507379616,59.10441185360976,50.02760958033111,-0.0001618862152099,0.1096057146787643,0,0,0
4699,194801.98069413795,2011-01-20 19:24:31,1094.7627586797091,7,22,-1.099568486213684,3.4980404376983643,14.504723046794426,14.165151473183831,59.10441185360976,50.05970002725513,-0.0001618862152099,0.1096057146787643,0,0,0
4700,194831.9958042628,2011-01-20 19:25:01,1124.7778688396463,7,22,-1.0993878841400146,3.492050647735596,14.504723046794426,14.174317878370116,59.10441185360976,50.0917367048618,-0.0001942634553415,0.1096057146787643,0,0,0
4701,194862.010820233,2011-01-20 19:25:31,1154.7928847747464,7,22,-1.0993878841400146,3.486384630203247,14.504723046794426,14.183484177997904,59.10441185360976,50.12371901752384,-0.0001295089750783,0.1096057146787643,0,0,0
4702,194892.0258712505,2011-01-20 19:26:01,1184.8079358073198,7,22,-1.0992072820663452,3.4805567264556885,14.504723046794426,14.192650503582229,59.10441185360976,50.15564943739328,-0.0001942634553415,0.1096057146787643,0,0,0
4703,194922.0411634592,2011-01-20 19:26:31,1214.8232280059533,7,22,-1.0993878841400146,3.47489070892334,14.504723046794426,14.201816854209392,59.10441185360976,50.18752814373942,-0.0001942634553415,0.1096057146787643,0,0,0
4704,194952.0560599065,2011-01-20 19:27:01,1244.8381244582652,7,22,-1.0992072820663452,3.469548463821411,14.504723046794426,14.210983086617247,59.10441185360976,50.21935535706744,-0.0001295089750783,0.1096057146787643,0,0,0
4705,194982.07114989116,2011-01-20 19:27:31,1274.8532144629692,7,22,-1.0993878841400146,3.4635586738586426,14.504723046794426,14.220149466116217,59.10441185360976,50.25113060169973,-0.0001618862152099,0.1096057146787643,0,0,0
4706,195012.08627313867,2011-01-20 19:28:01,1304.8683376954873,7,22,-1.099568486213684,3.457892656326294,14.504723046794426,14.229315799361382,59.10441185360976,50.2828524411983,-0.0001618862152099,0.1096057146787643,0,0,0
4707,195042.10137211572,2011-01-20 19:28:31,1334.883436682578,7,22,-1.0993878841400146,3.452064752578736,14.504723046794426,14.238482178841767,59.10441185360976,50.31452191552526,-0.0001295089750783,0.1096057146787643,0,0,0
4708,195072.11651813507,2011-01-20 19:29:01,1364.8985827620377,7,22,-1.099568486213684,3.4462368488311768,14.504723046794426,14.247648565316396,59.10441185360976,50.346138470139614,-0.0001618862152099,0.1096057146787643,0,0,0
4709,195102.1317284346,2011-01-20 19:29:31,1394.9137929713286,7,22,-1.0993878841400146,3.440247058868408,14.504723046794426,14.25681502691933,59.10441185360976,50.3777011769506,-0.0001618862152099,0.1096057146787643,0,0,0
4710,195132.1490490336,2011-01-20 19:30:01,1424.9311136004349,7,22,-1.0993878841400146,3.4337716102600098,14.504723046794426,14.265982062773892,59.10441185360976,50.40920951264835,-0.0002266406954731,0.1096057146787643,0,0,0
4711,195162.1618603241,2011-01-20 19:30:31,1454.9439248658196,7,22,-1.0993878841400146,3.4274582862854004,14.504723046794426,14.275147726516463,59.10441185360976,50.440654935839085,-0.0002266406954731,0.1096057146787643,0,0,0
4712,195192.17693756692,2011-01-20 19:31:01,1484.9590021337794,7,22,-1.099568486213684,3.421144723892212,14.504723046794426,14.284314083542643,59.10441185360976,50.4720424866773,-0.0001295089750783,0.1096057146787643,0,0,0
4713,195222.1920604937,2011-01-20 19:31:31,1514.974125035473,7,22,-1.0993878841400146,3.4140217304229736,14.504723046794426,14.293480416315424,59.10441185360976,50.5033678043503,-0.0001942634553415,0.1096057146787643,0,0,0
4714,195252.2071835408,2011-01-20 19:32:01,1544.989248097566,7,22,-1.099568486213684,3.406413078308105,14.504723046794426,14.302646854303182,59.10441185360976,50.53462687639433,-0.0002266406954731,0.1096057146787643,0,0,0
4715,195282.22228239756,2011-01-20 19:32:31,1575.00434696937,7,22,-1.0993878841400146,3.398642539978028,14.504723046794426,14.311813194356423,59.10441185360976,50.56581714956102,-0.0002590179501567,0.1096057146787643,0,0,0
4716,195312.23738388583,2011-01-20 19:33:01,1605.019448442657,7,22,-1.0993878841400146,3.3905482292175293,14.504723046794426,14.320979525158592,59.10441185360976,50.59693437314959,-0.0002266406954731,0.1096057146787643,0,0,0
4717,195342.25261884683,2011-01-20 19:33:31,1635.0346834136617,7,22,-1.0993878841400146,3.3814826011657715,14.504723046794426,14.330145953868817,59.10441185360976,50.62797207164756,-0.0002590179501567,0.1096057146787643,0,0,0
4718,195372.2676300301,2011-01-20 19:34:01,1665.049694591906,7,22,-1.0992072820663452,3.3720932006835938,14.504723046794426,14.339312372952309,59.10441185360976,50.6589250543498,-0.0002590179501567,0.1096057146787643,0,0,0
4719,195402.2828364299,2011-01-20 19:34:31,1695.0649011771643,7,22,-1.0992072820663452,3.3614087104797363,14.504723046794426,14.348478780706126,59.10441185360976,50.68978649814996,-0.0003237724304199,0.1096057146787643,0,0,0
4720,195432.29784208932,2011-01-20 19:35:01,1725.0799066461798,7,22,-1.0992072820663452,3.3495912551879883,14.504723046794426,14.357645023327263,59.10441185360976,50.72054574430496,-0.0003561019839253,0.1096057146787643,0,0,0
4721,195462.29956364585,2011-01-20 19:35:31,1755.081628197585,7,22,-1.0993878841400146,3.336154699325561,14.504723046794426,14.366807209271478,59.10441185360976,50.75117567679384,-0.0003885269106831,0.1096057146787643,0,0,0
4722,195492.31247715105,2011-01-20 19:36:01,1785.0945417027822,7,22,-1.099568486213684,3.3204517364501958,14.504723046794426,14.375972810497736,59.10441185360976,50.78168389363039,-0.0004856586456298,0.1096057146787643,0,0,0
4723,195522.3275822383,2011-01-20 19:36:31,1815.1096467900768,7,22,-1.0993878841400146,3.30183482170105,14.504723046794426,14.385139087652158,59.10441185360976,50.81203773620756,-0.0005504131549969,0.1096057146787643,0,0,0
4724,195552.34267011267,2011-01-20 19:37:01,1845.1247346544465,7,22,-1.0993878841400146,3.279656410217285,14.504723046794426,14.394305407278893,59.10441185360976,50.84220500828528,-0.0006475448608398,0.1096057146787643,0,0,0
4725,195582.3577697564,2011-01-20 19:37:31,1875.139834288149,7,22,-1.099568486213684,3.252459764480591,14.504723046794426,14.403471773734298,59.10441185360976,50.87214714575051,-0.0007770538213662,0.1096057146787643,0,0,0
4726,195612.37288275844,2011-01-20 19:38:01,1905.1549473052069,7,22,-1.099568486213684,3.218301773071289,14.504723046794426,14.412638144893204,59.10441185360976,50.9018113692158,-0.0010360718006268,0.1096057146787643,0,0,0
4727,195642.38802899828,2011-01-20 19:38:32,1935.170093530029,7,22,-1.0993878841400146,3.173297643661499,14.504723046794426,14.421804518060156,59.10441185360976,50.931114441398485,-0.0013274669181555,0.1096057146787643,0,0,0
4728,195672.40325713228,2011-01-20 19:39:02,1965.1853216740185,7,22,-1.0993878841400146,3.1127521991729736,14.504723046794426,14.430970962174896,59.10441185360976,50.959938635899626,-0.0018455028766766,0.1096057146787643,0,0,0
4729,195702.4182213284,2011-01-20 19:39:32,1995.200285860144,7,22,-1.0993878841400146,3.0271148681640625,14.504723046794426,14.4401373325129,59.10441185360976,50.98810163945384,-0.0026225089095532,0.1096057146787643,0,0,0
4730,195732.43335416488,2011-01-20 19:40:02,2025.2154187166475,7,22,-1.0993878841400146,2.900196313858032,14.504723046794426,14.449303767277597,59.10441185360976,51.01530588397,-0.004047155380249,0.1096057146787643,0,0,0
4731,195762.44845150283,2011-01-20 19:40:32,2055.230516059641,7,22,-1.099568486213684,2.7182366847991943,14.504723046794426,14.4584701893289,59.10441185360976,51.041098497643965,-0.0053746225312352,0.1096057146787643,0,0,0
4732,195765.13828223365,2011-01-20 19:40:34,2057.920346800487,7,22,-1.0993878841400146,2.699620008468628,14.504723046794426,14.459291640587583,59.10441185360976,51.04332374555949,-0.0054717063903808,0.1096057146787643,0,0,0
4733,195825.1497283455,2011-01-20 19:41:34,60.01460063080293,8,22,0.0,3.610388994216919,14.504723046794426,14.459291640587583,59.10441185360976,51.04332374555949,0.0012627125252038,0.1096057146787643,0,0,0
4734,195825.33758654492,2011-01-20 19:41:35,0.187603340248003,9,22,-1.9243103452026844e-05,3.610388994216919,14.504723046794426,14.459291641590385,59.10441185360976,51.043323749179976,0.0,0.1099197939038276,0,0,0
4735,195830.1654831989,2011-01-20 19:41:40,5.015499994216355,9,22,0.0008838032954372,3.618159532546997,14.504724192019792,14.459291641756764,59.10441599345738,51.04332374978068,0.0010684489971026,0.1099197939038276,0,0,0
