Data_Point,Test_Time(s),Date_Time,Step_Time(s),Step_Index,Cycle_Index,Current(A),Voltage(V),Charge_Capacity(Ah),Discharge_Capacity(Ah),Charge_Energy(Wh),Discharge_Energy(Wh),dV/dt(V/s),Internal_Resistance(Ohm),Is_FC_Data,AC_Impedance(Ohm),ACI_Phase_Angle(Deg)
683,27630.0605911472,2011-01-18 20:57:56,30.017485219315837,1,4,0.0,3.6090939044952393,2.076661733302616,2.082947702044655,8.44430398787832,7.405463197101656,0.0008418083307333,0.1059741750359535,0,0,0
684,27660.073345661145,2011-01-18 20:58:26,60.0302397132083,1,4,0.0,3.634024381637573,2.076661733302616,2.082947702044655,8.44430398787832,7.405463197101656,0.0005504131549969,0.1059741750359535,0,0,0
685,27690.088457700764,2011-01-18 20:58:56,90.04535174781763,1,4,0.0,3.651508092880249,2.076661733302616,2.082947702044655,8.44430398787832,7.405463197101656,0.0003885269106831,0.1059741750359535,0,0,0
686,27720.05912164706,2011-01-18 20:59:26,120.01601571917703,1,4,0.0,3.664458990097046,2.076661733302616,2.082947702044655,8.44430398787832,7.405463197101656,0.0002913951757363,0.1059741750359535,0,0,0
687,27750.07554853905,2011-01-18 20:59:56,30.015204505074184,2,4,0.5501165986061096,3.7900822162628174,2.081248128985392,2.082947702044655,8.461589444587803,7.405463197101656,0.0009065627818927,0.1059741750359535,0,0,0
688,27780.092804171163,2011-01-18 21:00:26,60.03246015723804,2,4,0.5501165986061096,3.813231945037842,2.08583489814677,2.082947702044655,8.47903236692177,7.405463197101656,0.0004532813909463,0.1059741750359535,0,0,0
689,27810.105793595576,2011-01-18 21:00:56,90.04544959668713,2,4,0.5499359965324402,3.8260209560394287,2.090420867084042,2.082947702044655,8.496551263142601,7.405463197101656,0.0002590179501567,0.1059741750359535,0,0,0
690,27840.12073920541,2011-01-18 21:01:26,120.06039517142726,2,4,0.5499359965324402,3.836057662963867,2.09500711745038,2.082947702044655,8.514122620975032,7.405463197101656,0.0001942634553415,0.1059741750359535,0,0,0
691,27870.13602401061,2011-01-18 21:01:56,150.07567997663406,2,4,0.5501165986061096,3.844637632369995,2.099593483423557,2.082947702044655,8.531736132303799,7.405463197101656,0.0002266406954731,0.1059741750359535,0,0,0
692,27900.15099491348,2011-01-18 21:02:26,180.09065088451217,2,4,0.5501165986061096,3.852408170700073,2.104179797921593,2.082947702044655,8.549386648880242,7.405463197101656,0.0001942634553415,0.1059741750359535,0,0,0
693,27930.166114276348,2011-01-18 21:02:56,210.10577022733585,2,4,0.550297200679779,3.859531164169312,2.108766149787735,2.082947702044655,8.5670713587698,7.405463197101656,0.0001618862152099,0.1059741750359535,0,0,0
694,27960.18121514814,2011-01-18 21:03:27,240.120871099124,2,4,0.5501165986061096,3.86616849899292,2.113352480849724,2.082947702044655,8.584787752490156,7.405463197101656,0.0001942634553415,0.1059741750359535,0,0,0
695,27990.19633561376,2011-01-18 21:03:57,270.13599156474595,2,4,0.5499359965324402,3.872482061386109,2.117938863513414,2.082947702044655,8.602534013108716,7.405463197101656,0.0001618862152099,0.1059741750359535,0,0,0
696,28020.21147038504,2011-01-18 21:04:27,300.1511263360221,2,4,0.5501165986061096,3.878309965133667,2.122525191068363,2.082947702044655,8.620307981331198,7.405463197101656,0.0001295089750783,0.1059741750359535,0,0,0
697,28050.226592574956,2011-01-18 21:04:57,330.1662485259416,2,4,0.5501165986061096,3.883975982666016,2.127111486732336,2.082947702044655,8.638108339094366,7.405463197101656,0.0001295089750783,0.1059741750359535,0,0,0
698,28080.241705657176,2011-01-18 21:05:27,360.1813616031494,2,4,0.5499359965324402,3.8894801139831534,2.131697806985017,2.082947702044655,8.65593426027645,7.405463197101656,0.0001618862152099,0.1059741750359535,0,0,0
699,28110.25683058392,2011-01-18 21:05:57,390.19648655996485,2,4,0.5501165986061096,3.894660472869873,2.136284200288295,2.082947702044655,8.673785187368674,7.405463197101656,9.713172767078504e-05,0.1059741750359535,0,0,0
700,28140.271925300363,2011-01-18 21:06:27,420.2115812513495,2,4,0.5501165986061096,3.899840831756592,2.140870516849342,2.082947702044655,8.691659429237578,7.405463197101656,0.0001295089750783,0.1059741750359535,0,0,0
701,28170.288819055568,2011-01-18 21:06:57,450.2284750065548,2,4,0.5501165986061096,3.9048593044281006,2.145457113185445,2.082947702044655,8.709558098994236,7.405463197101656,9.713172767078504e-05,0.1059741750359535,0,0,0
702,28200.3021549936,2011-01-18 21:07:27,480.2418109395725,2,4,0.5501165986061096,3.9097158908844,2.150043232251812,2.082947702044655,8.727477552311655,7.405463197101656,0.0001295089750783,0.1059741750359535,0,0,0
703,28230.317401147477,2011-01-18 21:07:57,510.25705710848575,2,4,0.5499359965324402,3.914410352706909,2.15462956902531,2.082947702044655,8.745419855504831,7.405463197101656,9.713172767078504e-05,0.1059741750359535,0,0,0
704,28260.33251540763,2011-01-18 21:08:27,540.2721713636294,2,4,0.550297200679779,3.919105052947998,2.15921588952502,2.082947702044655,8.76338323107778,7.405463197101656,0.0001618862152099,0.1059741750359535,0,0,0
705,28290.34753215977,2011-01-18 21:08:57,570.2871881057405,2,4,0.550297200679779,3.923314094543457,2.163802179524655,2.082947702044655,8.781366865761868,7.405463197101656,9.713172767078504e-05,0.1059741750359535,0,0,0
706,28320.362651432417,2011-01-18 21:09:27,600.3023073783892,2,4,0.5501165986061096,3.927523136138916,2.16838861016877,2.082947702044655,8.799370655908065,7.405463197101656,9.713172767078504e-05,0.1059741750359535,0,0,0
707,28350.37774909621,2011-01-18 21:09:57,630.317405042182,2,4,0.550297200679779,3.931570291519165,2.172974970989719,2.082947702044655,8.81739285643484,7.405463197101656,9.713172767078504e-05,0.1059741750359535,0,0,0
708,28380.39286952173,2011-01-18 21:10:27,660.3325254677042,2,4,0.5501165986061096,3.935293674468994,2.177561320574792,2.082947702044655,8.835432814078878,7.405463197101656,9.713172767078504e-05,0.1059741750359535,0,0,0
709,28410.40819075272,2011-01-18 21:10:57,690.3478467037077,2,4,0.5501165986061096,3.938855171203613,2.182147755972854,2.082947702044655,8.853489904818607,7.405463197101656,9.713172767078504e-05,0.1059741750359535,0,0,0
710,28440.42310132021,2011-01-18 21:11:27,720.3627572762115,2,4,0.5501165986061096,3.9422547817230233,2.186734059963072,2.082947702044655,8.871562505959783,7.405463197101656,0.0001295089750783,0.1059741750359535,0,0,0
711,28470.438221720677,2011-01-18 21:11:57,750.3778776666461,2,4,0.5499359965324402,3.945330619812012,2.191320424192315,2.082947702044655,8.889650564609076,7.405463197101656,6.47544875391759e-05,0.1059741750359535,0,0,0
712,28500.453335048504,2011-01-18 21:12:27,780.392991019541,2,4,0.5499359965324402,3.948568344116211,2.195906741573626,2.082947702044655,8.907753111469198,7.405463197101656,6.47544875391759e-05,0.1059741750359535,0,0,0
713,28530.46848439109,2011-01-18 21:12:57,810.4081403621333,2,4,0.5501165986061096,3.9516441822052,2.200493095814279,2.082947702044655,8.92587004300624,7.405463197101656,6.47544875391759e-05,0.1059741750359535,0,0,0
714,28560.483573127643,2011-01-18 21:13:27,840.4232290736143,2,4,0.5501165986061096,3.9547200202941895,2.205079407053303,2.082947702044655,8.944000488683042,7.405463197101656,9.713172767078504e-05,0.1059741750359535,0,0,0
715,28590.498683869027,2011-01-18 21:13:57,870.4383398150004,2,4,0.5501165986061096,3.9576339721679688,2.209665809955492,2.082947702044655,8.962144690486758,7.405463197101656,9.713172767078504e-05,0.1059741750359535,0,0,0
716,28620.513828855765,2011-01-18 21:14:27,900.4534848017366,2,4,0.550297200679779,3.960547924041748,2.214252189801985,2.082947702044655,8.980301863119731,7.405463197101656,9.713172767078504e-05,0.1059741750359535,0,0,0
717,28650.52892887543,2011-01-18 21:14:57,930.468584831426,2,4,0.5501165986061096,3.9631381034851074,2.218838535860711,2.082947702044655,8.998471756229087,7.405463197101656,9.713172767078504e-05,0.1059741750359535,0,0,0
718,28680.544160808862,2011-01-18 21:15:27,960.4838167698724,2,4,0.5499359965324402,3.965728282928467,2.223424943925859,2.082947702044655,9.016654704540054,7.405463197101656,6.47544875391759e-05,0.1059741750359535,0,0,0
719,28710.55915563635,2011-01-18 21:15:57,990.4988115873408,2,4,0.5501165986061096,3.968642234802246,2.228011361942054,2.082947702044655,9.034850258895233,7.405463197101656,9.713172767078504e-05,0.1059741750359535,0,0,0
720,28740.57429670332,2011-01-18 21:16:27,1020.5139526743576,2,4,0.5501165986061096,3.9712324142456055,2.232597699617189,2.082947702044655,9.053057923519942,7.405463197101656,6.47544875391759e-05,0.1059741750359535,0,0,0
721,28770.59115082976,2011-01-18 21:16:57,1050.5308067857584,2,4,0.5499359965324402,3.973984479904175,2.237184429012916,2.082947702044655,9.071279501188195,7.405463197101656,9.713172767078504e-05,0.1059741750359535,0,0,0
722,28800.604530371464,2011-01-18 21:17:27,1080.5441863224496,2,4,0.5501165986061096,3.976736545562744,2.241770610327937,2.082947702044655,9.089511208459234,7.405463197101656,6.47544875391759e-05,0.1059741750359535,0,0,0
723,28830.619647363423,2011-01-18 21:17:57,1110.559303309402,2,4,0.5501165986061096,3.979326725006104,2.246357017750783,2.082947702044655,9.107755737121956,7.405463197101656,9.713172767078504e-05,0.1059741750359535,0,0,0
724,28860.634748671306,2011-01-18 21:18:27,1140.574404617277,2,4,0.5499359965324402,3.982078790664673,2.250943306986619,2.082947702044655,9.126012289914511,7.405463197101656,6.47544875391759e-05,0.1059741750359535,0,0,0
725,28890.649878565426,2011-01-18 21:18:57,1170.5895345113977,2,4,0.550297200679779,3.984668970108032,2.255529613609678,2.082947702044655,9.144280858678526,7.405463197101656,9.713172767078504e-05,0.1059741750359535,0,0,0
726,28920.66498452489,2011-01-18 21:19:27,1200.604640470866,2,4,0.5497553944587708,3.987259149551392,2.260115900000493,2.082947702044655,9.1625612702969,7.405463197101656,9.713172767078504e-05,0.1059741750359535,0,0,0
727,28950.680247365355,2011-01-18 21:19:57,1230.6199033213547,2,4,0.5501165986061096,3.989849328994751,2.264702214313346,2.082947702044655,9.180853531930218,7.405463197101656,6.47544875391759e-05,0.1059741750359535,0,0,0
728,28980.695221691756,2011-01-18 21:20:27,1260.6348776427403,2,4,0.5501165986061096,3.992277622222901,2.269288496844567,2.082947702044655,9.199157434348708,7.405463197101656,9.713172767078504e-05,0.1059741750359535,0,0,0
729,29010.710357054504,2011-01-18 21:20:57,1290.650013000478,2,4,0.5499359965324402,3.994705677032471,2.273874735809512,2.082947702044655,9.217472819638948,7.405463197101656,6.47544875391759e-05,0.1059741750359535,0,0,0
730,29040.724774853865,2011-01-18 21:21:27,1320.664430804852,2,4,0.550297200679779,3.99745774269104,2.278458693764628,2.082947702044655,9.235790723377493,7.405463197101656,9.713172767078504e-05,0.1059741750359535,0,0,0
731,29070.724956457245,2011-01-18 21:21:57,1350.6646124032202,2,4,0.5499359965324402,3.99972414970398,2.283044931628672,2.082947702044655,9.254129130108351,7.405463197101656,3.237724376958795e-05,0.1059741750359535,0,0,0
732,29100.740393511907,2011-01-18 21:22:27,1380.6800494679048,2,4,0.5501165986061096,4.002314567565918,2.287631209388995,2.082947702044655,9.272479160583194,7.405463197101656,3.24249267578125e-05,0.1059741750359535,0,0,0
733,29130.75532040509,2011-01-18 21:22:57,1410.6949763711095,2,4,0.5501165986061096,4.004904747009277,2.292217433936985,2.082947702044655,9.290840299084488,7.405463197101656,6.47544875391759e-05,0.1059741750359535,0,0,0
734,29160.77064483405,2011-01-18 21:23:27,1440.7103008000709,2,4,0.5499359965324402,4.007171154022217,2.29680368933216,2.082947702044655,9.3092129005122,7.405463197101656,3.24249267578125e-05,0.1059741750359535,0,0,0
735,29190.78544175329,2011-01-18 21:23:57,1470.725097699266,2,4,0.5501165986061096,4.009599208831787,2.301389881824747,2.082947702044655,9.327596586752636,7.405463197101656,6.47544875391759e-05,0.1059741750359535,0,0,0
736,29220.80066640357,2011-01-18 21:24:27,1500.7403223846354,2,4,0.5499359965324402,4.0121893882751465,2.305976097467129,2.082947702044655,9.345991659620944,7.405463197101656,9.70840483205393e-05,0.1059741750359535,0,0,0
737,29250.81565112588,2011-01-18 21:24:57,1530.755307071856,2,4,0.5501165986061096,4.014617919921875,2.310562323408276,2.082947702044655,9.364398095644653,7.405463197101656,9.71794142969884e-05,0.1059741750359535,0,0,0
738,29280.830909415003,2011-01-18 21:25:27,1560.770565376014,2,4,0.5501165986061096,4.017045974731445,2.315148620149247,2.082947702044655,9.38281607673422,7.405463197101656,6.47544875391759e-05,0.1059741750359535,0,0,0
739,29310.84594081364,2011-01-18 21:25:57,1590.7855967696412,2,4,0.5501165986061096,4.019312381744385,2.31973497262757,2.082947702044655,9.401245458607972,7.405463197101656,3.23295607813634e-05,0.1059741750359535,0,0,0
740,29340.861010121767,2011-01-18 21:26:27,1620.800666067738,2,4,0.5501165986061096,4.022064685821533,2.324321130519001,2.082947702044655,9.419685316712917,7.405463197101656,6.47544875391759e-05,0.1059741750359535,0,0,0
741,29370.8762497995,2011-01-18 21:26:57,1650.8159057655232,2,4,0.5499359965324402,4.024492740631104,2.328907383551912,2.082947702044655,9.43813680920568,7.405463197101656,6.47544875391759e-05,0.1059741750359535,0,0,0
742,29400.893665239902,2011-01-18 21:27:27,1680.8333212159537,2,4,0.5499359965324402,4.026921272277832,2.33349400717768,2.082947702044655,9.4566010081096,7.405463197101656,6.47544875391759e-05,0.1059741750359535,0,0,0
743,29430.906377543648,2011-01-18 21:27:57,1710.8460334996453,2,4,0.5501165986061096,4.029349327087402,2.338079881416493,2.082947702044655,9.475073487211624,7.405463197101656,9.70840483205393e-05,0.1059741750359535,0,0,0
744,29460.92148292167,2011-01-18 21:28:27,1740.8611388776642,2,4,0.5499359965324402,4.031777858734131,2.342666226382243,2.082947702044655,9.493559132224844,7.405463197101656,3.24249267578125e-05,0.1059741750359535,0,0,0
745,29490.93660691608,2011-01-18 21:28:57,1770.8762628720813,2,4,0.550297200679779,4.034367561340332,2.347252410369753,2.082947702044655,9.512055491144409,7.405463197101656,9.70840483205393e-05,0.1059741750359535,0,0,0
746,29520.95187457355,2011-01-18 21:29:27,1800.8915305345631,2,4,0.5501165986061096,4.036957740783691,2.35183871683442,2.082947702044655,9.530563746580407,7.405463197101656,6.47544875391759e-05,0.1059741750359535,0,0,0
747,29550.966835897547,2011-01-18 21:29:57,1830.9064918435176,2,4,0.5499359965324402,4.03938627243042,2.356425012627666,2.082947702044655,9.54908346630368,7.405463197101656,9.71794142969884e-05,0.1059741750359535,0,0,0
748,29580.982160206207,2011-01-18 21:30:27,1860.9218161772417,2,4,0.5501165986061096,4.041976451873779,2.361011239125845,2.082947702044655,9.567614253424551,7.405463197101656,0.0001295089750783,0.1059741750359535,0,0,0
749,29610.9970756709,2011-01-18 21:30:57,1890.9367316269008,2,4,0.5501165986061096,4.04440450668335,2.365597394037445,2.082947702044655,9.586156425827005,7.405463197101656,9.70840483205393e-05,0.1059741750359535,0,0,0
750,29641.012366451,2011-01-18 21:31:27,1920.952022417024,2,4,0.5501165986061096,4.046994686126709,2.370183669503415,2.082947702044655,9.60471080698095,7.405463197101656,9.70840483205393e-05,0.1059741750359535,0,0,0
751,29671.027452836686,2011-01-18 21:31:57,1950.9671087826584,2,4,0.5501165986061096,4.049746990203857,2.374769901731395,2.082947702044655,9.623276796467676,7.405463197101656,0.0001295089750783,0.1059741750359535,0,0,0
752,29701.04244829074,2011-01-18 21:32:27,1980.9821042417257,2,4,0.5499359965324402,4.052013397216797,2.379356249891822,2.082947702044655,9.641855054072956,7.405463197101656,6.47544875391759e-05,0.1059741750359535,0,0,0
753,29731.059794318146,2011-01-18 21:32:57,2010.99945046462,2,4,0.5499359965324402,4.054603576660156,2.383942831292123,2.082947702044655,9.660446176826095,7.405463197101656,6.47544875391759e-05,0.1059741750359535,0,0,0
754,29761.07284375713,2011-01-18 21:33:27,2041.0124997181435,2,4,0.5501165986061096,4.0573554039001465,2.388528788187676,2.082947702044655,9.679046780091044,7.405463197101656,6.47544875391759e-05,0.1059741750359535,0,0,0
755,29791.087788289275,2011-01-18 21:33:57,2071.027444245273,2,4,0.5501165986061096,4.059945583343506,2.393115042615803,2.082947702044655,9.697660750537544,7.405463197101656,6.47544875391759e-05,0.1059741750359535,0,0,0
756,29821.102910729816,2011-01-18 21:34:27,2101.042566675792,2,4,0.5499359965324402,4.062535762786865,2.397701387824203,2.082947702044655,9.716286836134117,7.405463197101656,9.70840483205393e-05,0.1059741750359535,0,0,0
757,29851.11802866413,2011-01-18 21:34:57,2131.0576846101053,2,4,0.550297200679779,4.065288066864014,2.402287693810098,2.082947702044655,9.73492506333884,7.405463197101656,9.71794142969884e-05,0.1059741750359535,0,0,0
758,29881.133145821503,2011-01-18 21:35:27,2161.072801767482,2,4,0.5499359965324402,4.067878246307373,2.406873917001478,2.082947702044655,9.753575266129078,7.405463197101656,3.24249267578125e-05,0.1059741750359535,0,0,0
759,29911.14828101384,2011-01-18 21:35:58,2191.087936994895,2,4,0.550297200679779,4.070792198181152,2.411460159654295,2.082947702044655,9.772238131264642,7.405463197101656,9.71794142969884e-05,0.1059741750359535,0,0,0
760,29941.16340783028,2011-01-18 21:36:28,2221.103063806333,2,4,0.5499359965324402,4.073220252990723,2.416046346442981,2.082947702044655,9.790913315496068,7.405463197101656,3.23295607813634e-05,0.1059741750359535,0,0,0
761,29971.17849732873,2011-01-18 21:36:58,2251.1181532747,2,4,0.5501165986061096,4.076134204864502,2.42063256176986,2.082947702044655,9.809601455123698,7.405463197101656,3.23295607813634e-05,0.1059741750359535,0,0,0
762,30001.19546201572,2011-01-18 21:37:28,2281.135117971714,2,4,0.5501165986061096,4.079048156738281,2.425219101463751,2.082947702044655,9.828303817842931,7.405463197101656,6.47544875391759e-05,0.1059741750359535,0,0,0
763,30031.208731543236,2011-01-18 21:37:58,2311.148387489204,2,4,0.5501165986061096,4.08180046081543,2.429805058590552,2.082947702044655,9.84701671753862,7.405463197101656,6.47544875391759e-05,0.1059741750359535,0,0,0
764,30061.2238519487,2011-01-18 21:38:28,2341.163507894676,2,4,0.550297200679779,4.08455228805542,2.43439134227943,2.082947702044655,9.865743994231874,7.405463197101656,3.23295607813634e-05,0.1059741750359535,0,0,0
765,30091.238972113577,2011-01-18 21:38:58,2371.1786280595484,2,4,0.5501165986061096,4.087628364562988,2.438977551894562,2.082947702044655,9.88448414284634,7.405463197101656,6.47544875391759e-05,0.1059741750359535,0,0,0
766,30121.25411577701,2011-01-18 21:39:28,2401.1937717330115,2,4,0.5501165986061096,4.090542316436768,2.443563705525667,2.082947702044655,9.903237459474871,7.405463197101656,9.71794142969884e-05,0.1059741750359535,0,0,0
767,30151.269220157545,2011-01-18 21:39:58,2431.208876128582,2,4,0.5501165986061096,4.093456268310547,2.448149962691052,2.082947702044655,9.922004624691446,7.405463197101656,0.0,0.1059741750359535,0,0,0
768,30181.28447140913,2011-01-18 21:40:28,2461.224127370138,2,4,0.550297200679779,4.096531867980957,2.452736215632181,2.082947702044655,9.940785399304112,7.405463197101656,6.47544875391759e-05,0.1059741750359535,0,0,0
769,30211.29942628204,2011-01-18 21:40:58,2491.239082233027,2,4,0.5501165986061096,4.099607944488525,2.457322457467227,2.082947702044655,9.959579810537834,7.405463197101656,0.0001295089750783,0.1059741750359535,0,0,0
770,30241.31455966987,2011-01-18 21:41:28,2521.2542156208547,2,4,0.5499359965324402,4.102521896362305,2.461908787470917,2.082947702044655,9.978388440237472,7.405463197101656,9.71794142969884e-05,0.1059741750359535,0,0,0
771,30271.329790786265,2011-01-18 21:41:58,2551.2694467522906,2,4,0.5499359965324402,4.105597496032715,2.4664951056992,2.082947702044655,9.99721107307698,7.405463197101656,6.47544875391759e-05,0.1059741750359535,0,0,0
772,30301.344779548646,2011-01-18 21:42:28,2581.284435494618,2,4,0.5501165986061096,4.108673572540283,2.471081400957946,2.082947702044655,10.016047738353231,7.405463197101656,9.71794142969884e-05,0.1059741750359535,0,0,0
773,30331.359931643092,2011-01-18 21:42:58,2611.2995875940805,2,4,0.550297200679779,4.112072944641113,2.475667772324398,2.082947702044655,10.034899086421111,7.405463197101656,9.70840483205393e-05,0.1059741750359535,0,0,0
774,30361.37504252984,2011-01-18 21:43:28,2641.3146984958667,2,4,0.5499359965324402,4.114663124084473,2.480253999721764,2.082947702044655,10.05376420310643,7.405463197101656,0.0,0.1059741750359535,0,0,0
775,30391.390153446668,2011-01-18 21:43:58,2671.3298093976528,2,4,0.5501165986061096,4.118224620819092,2.484840253872267,2.082947702044655,10.072644023362246,7.405463197101656,9.71794142969884e-05,0.1059741750359535,0,0,0
776,30421.40525839361,2011-01-18 21:44:28,2701.3449143395846,2,4,0.5499359965324402,4.121462345123291,2.489426490151659,2.082947702044655,10.091538442646932,7.405463197101656,9.71794142969884e-05,0.1059741750359535,0,0,0
777,30451.420370718944,2011-01-18 21:44:58,2731.360026689981,2,4,0.5499359965324402,4.12437629699707,2.494012737425178,2.082947702044655,10.110447687944216,7.405463197101656,0.0,0.1059741750359535,0,0,0
778,30481.43550418196,2011-01-18 21:45:28,2761.375160127934,2,4,0.5501165986061096,4.12809944152832,2.498598955146527,2.082947702044655,10.129371772032568,7.405463197101656,0.0001295089750783,0.1059741750359535,0,0,0
779,30511.450608356983,2011-01-18 21:45:58,2791.390264302955,2,4,0.5501165986061096,4.13133716583252,2.503185301525858,2.082947702044655,10.148311488788668,7.405463197101656,9.70840483205393e-05,0.1059741750359535,0,0,0
780,30541.46572669229,2011-01-18 21:46:28,2821.40538264328,2,4,0.5501165986061096,4.134574890136719,2.507771628645435,2.082947702044655,10.167266308467116,7.405463197101656,9.70840483205393e-05,0.1059741750359535,0,0,0
781,30571.48098637489,2011-01-18 21:46:58,2851.4206423509363,2,4,0.5501165986061096,4.137812614440918,2.512357970897339,2.082947702044655,10.186236513755706,7.405463197101656,9.70840483205393e-05,0.1059741750359535,0,0,0
782,30601.497742226395,2011-01-18 21:47:28,2881.437398172368,2,4,0.5499359965324402,4.141212463378906,2.516944602996309,2.082947702044655,10.2052233830096,7.405463197101656,6.47544875391759e-05,0.1059741750359535,0,0,0
783,30631.51108458543,2011-01-18 21:47:58,2911.4507405364134,2,4,0.5501165986061096,4.144773960113525,2.521530698318757,2.082947702044655,10.224223642720004,7.405463197101656,9.71794142969884e-05,0.1059741750359535,0,0,0
784,30661.52620019895,2011-01-18 21:48:28,2941.46585614493,2,4,0.5501165986061096,4.148173332214356,2.526116972107869,2.082947702044655,10.243240565924134,7.405463197101656,6.47544875391759e-05,0.1059741750359535,0,0,0
785,30691.54132670965,2011-01-18 21:48:58,2971.480982655619,2,4,0.5499359965324402,4.151573181152344,2.530703248364977,2.082947702044655,10.262273300596966,7.405463197101656,6.47544875391759e-05,0.1059741750359535,0,0,0
786,30721.556443907124,2011-01-18 21:49:28,3001.496099878158,2,4,0.5499359965324402,4.155134677886963,2.535289479982488,2.082947702044655,10.281321814328486,7.405463197101656,0.0001295089750783,0.1059741750359535,0,0,0
787,30751.571727163468,2011-01-18 21:49:58,3031.5113831244794,2,4,0.5501165986061096,4.158696174621582,2.539875685996276,2.082947702044655,10.300386421798558,7.405463197101656,9.71794142969884e-05,0.1059741750359535,0,0,0
788,30781.586685600265,2011-01-18 21:50:28,3061.526341576313,2,4,0.5501165986061096,4.162257671356201,2.544461871841257,2.082947702044655,10.319467281462025,7.405463197101656,9.71794142969884e-05,0.1059741750359535,0,0,0
789,30811.60189039105,2011-01-18 21:50:58,3091.541546372112,2,4,0.5499359965324402,4.16581916809082,2.549048035793128,2.082947702044655,10.338564466797198,7.405463197101656,6.47544875391759e-05,0.1059741750359535,0,0,0
790,30841.616902672045,2011-01-18 21:51:28,3121.556558618017,2,4,0.5501165986061096,4.16954231262207,2.553634124336823,2.082947702044655,10.357677862505604,7.405463197101656,0.0001618385285837,0.1059741750359535,0,0,0
791,30871.63203780421,2011-01-18 21:51:58,3151.571693750193,2,4,0.5501165986061096,4.1731038093566895,2.558220342863395,2.082947702044655,10.376808481507927,7.405463197101656,9.70840483205393e-05,0.1059741750359535,0,0,0
792,30901.647290669825,2011-01-18 21:52:28,3181.586946615796,2,4,0.5501165986061096,4.176827430725098,2.56280663878047,2.082947702044655,10.395956240482787,7.405463197101656,9.71794142969884e-05,0.1059741750359535,0,0,0
793,30931.66228068031,2011-01-18 21:52:58,3211.601936626284,2,4,0.5501165986061096,4.180712699890137,2.567392865205303,2.082947702044655,10.4151207823549,7.405463197101656,0.0001295089750783,0.1059741750359535,0,0,0
794,30961.67741827362,2011-01-18 21:53:28,3241.617074219593,2,4,0.5499359965324402,4.184435844421387,2.571979131486565,2.082947702044655,10.43430283056232,7.405463197101656,0.0001295089750783,0.1059741750359535,0,0,0
795,30991.69253456384,2011-01-18 21:53:58,3271.632190534872,2,4,0.5501165986061096,4.188159465789795,2.576565397911635,2.082947702044655,10.453502164259566,7.405463197101656,9.71794142969884e-05,0.1059741750359535,0,0,0
796,31021.707907167864,2011-01-18 21:54:28,3301.6475631389,2,4,0.550297200679779,4.192044734954834,2.581151704269083,2.082947702044655,10.472719302600012,7.405463197101656,9.71794142969884e-05,0.1059741750359535,0,0,0
797,31051.722885083207,2011-01-18 21:54:58,3331.66254104923,2,4,0.5499359965324402,4.195767879486084,2.585737938096376,2.082947702044655,10.491953660760553,7.405463197101656,9.71794142969884e-05,0.1059741750359535,0,0,0
798,31081.73790514359,2011-01-18 21:55:28,3361.677561124649,2,4,0.5499359965324402,4.199653148651123,2.590324192806292,2.082947702044655,10.511205830535063,7.405463197101656,9.71794142969884e-05,0.1059741750359535,0,0,0
799,31083.22246231685,2011-01-18 21:55:30,3363.1621184081864,2,4,0.5501165986061096,4.200138568878174,2.590551039211652,2.082947702044655,10.512158552919349,7.405463197101656,0.0001618385285837,0.1059741750359535,0,0,0
800,31113.237201283027,2011-01-18 21:56:00,30.015071092569173,3,4,0.0,4.096208095550537,2.590551039211652,2.082947702044655,10.512158552919349,7.405463197101656,-0.0003885269106831,0.1059741750359535,0,0,0
801,31143.25430489125,2011-01-18 21:56:30,60.03217482610506,3,4,0.0,4.08293342590332,2.590551039211652,2.082947702044655,10.512158552919349,7.405463197101656,-0.0002914428769145,0.1059741750359535,0,0,0
802,31173.26743957269,2011-01-18 21:57:00,90.04530940227951,3,4,0.0,4.074677467346191,2.590551039211652,2.082947702044655,10.512158552919349,7.405463197101656,-0.0001942634553415,0.1059741750359535,0,0,0
803,31203.2357312265,2011-01-18 21:57:30,120.01360104105618,3,4,0.0,4.069173336029053,2.590551039211652,2.082947702044655,10.512158552919349,7.405463197101656,-0.0001295089750783,0.1059741750359535,0,0,0
804,31203.25134165737,2011-01-18 21:57:30,0.015629408294519,4,4,1.009225368499756,4.199814796447754,2.590555459586362,2.082947702044655,10.512177117674458,7.405463197101656,0.0,0.1059741750359535,0,0,0
805,31204.07946233892,2011-01-18 21:57:31,0.843750195101638,4,4,0.9591966271400452,4.199814796447754,2.590780407773981,2.082947702044655,10.51312184400162,7.405463197101656,0.0,0.1059741750359535,0,0,0
806,31206.12631168228,2011-01-18 21:57:33,2.890599443227737,4,4,0.9086260199546814,4.199653148651123,2.591310411921838,2.082947702044655,10.51534772967605,7.405463197101656,-3.23295607813634e-05,0.1059741750359535,0,0,0
807,31209.20435841683,2011-01-18 21:57:36,5.968646177781547,4,4,0.8584166765213013,4.199491024017334,2.592065044332821,2.082947702044655,10.51851702301626,7.405463197101656,-3.24249267578125e-05,0.1059741750359535,0,0,0
808,31213.45431405897,2011-01-18 21:57:40,10.218601849995371,4,4,0.8083878755569458,4.199814796447754,2.59304786543654,2.082947702044655,10.522644653311922,7.405463197101656,0.0,0.1059741750359535,0,0,0
809,31219.001204767355,2011-01-18 21:57:46,15.765492563388754,4,4,0.7583591341972351,4.199976921081543,2.594253427797987,2.082947702044655,10.527707775117538,7.405463197101656,6.47544875391759e-05,0.1059741750359535,0,0,0
810,31226.29782115049,2011-01-18 21:57:53,23.06210890141584,4,4,0.7083303332328796,4.199976921081543,2.595737464884894,2.082947702044655,10.533940440333325,7.405463197101656,6.47544875391759e-05,0.1059741750359535,0,0,0
811,31235.953907097777,2011-01-18 21:58:03,32.7181948787748,4,4,0.6581209897994995,4.199653148651123,2.5975666112714,2.082947702044655,10.541622493253598,7.405463197101656,0.0,0.1059741750359535,0,0,0
812,31249.62555731177,2011-01-18 21:58:16,46.389845072719694,4,4,0.6079115867614746,4.199653148651123,2.599965213904608,2.082947702044655,10.551696166273898,7.405463197101656,-3.23295607813634e-05,0.1059741750359535,0,0,0
813,31270.640826829647,2011-01-18 21:58:37,67.40511468081988,4,4,0.5578827857971191,4.199653148651123,2.603356768400277,2.082947702044655,10.565940019371986,7.405463197101656,0.0,0.1059741750359535,0,0,0
814,31308.734061937528,2011-01-18 21:59:15,105.49834971351676,4,4,0.5078540444374084,4.199814796447754,2.608968467295452,2.082947702044655,10.589508192471667,7.405463197101656,0.0,0.1059741750359535,0,0,0
815,31383.15455933566,2011-01-18 22:00:30,179.91884709159754,4,4,0.4578252732753753,4.199814796447754,2.618902593176602,2.082947702044655,10.631230148359135,7.405463197101656,-3.24249267578125e-05,0.1059741750359535,0,0,0
816,31498.93386430304,2011-01-18 22:02:26,295.69815205897777,4,4,0.4077965021133423,4.199814796447754,2.632790127637819,2.082947702044655,10.689555963836392,7.405463197101656,0.0,0.1059741750359535,0,0,0
817,31646.47823178006,2011-01-18 22:04:53,443.2425195359974,4,4,0.3577677309513092,4.199976921081543,2.648458433047342,2.082947702044655,10.755360851184385,7.405463197101656,3.24249267578125e-05,0.1059741750359535,0,0,0
818,31824.50643868458,2011-01-18 22:07:51,621.2707264455257,4,4,0.3077389597892761,4.199814796447754,2.664883250075084,2.082947702044655,10.824343115812043,7.405463197101656,0.0,0.1059741750359535,0,0,0
819,32039.846664380544,2011-01-18 22:11:27,836.6109523269532,4,4,0.257710188627243,4.199814796447754,2.681764301880137,2.082947702044655,10.895241775133012,7.405463197101656,-3.24249267578125e-05,0.1059741750359535,0,0,0
820,32311.045145025,2011-01-18 22:15:58,1107.809432790956,4,4,0.2076814323663711,4.199653148651123,2.699251012565312,2.082947702044655,10.968683803903994,7.405463197101656,-6.47544875391759e-05,0.1059741750359535,0,0,0
821,32669.757869357178,2011-01-18 22:21:56,1466.5221571431878,4,4,0.157652661204338,4.199653148651123,2.717361035941022,2.082947702044655,11.044743675636584,7.405463197101656,-3.23295607813634e-05,0.1059741750359535,0,0,0
822,33187.32734963417,2011-01-18 22:30:34,1984.0916375053985,4,4,0.1076238825917244,4.199814796447754,2.736217037844644,2.082947702044655,11.123936501022431,7.405463197101656,0.0,0.1059741750359535,0,0,0
823,34107.90541439134,2011-01-18 22:45:55,2904.669702172337,4,4,0.0575951151549816,4.199653148651123,2.756654092971955,2.082947702044655,11.209769384582112,7.405463197101656,-6.47544875391759e-05,0.1059741750359535,0,0,0
824,34352.4483425974,2011-01-18 22:49:59,3149.2126303583545,4,4,0.0496483072638511,4.199653148651123,2.760337992527119,2.082947702044655,11.225241305773896,7.405463197101656,-6.47544875391759e-05,0.1059741750359535,0,0,0
825,34382.46581225125,2011-01-18 22:50:29,30.015264258999352,5,4,0.0,4.1901021003723145,2.760337995884609,2.082947702044655,11.225241319874192,7.405463197101656,-6.47544875391759e-05,0.1059741750359535,0,0,0
826,34412.46528719842,2011-01-18 22:50:59,60.014739216200375,5,4,0.0,4.188483238220215,2.760337995884609,2.082947702044655,11.225241319874192,7.405463197101656,-6.47544875391759e-05,0.1059741750359535,0,0,0
827,34412.649929950974,2011-01-18 22:51:00,0.185221218267066,6,4,-1.9243103452026844e-05,4.188644886016846,2.760337995884609,2.082947703034719,11.225241319874192,7.405463201248683,0.0,0.1077866628766059,0,0,0
828,34417.47969588377,2011-01-18 22:51:04,5.014987146040903,6,4,0.0007031940040178,4.188483238220215,2.760338866722246,2.082947703118709,11.225244967529497,7.405463201600488,-6.47544875391759e-05,0.1077866628766059,0,0,0
829,34436.6374490023,2011-01-18 22:51:24,19.15592300926925,7,4,-1.099568486213684,3.988392353057861,2.760338866722246,2.088798443685965,11.225244967529497,7.428921613784508,-0.0015216827159747,0.1077866628766059,0,0,0
830,34466.65269983785,2011-01-18 22:51:54,49.17117381975076,7,4,-1.0993878841400146,3.940959692001343,2.760338866722246,2.097965874967767,11.225244967529497,7.46525961464113,-0.0011332035064697,0.1077866628766059,0,0,0
831,34496.66768540225,2011-01-18 22:52:24,79.18615937914494,7,4,-1.0997490882873535,3.9042117595672607,2.760338866722246,2.107133205037606,11.225244967529497,7.501212409904577,-0.0009389400365762,0.1077866628766059,0,0,0
832,34526.682808293925,2011-01-18 22:52:54,109.20128227081342,7,4,-1.099568486213684,3.875396013259888,2.760338866722246,2.116300562546754,11.225244967529497,7.536867137280317,-0.0007122993702068,0.1077866628766059,0,0,0
833,34556.697910443894,2011-01-18 22:53:24,139.21638444083715,7,4,-1.099568486213684,3.8522462844848633,2.760338866722246,2.125467956897031,11.225244967529497,7.572284907185568,-0.0005504131549969,0.1077866628766059,0,0,0
834,34586.71323053705,2011-01-18 22:53:54,169.23170453399243,7,4,-1.0997490882873535,3.832496404647827,2.760338866722246,2.134635434500527,11.225244967529497,7.607508678338843,-0.0005503654247149,0.1077866628766059,0,0,0
835,34616.7283136997,2011-01-18 22:54:24,199.2467876966439,7,4,-1.0997490882873535,3.815660238265991,2.760338866722246,2.143802784279503,11.225244967529497,7.642565618353398,-0.0004532813909463,0.1077866628766059,0,0,0
836,34646.74329899343,2011-01-18 22:54:54,229.26177296531355,7,4,-1.0993878841400146,3.800442934036255,2.760338866722246,2.15297007662969,11.225244967529497,7.677473368872323,-0.0003561496851034,0.1077866628766059,0,0,0
837,34676.75843065196,2011-01-18 22:55:24,259.2769046288442,7,4,-1.0993878841400146,3.7861969470977774,2.760338866722246,2.162137447276921,11.225244967529497,7.712245987848701,-0.0003561496851034,0.1077866628766059,0,0,0
838,34706.7753472942,2011-01-18 22:55:54,289.2938212761035,7,4,-1.099568486213684,3.772760391235352,2.760338866722246,2.17130537663847,11.225244967529497,7.746895444052863,-0.0003885269106831,0.1077866628766059,0,0,0
839,34736.78867849042,2011-01-18 22:56:24,319.3071524723156,7,4,-1.099568486213684,3.760295152664185,2.760338866722246,2.180472246555921,11.225244967529497,7.781422720799459,-0.0003237724304199,0.1077866628766059,0,0,0
840,34766.80389490016,2011-01-18 22:56:54,349.32236889208485,7,4,-1.0992072820663452,3.7483158111572266,2.760338866722246,2.189639663972499,11.225244967529497,7.815839301220384,-0.0002913951757363,0.1077866628766059,0,0,0
841,34796.81901069413,2011-01-18 22:57:24,379.3374846810513,7,4,-1.099568486213684,3.736660003662109,2.760338866722246,2.198807035553672,11.225244967529497,7.85014731453537,-0.0003237724304199,0.1077866628766059,0,0,0
842,34826.83411917489,2011-01-18 22:57:54,409.35259316180327,7,4,-1.0993878841400146,3.725813627243042,2.760338866722246,2.207974414450567,11.225244967529497,7.884352104024142,-0.0002590179501567,0.1077866628766059,0,0,0
843,34856.84921763567,2011-01-18 22:58:24,439.36769162759487,7,4,-1.099568486213684,3.715129137039185,2.760338866722246,2.217141688102589,11.225244967529497,7.918458417520913,-0.0002913951757363,0.1077866628766059,0,0,0
844,34886.86423354069,2011-01-18 22:58:54,469.38270753763226,7,4,-1.099568486213684,3.704930305480957,2.760338866722246,2.226308974900062,11.225244967529497,7.952469653360788,-0.0002590179501567,0.1077866628766059,0,0,0
845,34916.87943283277,2011-01-18 22:59:24,499.3979068096641,7,4,-1.099568486213684,3.695055246353149,2.760338866722246,2.235476288990555,11.225244967529497,7.986388610371875,-0.0002590179501567,0.1077866628766059,0,0,0
846,34946.894435103815,2011-01-18 22:59:54,529.4129090807089,7,4,-1.099568486213684,3.685180187225342,2.760338866722246,2.244643579810876,11.225244967529497,8.020217946740459,-0.0003237724304199,0.1077866628766059,0,0,0
847,34976.90966741821,2011-01-18 23:00:24,559.4281413900799,7,4,-1.0993878841400146,3.676114559173584,2.760338866722246,2.253810945405341,11.225244967529497,8.053960543059205,-0.0002266406954731,0.1077866628766059,0,0,0
848,35006.9246714386,2011-01-18 23:00:54,589.4431454104846,7,4,-1.0993878841400146,3.6668872833251953,2.760338866722246,2.262978255803601,11.225244967529497,8.087617825965776,-0.0002590179501567,0.1077866628766059,0,0,0
849,35036.939783473215,2011-01-18 23:01:24,619.4582574400814,7,4,-1.099568486213684,3.657659769058228,2.760338866722246,2.2721455874982,11.225244967529497,8.121190956300294,-0.0002590179501567,0.1077866628766059,0,0,0
850,35066.95490651525,2011-01-18 23:01:54,649.4733804921497,7,4,-1.0993878841400146,3.64875602722168,2.760338866722246,2.281312969866415,11.225244967529497,8.154681548211657,-0.0002266406954731,0.1077866628766059,0,0,0
851,35096.9700371813,2011-01-18 23:02:24,679.4885111732318,7,4,-1.0993878841400146,3.640176057815552,2.760338866722246,2.290480265796898,11.225244967529497,8.188090901613121,-0.0002266406954731,0.1077866628766059,0,0,0
852,35126.9852602727,2011-01-18 23:02:54,709.5037342445787,7,4,-1.099568486213684,3.631434202194214,2.760338866722246,2.299647605494072,11.225244967529497,8.221421354367752,-0.0002590179501567,0.1077866628766059,0,0,0
853,35157.00025482952,2011-01-18 23:03:24,739.5187288013974,7,4,-1.099568486213684,3.623016119003296,2.760338866722246,2.308814844076188,11.225244967529497,8.254673760801797,-0.0002266406954731,0.1077866628766059,0,0,0
854,35187.01538789153,2011-01-18 23:03:54,769.5338618684261,7,4,-1.099568486213684,3.614921808242798,2.760338866722246,2.317982125766148,11.225244967529497,8.28785067261585,-0.0002266406954731,0.1077866628766059,0,0,0
855,35217.03049379085,2011-01-18 23:04:24,799.5489677627319,7,4,-1.099568486213684,3.6068274974823,2.760338866722246,2.327149416766254,11.225244967529497,8.32095300915419,-0.0002266406954731,0.1077866628766059,0,0,0
856,35247.0458810865,2011-01-18 23:04:54,829.5643550734137,7,4,-1.099568486213684,3.598895072937012,2.760338866722246,2.336316787974396,11.225244967529497,8.353982287502692,-0.0001942634553415,0.1077866628766059,0,0,0
857,35277.06072390514,2011-01-18 23:05:24,859.5791978720041,7,4,-1.099568486213684,3.5912866592407227,2.760338866722246,2.345484095988361,11.225244967529497,8.386940107870503,-0.0002265930233988,0.1077866628766059,0,0,0
858,35307.077600071505,2011-01-18 23:05:54,889.59607407346,7,4,-1.0997490882873535,3.5836780071258545,2.760338866722246,2.354651961792964,11.225244967529497,8.419829208094177,-0.0001942634553415,0.1077866628766059,0,0,0
859,35337.09098045531,2011-01-18 23:06:24,919.6094544372128,7,4,-1.099568486213684,3.5762312412261963,2.760338866722246,2.363818756640019,11.225244967529497,8.452645460341971,-0.0001942634553415,0.1077866628766059,0,0,0
860,35367.106329024435,2011-01-18 23:06:54,949.6248030013264,7,4,-1.0993878841400146,3.569108247756958,2.760338866722246,2.372986160901977,11.225244967529497,8.485396714991651,-0.0001942634553415,0.1077866628766059,0,0,0
861,35397.1211973316,2011-01-18 23:07:24,979.6396713135044,7,4,-1.099568486213684,3.56198525428772,2.760338866722246,2.382153455472072,11.225244967529497,8.518081873313308,-0.0001942634553415,0.1077866628766059,0,0,0
862,35427.13633904017,2011-01-18 23:07:54,1009.654813007033,7,4,-1.099568486213684,3.5550241470336914,2.760338866722246,2.391320776483863,11.225244967529497,8.550703828558126,-0.0001618862152099,0.1077866628766059,0,0,0
863,35457.15145265872,2011-01-18 23:08:24,1039.6699266406274,7,4,-1.0997490882873535,3.548548698425293,2.760338866722246,2.400488123985039,11.225244967529497,8.58326410557553,-0.0001618862152099,0.1077866628766059,0,0,0
864,35487.16655910441,2011-01-18 23:08:54,1069.6850330762825,7,4,-1.099568486213684,3.5422351360321045,2.760338866722246,2.409655477203885,11.225244967529497,8.615764685221839,-9.713172767078504e-05,0.1077866628766059,0,0,0
865,35517.18169057245,2011-01-18 23:09:24,1099.7001645693883,7,4,-1.0993878841400146,3.535921573638916,2.760338866722246,2.418822831015729,11.225244967529497,8.648207439663507,-0.0001618862152099,0.1077866628766059,0,0,0
866,35547.19915536585,2011-01-18 23:09:54,1129.7176293527714,7,4,-1.0997490882873535,3.529769897460937,2.760338866722246,2.427990966541298,11.225244967529497,8.680596432330196,-0.0001618862152099,0.1077866628766059,0,0,0
867,35577.21193696731,2011-01-18 23:10:24,1159.7304109492118,7,4,-1.0993878841400146,3.523941993713379,2.760338866722246,2.437157636664212,11.225244967529497,8.712925459619779,-0.0001295089750783,0.1077866628766059,0,0,0
868,35607.227038029574,2011-01-18 23:10:54,1189.7455120014497,7,4,-1.0993878841400146,3.5182759761810303,2.760338866722246,2.446324938990203,11.225244967529497,8.745203783408968,-0.0001618862152099,0.1077866628766059,0,0,0
869,35637.242140745955,2011-01-18 23:11:24,1219.760614717835,7,4,-1.099568486213684,3.512771844863892,2.760338866722246,2.455492356747191,11.225244967529497,8.777430768761167,-0.0001295089750783,0.1077866628766059,0,0,0
870,35667.2572945246,2011-01-18 23:11:54,1249.7757685065085,7,4,-1.099568486213684,3.507106065750122,2.760338866722246,2.464659761469579,11.225244967529497,8.809607146767881,-0.0001618862152099,0.1077866628766059,0,0,0
871,35697.27239314077,2011-01-18 23:12:24,1279.7908671126502,7,4,-1.099568486213684,3.5016019344329834,2.760338866722246,2.473827105900723,11.225244967529497,8.841733972224336,-0.0001942634553415,0.1077866628766059,0,0,0
872,35727.287512759285,2011-01-18 23:12:54,1309.8059867512106,7,4,-1.0993878841400146,3.4965834617614746,2.760338866722246,2.482994499045729,11.225244967529497,8.873811499175341,-0.0001295089750783,0.1077866628766059,0,0,0
873,35757.30260522011,2011-01-18 23:13:24,1339.8210791919862,7,4,-1.099568486213684,3.491241216659546,2.760338866722246,2.492161867694606,11.225244967529497,8.9058409617039,-0.0001295089750783,0.1077866628766059,0,0,0
874,35787.3177320115,2011-01-18 23:13:54,1369.836205983374,7,4,-1.0992072820663452,3.486384630203247,2.760338866722246,2.501329228819829,11.225244967529497,8.937823283632056,-9.713172767078504e-05,0.1077866628766059,0,0,0
875,35817.332834687775,2011-01-18 23:14:24,1399.851308664672,7,4,-1.099568486213684,3.4808804988861084,2.760338866722246,2.510496643661846,11.225244967529497,8.969758802348899,-0.0001618862152099,0.1077866628766059,0,0,0
876,35847.347981007835,2011-01-18 23:14:54,1429.8664549797186,7,4,-1.099568486213684,3.4758620262146,2.760338866722246,2.51966394968713,11.225244967529497,9.001646272425093,-0.0001295089750783,0.1077866628766059,0,0,0
877,35877.36540228279,2011-01-18 23:15:24,1459.8838763749652,7,4,-1.0993878841400146,3.470843553543091,2.760338866722246,2.528831975193538,11.225244967529497,9.033489368577214,-6.47544875391759e-05,0.1077866628766059,0,0,0
878,35907.379902622866,2011-01-18 23:15:54,1489.8983766047688,7,4,-1.0993878841400146,3.465501308441162,2.760338866722246,2.537999140849756,11.225244967529497,9.065282348477224,-0.0001618862152099,0.1077866628766059,0,0,0
879,35937.39346407294,2011-01-18 23:16:24,1519.911938089932,7,4,-1.0993878841400146,3.460320949554444,2.760338866722246,2.547166075092475,11.225244967529497,9.097026002940256,-0.0001295089750783,0.1077866628766059,0,0,0
880,35967.40855600244,2011-01-18 23:16:54,1549.927029989358,7,4,-1.0993878841400146,3.4548168182373047,2.760338866722246,2.556333407185593,11.225244967529497,9.12872254742326,-0.0001618862152099,0.1077866628766059,0,0,0
881,35997.42354127111,2011-01-18 23:17:24,1579.9420152480027,7,4,-1.0993878841400146,3.449474573135376,2.760338866722246,2.565500675770394,11.225244967529497,9.160369743429545,-0.0001618862152099,0.1077866628766059,0,0,0
882,36027.43867120032,2011-01-18 23:17:54,1609.9571451721984,7,4,-1.099568486213684,3.443808555603028,2.760338866722246,2.574668004726653,11.225244967529497,9.191966451012927,-0.0001618862152099,0.1077866628766059,0,0,0
883,36057.45390163503,2011-01-18 23:18:25,1639.9723756269473,7,4,-1.099568486213684,3.437818765640259,2.760338866722246,2.583835344389279,11.225244967529497,9.22351020664618,-0.0001618862152099,0.1077866628766059,0,0,0
884,36087.4688979011,2011-01-18 23:18:55,1669.9873718729757,7,4,-1.099568486213684,3.4316670894622803,2.760338866722246,2.593002695560545,11.225244967529497,9.254998181381827,-0.0001295089750783,0.1077866628766059,0,0,0
885,36117.484013043446,2011-01-18 23:19:25,1700.0024870153304,7,4,-1.099568486213684,3.425029993057251,2.760338866722246,2.602170049109695,11.225244967529497,9.286427257853314,-0.0002266406954731,0.1077866628766059,0,0,0
886,36147.49916071187,2011-01-18 23:19:55,1730.0176347038002,7,4,-1.0997490882873535,3.4182307720184326,2.760338866722246,2.611337443950639,11.225244967529497,9.317795534846192,-0.0001942634553415,0.1077866628766059,0,0,0
887,36177.51423098239,2011-01-18 23:20:25,1760.0327049793332,7,4,-1.0993878841400146,3.4109458923339844,2.760338866722246,2.620504735215506,11.225244967529497,9.349098351473724,-0.0001942634553415,0.1077866628766059,0,0,0
888,36207.52940482605,2011-01-18 23:20:55,1790.047878888152,7,4,-1.0992072820663452,3.4028515815734863,2.760338866722246,2.629671422836686,11.225244967529497,9.380328980543554,-0.0002266406954731,0.1077866628766059,0,0,0
889,36237.54447713164,2011-01-18 23:21:25,1820.06295110352,7,4,-1.099568486213684,3.3942716121673584,2.760338866722246,2.638838043281857,11.225244967529497,9.411483105853344,-0.0002590179501567,0.1077866628766059,0,0,0
890,36267.5596289504,2011-01-18 23:21:55,1850.0781029222835,7,4,-1.0993878841400146,3.384396553039551,2.760338866722246,2.648004707761439,11.225244967529497,9.442552564679668,-0.0002913951757363,0.1077866628766059,0,0,0
891,36297.57470600282,2011-01-18 23:22:25,1880.093179984731,7,4,-1.099568486213684,3.373388290405273,2.760338866722246,2.657171460154194,11.225244967529497,9.473527397987876,-0.0003237724304199,0.1077866628766059,0,0,0
892,36327.5899634699,2011-01-18 23:22:55,1910.1084374768657,7,4,-1.099568486213684,3.3609230518341064,2.760338866722246,2.66633893435958,11.225244967529497,9.504397076550672,-0.0003561496851034,0.1077866628766059,0,0,0
893,36357.604981244585,2011-01-18 23:23:25,1940.1234552365124,7,4,-1.0993878841400146,3.346029758453369,2.760338866722246,2.675506331656357,11.225244967529497,9.535141676276124,-0.0004209041653666,0.1077866628766059,0,0,0
894,36387.62008135448,2011-01-18 23:23:55,1970.138555346402,7,4,-1.099568486213684,3.3285460472106934,2.760338866722246,2.684673711397019,11.225244967529497,9.56573906110169,-0.0005180359003134,0.1077866628766059,0,0,0
895,36417.63518343427,2011-01-18 23:24:25,2000.1536574011384,7,4,-1.099568486213684,3.3068532943725586,2.760338866722246,2.693841052333544,11.225244967529497,9.596157063551756,-0.0006151676061563,0.1077866628766059,0,0,0
896,36447.65030336355,2011-01-18 23:24:55,2030.1687773304232,7,4,-1.099568486213684,3.279656410217285,2.760338866722246,2.703008446619677,11.225244967529497,9.626352753372318,-0.0008094310760498,0.1077866628766059,0,0,0
897,36477.66542516751,2011-01-18 23:25:25,2060.183899159444,7,4,-1.099568486213684,3.2453367710113525,2.760338866722246,2.712175802727065,11.225244967529497,9.656267712172776,-0.0010036944877356,0.1077866628766059,0,0,0
898,36507.6827509645,2011-01-18 23:25:55,2090.201224961442,7,4,-1.0993878841400146,3.201627492904663,2.760338866722246,2.721343841209456,11.225244967529497,9.68583013130471,-0.0012627125252038,0.1077866628766059,0,0,0
899,36537.69579074942,2011-01-18 23:26:25,2120.2142647664177,7,4,-1.0993878841400146,3.143672466278076,2.760338866722246,2.730510589907604,11.225244967529497,9.714925941803347,-0.0017807483673095,0.1077866628766059,0,0,0
900,36567.710802303605,2011-01-18 23:26:55,2150.229276275487,7,4,-1.099568486213684,3.0640246868133545,2.760338866722246,2.739677959836426,11.225244967529497,9.743400338461983,-0.0024282932281494,0.1077866628766059,0,0,0
901,36597.72602612683,2011-01-18 23:27:25,2180.24450014382,7,4,-1.099568486213684,2.946657657623291,2.760338866722246,2.748845373549002,11.225244967529497,9.770989208947396,-0.003755712416023,0.1077866628766059,0,0,0
902,36627.74104103938,2011-01-18 23:27:55,2210.2595150262964,7,4,-1.099568486213684,2.7677738666534424,2.760338866722246,2.758012712471712,11.225244967529497,9.797235198679408,-0.0055364607833325,0.1077866628766059,0,0,0
903,36637.11586643884,2011-01-18 23:28:04,2219.634340435778,7,4,-1.099568486213684,2.699620008468628,2.760338866722246,2.760876052979539,11.225244967529497,9.805063999800236,-0.0059249876067042,0.1077866628766059,0,0,0
904,36697.13249180855,2011-01-18 23:29:04,60.014600284940926,8,4,0.0,3.5670037269592285,2.760338866722246,2.760876052979539,11.225244967529497,9.805063999800236,0.0014893531333655,0.1077866628766059,0,0,0
905,36697.31734965804,2011-01-18 23:29:05,0.185704252136093,9,4,-1.9243103452026844e-05,3.5673274993896484,2.760338866722246,2.760876053972185,11.225244967529497,9.805064003341329,0.0,0.1052602156996727,0,0,0
906,36702.14548108211,2011-01-18 23:29:09,5.013835676223819,9,4,0.0008838032954372,3.5762312412261963,2.760339796468093,2.76087605413976,11.225248288867716,9.805064003939124,0.0012627125252038,0.1052602156996727,0,0,0
