Data_Point,Test_Time(s),Date_Time,Step_Time(s),Step_Index,Cycle_Index,Current(A),Voltage(V),Charge_Capacity(Ah),Discharge_Capacity(Ah),Charge_Energy(Wh),Discharge_Energy(Wh),dV/dt(V/s),Internal_Resistance(Ohm),Is_FC_Data,AC_Impedance(Ohm),ACI_Phase_Angle(Deg)
907,36732.17533839725,2011-01-18 23:29:40,30.01512128265832,1,5,0.0,3.614274263381958,2.760339796468093,2.76087605413976,11.225248288867716,9.805064003939124,0.0008094310760498,0.1052602156996727,0,0,0
908,36762.19047557453,2011-01-18 23:30:10,60.03025845491841,1,5,0.0,3.638233423233032,2.760339796468093,2.76087605413976,11.225248288867716,9.805064003939124,0.0005180359003134,0.1052602156996727,0,0,0
909,36792.2057848006,2011-01-18 23:30:40,90.04556768098954,1,5,0.0,3.655231475830078,2.760339796468093,2.76087605413976,11.225248288867716,9.805064003939124,0.0004209041653666,0.1052602156996727,0,0,0
910,36822.17381311309,2011-01-18 23:31:10,120.01359597843856,1,5,0.0,3.667696714401245,2.760339796468093,2.76087605413976,11.225248288867716,9.805064003939124,0.0002913951757363,0.1052602156996727,0,0,0
911,36852.18824168172,2011-01-18 23:31:40,30.013169673648168,2,5,0.550297200679779,3.7928342819213863,2.764926044888215,2.76087605413976,11.242547310261257,9.805064003939124,0.0008741855854168,0.1052602156996727,0,0,0
912,36882.20337555074,2011-01-18 23:32:10,60.02830351761314,2,5,0.5499359965324402,3.8153364658355713,2.769512567109317,2.76087605413976,11.259999969024708,9.805064003939124,0.0004532813909463,0.1052602156996727,0,0,0
913,36912.2185926873,2011-01-18 23:32:40,90.0435206792313,2,5,0.5499359965324402,3.828287363052368,2.77409904540927,2.76087605413976,11.277530823904476,9.805064003939124,0.0002590179501567,0.1052602156996727,0,0,0
914,36942.23372356387,2011-01-18 23:33:10,120.0586515558006,2,5,0.5501165986061096,3.8386478424072266,2.77868545821752,2.76087605413976,11.29511382066419,9.805064003939124,0.0002266406954731,0.1052602156996727,0,0,0
915,36972.24869386022,2011-01-18 23:33:40,150.07362183711712,2,5,0.5501165986061096,3.8472278118133545,2.783271910234995,2.76087605413976,11.312739743599806,9.805064003939124,0.0002590179501567,0.1052602156996727,0,0,0
916,37002.26381995488,2011-01-18 23:34:10,180.08874794179337,2,5,0.5501165986061096,3.8551602363586426,2.787858406820943,2.76087605413976,11.330403500984568,9.805064003939124,0.0001942634553415,0.1052602156996727,0,0,0
917,37032.2790187808,2011-01-18 23:34:40,210.10394676771332,2,5,0.5499359965324402,3.862283229827881,2.792444858259811,2.76087605413976,11.34810175650872,9.805064003939124,0.0001618862152099,0.1052602156996727,0,0,0
918,37062.29407197877,2011-01-18 23:35:10,240.1189999406212,2,5,0.5501165986061096,3.869082450866699,2.797031320906939,2.76087605413976,11.365832306090132,9.805064003939124,0.0001295089750783,0.1052602156996727,0,0,0
919,37092.30918768754,2011-01-18 23:35:40,270.1341156744502,2,5,0.550297200679779,3.875719785690308,2.801617802540875,2.76087605413976,11.383593020712672,9.805064003939124,0.0002266406954731,0.1052602156996727,0,0,0
920,37122.32429208813,2011-01-18 23:36:10,300.1492200750332,2,5,0.5501165986061096,3.881547689437866,2.806204288747372,2.76087605413976,11.40138202548054,9.805064003939124,0.0001618862152099,0.1052602156996727,0,0,0
921,37152.33940158139,2011-01-18 23:36:40,330.1643295532712,2,5,0.5501165986061096,3.887375593185425,2.810790717268774,2.76087605413976,11.41919771707184,9.805064003939124,0.0001618862152099,0.1052602156996727,0,0,0
922,37182.354529019394,2011-01-18 23:37:10,360.17945700630804,2,5,0.5501165986061096,3.892879724502564,2.815377219666602,2.76087605413976,11.437039687019398,9.805064003939124,0.0001618862152099,0.1052602156996727,0,0,0
923,37212.36964608655,2011-01-18 23:37:40,390.19457407346,2,5,0.550297200679779,3.898060083389282,2.819963689378747,2.76087605413976,11.454906169879536,9.805064003939124,9.713172767078504e-05,0.1052602156996727,0,0,0
924,37242.38476613112,2011-01-18 23:38:10,420.2096941029952,2,5,0.5501165986061096,3.903240442276001,2.824550113787129,2.76087605413976,11.472796506444505,9.805064003939124,0.0001295089750783,0.1052602156996727,0,0,0
925,37272.399871654496,2011-01-18 23:38:40,450.22479964141394,2,5,0.5499359965324402,3.9080970287323,2.829136596873017,2.76087605413976,11.490710333026048,9.805064003939124,9.713172767078504e-05,0.1052602156996727,0,0,0
926,37302.41502981908,2011-01-18 23:39:10,480.23995781100587,2,5,0.5501165986061096,3.912953615188599,2.833723059531419,2.76087605413976,11.508646746280116,9.805064003939124,9.713172767078504e-05,0.1052602156996727,0,0,0
927,37332.430116149626,2011-01-18 23:39:40,510.25504413654033,2,5,0.5499359965324402,3.9178099632263184,2.838309522322487,2.76087605413976,11.526605000248956,9.805064003939124,0.0001295089750783,0.1052602156996727,0,0,0
928,37362.44534884997,2011-01-18 23:40:10,540.2702768118234,2,5,0.5499359965324402,3.922342777252197,2.842895927430627,2.76087605413976,11.544584096245764,9.805064003939124,0.0001295089750783,0.1052602156996727,0,0,0
929,37392.46035519617,2011-01-18 23:40:40,570.2852831680497,2,5,0.550297200679779,3.926713705062866,2.847482387017617,2.76087605413976,11.562583612289997,9.805064003939124,0.0001618862152099,0.1052602156996727,0,0,0
930,37422.47548873437,2011-01-18 23:41:10,600.3004167263025,2,5,0.5501165986061096,3.9307608604431152,2.852068866977625,2.76087605413976,11.580602545681437,9.805064003939124,9.713172767078504e-05,0.1052602156996727,0,0,0
931,37452.4767841437,2011-01-18 23:41:40,630.3017121556803,2,5,0.5501165986061096,3.934808015823364,2.856653228123321,2.76087605413976,11.598631491856231,9.805064003939124,0.0001295089750783,0.1052602156996727,0,0,0
932,37482.49011760556,2011-01-18 23:42:10,660.3150456025016,2,5,0.5501165986061096,3.938369512557984,2.861239474903625,2.76087605413976,11.616685354603783,9.805064003939124,6.47544875391759e-05,0.1052602156996727,0,0,0
933,37512.50559230404,2011-01-18 23:42:40,690.3305202909559,2,5,0.5501165986061096,3.942092895507813,2.865826009066189,2.76087605413976,11.634757079655378,9.805064003939124,9.713172767078504e-05,0.1052602156996727,0,0,0
934,37542.52030820136,2011-01-18 23:43:10,720.3452361682192,2,5,0.5501165986061096,3.945330619812012,2.870412435068703,2.76087605413976,11.652844407191882,9.805064003939124,9.713172767078504e-05,0.1052602156996727,0,0,0
935,37572.53544011551,2011-01-18 23:43:40,750.3603680873871,2,5,0.5501165986061096,3.948568344116211,2.87499893425203,2.76087605413976,11.670947392586292,9.805064003939124,6.47544875391759e-05,0.1052602156996727,0,0,0
936,37602.55059258088,2011-01-18 23:44:10,780.3755206479996,2,5,0.5501165986061096,3.95180606842041,2.879585406407872,2.76087605413976,11.689065036688644,9.805064003939124,9.713172767078504e-05,0.1052602156996727,0,0,0
937,37632.56589732579,2011-01-18 23:44:40,810.390825297665,2,5,0.5501165986061096,3.9548819065094,2.884171745844403,2.76087605413976,11.70719638406387,9.805064003939124,9.713172767078504e-05,0.1052602156996727,0,0,0
938,37662.58079397359,2011-01-18 23:45:10,840.4057219605014,2,5,0.5499359965324402,3.9577958583831783,2.888757380567351,2.76087605413976,11.725338747069673,9.805064003939124,6.47544875391759e-05,0.1052602156996727,0,0,0
939,37692.595923075736,2011-01-18 23:45:40,870.4208510726735,2,5,0.5501165986061096,3.960709810256958,2.893343198227502,2.76087605413976,11.743495415810743,9.805064003939124,6.47544875391759e-05,0.1052602156996727,0,0,0
940,37722.61102550139,2011-01-18 23:46:10,900.4359534682593,2,5,0.5501165986061096,3.9637856483459473,2.897929669422983,2.76087605413976,11.761668157133151,9.805064003939124,0.0001295089750783,0.1052602156996727,0,0,0
941,37752.62614578155,2011-01-18 23:46:40,930.4510737734817,2,5,0.5501165986061096,3.966699600219727,2.902516157124293,2.76087605413976,11.779854173789383,9.805064003939124,0.0001295089750783,0.1052602156996727,0,0,0
942,37782.641259665776,2011-01-18 23:47:10,960.4661876577007,2,5,0.550297200679779,3.969613552093506,2.907102619397495,2.76087605413976,11.79805309271018,9.805064003939124,0.0001295089750783,0.1052602156996727,0,0,0
943,37812.65638475793,2011-01-18 23:47:40,990.481312815016,2,5,0.550297200679779,3.972203731536865,2.911689090656943,2.76087605413976,11.81626488767683,9.805064003939124,6.47544875391759e-05,0.1052602156996727,0,0,0
944,37842.67379807303,2011-01-18 23:48:10,1020.498726044912,2,5,0.550297200679779,3.975117683410645,2.916275895587322,2.76087605413976,11.834490721366496,9.805064003939124,9.713172767078504e-05,0.1052602156996727,0,0,0
945,37872.68664520782,2011-01-18 23:48:40,1050.5115731746814,2,5,0.5499359965324402,3.977545976638794,2.920862077470895,2.76087605413976,11.852726681395758,9.805064003939124,6.47544875391759e-05,0.1052602156996727,0,0,0
946,37902.701737272655,2011-01-18 23:49:10,1080.52666523952,2,5,0.5501165986061096,3.9802980422973633,2.925448482159114,2.76087605413976,11.870975651347976,9.805064003939124,6.47544875391759e-05,0.1052602156996727,0,0,0
947,37932.71685428466,2011-01-18 23:49:40,1110.5417822765971,2,5,0.5501165986061096,3.9830501079559326,2.93003482696284,2.76087605413976,11.889237128475427,9.805064003939124,6.47544875391759e-05,0.1052602156996727,0,0,0
948,37962.7319919281,2011-01-18 23:50:10,1140.5569199200315,2,5,0.5501165986061096,3.985640287399292,2.934621254639726,2.76087605413976,11.907511127900529,9.805064003939124,9.713172767078504e-05,0.1052602156996727,0,0,0
949,37992.74720769124,2011-01-18 23:50:40,1170.572135703214,2,5,0.5499359965324402,3.9880685806274414,2.939207599870497,2.76087605413976,11.925796809235583,9.805064003939124,3.237724376958795e-05,0.1052602156996727,0,0,0
950,38022.7622197968,2011-01-18 23:51:10,1200.587147803757,2,5,0.550297200679779,3.9909825325012207,2.943793869849179,2.76087605413976,11.94409415786732,9.805064003939124,6.47544875391759e-05,0.1052602156996727,0,0,0
951,38052.777313781415,2011-01-18 23:51:40,1230.6022417633178,2,5,0.5501165986061096,3.99357271194458,2.9483802450975,2.76087605413976,11.962403901602318,9.805064003939124,6.47544875391759e-05,0.1052602156996727,0,0,0
952,38082.794370141884,2011-01-18 23:52:10,1260.619298128798,2,5,0.5501165986061096,3.9960007667541504,2.952966890123816,2.76087605413976,11.980726597650822,9.805064003939124,3.237724376958795e-05,0.1052602156996727,0,0,0
953,38112.80767985455,2011-01-18 23:52:40,1290.632607816404,2,5,0.550297200679779,3.9985909461975098,2.957553013361797,2.76087605413976,11.999059060789868,9.805064003939124,3.237724376958795e-05,0.1052602156996727,0,0,0
954,38142.823593542125,2011-01-18 23:53:10,1320.6485215490916,2,5,0.5501165986061096,4.001181125640869,2.962139507785156,2.76087605413976,12.017404659143008,9.805064003939124,6.47544875391759e-05,0.1052602156996727,0,0,0
955,38172.837823347945,2011-01-18 23:53:40,1350.6627513148153,2,5,0.550297200679779,4.0037713050842285,2.966725648807968,2.76087605413976,12.035760441642632,9.805064003939124,9.70840483205393e-05,0.1052602156996727,0,0,0
956,38202.85293349786,2011-01-18 23:54:10,1380.67786148979,2,5,0.5501165986061096,4.006199836730957,2.97131191721175,2.76087605413976,12.05412819764476,9.805064003939124,9.71794142969884e-05,0.1052602156996727,0,0,0
957,38232.86802052014,2011-01-18 23:54:40,1410.6929485120609,2,5,0.5501165986061096,4.008790016174316,2.975898225380543,2.76087605413976,12.072507670607282,9.805064003939124,6.47544875391759e-05,0.1052602156996727,0,0,0
958,38262.883269671474,2011-01-18 23:55:10,1440.7081976533825,2,5,0.5501165986061096,4.011218070983887,2.980484597590453,2.76087605413976,12.090898832176547,9.805064003939124,6.47544875391759e-05,0.1052602156996727,0,0,0
959,38292.89830392724,2011-01-18 23:55:40,1470.7232319241805,2,5,0.550297200679779,4.013808250427246,2.985070903129796,2.76087605413976,12.10930115914634,9.805064003939124,9.70840483205393e-05,0.1052602156996727,0,0,0
960,38322.9135146077,2011-01-18 23:56:11,1500.7384425795833,2,5,0.5501165986061096,4.016236782073975,2.989657237688519,2.76087605413976,12.127714955416936,9.805064003939124,9.71794142969884e-05,0.1052602156996727,0,0,0
961,38352.92781883902,2011-01-18 23:56:41,1530.7527468058854,2,5,0.550297200679779,4.018664836883545,2.994241156292365,2.76087605413976,12.146130427486524,9.805064003939124,9.70840483205393e-05,0.1052602156996727,0,0,0
962,38382.92812044147,2011-01-18 23:57:11,1560.7530484584656,2,5,0.5501165986061096,4.021255016326904,2.99882752777975,2.76087605413976,12.164566980230823,9.805064003939124,9.70840483205393e-05,0.1052602156996727,0,0,0
963,38412.94310502844,2011-01-18 23:57:41,1590.7680329902987,2,5,0.5501165986061096,4.023683547973633,3.003413858078277,2.76087605413976,12.183014741078882,9.805064003939124,9.71794142969884e-05,0.1052602156996727,0,0,0
964,38442.95826614037,2011-01-18 23:58:11,1620.7831941322988,2,5,0.5499359965324402,4.026111602783203,3.008000191685013,2.76087605413976,12.201473786373631,9.805064003939124,6.47544875391759e-05,0.1052602156996727,0,0,0
965,38472.97342770844,2011-01-18 23:58:41,1650.798355885823,2,5,0.550297200679779,4.0287017822265625,3.0125866299351,2.76087605413976,12.219944547561967,9.805064003939124,9.70840483205393e-05,0.1052602156996727,0,0,0
966,38502.98845293168,2011-01-18 23:59:11,1680.8133809185972,2,5,0.5501165986061096,4.030968189239502,3.017172969702569,2.76087605413976,12.23842624390395,9.805064003939124,6.47544875391759e-05,0.1052602156996727,0,0,0
967,38533.00358644984,2011-01-18 23:59:41,1710.8285144116876,2,5,0.5497553944587708,4.033396720886231,3.02175925698312,2.76087605413976,12.256919105315568,9.805064003939124,3.24249267578125e-05,0.1052602156996727,0,0,0
968,38563.01869149703,2011-01-19 00:00:11,1740.843619458882,2,5,0.5501165986061096,4.036148548126221,3.026345608185785,2.76087605413976,12.27542369852092,9.805064003939124,9.71794142969884e-05,0.1052602156996727,0,0,0
969,38593.033835055205,2011-01-19 00:00:41,1770.858763017058,2,5,0.5501165986061096,4.03841495513916,3.030931938791063,2.76087605413976,12.293939782117477,9.805064003939124,6.47544875391759e-05,0.1052602156996727,0,0,0
970,38623.04905842731,2011-01-19 00:01:11,1800.8739863991796,2,5,0.5501165986061096,4.04100513458252,3.035518337011362,2.76087605413976,12.3124676938565,9.805064003939124,6.47544875391759e-05,0.1052602156996727,0,0,0
971,38653.06407611678,2011-01-19 00:01:41,1830.8890040786264,2,5,0.5501165986061096,4.043595314025879,3.0401047053299,2.76087605413976,12.331007166642626,9.805064003939124,9.71794142969884e-05,0.1052602156996727,0,0,0
972,38683.0791662117,2011-01-19 00:02:11,1860.904094173556,2,5,0.5501165986061096,4.046185493469238,3.044691071192609,2.76087605413976,12.349558308765925,9.805064003939124,6.47544875391759e-05,0.1052602156996727,0,0,0
973,38713.09609345537,2011-01-19 00:02:41,1890.9210214272496,2,5,0.5501165986061096,4.048775672912598,3.049277687877725,2.76087605413976,12.368122219626132,9.805064003939124,0.0001295089750783,0.1052602156996727,0,0,0
974,38743.10942335335,2011-01-19 00:03:11,1920.9343513402632,2,5,0.550297200679779,4.051365852355957,3.053863776945785,2.76087605413976,12.386695897393787,9.805064003939124,9.71794142969884e-05,0.1052602156996727,0,0,0
975,38773.124623437405,2011-01-19 00:03:41,1950.9495515245687,2,5,0.5501165986061096,4.053793907165527,3.058450188264244,2.76087605413976,12.40528280469554,9.805064003939124,6.47544875391759e-05,0.1052602156996727,0,0,0
976,38803.13975687035,2011-01-19 00:04:11,1980.964684852247,2,5,0.550297200679779,4.056707859039307,3.063036645073688,2.76087605413976,12.423881956538857,9.805064003939124,9.70840483205393e-05,0.1052602156996727,0,0,0
977,38833.15498805191,2011-01-19 00:04:41,2010.9799160438324,2,5,0.5501165986061096,4.059136390686035,3.067623027149132,2.76087605413976,12.442492824813144,9.805064003939124,3.24249267578125e-05,0.1052602156996727,0,0,0
978,38863.16992553648,2011-01-19 00:05:11,2040.9948535384344,2,5,0.5501165986061096,4.0617265701293945,3.072209392165259,2.76087605413976,12.461115471667693,9.805064003939124,6.47544875391759e-05,0.1052602156996727,0,0,0
979,38893.18498338104,2011-01-19 00:05:41,2071.0099113529104,2,5,0.5499359965324402,4.064316749572754,3.076795705939089,2.76087605413976,12.47975002683244,9.805064003939124,6.47544875391759e-05,0.1052602156996727,0,0,0
980,38923.20022926924,2011-01-19 00:06:11,2101.025157251149,2,5,0.5499359965324402,4.067230701446533,3.081382091321765,2.76087605413976,12.498397149249833,9.805064003939124,6.47544875391759e-05,0.1052602156996727,0,0,0
981,38953.21522954532,2011-01-19 00:06:41,2131.040157507172,2,5,0.5501165986061096,4.069820880889893,3.085968470930478,2.76087605413976,12.51705666851918,9.805064003939124,9.71794142969884e-05,0.1052602156996727,0,0,0
982,38983.23033718397,2011-01-19 00:07:11,2161.0552651508374,2,5,0.5501165986061096,4.072734832763672,3.090554874489562,2.76087605413976,12.535728768432474,9.805064003939124,9.71794142969884e-05,0.1052602156996727,0,0,0
983,39013.24558229024,2011-01-19 00:07:41,2191.0705102571023,2,5,0.550297200679779,4.075486660003662,3.09514122174297,2.76087605413976,12.554413279542048,9.805064003939124,9.70840483205393e-05,0.1052602156996727,0,0,0
984,39043.26058238586,2011-01-19 00:08:11,2221.085510347713,2,5,0.5501165986061096,4.0782389640808105,3.099727564444169,2.76087605413976,12.573110535867784,9.805064003939124,9.71794142969884e-05,0.1052602156996727,0,0,0
985,39073.27571401931,2011-01-19 00:08:41,2251.100642006231,2,5,0.5501165986061096,4.080990791320801,3.104313960415245,2.76087605413976,12.591820919880892,9.805064003939124,9.70840483205393e-05,0.1052602156996727,0,0,0
986,39103.2909377874,2011-01-19 00:09:11,2281.115865764289,2,5,0.5501165986061096,4.08390474319458,3.108900371598544,2.76087605413976,12.610544316319524,9.805064003939124,6.47544875391759e-05,0.1052602156996727,0,0,0
987,39133.30591948216,2011-01-19 00:09:41,2311.130847469077,2,5,0.5501165986061096,4.0866570472717285,3.113486723356068,2.76087605413976,12.629280697856606,9.805064003939124,6.47544875391759e-05,0.1052602156996727,0,0,0
988,39163.32119877864,2011-01-19 00:10:11,2341.1461267655545,2,5,0.5501165986061096,4.089732646942139,3.118073142457756,2.76087605413976,12.648030620562473,9.805064003939124,9.70840483205393e-05,0.1052602156996727,0,0,0
989,39193.33616745595,2011-01-19 00:10:41,2371.1610954178104,2,5,0.5499359965324402,4.092646598815918,3.122659512042213,2.76087605413976,12.666793764444495,9.805064003939124,0.0001295089750783,0.1052602156996727,0,0,0
990,39223.351404276575,2011-01-19 00:11:11,2401.1763322685,2,5,0.5501165986061096,4.095560550689697,3.127245861159177,2.76087605413976,12.68557030504074,9.805064003939124,9.70840483205393e-05,0.1052602156996727,0,0,0
991,39253.3663918159,2011-01-19 00:11:41,2431.1913198078287,2,5,0.5501165986061096,4.098474502563477,3.131832257748398,2.76087605413976,12.704360689415504,9.805064003939124,6.47544875391759e-05,0.1052602156996727,0,0,0
992,39283.38152621124,2011-01-19 00:12:11,2461.2064542081803,2,5,0.5499359965324402,4.101550579071045,3.136418707298954,2.76087605413976,12.723165104603703,9.805064003939124,9.71794142969884e-05,0.1052602156996727,0,0,0
993,39313.39845691353,2011-01-19 00:12:41,2491.2233848904198,2,5,0.5501165986061096,4.104626178741455,3.141005471941159,2.76087605413976,12.741984673210911,9.805064003939124,0.0001295089750783,0.1052602156996727,0,0,0
994,39343.41200882483,2011-01-19 00:13:11,2521.236936811746,2,5,0.5499359965324402,4.107540130615234,3.145591631171432,2.76087605413976,12.7608158136827,9.805064003939124,6.47544875391759e-05,0.1052602156996727,0,0,0
995,39373.426869061885,2011-01-19 00:13:41,2551.251797038773,2,5,0.5501165986061096,4.110616207122803,3.150178002575115,2.76087605413976,12.779661971533262,9.805064003939124,6.47544875391759e-05,0.1052602156996727,0,0,0
996,39403.44199360768,2011-01-19 00:14:11,2581.266921579552,2,5,0.5501165986061096,4.113853931427002,3.154764406125555,2.76087605413976,12.798522425938888,9.805064003939124,6.47544875391759e-05,0.1052602156996727,0,0,0
997,39433.4571204542,2011-01-19 00:14:41,2611.2820484210647,2,5,0.5501165986061096,4.117091178894043,3.159350767908491,2.76087605413976,12.817397075359253,9.805064003939124,9.70840483205393e-05,0.1052602156996727,0,0,0
998,39463.4725255492,2011-01-19 00:15:11,2641.2974535210838,2,5,0.5501165986061096,4.120167255401611,3.163937242488861,2.76087605413976,12.836286683486152,9.805064003939124,6.47544875391759e-05,0.1052602156996727,0,0,0
999,39493.48736030776,2011-01-19 00:15:41,2671.3122882996854,2,5,0.5501165986061096,4.1234049797058105,3.168523592241794,2.76087605413976,12.855190458403197,9.805064003939124,0.0001295089750783,0.1052602156996727,0,0,0
1000,39523.50246202164,2011-01-19 00:16:11,2701.3273899834976,2,5,0.5499359965324402,4.126480579376221,3.173109973066205,2.76087605413976,12.874109238223136,9.805064003939124,6.47544875391759e-05,0.1052602156996727,0,0,0
1001,39553.51770756901,2011-01-19 00:16:41,2731.3426355408865,2,5,0.5499359965324402,4.129880428314209,3.17769637889899,2.76087605413976,12.893043051358788,9.805064003939124,6.47544875391759e-05,0.1052602156996727,0,0,0
1002,39583.53281406983,2011-01-19 00:17:11,2761.357742041704,2,5,0.5499359965324402,4.133279800415039,3.182282726826309,2.76087605413976,12.91199174652512,9.805064003939124,0.0001295089750783,0.1052602156996727,0,0,0
1003,39613.54780372944,2011-01-19 00:17:41,2791.372731691292,2,5,0.5499359965324402,4.136517524719238,3.186869065538367,2.76087605413976,12.930955549058146,9.805064003939124,9.70840483205393e-05,0.1052602156996727,0,0,0
1004,39643.56292869628,2011-01-19 00:18:11,2821.3878566681574,2,5,0.550297200679779,4.139917373657227,3.191455455218124,2.76087605413976,12.949934973990407,9.805064003939124,6.47544875391759e-05,0.1052602156996727,0,0,0
1005,39673.57805656034,2011-01-19 00:18:41,2851.402984522193,2,5,0.550297200679779,4.143316745758057,3.196041891224609,2.76087605413976,12.968930091173778,9.805064003939124,9.70840483205393e-05,0.1052602156996727,0,0,0
1006,39703.59317500592,2011-01-19 00:19:11,2881.418102992844,2,5,0.5499359965324402,4.146716594696045,3.200628294724081,2.76087605413976,12.987940845362536,9.805064003939124,0.0001295089750783,0.1052602156996727,0,0,0
1007,39733.60828009322,2011-01-19 00:19:41,2911.433208055076,2,5,0.5499359965324402,4.150115966796875,3.205214576640686,2.76087605413976,13.006966966516645,9.805064003939124,9.70840483205393e-05,0.1052602156996727,0,0,0
1008,39763.62339652379,2011-01-19 00:20:11,2941.448324485641,2,5,0.550297200679779,4.153839588165283,3.209800880343266,2.76087605413976,13.026009052886725,9.805064003939124,0.0001295089750783,0.1052602156996727,0,0,0
1009,39793.64087675568,2011-01-19 00:20:41,2971.4658048578767,2,5,0.5501165986061096,4.157238960266113,3.214387525311335,2.76087605413976,13.045068570607198,9.805064003939124,0.0001295089750783,0.1052602156996727,0,0,0
1010,39823.65363837232,2011-01-19 00:21:11,3001.478566334172,2,5,0.5501165986061096,4.160800457000732,3.218973446414901,2.76087605413976,13.064141397498023,9.805064003939124,6.47544875391759e-05,0.1052602156996727,0,0,0
1011,39853.66876956467,2011-01-19 00:21:41,3031.49369755159,2,5,0.5501165986061096,4.164524078369141,3.223559746634558,2.76087605413976,13.083232254207054,9.805064003939124,9.71794142969884e-05,0.1052602156996727,0,0,0
1012,39883.68387689255,2011-01-19 00:22:11,3061.508804859419,2,5,0.5499359965324402,4.167923450469971,3.22814615062818,2.76087605413976,13.102339977168732,9.805064003939124,6.47544875391759e-05,0.1052602156996727,0,0,0
1013,39913.70087896271,2011-01-19 00:22:41,3091.5258069496285,2,5,0.5499359965324402,4.17148494720459,3.232732818784495,2.76087605413976,13.121465384882386,9.805064003939124,6.47544875391759e-05,0.1052602156996727,0,0,0
1014,39943.7141061497,2011-01-19 00:23:11,3121.539034111555,2,5,0.5501165986061096,4.175370216369629,3.237318936141756,2.76087605413976,13.140605282254077,9.805064003939124,0.0001295089750783,0.1052602156996727,0,0,0
1015,39973.72934753168,2011-01-19 00:23:41,3151.5542755135875,2,5,0.5499359965324402,4.178931713104248,3.241905274013627,2.76087605413976,13.159763044306132,9.805064003939124,9.70840483205393e-05,0.1052602156996727,0,0,0
1016,40003.7444809546,2011-01-19 00:24:11,3181.5694089465283,2,5,0.5501165986061096,4.182816982269287,3.246491627877978,2.76087605413976,13.178937920046758,9.805064003939124,0.0001295089750783,0.1052602156996727,0,0,0
1017,40033.75947241871,2011-01-19 00:24:41,3211.5844003855764,2,5,0.5499359965324402,4.186378479003906,3.251077901303437,2.76087605413976,13.198129625218254,9.805064003939124,6.47544875391759e-05,0.1052602156996727,0,0,0
1018,40063.77459091442,2011-01-19 00:25:11,3241.599518906351,2,5,0.5499359965324402,4.190263748168945,3.255664188873985,2.76087605413976,13.217338781574272,9.805064003939124,9.70840483205393e-05,0.1052602156996727,0,0,0
1019,40093.79190490699,2011-01-19 00:25:41,3271.616833059317,2,5,0.5499359965324402,4.1939873695373535,3.260250859096531,2.76087605413976,13.236567041716793,9.805064003939124,9.71794142969884e-05,0.1052602156996727,0,0,0
1020,40123.8048371539,2011-01-19 00:26:11,3301.629765140812,2,5,0.5501165986061096,4.198034286499023,3.264836902950683,2.76087605413976,13.255810237028806,9.805064003939124,0.0001295089750783,0.1052602156996727,0,0,0
1021,40138.14832179099,2011-01-19 00:26:26,3315.9732497528457,2,5,0.5501165986061096,4.200138568878174,3.267028530820894,2.76087605413976,13.265012600407688,9.805064003939124,0.0001618385285837,0.1052602156996727,0,0,0
1022,40168.16222989025,2011-01-19 00:26:56,30.015183868641845,3,5,0.0,4.095398902893066,3.267028530820894,2.76087605413976,13.265012600407688,9.805064003939124,-0.0005180359003134,0.1052602156996727,0,0,0
1023,40198.177284687205,2011-01-19 00:27:26,60.03023866058484,3,5,0.0,4.08212423324585,3.267028530820894,2.76087605413976,13.265012600407688,9.805064003939124,-0.0003237724304199,0.1052602156996727,0,0,0
1024,40228.1924211527,2011-01-19 00:27:56,90.04537512608347,3,5,0.0,4.0738677978515625,3.267028530820894,2.76087605413976,13.265012600407688,9.805064003939124,-0.0001942634553415,0.1052602156996727,0,0,0
1025,40258.16065137841,2011-01-19 00:28:26,120.01360534678736,3,5,0.0,4.068363666534424,3.267028530820894,2.76087605413976,13.265012600407688,9.805064003939124,-0.0001295089750783,0.1052602156996727,0,0,0
1026,40258.16138661423,2011-01-19 00:28:26,2.746845985e-06,4,5,1.0168110132217407,4.199976921081543,3.267028531596734,2.76087605413976,13.265012603666197,9.805064003939124,0.0,0.1052602156996727,0,0,0
1027,40258.86446332773,2011-01-19 00:28:27,0.703079480397298,4,5,0.966240406036377,4.199976921081543,3.267220759400212,2.76087605413976,13.265819922761157,9.805064003939124,0.0,0.1052602156996727,0,0,0
1028,40260.78633149454,2011-01-19 00:28:29,2.62494765723804,4,5,0.916031002998352,4.199814796447754,3.267722235611152,2.76087605413976,13.267926038375847,9.805064003939124,-3.24249267578125e-05,0.1052602156996727,0,0,0
1029,40263.77063405477,2011-01-19 00:28:32,5.609250197415096,4,5,0.8658216595649719,4.199976921081543,3.268459724848999,2.76087605413976,13.271023376076649,9.805064003939124,6.47544875391759e-05,0.1052602156996727,0,0,0
1030,40267.83305583984,2011-01-19 00:28:36,9.671671987491903,4,5,0.8157928586006165,4.199814796447754,3.269407238906085,2.76087605413976,13.27500278307186,9.805064003939124,-3.24249267578125e-05,0.1052602156996727,0,0,0
1031,40273.20809712157,2011-01-19 00:28:41,15.046713289274807,4,5,0.7657641172409058,4.199814796447754,3.270586526826826,2.76087605413976,13.27995562132048,9.805064003939124,0.0,0.1052602156996727,0,0,0
1032,40280.23922333652,2011-01-19 00:28:48,22.07783947916345,4,5,0.7157353162765503,4.199814796447754,3.272031393254061,2.76087605413976,13.286023855276976,9.805064003939124,0.0,0.1052602156996727,0,0,0
1033,40289.52019402116,2011-01-19 00:28:57,31.358810168805327,4,5,0.6657065749168396,4.199976921081543,3.273809353098887,2.76087605413976,13.29349104984731,9.805064003939124,3.24249267578125e-05,0.1052602156996727,0,0,0
1034,40302.48964389082,2011-01-19 00:29:10,44.32826013371787,4,5,0.6156777739524841,4.199814796447754,3.276112750967751,2.76087605413976,13.303165020857149,9.805064003939124,-3.24249267578125e-05,0.1052602156996727,0,0,0
1035,40322.22277598273,2011-01-19 00:29:30,64.06139212537401,4,5,0.5656490325927734,4.199814796447754,3.279339701210043,2.76087605413976,13.316717758717736,9.805064003939124,0.0,0.1052602156996727,0,0,0
1036,40356.78470239278,2011-01-19 00:30:05,98.62331854545174,4,5,0.515620231628418,4.199653148651123,3.284506368843117,2.76087605413976,13.33841703947084,9.805064003939124,-6.47544875391759e-05,0.1052602156996727,0,0,0
1037,40425.20555452386,2011-01-19 00:31:13,167.0441706865573,4,5,0.4655914604663849,4.199814796447754,3.293785352788015,2.76087605413976,13.377387477940196,9.805064003939124,-3.24249267578125e-05,0.1052602156996727,0,0,0
1038,40537.42227341055,2011-01-19 00:33:05,279.26088958828154,4,5,0.4155626893043518,4.199814796447754,3.307485126443033,2.76087605413976,13.434924608429924,9.805064003939124,0.0,0.1052602156996727,0,0,0
1039,40680.63858433392,2011-01-19 00:35:29,422.4772004765723,4,5,0.3655339479446411,4.199653148651123,3.323004085348825,2.76087605413976,13.500102153269742,9.805064003939124,0.0,0.1052602156996727,0,0,0
1040,40853.21378533488,2011-01-19 00:38:21,595.0524015076036,4,5,0.315505176782608,4.199976921081543,3.339304484886505,2.76087605413976,13.568561594116792,9.805064003939124,0.0,0.1052602156996727,0,0,0
1041,41065.569553734975,2011-01-19 00:41:53,807.4081698776181,4,5,0.2654764056205749,4.199814796447754,3.356411872480505,2.76087605413976,13.640410251907852,9.805064003939124,0.0,0.1052602156996727,0,0,0
1042,41331.03375425397,2011-01-19 00:46:19,1072.8723704066288,4,5,0.2154476195573806,4.199653148651123,3.374073707798068,2.76087605413976,13.71458690067778,9.805064003939124,-3.23295607813634e-05,0.1052602156996727,0,0,0
1043,41673.73112343832,2011-01-19 00:52:02,1415.5697395809557,4,5,0.1654188483953476,4.199976921081543,3.392107345448729,2.76087605413976,13.790325913069807,9.805064003939124,0.0,0.1052602156996727,0,0,0
1044,42156.80122885797,2011-01-19 01:00:05,1898.6398450206675,4,5,0.1153900846838951,4.199653148651123,3.41079062871759,2.76087605413976,13.868793289009998,9.805064003939124,-6.47544875391759e-05,0.1052602156996727,0,0,0
1045,42980.46130660058,2011-01-19 01:13:48,2722.2999228384588,4,5,0.065361313521862,4.199814796447754,3.430955154859729,2.76087605413976,13.953481775026503,9.805064003939124,-3.24249267578125e-05,0.1052602156996727,0,0,0
1046,43420.56101276864,2011-01-19 01:21:09,3162.3996289112865,4,5,0.0498289167881011,4.199653148651123,3.438016362093543,2.76087605413976,13.983137863588128,9.805064003939124,-3.23295607813634e-05,0.1052602156996727,0,0,0
1047,43450.57562382992,2011-01-19 01:21:39,30.015102099848853,5,5,0.0,4.189939975738525,3.438016362093543,2.76087605413976,13.983137863588128,9.805064003939124,-6.47544875391759e-05,0.1052602156996727,0,0,0
1048,43480.57530677048,2011-01-19 01:22:09,60.01478502035843,5,5,0.0,4.188483238220215,3.438016362093543,2.76087605413976,13.983137863588128,9.805064003939124,-6.47544875391759e-05,0.1052602156996727,0,0,0
1049,43480.76312860044,2011-01-19 01:22:09,0.187489566689287,6,5,-1.9243103452026844e-05,4.188483238220215,3.438016362093543,2.760876055141949,13.983137863588128,9.805064008136776,0.0,0.1078842133283615,0,0,0
1050,43485.59124120763,2011-01-19 01:22:14,5.01560216385453,6,5,0.0008838032954372,4.188483238220215,3.438017265900704,2.76087605522571,13.983141649250772,9.805064008487603,-6.47544875391759e-05,0.1078842133283615,0,0,0
1051,43504.04461981723,2011-01-19 01:22:32,18.45279008567507,7,5,-1.0997490882873535,3.9882304668426514,3.438017265900704,2.766512029325966,13.983141649250772,9.82765932365318,-0.0016188144218176,0.1078842133283615,0,0,0
1052,43534.05973707485,2011-01-19 01:23:02,48.46790735833925,7,5,-1.099568486213684,3.939826488494873,3.438017265900704,2.775679390942414,13.983141649250772,9.863991361341554,-0.0011655807029455,0.1078842133283615,0,0,0
1053,43564.0749717,2011-01-19 01:23:32,78.48314198348191,7,5,-1.099568486213684,3.9021072387695312,3.438017265900704,2.784846903279123,13.983141649250772,9.899929584985609,-0.0009389400365762,0.1078842133283615,0,0,0
1054,43594.09007065702,2011-01-19 01:24:02,108.49824093548536,7,5,-1.0993878841400146,3.872482061386109,3.438017265900704,2.794014323409101,13.983141649250772,9.935561028332758,-0.0007122993702068,0.1078842133283615,0,0,0
1055,43624.10520614006,2011-01-19 01:24:32,138.5133764285604,7,5,-1.099568486213684,3.848684787750244,3.438017265900704,2.803181726987251,13.983141649250772,9.97094863510002,-0.0005504131549969,0.1078842133283615,0,0,0
1056,43654.12255264365,2011-01-19 01:25:02,168.53072293716647,7,5,-1.099568486213684,3.828934907913208,3.438017265900704,2.812349826117661,13.983141649250772,10.006140369090224,-0.0004532813909463,0.1078842133283615,0,0,0
1057,43684.13541945248,2011-01-19 01:25:32,198.54358972593232,7,5,-1.099568486213684,3.811613082885742,3.438017265900704,2.821516564649291,13.983141649250772,10.041158149351292,-0.0004532813909463,0.1078842133283615,0,0,0
1058,43714.15053929654,2011-01-19 01:26:02,228.55870958003024,7,5,-1.0993878841400146,3.795910120010376,3.438017265900704,2.830683945507804,13.983141649250772,10.0760278818062,-0.0003885269106831,0.1078842133283615,0,0,0
1059,43744.1656445292,2011-01-19 01:26:32,258.573814802662,7,5,-1.099568486213684,3.7815022468566895,3.438017265900704,2.839851392415381,13.983141649250772,10.110760299045015,-0.0003885269106831,0.1078842133283615,0,0,0
1060,43774.180778709,2011-01-19 01:27:02,288.58894901253893,7,5,-1.099568486213684,3.7682275772094727,3.438017265900704,2.849018788672336,13.983141649250772,10.145365713493783,-0.0003561496851034,0.1078842133283615,0,0,0
1061,43804.19588053818,2011-01-19 01:27:32,318.6040508166507,7,5,-1.0993878841400146,3.7554385662078857,3.438017265900704,2.858186234629976,13.983141649250772,10.179852090698857,-0.0003561496851034,0.1078842133283615,0,0,0
1062,43834.21105001094,2011-01-19 01:28:03,348.61922039467595,7,5,-1.0997490882873535,3.743459224700928,3.438017265900704,2.86735377179019,13.983141649250772,10.214225762082847,-0.0003237724304199,0.1078842133283615,0,0,0
1063,43864.22614007579,2011-01-19 01:28:33,378.6343103592801,7,5,-1.099568486213684,3.7321271896362314,3.438017265900704,2.876521214731054,13.983141649250772,10.248491489818106,-0.0002913951757363,0.1078842133283615,0,0,0
1064,43894.2412301607,2011-01-19 01:29:03,408.6494004491964,7,5,-1.099568486213684,3.721118927001953,3.438017265900704,2.885688651126687,13.983141649250772,10.282655091901512,-0.0002913951757363,0.1078842133283615,0,0,0
1065,43924.25647980829,2011-01-19 01:29:33,438.6646501017922,7,5,-1.0993878841400146,3.7105963230133057,3.438017265900704,2.894856202183702,13.983141649250772,10.316720627877263,-0.0002913951757363,0.1078842133283615,0,0,0
1066,43954.27329257665,2011-01-19 01:30:03,468.6814628551158,7,5,-1.099568486213684,3.700235605239868,3.438017265900704,2.904024297567217,13.983141649250772,10.35069187446377,-0.0002266406954731,0.1078842133283615,0,0,0
1067,43984.28673792736,2011-01-19 01:30:33,498.69490821084855,7,5,-1.099568486213684,3.6901986598968506,3.438017265900704,2.913191275143091,13.983141649250772,10.384565990631817,-0.0002590179501567,0.1078842133283615,0,0,0
1068,44014.30169985788,2011-01-19 01:31:03,528.7098701463648,7,5,-1.0993878841400146,3.680647373199463,3.438017265900704,2.92235868714086,13.983141649250772,10.418351114877725,-0.0002590179501567,0.1078842133283615,0,0,0
1069,44044.31695822719,2011-01-19 01:31:33,558.7251286008976,7,5,-1.0993878841400146,3.6710963249206543,3.438017265900704,2.931526266197608,13.983141649250772,10.452048629284016,-0.0002266406954731,0.1078842133283615,0,0,0
1070,44074.33196503955,2011-01-19 01:32:03,588.7401353130109,7,5,-1.099568486213684,3.661706924438477,3.438017265900704,2.940693718778477,13.983141649250772,10.485660111297664,-0.0002590179501567,0.1078842133283615,0,0,0
1071,44104.34718895801,2011-01-19 01:32:33,618.7553592465067,7,5,-1.099568486213684,3.6528031826019287,3.438017265900704,2.94986128546807,13.983141649250772,10.519188288978068,-0.0002266406954731,0.1078842133283615,0,0,0
1072,44134.36216452751,2011-01-19 01:33:03,648.7703348009655,7,5,-1.099568486213684,3.643737554550171,3.438017265900704,2.959028694262814,13.983141649250772,10.55263356825628,-0.0001942634553415,0.1078842133283615,0,0,0
1073,44164.37729026126,2011-01-19 01:33:33,678.7854605447423,7,5,-1.099568486213684,3.635319471359253,3.438017265900704,2.968196079546403,13.983141649250772,10.585998002756744,-0.0001942634553415,0.1078842133283615,0,0,0
1074,44194.3924275037,2011-01-19 01:34:03,708.8005977972023,7,5,-1.099568486213684,3.626577615737915,3.438017265900704,2.977363568223908,13.983141649250772,10.619284374207488,-0.0002590179501567,0.1078842133283615,0,0,0
1075,44224.407649151486,2011-01-19 01:34:33,738.8158194450015,7,5,-1.099568486213684,3.618159532546997,3.438017265900704,2.986531047630133,13.983141649250772,10.65249265356024,-0.0002590179501567,0.1078842133283615,0,0,0
1076,44254.422648289736,2011-01-19 01:35:03,768.8308185732132,7,5,-1.0993878841400146,3.609741449356079,3.438017265900704,2.99569850135505,13.983141649250772,10.68562393462694,-0.0002266406954731,0.1078842133283615,0,0,0
1077,44284.43787543623,2011-01-19 01:35:33,798.8460457297417,7,5,-1.0997490882873535,3.601485252380371,3.438017265900704,3.004866038091553,13.983141649250772,10.718679918972631,-0.0002590179501567,0.1078842133283615,0,0,0
1078,44314.45288142154,2011-01-19 01:36:03,828.8610516949936,7,5,-1.099568486213684,3.593714714050293,3.438017265900704,3.014033469706679,13.983141649250772,10.751661985382388,-0.0002266406954731,0.1078842133283615,0,0,0
1079,44344.46811322465,2011-01-19 01:36:33,858.8762835131403,7,5,-1.099568486213684,3.586106300354004,3.438017265900704,3.02320099322881,13.983141649250772,10.784573040428745,-0.0002266406954731,0.1078842133283615,0,0,0
1080,44374.48310237298,2011-01-19 01:37:03,888.8912726514544,7,5,-1.099568486213684,3.5786595344543457,3.438017265900704,3.032368453298529,13.983141649250772,10.817414649520364,-0.0002266406954731,0.1078842133283615,0,0,0
1081,44404.49836356935,2011-01-19 01:37:33,918.9065338678708,7,5,-1.0997490882873535,3.571374654769897,3.438017265900704,3.041536006870069,13.983141649250772,10.850189359748557,-0.0001942634553415,0.1078842133283615,0,0,0
1082,44434.51335530914,2011-01-19 01:38:03,948.9215255876184,7,5,-1.099568486213684,3.564413547515869,3.438017265900704,3.050703476822215,13.983141649250772,10.88289843378844,-0.0001942634553415,0.1078842133283615,0,0,0
1083,44464.52846379992,2011-01-19 01:38:33,978.9366340733828,7,5,-1.0993878841400146,3.5577762126922607,3.438017265900704,3.059870947092338,13.983141649250772,10.915544496125271,-0.0001942634553415,0.1078842133283615,0,0,0
1084,44494.54357087216,2011-01-19 01:39:03,1008.9517411456244,7,5,-1.0993878841400146,3.5509769916534424,3.438017265900704,3.069038436497408,13.983141649250772,10.948128012662988,-0.0001618862152099,0.1078842133283615,0,0,0
1085,44524.55869100196,2011-01-19 01:39:33,1038.966861280422,7,5,-1.0997490882873535,3.544339656829834,3.438017265900704,3.078205939145813,13.983141649250772,10.980650658555213,-0.0001942634553415,0.1078842133283615,0,0,0
1086,44554.57559502775,2011-01-19 01:40:03,1068.9837653112372,7,5,-1.0993878841400146,3.5381879806518555,3.438017265900704,3.087374031890966,13.983141649250772,11.013116667802814,-0.0001295089750783,0.1078842133283615,0,0,0
1087,44584.58895674504,2011-01-19 01:40:33,1098.9971270285173,7,5,-1.0997490882873535,3.531712532043457,3.438017265900704,3.096540967389934,13.983141649250772,11.045521161627187,-0.0001942634553415,0.1078842133283615,0,0,0
1088,44614.604100182914,2011-01-19 01:41:03,1129.0122704914556,7,5,-1.099568486213684,3.5258846282958984,3.438017265900704,3.105708479970104,13.983141649250772,11.07787123888598,-0.0001295089750783,0.1078842133283615,0,0,0
1089,44644.61930832204,2011-01-19 01:41:33,1159.027478710787,7,5,-1.0993878841400146,3.51973295211792,3.438017265900704,3.114876031798133,13.983141649250772,11.110166064959772,-0.0001618862152099,0.1078842133283615,0,0,0
1090,44674.634279355225,2011-01-19 01:42:03,1189.0424496337023,7,5,-1.099568486213684,3.5140669345855717,3.438017265900704,3.124043524599156,13.983141649250772,11.14240718749818,-0.0001618862152099,0.1078842133283615,0,0,0
1091,44704.64938630216,2011-01-19 01:42:33,1219.057556580632,7,5,-1.0997490882873535,3.508563041687012,3.438017265900704,3.13321110154767,13.983141649250772,11.174597241714748,-0.0001942634553415,0.1078842133283615,0,0,0
1092,44734.66449064259,2011-01-19 01:43:03,1249.0726609210649,7,5,-1.099568486213684,3.503220796585083,3.438017265900704,3.142378648781303,13.983141649250772,11.206737265095985,-0.0001295089750783,0.1078842133283615,0,0,0
1093,44764.6796052436,2011-01-19 01:43:33,1279.0877755120457,7,5,-1.099568486213684,3.4980404376983643,3.438017265900704,3.151546201205998,13.983141649250772,11.238829241549432,-0.0001295089750783,0.1078842133283615,0,0,0
1094,44794.69474731306,2011-01-19 01:44:03,1309.1029175965484,7,5,-1.0997490882873535,3.492860078811645,3.438017265900704,3.160713742194591,13.983141649250772,11.270873634128248,-0.0001295089750783,0.1078842133283615,0,0,0
1095,44824.71000239419,2011-01-19 01:44:33,1339.1181726927107,7,5,-1.099568486213684,3.4878416061401367,3.438017265900704,3.169881282984764,13.983141649250772,11.30287131350155,-0.0001295089750783,0.1078842133283615,0,0,0
1096,44854.72497435469,2011-01-19 01:45:03,1369.1331446331628,7,5,-1.0993878841400146,3.482823133468628,3.438017265900704,3.1790487522867,13.983141649250772,11.334822397488892,-0.0001295089750783,0.1078842133283615,0,0,0
1097,44884.74009630401,2011-01-19 01:45:33,1399.1482665774702,7,5,-1.099568486213684,3.477642774581909,3.438017265900704,3.188216322335,13.983141649250772,11.36672726378364,-0.0001295089750783,0.1078842133283615,0,0,0
1098,44914.755208604285,2011-01-19 01:46:03,1429.1633788777417,7,5,-1.0993878841400146,3.4727861881256104,3.438017265900704,3.197383860976188,13.983141649250772,11.398586354310147,-0.0001618862152099,0.1078842133283615,0,0,0
1099,44944.77061967919,2011-01-19 01:46:33,1459.1787899676888,7,5,-1.099568486213684,3.4674439430236816,3.438017265900704,3.206551394466529,13.983141649250772,11.430398540442276,-0.0001295089750783,0.1078842133283615,0,0,0
1100,44974.78541062856,2011-01-19 01:47:03,1489.1935809320923,7,5,-1.0993878841400146,3.462263584136963,3.438017265900704,3.21571876455459,13.983141649250772,11.462162242026045,-0.0001618862152099,0.1078842133283615,0,0,0
1101,45004.80053111423,2011-01-19 01:47:33,1519.2087013876892,7,5,-1.099568486213684,3.456921339035034,3.438017265900704,3.224886195756271,13.983141649250772,11.493878173566149,-0.0001618862152099,0.1078842133283615,0,0,0
1102,45034.815754005125,2011-01-19 01:48:03,1549.2239244089114,7,5,-1.0993878841400146,3.4514172077178955,3.438017265900704,3.234053704160243,13.983141649250772,11.52554480083138,-0.0001618862152099,0.1078842133283615,0,0,0
1103,45064.83090609958,2011-01-19 01:48:33,1579.2390763980998,7,5,-1.099568486213684,3.445751190185547,3.438017265900704,3.243221111145295,13.983141649250772,11.557159507175053,-0.0001295089750783,0.1078842133283615,0,0,0
1104,45094.84598864068,2011-01-19 01:49:03,1609.2541590344397,7,5,-1.099568486213684,3.4399232864379883,3.438017265900704,3.252388633952011,13.983141649250772,11.588721263185224,-0.0001295089750783,0.1078842133283615,0,0,0
1105,45124.86112669514,2011-01-19 01:49:33,1639.269296993661,7,5,-1.0993878841400146,3.4337716102600098,3.438017265900704,3.261556115305125,13.983141649250772,11.620227495029932,-0.0001295089750783,0.1078842133283615,0,0,0
1106,45154.8779194837,2011-01-19 01:50:03,1669.286089767189,7,5,-1.099568486213684,3.4274582862854004,3.438017265900704,3.270724206985969,13.983141649250772,11.651679246465596,-0.0001618862152099,0.1078842133283615,0,0,0
1107,45184.89140073891,2011-01-19 01:50:33,1699.2995710374316,7,5,-1.099568486213684,3.420659065246582,3.438017265900704,3.279891311814299,13.983141649250772,11.683068778612242,-0.0002266406954731,0.1078842133283615,0,0,0
1108,45214.906349281046,2011-01-19 01:51:03,1729.3145195545053,7,5,-1.099568486213684,3.4136979579925537,3.438017265900704,3.289058829498324,13.983141649250772,11.714395588929449,-0.0001618862152099,0.1078842133283615,0,0,0
1109,45244.921525651,2011-01-19 01:51:33,1759.329695944508,7,5,-1.0993878841400146,3.405603647232056,3.438017265900704,3.298226381001333,13.983141649250772,11.745653716350358,-0.0002266406954731,0.1078842133283615,0,0,0
1110,45274.93889435994,2011-01-19 01:52:03,1789.347064633394,7,5,-1.0993878841400146,3.397347450256348,3.438017265900704,3.307394658473493,13.983141649250772,11.776839672995742,-0.0001942634553415,0.1078842133283615,0,0,0
1111,45304.9517116754,2011-01-19 01:52:33,1819.3598819588824,7,5,-1.099568486213684,3.38795804977417,3.438017265900704,3.316561376712246,13.983141649250772,11.807939136683384,-0.0002266406954731,0.1078842133283615,0,0,0
1112,45334.96682021129,2011-01-19 01:53:03,1849.3749904947715,7,5,-1.099568486213684,3.3775973320007324,3.438017265900704,3.325728884697294,13.983141649250772,11.838952234354917,-0.0003237724304199,0.1078842133283615,0,0,0
1113,45364.98208189388,2011-01-19 01:53:33,1879.3902522274748,7,5,-1.0993878841400146,3.366103410720825,3.438017265900704,3.334896479023508,13.983141649250772,11.869865518523518,-0.0003237724304199,0.1078842133283615,0,0,0
1114,45394.99708075642,2011-01-19 01:54:03,1909.4052510398992,7,5,-1.0993878841400146,3.3525049686431885,3.438017265900704,3.344063977792134,13.983141649250772,11.900663496512529,-0.0004209041653666,0.1078842133283615,0,0,0
1115,45425.01230363228,2011-01-19 01:54:33,1939.4204739358088,7,5,-1.099568486213684,3.336478471755981,3.438017265900704,3.353231609015103,13.983141649250772,11.931327492980554,-0.0004856586456298,0.1078842133283615,0,0,0
1116,45455.02744121054,2011-01-19 01:55:03,1969.435611534131,7,5,-1.0993878841400146,3.317214012145996,3.438017265900704,3.362399182873565,13.983141649250772,11.961829600681863,-0.0005180359003134,0.1078842133283615,0,0,0
1117,45485.042409752525,2011-01-19 01:55:33,1999.4505800209752,7,5,-1.0997490882873535,3.293092966079712,3.438017265900704,3.371566549368152,13.983141649250772,11.992132924890813,-0.0007122993702068,0.1078842133283615,0,0,0
1118,45515.05753635845,2011-01-19 01:56:03,2029.4657066319128,7,5,-1.0993878841400146,3.2629823684692383,3.438017265900704,3.380734099665454,13.983141649250772,12.022190477269667,-0.0009065627818927,0.1078842133283615,0,0,0
1119,45545.07264179663,2011-01-19 01:56:33,2059.4808120700823,7,5,-1.099568486213684,3.224453449249268,3.438017265900704,3.389901613154282,13.983141649250772,12.05193557748942,-0.0011655807029455,0.1078842133283615,0,0,0
1120,45575.08993744347,2011-01-19 01:57:03,2089.498107817175,7,5,-1.0993878841400146,3.174268960952759,3.438017265900704,3.399069855150101,13.983141649250772,12.081278753763998,-0.0014569759368896,0.1078842133283615,0,0,0
1121,45605.10289792073,2011-01-19 01:57:33,2119.511068204217,7,5,-1.099568486213684,3.106600761413574,3.438017265900704,3.408236755052387,13.983141649250772,12.110082414079564,-0.0020397186744958,0.1078842133283615,0,0,0
1122,45635.11801542397,2011-01-19 01:58:03,2149.526185702443,7,5,-1.099568486213684,3.0115737915039062,3.438017265900704,3.417404270757305,13.983141649250772,12.138153757992168,-0.002978706266731,0.1078842133283615,0,0,0
1123,45665.13326291618,2011-01-19 01:58:33,2179.5414332147043,7,5,-1.099568486213684,2.866362333297729,3.438017265900704,3.426571863064484,13.983141649250772,12.165142414095657,-0.0045651434920728,0.1078842133283615,0,0,0
1124,45689.75797070984,2011-01-19 01:58:58,2204.166140998334,7,5,-1.099568486213684,2.699943780899048,3.438017265900704,3.434093013557461,13.983141649250772,12.186097589666533,-0.0058602332137525,0.1078842133283615,0,0,0
1125,45749.77291681824,2011-01-19 01:59:58,60.016384652133006,8,5,0.0,3.571860313415528,3.438017265900704,3.434093013557461,13.983141649250772,12.186097589666533,0.0014569759368896,0.1078842133283615,0,0,0
1126,45749.96249464466,2011-01-19 01:59:59,0.187619936611246,9,5,-1.9243103452026844e-05,3.572345972061157,3.438017265900704,3.434093014560347,13.983141649250772,12.186097593249189,0.0,0.106165811419487,0,0,0
1127,45754.79038062203,2011-01-19 02:00:03,5.015505898932725,9,5,0.0008838032954372,3.580925941467285,3.438018115800667,3.434093014726788,13.983144689386114,12.186097593843774,0.0012950897216796,0.106165811419487,0,0,0
