Data_Point,Test_Time(s),Date_Time,Step_Time(s),Step_Index,Cycle_Index,Current(A),Voltage(V),Charge_Capacity(Ah),Discharge_Capacity(Ah),Charge_Energy(Wh),Discharge_Energy(Wh),dV/dt(V/s),Internal_Resistance(Ohm),Is_FC_Data,AC_Impedance(Ohm),ACI_Phase_Angle(Deg)
3907,161053.68867838563,2011-01-20 10:01:58,30.015002807381475,1,19,0.0,3.64713716506958,11.96033915653217,11.921430988040871,48.72108793278865,42.11204195625494,0.0006799221155233,0.1069762408733367,0,0,0
3908,161083.70614583066,2011-01-20 10:02:28,60.03247038272309,1,19,0.0,3.666725397109986,11.96033915653217,11.921430988040871,48.72108793278865,42.11204195625494,0.0004532813909463,0.1069762408733367,0,0,0
3909,161113.71891144727,2011-01-20 10:02:58,90.045235869012,1,19,0.0,3.679999828338623,11.96033915653217,11.921430988040871,48.72108793278865,42.11204195625494,0.0002913951757363,0.1069762408733367,0,0,0
3910,161143.68726302043,2011-01-20 10:03:28,120.01358744717604,1,19,0.0,3.6905224323272714,11.96033915653217,11.921430988040871,48.72108793278865,42.11204195625494,0.0002590179501567,0.1069762408733367,0,0,0
3911,161173.7065645676,2011-01-20 10:03:58,30.015130104645426,2,19,0.550297200679779,3.811774969100952,11.964925714199827,11.921430988040871,48.738484909155325,42.11204195625494,0.0007770538213662,0.1069762408733367,0,0,0
3912,161203.72224273818,2011-01-20 10:04:28,60.03080834040223,2,19,0.5501165986061096,3.832334518432617,11.96951235884984,11.921430988040871,48.75601927640334,42.11204195625494,0.0004532813909463,0.1069762408733367,0,0,0
3913,161233.723432018,2011-01-20 10:04:58,90.0319976302477,2,19,0.5501165986061096,3.8460946083068848,11.974096748586092,11.921430988040871,48.7736214229873,42.11204195625494,0.0003237724304199,0.1069762408733367,0,0,0
3914,161263.73631905223,2011-01-20 10:05:28,120.04488466447144,2,19,0.5499359965324402,3.857102870941162,11.978682851650548,11.921430988040871,48.79128607206791,42.11204195625494,0.0002913951757363,0.1069762408733367,0,0,0
3915,161293.75136985423,2011-01-20 10:05:58,150.05993536622043,2,19,0.5501165986061096,3.86665415763855,11.983269321496882,11.921430988040871,48.808998707837695,42.11204195625494,0.0002913951757363,0.1069762408733367,0,0,0
3916,161323.76660743175,2011-01-20 10:06:28,180.07517295374626,2,19,0.5499359965324402,3.874748468399048,11.987855870362022,11.921430988040871,48.82675262209207,42.11204195625494,0.0001295089750783,0.1069762408733367,0,0,0
3917,161353.78156648003,2011-01-20 10:06:58,210.0901319870292,2,19,0.5501165986061096,3.882680892944336,11.992442341123589,11.921430988040871,48.84454307540016,42.11204195625494,0.0001618862152099,0.1069762408733367,0,0,0
3918,161383.79687864345,2011-01-20 10:07:28,240.1054442406459,2,19,0.5501165986061096,3.889803886413574,11.997028867072062,11.921430988040871,48.86236756879335,42.11204195625494,0.0001942634553415,0.1069762408733367,0,0,0
3919,161413.81358877098,2011-01-20 10:07:59,270.12215428298225,2,19,0.5499359965324402,3.8962793350219727,12.001615687028368,11.921430988040871,48.88022457114133,42.11204195625494,0.0001618862152099,0.1069762408733367,0,0,0
3920,161443.8270672894,2011-01-20 10:08:29,300.1356328113915,2,19,0.5499359965324402,3.902592897415161,12.006201942028309,11.921430988040871,48.89810862466224,42.11204195625494,0.0001618862152099,0.1069762408733367,0,0,0
3921,161473.84201821242,2011-01-20 10:08:59,330.1505837194238,2,19,0.5501165986061096,3.9085826873779297,12.010788487151268,11.921430988040871,48.9160216854544,42.11204195625494,0.0001942634553415,0.1069762408733367,0,0,0
3922,161503.85714645244,2011-01-20 10:09:29,360.1657119594219,2,19,0.5501165986061096,3.914248466491699,12.015374978214178,11.921430988040871,48.93396119634672,42.11204195625494,0.0001618385285837,0.1069762408733367,0,0,0
3923,161533.87228579514,2011-01-20 10:09:59,390.18085132715385,2,19,0.5501165986061096,3.919428825378418,12.019961451391032,11.921430988040871,48.95192595268452,42.11204195625494,9.713172767078504e-05,0.1069762408733367,0,0,0
3924,161563.88733206582,2011-01-20 10:10:29,420.19589757780926,2,19,0.5501165986061096,3.9247710704803462,12.024547942715424,11.921430988040871,48.96991519306864,42.11204195625494,0.0001295089750783,0.1069762408733367,0,0,0
3925,161593.90243813055,2011-01-20 10:10:59,450.21100363251486,2,19,0.5501165986061096,3.929789543151856,12.029134405658407,11.921430988040871,48.98792759492746,42.11204195625494,0.0001295089750783,0.1069762408733367,0,0,0
3926,161623.9175559145,2011-01-20 10:11:29,480.2261214164533,2,19,0.5499359965324402,3.9346461296081534,12.0337204055244,11.921430988040871,49.00596056453362,42.11204195625494,0.0001295089750783,0.1069762408733367,0,0,0
3927,161653.93277321645,2011-01-20 10:11:59,510.24133873847126,2,19,0.5499359965324402,3.9390170574188232,12.03830606571643,11.921430988040871,49.02401364992348,42.11204195625494,9.713172767078504e-05,0.1069762408733367,0,0,0
3928,161683.9480244029,2011-01-20 10:12:29,540.2565899098522,2,19,0.5501165986061096,3.943711757659912,12.042892279297286,11.921430988040871,49.04208972317726,42.11204195625494,0.0001618862152099,0.1069762408733367,0,0,0
3929,161713.96288564746,2011-01-20 10:12:59,570.271451179478,2,19,0.5499359965324402,3.947758913040161,12.047478783233087,11.921430988040871,49.060186843733405,42.11204195625494,9.713172767078504e-05,0.1069762408733367,0,0,0
3930,161743.97801630845,2011-01-20 10:13:29,600.2865818304853,2,19,0.5501165986061096,3.95180606842041,12.052065272115648,11.921430988040871,49.07830297519906,42.11204195625494,6.47544875391759e-05,0.1069762408733367,0,0,0
3931,161773.99314665372,2011-01-20 10:13:59,630.3017121556803,2,19,0.5497553944587708,3.955691337585449,12.056651684275296,11.921430988040871,49.09643713918084,42.11204195625494,6.47544875391759e-05,0.1069762408733367,0,0,0
3932,161804.00835246203,2011-01-20 10:14:29,660.3169179790401,2,19,0.5501165986061096,3.959576606750488,12.061238243422649,11.921430988040871,49.11458937989791,42.11204195625494,9.713172767078504e-05,0.1069762408733367,0,0,0
3933,161834.0233626829,2011-01-20 10:14:59,690.3319281948857,2,19,0.5499359965324402,3.9631381034851074,12.065824789915082,11.921430988040871,49.1327583632206,42.11204195625494,9.713172767078504e-05,0.1069762408733367,0,0,0
3934,161864.03858864645,2011-01-20 10:15:29,720.347154168466,2,19,0.5499359965324402,3.966699600219727,12.070411353208875,11.921430988040871,49.15094367716089,42.11204195625494,9.713172767078504e-05,0.1069762408733367,0,0,0
3935,161894.0537522546,2011-01-20 10:15:59,750.3623177565624,2,19,0.5501165986061096,3.969937324523926,12.074997853604083,11.921430988040871,49.16914449763603,42.11204195625494,9.713172767078504e-05,0.1069762408733367,0,0,0
3936,161924.0686617043,2011-01-20 10:16:29,780.3772272162929,2,19,0.5501165986061096,3.973336935043335,12.079584344707824,11.921430988040871,49.187360673700034,42.11204195625494,9.713172767078504e-05,0.1069762408733367,0,0,0
3937,161954.0837827965,2011-01-20 10:16:59,810.3923483185015,2,19,0.5501165986061096,3.976736545562744,12.084170857634406,11.921430988040871,49.20559194780875,42.11204195625494,0.0001295089750783,0.1069762408733367,0,0,0
3938,161984.0988879339,2011-01-20 10:17:29,840.4074534358709,2,19,0.5501165986061096,3.979650497436523,12.088757376098313,11.921430988040871,49.223837759672215,42.11204195625494,6.47544875391759e-05,0.1069762408733367,0,0,0
3939,162014.11580775908,2011-01-20 10:17:59,870.4243732660632,2,19,0.5499359965324402,3.982888221740722,12.093344352490105,11.921430988040871,49.24210016624604,42.11204195625494,6.47544875391759e-05,0.1069762408733367,0,0,0
3940,162044.12911228882,2011-01-20 10:18:29,900.4376777908018,2,19,0.5504778623580933,3.986125946044922,12.097931279655285,11.921430988040871,49.26037672230286,42.11204195625494,9.713172767078504e-05,0.1069762408733367,0,0,0
3941,162074.14421503028,2011-01-20 10:18:59,930.4527805322496,2,19,0.5501165986061096,3.989201784133911,12.102518447087173,11.921430988040871,49.278668533009096,42.11204195625494,9.713172767078504e-05,0.1069762408733367,0,0,0
3942,162104.15935500452,2011-01-20 10:19:29,960.4679205115056,2,19,0.5501165986061096,3.9921157360076895,12.107105605565469,11.921430988040871,49.29697428735479,42.11204195625494,9.713172767078504e-05,0.1069762408733367,0,0,0
3943,162134.1744654602,2011-01-20 10:19:59,990.4830309621672,2,19,0.550297200679779,3.9951913356781006,12.111692535410898,11.921430988040871,49.3152929404015,42.11204195625494,6.47544875391759e-05,0.1069762408733367,0,0,0
3944,162164.18960133422,2011-01-20 10:20:29,1020.4981668612544,2,19,0.5499359965324402,3.99826717376709,12.116278921351675,11.921430988040871,49.33362312830669,42.11204195625494,9.713172767078504e-05,0.1069762408733367,0,0,0
3945,162194.20480785432,2011-01-20 10:20:59,1050.5133733713255,2,19,0.5499359965324402,4.001181125640869,12.120865368845482,11.921430988040871,49.35196707876831,42.11204195625494,9.70840483205393e-05,0.1069762408733367,0,0,0
3946,162224.21977665194,2011-01-20 10:21:29,1080.5283421940069,2,19,0.5501165986061096,4.003933429718018,12.125451734789928,11.921430988040871,49.3703241433797,42.11204195625494,6.47544875391759e-05,0.1069762408733367,0,0,0
3947,162254.23490392952,2011-01-20 10:21:59,1110.5434694565686,2,19,0.5501165986061096,4.006847381591797,12.130038177322415,11.921430988040871,49.38869473740103,42.11204195625494,6.47544875391759e-05,0.1069762408733367,0,0,0
3948,162284.25002730242,2011-01-20 10:22:29,1140.558592834449,2,19,0.5501165986061096,4.009599208831787,12.134624650118084,11.921430988040871,49.40707841163526,42.11204195625494,6.47544875391759e-05,0.1069762408733367,0,0,0
3949,162314.2651200289,2011-01-20 10:22:59,1170.5736855408866,2,19,0.5501165986061096,4.012351512908936,12.139211042758305,11.921430988040871,49.42547470941009,42.11204195625494,3.24249267578125e-05,0.1069762408733367,0,0,0
3950,162344.28023038432,2011-01-20 10:23:29,1200.588795886286,2,19,0.550297200679779,4.015265464782715,12.14379743813286,11.921430988040871,49.44388382706556,42.11204195625494,9.71794142969884e-05,0.1069762408733367,0,0,0
3951,162374.2953764337,2011-01-20 10:23:59,1230.603941960733,2,19,0.5501165986061096,4.018017292022705,12.148383845512264,11.921430988040871,49.462305790842265,42.11204195625494,3.23295607813634e-05,0.1069762408733367,0,0,0
3952,162404.31058321445,2011-01-20 10:24:29,1260.6191487414787,2,19,0.5501165986061096,4.0207695960998535,12.15297027053157,11.921430988040871,49.48074040604927,42.11204195625494,6.47544875391759e-05,0.1069762408733367,0,0,0
3953,162434.32556921494,2011-01-20 10:24:59,1290.6341347369598,2,19,0.550297200679779,4.023521423339844,12.157556595599852,11.921430988040871,49.49918717152013,42.11204195625494,6.47544875391759e-05,0.1069762408733367,0,0,0
3954,162464.34068398635,2011-01-20 10:25:29,1320.6492495134023,2,19,0.5501165986061096,4.026273727416992,12.16214297259067,11.921430988040871,49.51764654145247,42.11204195625494,6.47544875391759e-05,0.1069762408733367,0,0,0
3955,162494.3559462454,2011-01-20 10:25:59,1350.6645117724174,2,19,0.5501165986061096,4.029025554656982,12.166729309828986,11.921430988040871,49.5361182574766,42.11204195625494,6.47544875391759e-05,0.1069762408733367,0,0,0
3956,162524.3711836274,2011-01-20 10:26:29,1380.679749144406,2,19,0.5499359965324402,4.031615734100342,12.171315672686347,11.921430988040871,49.554602441243055,42.11204195625494,6.47544875391759e-05,0.1069762408733367,0,0,0
3957,162554.386020015,2011-01-20 10:26:59,1410.6945855420431,2,19,0.5499359965324402,4.034205913543701,12.175902000630847,11.921430988040871,49.5730988613227,42.11204195625494,6.47544875391759e-05,0.1069762408733367,0,0,0
3958,162584.40114755326,2011-01-20 10:27:29,1440.70971307528,2,19,0.5499359965324402,4.0367960929870605,12.180488405605296,11.921430988040871,49.59160793362521,42.11204195625494,3.24249267578125e-05,0.1069762408733367,0,0,0
3959,162614.4180608923,2011-01-20 10:27:59,1470.7266265045191,2,19,0.550297200679779,4.039547920227051,12.185075148491622,11.921430988040871,49.61013072013264,42.11204195625494,3.23295607813634e-05,0.1069762408733367,0,0,0
3960,162644.4315063232,2011-01-20 10:28:29,1500.7400718602516,2,19,0.5499359965324402,4.04213809967041,12.18966124850466,11.921430988040871,49.62866305545892,42.11204195625494,6.47544875391759e-05,0.1069762408733367,0,0,0
3961,162674.44647084517,2011-01-20 10:28:59,1530.7550363471266,2,19,0.5501165986061096,4.0450520515441895,12.194247623809716,11.921430988040871,49.647208878556,42.11204195625494,6.47544875391759e-05,0.1069762408733367,0,0,0
3962,162704.46158408778,2011-01-20 10:29:29,1560.7701496148093,2,19,0.5501165986061096,4.047642230987549,12.19883400386468,11.921430988040871,49.66576695917298,42.11204195625494,6.47544875391759e-05,0.1069762408733367,0,0,0
3963,162734.47671113984,2011-01-20 10:29:59,1590.7852766668466,2,19,0.5501165986061096,4.050394535064697,12.20342039206086,11.921430988040871,49.684337451995205,42.11204195625494,3.24249267578125e-05,0.1069762408733367,0,0,0
3964,162764.49182149523,2011-01-20 10:30:29,1620.8003870222708,2,19,0.5499359965324402,4.053146362304688,12.208006791963513,11.921430988040871,49.70292031895842,42.11204195625494,6.47544875391759e-05,0.1069762408733367,0,0,0
3965,162794.50693665264,2011-01-20 10:30:59,1650.8155021746506,2,19,0.5501165986061096,4.055898666381836,12.2125932294435,11.921430988040871,49.72151576690488,42.11204195625494,9.71794142969884e-05,0.1069762408733367,0,0,0
3966,162824.5220325721,2011-01-20 10:31:29,1680.8305980991086,2,19,0.5499359965324402,4.058488845825195,12.217179656007612,11.921430988040871,49.74012351168086,42.11204195625494,6.47544875391759e-05,0.1069762408733367,0,0,0
3967,162854.53946425294,2011-01-20 10:31:59,1710.8480297799902,2,19,0.5499359965324402,4.060755252838135,12.221766446741722,11.921430988040871,49.758744961730486,42.11204195625494,0.0,0.1069762408733367,0,0,0
3968,162884.55239441968,2011-01-20 10:32:29,1740.8609599366885,2,19,0.5501165986061096,4.063830852508545,12.226352496365363,11.921430988040871,49.777375599218985,42.11204195625494,9.70840483205393e-05,0.1069762408733367,0,0,0
3969,162914.56749665987,2011-01-20 10:32:59,1770.876062166862,2,19,0.5501165986061096,4.066583156585693,12.230938925562308,11.921430988040871,49.796020229732726,42.11204195625494,6.47544875391759e-05,0.1069762408733367,0,0,0
3970,162944.58248824428,2011-01-20 10:33:29,1800.8910537713225,2,19,0.5499359965324402,4.069173336029053,12.235525259796916,11.921430988040871,49.81467704785954,42.11204195625494,3.24249267578125e-05,0.1069762408733367,0,0,0
3971,162974.5976217424,2011-01-20 10:33:59,1830.906187254388,2,19,0.5501165986061096,4.072087287902832,12.240111612753871,11.921430988040871,49.83334658317372,42.11204195625494,6.47544875391759e-05,0.1069762408733367,0,0,0
3972,163004.61275331068,2011-01-20 10:34:29,1860.921318837719,2,19,0.5499359965324402,4.074839115142822,12.244698000237088,11.921430988040871,49.852028979286544,42.11204195625494,6.47544875391759e-05,0.1069762408733367,0,0,0
3973,163034.62783105986,2011-01-20 10:34:59,1890.9363965718403,2,19,0.5501165986061096,4.077753067016602,12.249284450482492,11.921430988040871,49.8707244203539,42.11204195625494,9.70840483205393e-05,0.1069762408733367,0,0,0
3974,163064.64306416118,2011-01-20 10:35:29,1920.9516297032608,2,19,0.5501165986061096,4.08050537109375,12.253870837852029,11.921430988040871,49.88943258476357,42.11204195625494,9.71794142969884e-05,0.1069762408733367,0,0,0
3975,163094.65808913382,2011-01-20 10:35:59,1950.966654665859,2,19,0.5501165986061096,4.083419322967529,12.258457185582705,11.921430988040871,49.90815362612595,42.11204195625494,0.0001295089750783,0.1069762408733367,0,0,0
3976,163124.6732877392,2011-01-20 10:36:29,1980.9818532662173,2,19,0.5501165986061096,4.08617115020752,12.263043600006927,11.921430988040871,49.92688812156538,42.11204195625494,6.47544875391759e-05,0.1069762408733367,0,0,0
3977,163154.69080764998,2011-01-20 10:36:59,2010.99937326722,2,19,0.5499359965324402,4.089085102081299,12.267630305350067,11.921430988040871,49.94563702615727,42.11204195625494,6.47544875391759e-05,0.1069762408733367,0,0,0
3978,163184.70338803995,2011-01-20 10:37:29,2041.0119535519293,2,19,0.5501165986061096,4.091999053955078,12.272216296791358,11.921430988040871,49.96439641433327,42.11204195625494,6.47544875391759e-05,0.1069762408733367,0,0,0
3979,163214.72026096322,2011-01-20 10:37:59,2071.028826495265,2,19,0.5501165986061096,4.094913005828857,12.276802964432244,11.921430988040871,49.983171971976326,42.11204195625494,9.70840483205393e-05,0.1069762408733367,0,0,0
3980,163244.73377931587,2011-01-20 10:38:29,2101.042344837904,2,19,0.5501165986061096,4.097826957702637,12.281389088941006,11.921430988040871,50.0019588054267,42.11204195625494,0.0,0.1069762408733367,0,0,0
3981,163274.74872798836,2011-01-20 10:38:59,2131.0572935003397,2,19,0.5499359965324402,4.100903034210205,12.285975449645411,11.921430988040871,50.02076034062623,42.11204195625494,6.47544875391759e-05,0.1069762408733367,0,0,0
3982,163304.76396979138,2011-01-20 10:39:29,2161.072535308384,2,19,0.5499359965324402,4.103978633880615,12.290561830879051,11.921430988040871,50.039575720913945,42.11204195625494,9.70840483205393e-05,0.1069762408733367,0,0,0
3983,163334.77941576325,2011-01-20 10:40:00,2191.087981315355,2,19,0.5501165986061096,4.107054710388184,12.295148239500037,11.921430988040871,50.05840510507248,42.11204195625494,9.71794142969884e-05,0.1069762408733367,0,0,0
3984,163364.79419553978,2011-01-20 10:40:30,2221.102761056788,2,19,0.550297200679779,4.110130310058594,12.299734526693449,11.921430988040871,50.07724784933522,42.11204195625494,0.0001295089750783,0.1069762408733367,0,0,0
3985,163394.8091821568,2011-01-20 10:41:00,2251.117747668806,2,19,0.5501165986061096,4.113206386566162,12.304320929335464,11.921430988040871,50.09610523310195,42.11204195625494,9.71794142969884e-05,0.1069762408733367,0,0,0
3986,163424.82433461718,2011-01-20 10:41:30,2281.1329002294174,2,19,0.5499359965324402,4.116119861602783,12.308907259514482,11.921430988040871,50.11497644949752,42.11204195625494,3.23295607813634e-05,0.1069762408733367,0,0,0
3987,163454.83942416575,2011-01-20 10:42:00,2311.147989682748,2,19,0.5501165986061096,4.119357585906982,12.313493690342376,11.921430988040871,50.13386237886902,42.11204195625494,9.70840483205393e-05,0.1069762408733367,0,0,0
3988,163484.8545242205,2011-01-20 10:42:30,2341.163089722462,2,19,0.5501165986061096,4.122595310211182,12.318080133722487,11.921430988040871,50.152762846497225,42.11204195625494,9.70840483205393e-05,0.1069762408733367,0,0,0
3989,163514.86963887163,2011-01-20 10:43:00,2371.178204383618,2,19,0.5501165986061096,4.12567138671875,12.322666471273182,11.921430988040871,50.17167738021268,42.11204195625494,9.71794142969884e-05,0.1069762408733367,0,0,0
3990,163544.88488098542,2011-01-20 10:43:30,2401.1934464974247,2,19,0.5501165986061096,4.12907075881958,12.327252880698722,11.921430988040871,50.190607016547375,42.11204195625494,9.70840483205393e-05,0.1069762408733367,0,0,0
3991,163574.89986898593,2011-01-20 10:44:00,2431.2084344878776,2,19,0.5501165986061096,4.132308483123779,12.331839218129373,11.921430988040871,50.209551246193406,42.11204195625494,0.0001295089750783,0.1069762408733367,0,0,0
3992,163604.9156839324,2011-01-20 10:44:30,2461.224249534609,2,19,0.5499359965324402,4.135222434997559,12.3364256723342,11.921430988040871,50.22851092715417,42.11204195625494,3.23295607813634e-05,0.1069762408733367,0,0,0
3993,163634.93012830298,2011-01-20 10:45:00,2491.2386938249942,2,19,0.550297200679779,4.138783931732178,12.341011979947938,11.921430988040871,50.24748511667183,42.11204195625494,9.70840483205393e-05,0.1069762408733367,0,0,0
3994,163664.94520533035,2011-01-20 10:45:30,2521.253770827293,2,19,0.5501165986061096,4.142183780670166,12.345598404236018,11.921430988040871,50.266475105234775,42.11204195625494,9.71794142969884e-05,0.1069762408733367,0,0,0
3995,163694.96046001549,2011-01-20 10:46:00,2551.2690255575435,2,19,0.5501165986061096,4.145745277404785,12.350184822139363,11.921430988040871,50.28548055516204,42.11204195625494,0.0001295089750783,0.1069762408733367,0,0,0
3996,163724.9754339509,2011-01-20 10:46:30,2581.283999452867,2,19,0.550297200679779,4.149144649505615,12.3547711187606,11.921430988040871,50.30450135224778,42.11204195625494,0.0001295089750783,0.1069762408733367,0,0,0
3997,163754.99056654173,2011-01-20 10:47:00,2611.299132043709,2,19,0.5501165986061096,4.152382373809815,12.359357479703103,11.921430988040871,50.32353819535064,42.11204195625494,3.23295607813634e-05,0.1069762408733367,0,0,0
3998,163785.00565997,2011-01-20 10:47:30,2641.31422550202,2,19,0.5499359965324402,4.155782222747803,12.363943817990055,11.921430988040871,50.34259074608372,42.11204195625494,9.71794142969884e-05,0.1069762408733367,0,0,0
3999,163815.02281965798,2011-01-20 10:48:00,2671.3313851749745,2,19,0.5499359965324402,4.159505367279053,12.3685305082438,11.921430988040871,50.36166074242307,42.11204195625494,9.70840483205393e-05,0.1069762408733367,0,0,0
4000,163845.03591882088,2011-01-20 10:48:30,2701.344484322851,2,19,0.5499359965324402,4.162905216217041,12.373116550404244,11.921430988040871,50.38074423587148,42.11204195625494,9.71794142969884e-05,0.1069762408733367,0,0,0
4001,163875.0510063494,2011-01-20 10:49:00,2731.359571856396,2,19,0.550297200679779,4.166628360748291,12.377702960007008,11.921430988040871,50.39984552436167,42.11204195625494,9.70840483205393e-05,0.1069762408733367,0,0,0
4002,163905.06611506073,2011-01-20 10:49:30,2761.3746805877727,2,19,0.5501165986061096,4.170028209686279,12.38228926053042,11.921430988040871,50.41896287712632,42.11204195625494,3.24249267578125e-05,0.1069762408733367,0,0,0
4003,163935.08124490976,2011-01-20 10:50:00,2791.3898104117184,2,19,0.5499359965324402,4.173751354217529,12.386875577799977,11.921430988040871,50.43809694733302,42.11204195625494,6.47544875391759e-05,0.1069762408733367,0,0,0
4004,163965.0963564331,2011-01-20 10:50:30,2821.4049219350536,2,19,0.5501165986061096,4.1774749755859375,12.391461933593323,11.921430988040871,50.457247859390975,42.11204195625494,9.71794142969884e-05,0.1069762408733367,0,0,0
4005,163995.11150137972,2011-01-20 10:51:00,2851.420066886702,2,19,0.5499359965324402,4.181198120117188,12.396048311531688,11.921430988040871,50.47641578401166,42.11204195625494,0.0001295089750783,0.1069762408733367,0,0,0
4006,164025.12657231692,2011-01-20 10:51:30,2881.435137818872,2,19,0.550297200679779,4.184921741485596,12.40063474372488,11.921430988040871,50.49560101965882,42.11204195625494,9.71794142969884e-05,0.1069762408733367,0,0,0
4007,164055.1417060957,2011-01-20 10:52:00,2911.4502716227366,2,19,0.5499359965324402,4.188644886016846,12.40522111015089,11.921430988040871,50.514803071520525,42.11204195625494,0.0001295089750783,0.1069762408733367,0,0,0
4008,164085.15705625378,2011-01-20 10:52:30,2941.465621770798,2,19,0.5499359965324402,4.192206382751465,12.409807435736507,11.921430988040871,50.53402228943549,42.11204195625494,6.47544875391759e-05,0.1069762408733367,0,0,0
4009,164115.1719078844,2011-01-20 10:53:00,2971.480473386363,2,19,0.5499359965324402,4.196091651916504,12.414393719962394,11.921430988040871,50.55325864492542,42.11204195625494,6.47544875391759e-05,0.1069762408733367,0,0,0
4010,164144.37475068914,2011-01-20 10:53:29,3000.683316291372,2,19,0.5501165986061096,4.200138568878174,12.418855951813931,11.921430988040871,50.57199146908607,42.11204195625494,0.0001295089750783,0.1069762408733367,0,0,0
4011,164174.3827495353,2011-01-20 10:53:59,30.01516551790617,3,19,0.0,4.092646598815918,12.418855951813931,11.921430988040871,50.57199146908607,42.11204195625494,-0.0004857063177041,0.1069762408733367,0,0,0
4012,164204.4000899086,2011-01-20 10:54:29,60.03250591628366,3,19,0.0,4.07888650894165,12.418855951813931,11.921430988040871,50.57199146908607,42.11204195625494,-0.0002590179501567,0.1069762408733367,0,0,0
4013,164234.41287664787,2011-01-20 10:54:59,90.04529256030413,3,19,0.0,4.070306301116943,12.418855951813931,11.921430988040871,50.57199146908607,42.11204195625494,-0.0001619339018361,0.1069762408733367,0,0,0
4014,164264.3811013398,2011-01-20 10:55:29,120.01351724721611,3,19,0.0,4.064316749572754,12.418855951813931,11.921430988040871,50.57199146908607,42.11204195625494,-9.70840483205393e-05,0.1069762408733367,0,0,0
4015,164264.38954639013,2011-01-20 10:55:29,0.013347435917209,4,19,1.0287312269210815,4.199814796447754,12.418859765959414,11.921430988040871,50.5720074877907,42.11204195625494,0.0,0.1069762408733367,0,0,0
4016,164264.9051646595,2011-01-20 10:55:30,0.528965705296277,4,19,0.977799355983734,4.199653148651123,12.419002032357254,11.921430988040871,50.57260498133628,42.11204195625494,-3.23295607813634e-05,0.1069762408733367,0,0,0
4017,164266.67076905895,2011-01-20 10:55:32,2.294570104722539,4,19,0.9272288084030152,4.199653148651123,12.4194681718022,11.921430988040871,50.574562683147725,42.11204195625494,-3.23295607813634e-05,0.1069762408733367,0,0,0
4018,164269.48320900966,2011-01-20 10:55:35,5.107010080508344,4,19,0.8770194053649902,4.199976921081543,12.420171982472532,11.921430988040871,50.57751855859478,42.11204195625494,3.24249267578125e-05,0.1069762408733367,0,0,0
4019,164273.3581389624,2011-01-20 10:55:38,8.981940028224189,4,19,0.8269906640052795,4.199814796447754,12.421087978587773,11.921430988040871,50.58136558476672,42.11204195625494,0.0,0.1069762408733367,0,0,0
4020,164278.54556119972,2011-01-20 10:55:44,14.169362255544588,4,19,0.7769618630409241,4.199814796447754,12.422242145360736,11.921430988040871,50.58621288554789,42.11204195625494,-3.24249267578125e-05,0.1069762408733367,0,0,0
4021,164285.26420816022,2011-01-20 10:55:50,20.88800930125852,4,19,0.7267524600028992,4.199814796447754,12.423643403627528,11.921430988040871,50.59209794353015,42.11204195625494,0.0,0.1069762408733367,0,0,0
4022,164294.18603453675,2011-01-20 10:55:59,29.809835622628707,4,19,0.676543116569519,4.199814796447754,12.425379838886442,11.921430988040871,50.59939066486802,42.11204195625494,3.23295607813634e-05,0.1069762408733367,0,0,0
4023,164306.57634101287,2011-01-20 10:56:12,42.2001420586693,4,19,0.6265143156051636,4.199976921081543,12.427617585001482,11.921430988040871,50.60878886212608,42.11204195625494,3.24249267578125e-05,0.1069762408733367,0,0,0
4024,164325.0135181162,2011-01-20 10:56:30,60.637319192063295,4,19,0.5764855742454529,4.199814796447754,12.430688602836758,11.921430988040871,50.62168667515056,42.11204195625494,-3.24249267578125e-05,0.1069762408733367,0,0,0
4025,164356.87234297046,2011-01-20 10:57:02,92.49614403127796,4,19,0.5264567732810974,4.199814796447754,12.4355470543063,11.921430988040871,50.642091422016925,42.11204195625494,3.23295607813634e-05,0.1069762408733367,0,0,0
4026,164420.1681345437,2011-01-20 10:58:05,155.7919356145316,4,19,0.4764280319213867,4.199814796447754,12.444314700048718,11.921430988040871,50.678914135595285,42.11204195625494,3.23295607813634e-05,0.1069762408733367,0,0,0
4027,164528.30703922766,2011-01-20 10:59:53,263.93084028848824,4,19,0.4263992607593536,4.199653148651123,12.457838641166552,11.921430988040871,50.73571253198061,42.11204195625494,-3.23295607813634e-05,0.1069762408733367,0,0,0
4028,164671.63261823574,2011-01-20 11:02:17,407.256419281517,4,19,0.3763704895973205,4.199814796447754,12.473803091070998,11.921430988040871,50.802760863061806,42.11204195625494,0.0,0.1069762408733367,0,0,0
4029,164843.16103218627,2011-01-20 11:05:08,578.7848332420803,4,19,0.3259805142879486,4.199653148651123,12.49051615537678,11.921430988040871,50.872952459735615,42.11204195625494,-3.23295607813634e-05,0.1069762408733367,0,0,0
4030,165052.92302109976,2011-01-20 11:08:38,788.5468222408156,4,19,0.2759517431259155,4.199653148651123,12.50804844981042,11.921430988040871,50.9465853117658,42.11204195625494,-3.23295607813634e-05,0.1069762408733367,0,0,0
4031,165310.87166657814,2011-01-20 11:12:56,1046.4954676239242,4,19,0.2259229570627212,4.199814796447754,12.525999646379718,11.921430988040871,51.02197769692168,42.11204195625494,-3.24249267578125e-05,0.1069762408733367,0,0,0
4032,165643.38165222816,2011-01-20 11:18:28,1379.0054532939787,4,19,0.1758941859006881,4.199814796447754,12.54449011334272,11.921430988040871,51.09963502027206,42.11204195625494,3.23295607813634e-05,0.1069762408733367,0,0,0
4033,166097.95211449292,2011-01-20 11:26:03,1833.5759155688024,4,19,0.1258654296398162,4.199653148651123,12.563385803639964,11.921430988040871,51.17899419316718,42.11204195625494,-6.47544875391759e-05,0.1069762408733367,0,0,0
4034,166835.93957513792,2011-01-20 11:38:21,2571.563376178707,4,19,0.0758366510272026,4.199653148651123,12.583611277978669,11.921430988040871,51.26393805282796,42.11204195625494,-3.23295607813634e-05,0.1069762408733367,0,0,0
4035,167524.00599116442,2011-01-20 11:49:49,3259.629792245288,4,19,0.0498289167881011,4.199653148651123,12.595475865954622,11.921430988040871,51.31376751887811,42.11204195625494,-6.47544875391759e-05,0.1069762408733367,0,0,0
4036,167554.02474891345,2011-01-20 11:50:19,30.015112260171502,5,19,0.0,4.189778327941895,12.595475865954622,11.921430988040871,51.31376751887811,42.11204195625494,-3.23295607813634e-05,0.1069762408733367,0,0,0
4037,167584.02421744462,2011-01-20 11:50:49,60.014580786344425,5,19,0.0,4.188159465789795,12.595475865954622,11.921430988040871,51.31376751887811,42.11204195625494,-6.47544875391759e-05,0.1069762408733367,0,0,0
4038,167584.21652754807,2011-01-20 11:50:50,0.187507310913353,6,19,-1.9243103452026844e-05,4.188483238220215,12.595475865954622,11.921430989043156,51.31376751887811,42.11204196045299,0.0,0.1108279526233673,0,0,0
4039,167589.0446774031,2011-01-20 11:50:54,5.015657196011598,6,19,0.0007031940040178,4.187997341156006,12.595476824574066,11.921430989043156,51.313771533815455,42.11204196045299,-3.24249267578125e-05,0.1108279526233673,0,0,0
4040,167604.5804027313,2011-01-20 11:51:10,15.530954903374564,7,19,-1.099568486213684,3.987906694412232,12.595476824621016,11.926174434531369,51.31377153401208,42.13105075933253,-0.0017807006370276,0.1108279526233673,0,0,0
4041,167634.59550765317,2011-01-20 11:51:40,45.54605981523181,7,19,-1.099568486213684,3.933512926101685,12.595476824621016,11.935341741610486,51.31377153401208,42.16735005940974,-0.0012950897216796,0.1108279526233673,0,0,0
4042,167664.61063583303,2011-01-20 11:52:10,75.56118798505506,7,19,-1.0993878841400146,3.891422748565674,12.595476824621016,11.944509030191725,51.31377153401208,42.20320824276947,-0.0010036944877356,0.1108279526233673,0,0,0
4043,167694.62585676403,2011-01-20 11:52:40,105.57640891606772,7,19,-1.099568486213684,3.856940984725952,12.595476824621016,11.953676357059376,51.31377153401208,42.2387180840583,-0.0008741855854168,0.1108279526233673,0,0,0
4044,167724.64086409268,2011-01-20 11:53:10,135.5914162447176,7,19,-1.099568486213684,3.829744338989258,12.595476824621016,11.962843540654784,51.31377153401208,42.27394681816596,-0.0006475448608398,0.1108279526233673,0,0,0
4045,167754.6559815157,2011-01-20 11:53:40,165.60653369783154,7,19,-1.099568486213684,3.807727813720703,12.595476824621016,11.972010842272642,51.31377153401208,42.308951456434514,-0.0005504131549969,0.1108279526233673,0,0,0
4046,167784.6712091033,2011-01-20 11:54:10,195.621761260372,7,19,-1.099568486213684,3.788625240325928,12.595476824621016,11.981178144618305,51.31377153401208,42.34376831847505,-0.0004856586456298,0.1108279526233673,0,0,0
4047,167814.6864849161,2011-01-20 11:54:40,225.63703708820444,7,19,-1.0993878841400146,3.771789073944092,12.595476824621016,11.990345415406644,51.31377153401208,42.37842094227519,-0.0004209041653666,0.1108279526233673,0,0,0
4048,167844.70130776498,2011-01-20 11:55:10,255.6518599220365,7,19,-1.0993878841400146,3.756571769714356,12.595476824621016,11.999512618802836,51.31377153401208,42.41292599140069,-0.0003561496851034,0.1108279526233673,0,0,0
4049,167874.71641962414,2011-01-20 11:55:40,285.666971776196,7,19,-1.0993878841400146,3.742326021194458,12.595476824621016,12.008679862712324,51.31377153401208,42.44729669565172,-0.0003561496851034,0.1108279526233673,0,0,0
4050,167904.73153946822,2011-01-20 11:56:10,315.682091620269,7,19,-1.099568486213684,3.729051351547241,12.595476824621016,12.0178471680563,51.31377153401208,42.48154295437335,-0.0003885269106831,0.1108279526233673,0,0,0
4051,167934.74689360624,2011-01-20 11:56:40,345.6974457682995,7,19,-1.099568486213684,3.716909885406494,12.595476824621016,12.027014515436704,51.31377153401208,42.515673292094405,-0.0003237724304199,0.1108279526233673,0,0,0
4052,167964.76176636448,2011-01-20 11:57:10,375.712318521546,7,19,-1.099568486213684,3.704930305480957,12.595476824621016,12.036181712984598,51.31377153401208,42.54969179524628,-0.0003237724304199,0.1108279526233673,0,0,0
4053,167994.77687571238,2011-01-20 11:57:40,405.7274278644468,7,19,-1.099568486213684,3.69359827041626,12.595476824621016,12.045349020213385,51.31377153401208,42.583603562095874,-0.0002913951757363,0.1108279526233673,0,0,0
4054,168024.79200882957,2011-01-20 11:58:10,435.7425610066628,7,19,-1.099568486213684,3.682751893997192,12.595476824621016,12.054516361046632,51.31377153401208,42.617414009628455,-0.0002913951757363,0.1108279526233673,0,0,0
4055,168054.80715243786,2011-01-20 11:58:40,465.75770460995096,7,19,-1.0993878841400146,3.672229528427124,12.595476824621016,12.063683672400003,51.31377153401208,42.65112596450728,-0.0002589702489785,0.1108279526233673,0,0,0
4056,168084.82221090398,2011-01-20 11:59:10,495.7727630560011,7,19,-1.099568486213684,3.661706924438477,12.595476824621016,12.072850948809338,51.31377153401208,42.684742417836496,-0.0002590179501567,0.1108279526233673,0,0,0
4057,168114.83746489236,2011-01-20 11:59:40,525.788017054428,7,19,-1.099568486213684,3.651831865310669,12.595476824621016,12.082018281724975,51.31377153401208,42.718266293430304,-0.0002590179501567,0.1108279526233673,0,0,0
4058,168144.85482921038,2011-01-20 12:00:10,555.805381407508,7,19,-1.099568486213684,3.6421186923980713,12.595476824621016,12.091186251143077,51.31377153401208,42.75170161615445,-0.0002913951757363,0.1108279526233673,0,0,0
4059,168174.86760886697,2011-01-20 12:00:40,585.8181610390511,7,19,-1.0993878841400146,3.6327292919158936,12.595476824621016,12.100352788985369,51.31377153401208,42.785043295318914,-0.0001618862152099,0.1108279526233673,0,0,0
4060,168204.88268357355,2011-01-20 12:01:10,615.83323583084,7,19,-1.099568486213684,3.623178005218506,12.595476824621016,12.109520080018727,51.31377153401208,42.8183010077942,-0.0002266406954731,0.1108279526233673,0,0,0
4061,168234.89783895118,2011-01-20 12:01:40,645.8483911984484,7,19,-1.099568486213684,3.614112377166748,12.595476824621016,12.118687368737826,51.31377153401208,42.85147398282053,-0.0002590179501567,0.1108279526233673,0,0,0
4062,168264.91291668528,2011-01-20 12:02:10,675.863468837333,7,19,-1.0993878841400146,3.60537052154541,12.595476824621016,12.127854684209789,51.31377153401208,42.88456564493317,-0.0002590179501567,0.1108279526233673,0,0,0
4063,168294.9280218428,2011-01-20 12:02:40,705.8785739948024,7,19,-1.099568486213684,3.597114324569702,12.595476824621016,12.13702195008582,51.31377153401208,42.91757831052047,-0.0001942634553415,0.1108279526233673,0,0,0
4064,168324.94312852903,2011-01-20 12:03:10,735.8936806810821,7,19,-1.0993878841400146,3.589020252227783,12.595476824621016,12.146189258115973,51.31377153401208,42.95051574363418,-0.0001618862152099,0.1108279526233673,0,0,0
4065,168354.95824120526,2011-01-20 12:03:40,765.9087933572904,7,19,-1.099568486213684,3.580602169036865,12.595476824621016,12.155356562842266,51.31377153401208,42.98337855114538,-0.0001942634553415,0.1108279526233673,0,0,0
4066,168384.97336409191,2011-01-20 12:04:10,795.9239162489589,7,19,-1.099568486213684,3.572669744491577,12.595476824621016,12.164523887222035,51.31377153401208,43.01616678235651,-0.0001942634553415,0.1108279526233673,0,0,0
4067,168414.9884880713,2011-01-20 12:04:40,825.9390402233257,7,19,-1.099568486213684,3.565061092376709,12.595476824621016,12.173691230659747,51.31377153401208,43.04888317974931,-0.0001942634553415,0.1108279526233673,0,0,0
4068,168445.00450203376,2011-01-20 12:05:10,855.955054195842,7,19,-1.099568486213684,3.557290554046631,12.595476824621016,12.1828588075375,51.31377153401208,43.0815301818275,-0.0002266406954731,0.1108279526233673,0,0,0
4069,168475.01872802008,2011-01-20 12:05:40,885.9692802874087,7,19,-1.0993878841400146,3.5500056743621826,12.595476824621016,12.192025863967018,51.31377153401208,43.11410602487161,-0.0001618862152099,0.1108279526233673,0,0,0
4070,168505.03383221515,2011-01-20 12:06:10,915.984384377217,7,19,-1.099568486213684,3.5427207946777344,12.595476824621016,12.201193172802723,51.31377153401208,43.14661699866797,-0.0002266406954731,0.1108279526233673,0,0,0
4071,168535.0490472615,2011-01-20 12:06:40,945.9995994386009,7,19,-1.0997490882873535,3.535759687423706,12.595476824621016,12.210360597288714,51.31377153401208,43.17906388909695,-0.0002266406954731,0.1108279526233673,0,0,0
4072,168565.06409430414,2011-01-20 12:07:10,976.0146464611802,7,19,-1.0993878841400146,3.529284238815308,12.595476824621016,12.219527938313172,51.31377153401208,43.21144852786968,-0.0001618862152099,0.1108279526233673,0,0,0
4073,168595.07927255376,2011-01-20 12:07:40,1006.0298247158304,7,19,-1.099568486213684,3.522970676422119,12.595476824621016,12.22869527588619,51.31377153401208,43.24377258504154,-0.0001618862152099,0.1108279526233673,0,0,0
4074,168625.09426924592,2011-01-20 12:08:11,1036.0448214079706,7,19,-1.099568486213684,3.5168190002441406,12.595476824621016,12.237862529473832,51.31377153401208,43.27603977925095,-0.0001618862152099,0.1108279526233673,0,0,0
4075,168655.10940320016,2011-01-20 12:08:41,1066.0599553822606,7,19,-1.0993878841400146,3.510829448699951,12.595476824621016,12.2470298933162,51.31377153401208,43.308252863587946,-0.0001618862152099,0.1108279526233673,0,0,0
4076,168685.12449132017,2011-01-20 12:09:11,1096.0750434772046,7,19,-1.0997490882873535,3.5050015449523926,12.595476824621016,12.256197253202666,51.31377153401208,43.3404118659064,-0.0001618862152099,0.1108279526233673,0,0,0
4077,168715.13963748983,2011-01-20 12:09:41,1126.0901897321014,7,19,-1.0993878841400146,3.499497413635254,12.595476824621016,12.265364610313911,51.31377153401208,43.37251770204773,-0.0001295089750783,0.1108279526233673,0,0,0
4078,168745.15473672756,2011-01-20 12:10:11,1156.10528889463,7,19,-1.0993878841400146,3.4938313961029053,12.595476824621016,12.274532004284124,51.31377153401208,43.4045714517748,-0.0001295089750783,0.1108279526233673,0,0,0
4079,168775.1698399101,2011-01-20 12:10:41,1186.120392067152,7,19,-1.0997490882873535,3.4881653785705566,12.595476824621016,12.283699396834464,51.31377153401208,43.43657429149388,-0.0001295089750783,0.1108279526233673,0,0,0
4080,168805.18494888206,2011-01-20 12:11:11,1216.1355010341158,7,19,-1.099568486213684,3.482823133468628,12.595476824621016,12.292866767563916,51.31377153401208,43.46852831912,-0.0001618862152099,0.1108279526233673,0,0,0
4081,168835.200061438,2011-01-20 12:11:41,1246.1506136000494,7,19,-1.099568486213684,3.4771571159362797,12.595476824621016,12.302034096295126,51.31377153401208,43.50043149110375,-0.0001942634553415,0.1108279526233673,0,0,0
4082,168865.21521962763,2011-01-20 12:12:11,1276.165771809741,7,19,-1.0993878841400146,3.4718148708343506,12.595476824621016,12.311201467306288,51.31377153401208,43.532284949849,-0.0001618862152099,0.1108279526233673,0,0,0
4083,168895.23042604746,2011-01-20 12:12:41,1306.1809782095377,7,19,-1.099568486213684,3.466148853302002,12.595476824621016,12.320368831334868,51.31377153401208,43.56408728292647,-0.0001618862152099,0.1108279526233673,0,0,0
4084,168925.24540549162,2011-01-20 12:13:11,1336.195957643666,7,19,-1.0993878841400146,3.4606447219848637,12.595476824621016,12.329536150528922,51.31377153401208,43.59583697626107,-0.0001295089750783,0.1108279526233673,0,0,0
4085,168955.26065066806,2011-01-20 12:13:41,1366.2112028301306,7,19,-1.099568486213684,3.4546549320220947,12.595476824621016,12.33870352180611,51.31377153401208,43.62753427612886,-0.0001295089750783,0.1108279526233673,0,0,0
4086,168985.27563043803,2011-01-20 12:14:11,1396.2261825950827,7,19,-1.0993878841400146,3.449150800704956,12.595476824621016,12.34787083753526,51.31377153401208,43.65917948375832,-0.0001295089750783,0.1108279526233673,0,0,0
4087,169015.2907245179,2011-01-20 12:14:41,1426.2412766899813,7,19,-1.0993878841400146,3.442837238311768,12.595476824621016,12.357038174597802,51.31377153401208,43.6907705295416,-0.0001942634553415,0.1108279526233673,0,0,0
4088,169045.30592475733,2011-01-20 12:15:11,1456.2564769244118,7,19,-1.099568486213684,3.436685562133789,12.595476824621016,12.366205586480628,51.31377153401208,43.72230442042834,-0.0001618862152099,0.1108279526233673,0,0,0
4089,169075.32101199514,2011-01-20 12:15:41,1486.2715641772572,7,19,-1.0993878841400146,3.4305341243743896,12.595476824621016,12.375373002587589,51.31377153401208,43.75378192324122,-0.0001942157687153,0.1108279526233673,0,0,0
4090,169105.33632682016,2011-01-20 12:16:11,1516.2868789822326,7,19,-1.099568486213684,3.424220561981201,12.595476824621016,12.384540446959493,51.31377153401208,43.78520090382489,-9.713172767078504e-05,0.1108279526233673,0,0,0
4091,169135.35125528727,2011-01-20 12:16:41,1546.3018074493352,7,19,-1.099568486213684,3.417259454727173,12.595476824621016,12.393707828598185,51.31377153401208,43.81655849421432,-0.0001618862152099,0.1108279526233673,0,0,0
4092,169165.36635999865,2011-01-20 12:17:11,1576.3169121657054,7,19,-1.099568486213684,3.409812688827514,12.595476824621016,12.402875275783876,51.31377153401208,43.84785159725271,-0.0001942634553415,0.1108279526233673,0,0,0
4093,169195.38135885616,2011-01-20 12:17:41,1606.3319110332675,7,19,-1.0993878841400146,3.4018802642822266,12.595476824621016,12.412042649951726,51.31377153401208,43.87907421116782,-0.0001618862152099,0.1108279526233673,0,0,0
4094,169225.3965680479,2011-01-20 12:18:11,1636.347120209985,7,19,-1.099568486213684,3.3936240673065186,12.595476824621016,12.42120996764549,51.31377153401208,43.91022336033288,-0.0002590179501567,0.1108279526233673,0,0,0
4095,169255.4116568747,2011-01-20 12:18:41,1666.3622090517906,7,19,-1.099568486213684,3.3848822116851807,12.595476824621016,12.430377282975858,51.31377153401208,43.94129502587148,-0.0002590179501567,0.1108279526233673,0,0,0
4096,169285.4269187778,2011-01-20 12:19:11,1696.3774709549184,7,19,-1.099568486213684,3.374683380126953,12.595476824621016,12.439544631669888,51.31377153401208,43.972281202760826,-0.0003561496851034,0.1108279526233673,0,0,0
4097,169315.4418140422,2011-01-20 12:19:41,1726.3923662092443,7,19,-1.099568486213684,3.363675117492676,12.595476824621016,12.448711816944106,51.31377153401208,44.00316806066922,-0.0002913951757363,0.1108279526233673,0,0,0
4098,169345.457026076,2011-01-20 12:20:11,1756.4075782380703,7,19,-1.099568486213684,3.3515336513519287,12.595476824621016,12.45787927083568,51.31377153401208,44.03394964194218,-0.0003561496851034,0.1108279526233673,0,0,0
4099,169375.4721176797,2011-01-20 12:20:41,1786.4226698417594,7,19,-1.0997490882873535,3.338097333908081,12.595476824621016,12.467046640125348,51.31377153401208,44.0646157055547,-0.0003885269106831,0.1108279526233673,0,0,0
4100,169405.48723036592,2011-01-20 12:21:11,1816.4377825279928,7,19,-1.0993878841400146,3.322556257247925,12.595476824621016,12.476214076153594,51.31377153401208,44.09514875146167,-0.0004856586456298,0.1108279526233673,0,0,0
4101,169435.502350215,2011-01-20 12:21:41,1846.4529023720656,7,19,-1.099929690361023,3.303129911422729,12.595476824621016,12.485381459719171,51.31377153401208,44.12552226814727,-0.0005827903514727,0.1108279526233673,0,0,0
4102,169465.51759740646,2011-01-20 12:22:11,1876.4681496036271,7,19,-1.0993878841400146,3.280142068862915,12.595476824621016,12.494548931330062,51.31377153401208,44.15570127315825,-0.0006475448608398,0.1108279526233673,0,0,0
4103,169495.53258864,2011-01-20 12:22:41,1906.4831408221253,7,19,-1.0993878841400146,3.250840902328491,12.595476824621016,12.50371634230294,51.31377153401208,44.18564203382508,-0.0008418083307333,0.1108279526233673,0,0,0
4104,169525.5476900632,2011-01-20 12:23:11,1936.4982422152136,7,19,-1.0997490882873535,3.21393084526062,12.595476824621016,12.512883784695326,51.31377153401208,44.2152833806212,-0.0011655807029455,0.1108279526233673,0,0,0
4105,169555.56280547622,2011-01-20 12:23:41,1966.5133576382675,7,19,-1.099568486213684,3.1663365364074707,12.595476824621016,12.5220511831457,51.31377153401208,44.24453849350914,-0.0014245987404137,0.1108279526233673,0,0,0
4106,169585.5779261022,2011-01-20 12:24:11,1996.528478264289,7,19,-1.099568486213684,3.1014204025268555,12.595476824621016,12.531218631495358,51.31377153401208,44.2732840152607,-0.0019749640487134,0.1108279526233673,0,0,0
4107,169615.59315567478,2011-01-20 12:24:41,2026.5437078368395,7,19,-1.099568486213684,3.0094692707061768,12.595476824621016,12.54038614309496,51.31377153401208,44.30132164473586,-0.0028815746773034,0.1108279526233673,0,0,0
4108,169645.60814112893,2011-01-20 12:25:11,2056.5586932859587,7,19,-1.0993878841400146,2.871218681335449,12.595476824621016,12.54955361043946,51.31377153401208,44.32831998212027,-0.0043061734177172,0.1108279526233673,0,0,0
4109,169672.2639568986,2011-01-20 12:25:38,2083.214509060659,7,19,-1.099568486213684,2.699781894683838,12.595476824621016,12.557694985546618,51.31377153401208,44.35102347339254,-0.0056012151762843,0.1108279526233673,0,0,0
4110,169732.27225937424,2011-01-20 12:26:38,60.01483686457016,8,19,0.0,3.6040754318237305,12.595476824621016,12.557694985546618,51.31377153401208,44.35102347339254,0.0012950897216796,0.1108279526233673,0,0,0
4111,169732.45402541274,2011-01-20 12:26:38,0.187498654338505,9,19,-1.9243103452026844e-05,3.604237318038941,12.595476828322177,12.557694985546618,51.31377154735164,44.35102347339254,3.237724376958795e-05,0.1076892986893653,0,0,0
4112,169737.28205209077,2011-01-20 12:26:43,5.015525317329344,9,19,0.0005225847125984,3.6118459701538086,12.595477659310186,12.557694985713583,51.31377454601886,44.35102347399432,0.0010684489971026,0.1076892986893653,0,0,0
