Data_Point,Test_Time(s),Date_Time,Step_Time(s),Step_Index,Cycle_Index,Current(A),Voltage(V),Charge_Capacity(Ah),Discharge_Capacity(Ah),Charge_Energy(Wh),Discharge_Energy(Wh),dV/dt(V/s),Internal_Resistance(Ohm),Is_FC_Data,AC_Impedance(Ohm),ACI_Phase_Angle(Deg)
7518,315309.7706128507,2011-01-22 04:53:16,30.01524762253617,1,37,0.0,3.6668872833251953,23.09723172936648,23.016342490136644,94.22783711718252,81.038324855029,0.0006475448608398,0.1116369217634201,0,0,0
7519,315339.7879607328,2011-01-22 04:53:46,60.03259548952774,1,37,0.0,3.685342073440552,23.09723172936648,23.016342490136644,94.22783711718252,81.038324855029,0.0003885269106831,0.1116369217634201,0,0,0
7520,315369.80070889083,2011-01-22 04:54:16,90.04534366767945,1,37,0.0,3.698454856872559,23.09723172936648,23.016342490136644,94.22783711718252,81.038324855029,0.0002590179501567,0.1116369217634201,0,0,0
7521,315399.7689374775,2011-01-22 04:54:46,120.01357224929824,1,37,0.0,3.708168029785156,23.09723172936648,23.016342490136644,94.22783711718252,81.038324855029,0.0002266406954731,0.1116369217634201,0,0,0
7522,315429.7847341741,2011-01-22 04:55:17,30.015248625034705,2,37,0.5501165986061096,3.8278017044067374,23.10181898312197,23.016342490136644,94.24531438286655,81.038324855029,0.0006799221155233,0.1116369217634201,0,0,0
7523,315459.79966711736,2011-01-22 04:55:47,60.030181583330766,2,37,0.550297200679779,3.848522901535034,23.1064061392545,23.016342490136644,94.26292403718752,81.038324855029,0.0004856586456298,0.1116369217634201,0,0,0
7524,315489.8148153372,2011-01-22 04:56:17,90.04532980312472,2,37,0.550297200679779,3.862607002258301,23.110993250232227,23.016342490136644,94.28061097052968,81.038324855029,0.0003237724304199,0.1116369217634201,0,0,0
7525,315519.8299165197,2011-01-22 04:56:47,120.0604309856874,2,37,0.5501165986061096,3.873939037322998,23.11558042563613,23.016342490136644,94.298356255089,81.038324855029,0.0002590179501567,0.1116369217634201,0,0,0
7526,315549.8450146546,2011-01-22 04:57:17,150.07552912065458,2,37,0.5501165986061096,3.883652210235596,23.120167571911644,23.016342490136644,94.3161496271632,81.038324855029,0.0002266406954731,0.1116369217634201,0,0,0
7527,315579.8602335406,2011-01-22 04:57:47,180.09074798652026,2,37,0.5501165986061096,3.892232179641724,23.12475470703308,23.016342490136644,94.33398510198928,81.038324855029,0.0001942634553415,0.1116369217634201,0,0,0
7528,315609.8753763218,2011-01-22 04:58:17,210.10589077277217,2,37,0.5501165986061096,3.900164604187012,23.12934180214595,23.016342490136644,94.35185817207694,81.038324855029,0.0001295089750783,0.1116369217634201,0,0,0
7529,315639.8905289276,2011-01-22 04:58:47,240.1210433835097,2,37,0.5501165986061096,3.90761137008667,23.13392894411176,23.016342490136644,94.3697663355648,81.038324855029,0.0002266406954731,0.1116369217634201,0,0,0
7530,315669.9054562568,2011-01-22 04:59:17,270.13597072280146,2,37,0.5497553944587708,3.914410352706909,23.138516073225617,23.016342490136644,94.38770686009198,81.038324855029,0.0001942157687153,0.1116369217634201,0,0,0
7531,315699.92056781525,2011-01-22 04:59:47,300.15108228623643,2,37,0.5499359965324402,3.9207239151000977,23.14310314350588,23.016342490136644,94.40567744875044,81.038324855029,0.0001295089750783,0.1116369217634201,0,0,0
7532,315729.93572713766,2011-01-22 05:00:17,330.1662416688516,2,37,0.5501165986061096,3.927037477493286,23.14769027289693,23.016342490136644,94.4236770389783,81.038324855029,0.0001942634553415,0.1116369217634201,0,0,0
7533,315759.95093448984,2011-01-22 05:00:47,360.18144893580927,2,37,0.5501165986061096,3.9327034950256343,23.152277420545925,23.016342490136644,94.44170428577304,81.038324855029,0.0001295089750783,0.1116369217634201,0,0,0
7534,315789.9659076083,2011-01-22 05:01:17,390.1964220642216,2,37,0.550297200679779,3.938531398773194,23.15686457581194,23.016342490136644,94.4597577783015,81.038324855029,0.0001618862152099,0.1116369217634201,0,0,0
7535,315819.9810752765,2011-01-22 05:01:47,420.2115898076745,2,37,0.5501165986061096,3.943711757659912,23.16145177694071,23.016342490136644,94.47783654107228,81.038324855029,0.0001295089750783,0.1116369217634201,0,0,0
7536,315849.99633547536,2011-01-22 05:02:17,450.2268499313674,2,37,0.5499359965324402,3.948730230331421,23.16603901775905,23.016342490136644,94.49593941579418,81.038324855029,0.0001295089750783,0.1116369217634201,0,0,0
7537,315880.011234033,2011-01-22 05:02:47,480.2417484839138,2,37,0.550297200679779,3.95391058921814,23.17062612137057,23.016342490136644,94.51406461904205,81.038324855029,0.0001618862152099,0.1116369217634201,0,0,0
7538,315910.02631822816,2011-01-22 05:03:17,510.2568326991887,2,37,0.5501165986061096,3.9584434032440186,23.17521328591493,23.016342490136644,94.53221209431308,81.038324855029,9.713172767078504e-05,0.1116369217634201,0,0,0
7539,315940.04143922514,2011-01-22 05:03:47,540.2719537763348,2,37,0.5499359965324402,3.9629762172698975,23.179799992810075,23.016342490136644,94.55037876310054,81.038324855029,0.0001295089750783,0.1116369217634201,0,0,0
7540,315970.05655470834,2011-01-22 05:04:17,570.2870691743268,2,37,0.5501165986061096,3.9673471450805664,23.184386407183386,23.016342490136644,94.56856455833493,81.038324855029,0.0001295089750783,0.1116369217634201,0,0,0
7541,316000.07167315896,2011-01-22 05:04:47,600.3021876299393,2,37,0.5501165986061096,3.971394300460816,23.188973365591117,23.016342490136644,94.5867719936454,81.038324855029,9.713172767078504e-05,0.1116369217634201,0,0,0
7542,316030.08677676256,2011-01-22 05:05:17,630.3172912285233,2,37,0.5501165986061096,3.975441455841065,23.193560560852752,23.016342490136644,94.60499928913477,81.038324855029,9.713172767078504e-05,0.1116369217634201,0,0,0
7543,316060.1019317592,2011-01-22 05:05:47,660.3324462201949,2,37,0.5501165986061096,3.9794886112213135,23.198147844717568,23.016342490136644,94.6232450211338,81.038324855029,9.713172767078504e-05,0.1116369217634201,0,0,0
7544,316090.1170047565,2011-01-22 05:06:17,690.3475192275363,2,37,0.5501165986061096,3.983373880386353,23.20273494626397,23.016342490136644,94.64150802216052,81.038324855029,0.0001295089750783,0.1116369217634201,0,0,0
7545,316120.1322355822,2011-01-22 05:06:47,720.362750048197,2,37,0.550297200679779,3.986935377120972,23.207322024766977,23.016342490136644,94.65978807926858,81.038324855029,6.47544875391759e-05,0.1116369217634201,0,0,0
7546,316150.14723688585,2011-01-22 05:07:17,750.3777513418057,2,37,0.550297200679779,3.990496873855591,23.21190906453918,23.016342490136644,94.67808464184372,81.038324855029,9.713172767078504e-05,0.1116369217634201,0,0,0
7547,316180.1623273717,2011-01-22 05:07:47,780.3928418377341,2,37,0.550297200679779,3.994220018386841,23.216496122893204,23.016342490136644,94.69639760102744,81.038324855029,0.0001294612884521,0.1116369217634201,0,0,0
7548,316210.1774421632,2011-01-22 05:08:17,810.4079566342269,2,37,0.5504778623580933,3.99778151512146,23.22108319640135,23.016342490136644,94.71472680780911,81.038324855029,0.0001295089750783,0.1116369217634201,0,0,0
7549,316240.1926677959,2011-01-22 05:08:47,840.4231822569326,2,37,0.5501165986061096,4.001019477844238,23.225670312723263,23.016342490136644,94.73307185733148,81.038324855029,9.71794142969884e-05,0.1116369217634201,0,0,0
7550,316270.2076843877,2011-01-22 05:09:17,870.438198838644,2,37,0.550297200679779,4.004580974578857,23.23025735141381,23.016342490136644,94.75143222336143,81.038324855029,0.0001619339018361,0.1116369217634201,0,0,0
7551,316300.22290851164,2011-01-22 05:09:47,900.4534229626146,2,37,0.5501165986061096,4.007656574249268,23.2348444422926,23.016342490136644,94.76980836754036,81.038324855029,6.47544875391759e-05,0.1116369217634201,0,0,0
7552,316330.2378819208,2011-01-22 05:10:17,930.4683963917764,2,37,0.550297200679779,4.011218070983887,23.239431519329816,23.016342490136644,94.78819958979962,81.038324855029,9.70840483205393e-05,0.1116369217634201,0,0,0
7553,316360.2531006012,2011-01-22 05:10:47,960.4836150621552,2,37,0.5501165986061096,4.014294147491455,23.24401866987634,23.016342490136644,94.80660617671724,81.038324855029,9.71794142969884e-05,0.1116369217634201,0,0,0
7554,316390.26808055665,2011-01-22 05:11:17,990.4985950276074,2,37,0.550297200679779,4.017531871795654,23.24860572673596,23.016342490136644,94.82502725260046,81.038324855029,9.71794142969884e-05,0.1116369217634201,0,0,0
7555,316420.28320179414,2011-01-22 05:11:47,1020.5137162551282,2,37,0.550297200679779,4.0206074714660645,23.25319282336823,23.016342490136644,94.8434630856422,81.038324855029,3.23295607813634e-05,0.1116369217634201,0,0,0
7556,316450.298309914,2011-01-22 05:12:17,1050.5288243850057,2,37,0.550297200679779,4.023845195770264,23.257779840592,23.016342490136644,94.86191316786446,81.038324855029,9.70840483205393e-05,0.1116369217634201,0,0,0
7557,316480.3136539719,2011-01-22 05:12:47,1080.544168417826,2,37,0.5501165986061096,4.026921272277832,23.26236692527592,23.016342490136644,94.88037773931892,81.038324855029,9.71794142969884e-05,0.1116369217634201,0,0,0
7558,316510.32852061995,2011-01-22 05:13:17,1110.559035090919,2,37,0.550297200679779,4.029996871948242,23.266953990933025,23.016342490136644,94.89885626284531,81.038324855029,0.0001295089750783,0.1116369217634201,0,0,0
7559,316540.34363038884,2011-01-22 05:13:47,1140.5741448598817,2,37,0.5501165986061096,4.0330729484558105,23.27154105837324,23.016342490136644,94.91734879576522,81.038324855029,9.71794142969884e-05,0.1116369217634201,0,0,0
7560,316570.3587535262,2011-01-22 05:14:17,1170.5892679871372,2,37,0.550297200679779,4.035986423492432,23.27612812765423,23.016342490136644,94.93585535788662,81.038324855029,9.70840483205393e-05,0.1116369217634201,0,0,0
7561,316600.37397208624,2011-01-22 05:14:47,1200.604486552253,2,37,0.550297200679779,4.0390625,23.280715229546537,23.016342490136644,94.95437595307736,81.038324855029,9.71794142969884e-05,0.1116369217634201,0,0,0
7562,316630.38895662315,2011-01-22 05:15:17,1230.6194710941115,2,37,0.5501165986061096,4.041976451873779,23.285302290727145,23.016342490136644,94.9729101217172,81.038324855029,6.47544875391759e-05,0.1116369217634201,0,0,0
7563,316660.404061956,2011-01-22 05:15:47,1260.634576427018,2,37,0.5499359965324402,4.0450520515441895,23.289889408651785,23.016342490136644,94.9914582694366,81.038324855029,9.70840483205393e-05,0.1116369217634201,0,0,0
7564,316690.4191895093,2011-01-22 05:16:17,1290.6497039803048,2,37,0.550297200679779,4.048128128051758,23.294476495870917,23.016342490136644,95.01001992337709,81.038324855029,9.71794142969884e-05,0.1116369217634201,0,0,0
7565,316720.43429716805,2011-01-22 05:16:47,1320.664811628983,2,37,0.550297200679779,4.051042079925537,23.299063586994578,23.016342490136644,95.02859511891428,81.038324855029,0.0001295089750783,0.1116369217634201,0,0,0
7566,316750.449381684,2011-01-22 05:17:17,1350.6798961550326,2,37,0.5501165986061096,4.053956031799316,23.30365069046165,23.016342490136644,95.0471838597844,81.038324855029,9.71794142969884e-05,0.1116369217634201,0,0,0
7567,316780.4646281186,2011-01-22 05:17:47,1380.695142569558,2,37,0.550297200679779,4.056869983673096,23.30823785766115,23.016342490136644,95.06578631872732,81.038324855029,9.71794142969884e-05,0.1116369217634201,0,0,0
7568,316810.4819826573,2011-01-22 05:18:17,1410.7124973036643,2,37,0.550297200679779,4.059783935546875,23.31282537175312,23.016342490136644,95.08440373126632,81.038324855029,9.71794142969884e-05,0.1116369217634201,0,0,0
7569,316840.4948479874,2011-01-22 05:18:47,1440.725362438308,2,37,0.5501165986061096,4.062697887420654,23.31741216347508,23.016342490136644,95.10303133590902,81.038324855029,0.0001295089750783,0.1116369217634201,0,0,0
7570,316870.5098192762,2011-01-22 05:19:17,1470.7403337421729,2,37,0.550297200679779,4.065611839294434,23.321999222078137,23.016342490136644,95.121673608578,81.038324855029,9.71794142969884e-05,0.1116369217634201,0,0,0
7571,316900.5250908835,2011-01-22 05:19:47,1500.7556054146487,2,37,0.5499359965324402,4.068525791168213,23.32658634205261,23.016342490136644,95.14032957764051,81.038324855029,6.47544875391759e-05,0.1116369217634201,0,0,0
7572,316930.5400645633,2011-01-22 05:20:17,1530.7705790242603,2,37,0.5501165986061096,4.071277618408203,23.33117340230084,23.016342490136644,95.15899882935544,81.038324855029,3.23295607813634e-05,0.1116369217634201,0,0,0
7573,316960.55515921954,2011-01-22 05:20:47,1560.78567368557,2,37,0.5501165986061096,4.074515342712402,23.33576044830751,23.016342490136644,95.17768150487576,81.038324855029,9.70840483205393e-05,0.1116369217634201,0,0,0
7574,316990.5702615099,2011-01-22 05:21:17,1590.8007760611065,2,37,0.550297200679779,4.077429294586182,23.340347535421756,23.016342490136644,95.19637790864913,81.038324855029,9.70840483205393e-05,0.1116369217634201,0,0,0
7575,317020.58536775503,2011-01-22 05:21:47,1620.8158822260864,2,37,0.550297200679779,4.08050537109375,23.344934578736225,23.016342490136644,95.21508771540203,81.038324855029,9.71794142969884e-05,0.1116369217634201,0,0,0
7576,317050.6005761348,2011-01-22 05:22:17,1650.8310906860174,2,37,0.5501165986061096,4.08325719833374,23.349521677097,23.016342490136644,95.23381153262284,81.038324855029,3.23295607813634e-05,0.1116369217634201,0,0,0
7577,317080.6155833081,2011-01-22 05:22:47,1680.8460977740676,2,37,0.5501165986061096,4.086333274841309,23.354108729005173,23.016342490136644,95.2525489993128,81.038324855029,6.47544875391759e-05,0.1116369217634201,0,0,0
7578,317110.63142436463,2011-01-22 05:23:17,1710.8619390110737,2,37,0.5501165986061096,4.089408874511719,23.358695902608204,23.016342490136644,95.27130082563848,81.038324855029,9.70840483205393e-05,0.1116369217634201,0,0,0
7579,317140.6325031741,2011-01-22 05:23:47,1740.863017715306,2,37,0.5504778623580933,4.092484951019287,23.36328082789685,23.016342490136644,95.29005730697126,81.038324855029,0.0001295089750783,0.1116369217634201,0,0,0
7580,317170.64529812883,2011-01-22 05:24:17,1770.8758125898394,2,37,0.5499359965324402,4.095398902893066,23.367867462520337,23.016342490136644,95.30883474590236,81.038324855029,6.47544875391759e-05,0.1116369217634201,0,0,0
7581,317200.660410344,2011-01-22 05:24:47,1800.8909248048983,2,37,0.550297200679779,4.098636627197266,23.372454466882523,23.016342490136644,95.32762774819668,81.038324855029,0.0001295089750783,0.1116369217634201,0,0,0
7582,317230.675627686,2011-01-22 05:25:17,1830.906142126916,2,37,0.5501165986061096,4.101550579071045,23.37704157240797,23.016342490136644,95.34643543099406,81.038324855029,6.47544875391759e-05,0.1116369217634201,0,0,0
7583,317260.6906290348,2011-01-22 05:25:47,1860.9211435007248,2,37,0.5499359965324402,4.104788303375244,23.38162867087468,23.016342490136644,95.36525733774997,81.038324855029,9.71794142969884e-05,0.1116369217634201,0,0,0
7584,317290.7057275907,2011-01-22 05:26:17,1890.936242056741,2,37,0.5501165986061096,4.107863903045654,23.386215786953507,23.016342490136644,95.38409379560296,81.038324855029,9.70840483205393e-05,0.1116369217634201,0,0,0
7585,317320.7208544523,2011-01-22 05:26:48,1920.951368988479,2,37,0.5501165986061096,4.1111016273498535,23.390802893144965,23.016342490136644,95.40294473032898,81.038324855029,6.47544875391759e-05,0.1116369217634201,0,0,0
7586,317350.7359316751,2011-01-22 05:27:18,1950.9664461361392,2,37,0.5501165986061096,4.114339351654053,23.39538999638181,23.016342490136644,95.42181018552466,81.038324855029,9.70840483205393e-05,0.1116369217634201,0,0,0
7587,317380.75103874743,2011-01-22 05:27:48,1980.9815532133928,2,37,0.550297200679779,4.117577075958252,23.39997707231075,23.016342490136644,95.44069020073906,81.038324855029,6.47544875391759e-05,0.1116369217634201,0,0,0
7588,317410.7661577594,2011-01-22 05:28:18,2010.996672230405,2,37,0.550297200679779,4.120976448059082,23.40456413269327,23.016342490136644,95.4595849422258,81.038324855029,0.0001295089750783,0.1116369217634201,0,0,0
7589,317440.78128945804,2011-01-22 05:28:48,2041.011803918998,2,37,0.550297200679779,4.12405252456665,23.409151259394488,23.016342490136644,95.47849473551544,81.038324855029,9.71794142969884e-05,0.1116369217634201,0,0,0
7590,317470.7965158126,2011-01-22 05:29:18,2071.027030263502,2,37,0.5499359965324402,4.1271281242370605,23.413738362754017,23.016342490136644,95.49741928616578,81.038324855029,6.47544875391759e-05,0.1116369217634201,0,0,0
7591,317500.8114806303,2011-01-22 05:29:48,2101.04199509624,2,37,0.5501165986061096,4.130527973175049,23.418325372216444,23.016342490136644,95.51635851147728,81.038324855029,9.71794142969884e-05,0.1116369217634201,0,0,0
7592,317530.82659671496,2011-01-22 05:30:18,2131.0571111709182,2,37,0.5499359965324402,4.133603572845459,23.42291252844493,23.016342490136644,95.53531358503749,81.038324855029,3.23295607813634e-05,0.1116369217634201,0,0,0
7593,317560.8418488989,2011-01-22 05:30:48,2161.0723633548228,2,37,0.550297200679779,4.137327194213867,23.42749968210199,23.016342490136644,95.55428394079088,81.038324855029,9.71794142969884e-05,0.1116369217634201,0,0,0
7594,317590.8569371743,2011-01-22 05:31:18,2191.087451620192,2,37,0.550297200679779,4.140726566314697,23.432086780768007,23.016342490136644,95.573269606958,81.038324855029,0.0001295089750783,0.1116369217634201,0,0,0
7595,317620.8719382072,2011-01-22 05:31:48,2221.1024526481388,2,37,0.550297200679779,4.1441264152526855,23.43667389129156,23.016342490136644,95.59227082314877,81.038324855029,0.0001295089750783,0.1116369217634201,0,0,0
7596,317650.88702470314,2011-01-22 05:32:18,2251.117539159135,2,37,0.550297200679779,4.147687911987305,23.44126095346579,23.016342490136644,95.61128797261117,81.038324855029,9.71794142969884e-05,0.1116369217634201,0,0,0
7597,317680.9021521011,2011-01-22 05:32:48,2281.132666572072,2,37,0.5501165986061096,4.150925636291504,23.44584802409308,23.016342490136644,95.63032108345683,81.038324855029,6.47544875391759e-05,0.1116369217634201,0,0,0
7598,317710.9172392035,2011-01-22 05:33:18,2311.147753664518,2,37,0.550297200679779,4.154648780822754,23.450435169997903,23.016342490136644,95.6493704216832,81.038324855029,0.0001295089750783,0.1116369217634201,0,0,0
7599,317740.9323528572,2011-01-22 05:33:48,2341.1628673231744,2,37,0.5501165986061096,4.158048629760742,23.455022233405018,23.016342490136644,95.66843541288162,81.038324855029,9.71794142969884e-05,0.1116369217634201,0,0,0
7600,317770.94745676155,2011-01-22 05:34:18,2371.177971227521,2,37,0.550297200679779,4.161610126495361,23.45960933030378,23.016342490136644,95.68751677449006,81.038324855029,9.71794142969884e-05,0.1116369217634201,0,0,0
7601,317800.9627782031,2011-01-22 05:34:48,2401.193292664024,2,37,0.5501165986061096,4.1651716232299805,23.46419645581506,23.016342490136644,95.70661444961468,81.038324855029,9.71794142969884e-05,0.1116369217634201,0,0,0
7602,317830.9776760138,2011-01-22 05:35:18,2431.208190479734,2,37,0.550297200679779,4.1687331199646,23.468783512411136,23.016342490136644,95.72572821090168,81.038324855029,0.0001295089750783,0.1116369217634201,0,0,0
7603,317860.99277889554,2011-01-22 05:35:48,2461.223293351507,2,37,0.550297200679779,4.17245626449585,23.47337063955872,23.016342490136644,95.7448587196905,81.038324855029,0.0001295089750783,0.1116369217634201,0,0,0
7604,317891.0079061431,2011-01-22 05:36:18,2491.2384206090564,2,37,0.550297200679779,4.176017761230469,23.477957732759062,23.016342490136644,95.76400575473556,81.038324855029,0.0001295089750783,0.1116369217634201,0,0,0
7605,317921.0230258267,2011-01-22 05:36:48,2521.253540287717,2,37,0.5501165986061096,4.179579257965088,23.48254480147653,23.016342490136644,95.78316946365452,81.038324855029,9.70840483205393e-05,0.1116369217634201,0,0,0
7606,317951.0381460718,2011-01-22 05:37:18,2551.268660532789,2,37,0.550297200679779,4.183464527130127,23.48713191209671,23.016342490136644,95.8023502659022,81.038324855029,9.70840483205393e-05,0.1116369217634201,0,0,0
7607,317981.0532135504,2011-01-22 05:37:48,2581.283728016364,2,37,0.550297200679779,4.187188148498535,23.49171903252386,23.016342490136644,95.82154805129814,81.038324855029,0.0001619339018361,0.1116369217634201,0,0,0
7608,318011.0683236852,2011-01-22 05:38:18,2611.2988381412138,2,37,0.5501165986061096,4.190749645233154,23.496306179135168,23.016342490136644,95.84076300465266,81.038324855029,0.0001295089750783,0.1116369217634201,0,0,0
7609,318041.08344184014,2011-01-22 05:38:48,2641.313956311113,2,37,0.550297200679779,4.194634914398193,23.50089325892895,23.016342490136644,95.8599949387631,81.038324855029,0.0001295089750783,0.1116369217634201,0,0,0
7610,318071.0985419901,2011-01-22 05:39:18,2671.3290564560903,2,37,0.550297200679779,4.198358058929443,23.505480411186785,23.016342490136644,95.87924452824304,81.038324855029,0.0001295089750783,0.1116369217634201,0,0,0
7611,318084.1608395999,2011-01-22 05:39:31,2684.3913540659023,2,37,0.550297200679779,4.200138568878174,23.507476657849743,23.016342490136644,95.8876270952069,81.038324855029,0.0001618385285837,0.1116369217634201,0,0,0
7612,318114.19158797944,2011-01-22 05:40:01,30.015308935346557,3,37,0.0,4.089408874511719,23.507476657849743,23.016342490136644,95.8876270952069,81.038324855029,-0.0004857063177041,0.1116369217634201,0,0,0
7613,318144.2064732489,2011-01-22 05:40:31,60.0301942148123,3,37,0.0,4.075162887573242,23.507476657849743,23.016342490136644,95.8876270952069,81.038324855029,-0.0002914428769145,0.1116369217634201,0,0,0
7614,318174.22157998534,2011-01-22 05:41:01,90.04530094620438,3,37,0.0,4.0657734870910645,23.507476657849743,23.016342490136644,95.8876270952069,81.038324855029,-0.0002914428769145,0.1116369217634201,0,0,0
7615,318204.1901573913,2011-01-22 05:41:31,120.0138783371634,3,37,0.0,4.059783935546875,23.507476657849743,23.016342490136644,95.8876270952069,81.038324855029,-0.0001618385285837,0.1116369217634201,0,0,0
7616,318204.2049329997,2011-01-22 05:41:31,0.028844008143373,4,37,1.0153660774230957,4.199976921081543,23.50748482239883,23.016342490136644,95.88766138612463,81.038324855029,0.0,0.1116369217634201,0,0,0
7617,318205.03316920914,2011-01-22 05:41:32,0.857080207594312,4,37,0.9651567339897156,4.199814796447754,23.50771116007348,23.016342490136644,95.88861196354712,81.038324855029,-3.24249267578125e-05,0.1116369217634201,0,0,0
7618,318207.0798828493,2011-01-22 05:41:34,2.903793867793578,4,37,0.9149473309516908,4.199976921081543,23.50824445451591,23.016342490136644,95.8908517136529,81.038324855029,0.0,0.1116369217634201,0,0,0
7619,318210.1893435922,2011-01-22 05:41:37,6.013254590672137,4,37,0.8647379875183105,4.199814796447754,23.509011838489823,23.016342490136644,95.89407460756254,81.038324855029,0.0,0.1116369217634201,0,0,0
7620,318214.4392619865,2011-01-22 05:41:42,10.263173000015424,4,37,0.8145285844802856,4.199814796447754,23.51000178272616,23.016342490136644,95.89823223000832,81.038324855029,0.0,0.1116369217634201,0,0,0
7621,318220.09541865933,2011-01-22 05:41:47,15.919329657762423,4,37,0.764499843120575,4.199976921081543,23.511240623843104,23.016342490136644,95.90343518404885,81.038324855029,3.24249267578125e-05,0.1116369217634201,0,0,0
7622,318227.4703134915,2011-01-22 05:41:55,23.29422450491996,4,37,0.7139292359352112,4.199814796447754,23.51275313247779,23.016342490136644,95.909787520814,81.038324855029,0.0,0.1116369217634201,0,0,0
7623,318237.501238884,2011-01-22 05:42:05,33.32514990746167,4,37,0.6635392308235168,4.199653148651123,23.514669387728546,23.016342490136644,95.91783552094408,81.038324855029,-6.47544875391759e-05,0.1116369217634201,0,0,0
7624,318251.53225419635,2011-01-22 05:42:19,47.356165214843145,4,37,0.6135104894638062,4.199814796447754,23.517152242792505,23.016342490136644,95.92826315627843,81.038324855029,0.0,0.1116369217634201,0,0,0
7625,318273.34439227585,2011-01-22 05:42:40,69.16830331942688,4,37,0.5633010864257812,4.199814796447754,23.52070579631871,23.016342490136644,95.94318760068325,81.038324855029,0.0,0.1116369217634201,0,0,0
7626,318313.2186864159,2011-01-22 05:43:20,109.0425974343749,4,37,0.5132723450660706,4.199814796447754,23.526638999783483,23.016342490136644,95.96810620709212,81.038324855029,-3.24249267578125e-05,0.1116369217634201,0,0,0
7627,318392.42049404525,2011-01-22 05:44:40,188.2444051489867,4,37,0.4632435441017151,4.199653148651123,23.537328087193693,23.016342490136644,96.012998889344,81.038324855029,-6.47544875391759e-05,0.1116369217634201,0,0,0
7628,318516.29328203766,2011-01-22 05:46:43,312.1171930561554,4,37,0.413214772939682,4.199814796447754,23.552382343019183,23.016342490136644,96.07622477116662,81.038324855029,0.0,0.1116369217634201,0,0,0
7629,318674.69683967787,2011-01-22 05:49:22,470.5207506913384,4,37,0.3631860017776489,4.199814796447754,23.56944544215817,23.016342490136644,96.14788660912346,81.038324855029,0.0,0.1116369217634201,0,0,0
7630,318865.0060452047,2011-01-22 05:52:32,660.8299562031524,4,37,0.3131572306156158,4.199976921081543,23.58729652365257,23.016342490136644,96.22285878086238,81.038324855029,3.24249267578125e-05,0.1116369217634201,0,0,0
7631,319094.3927175076,2011-01-22 05:56:21,890.2166285210834,4,37,0.2631284594535827,4.199653148651123,23.605620603734693,23.016342490136644,96.29981766739348,81.038324855029,-3.23295607813634e-05,0.1116369217634201,0,0,0
7632,319379.8878279024,2011-01-22 06:01:07,1175.7117389158363,4,37,0.2130997031927108,4.199814796447754,23.624451989636484,23.016342490136644,96.37890714440093,81.038324855029,-3.24249267578125e-05,0.1116369217634201,0,0,0
7633,319750.00658934854,2011-01-22 06:07:17,1545.8305003470186,4,37,0.1628903299570083,4.199653148651123,23.643691274176827,23.016342490136644,96.4597096819068,81.038324855029,-3.23295607813634e-05,0.1116369217634201,0,0,0
7634,320273.79437490064,2011-01-22 06:16:01,2069.6182858940747,4,37,0.1126809492707252,4.199814796447754,23.66355922195321,23.016342490136644,96.54315222974068,81.038324855029,0.0,0.1116369217634201,0,0,0
7635,321190.90356694965,2011-01-22 06:31:18,2986.7274779631543,4,37,0.0626521781086921,4.199976921081543,23.68524589208861,23.016342490136644,96.63423346854329,81.038324855029,3.24249267578125e-05,0.1116369217634201,0,0,0
7636,321594.36541403976,2011-01-22 06:38:02,3390.189325128397,4,37,0.0498289167881011,4.199814796447754,23.6915602945606,23.016342490136644,96.66075313112358,81.038324855029,-3.24249267578125e-05,0.1116369217634201,0,0,0
7637,321624.3782935846,2011-01-22 06:38:32,30.015201287053888,5,37,0.0,4.189454555511475,23.6915602945606,23.016342490136644,96.66075313112358,81.038324855029,-6.47544875391759e-05,0.1116369217634201,0,0,0
7638,321654.377676302,2011-01-22 06:39:02,60.01458399433974,5,37,0.0,4.187673568725586,23.6915602945606,23.016342490136644,96.66075313112358,81.038324855029,-3.24249267578125e-05,0.1116369217634201,0,0,0
7639,321654.5792642431,2011-01-22 06:39:02,0.187221002344304,6,37,-1.9243103452026844e-05,4.187511920928955,23.6915602945606,23.0163424911374,96.66075313112358,81.03832485921967,0.0,0.1140638068318367,0,0,0
7640,321659.4074844685,2011-01-22 06:39:07,5.015441227752245,6,37,0.0005225847125984,4.187511920928955,23.691561463953445,23.01634249130428,96.66075802826438,81.03832485991849,-9.70840483205393e-05,0.1140638068318367,0,0,0
7641,321671.26527935243,2011-01-22 06:39:19,11.843523770396988,7,37,-1.0993878841400146,3.9874210357666016,23.691561463953445,23.019959272600712,96.66075802826438,81.05280704876476,-0.0020073414780199,0.1140638068318367,0,0,0
7642,321701.2805136919,2011-01-22 06:39:49,41.858758114840064,7,37,-1.0993878841400146,3.926713705062866,23.691561463953445,23.02912537631707,96.66075802826438,81.08906713849355,-0.0014893531333655,0.1140638068318367,0,0,0
7643,321731.29573884845,2011-01-22 06:40:19,71.87398334657146,7,37,-1.0993878841400146,3.876852989196777,23.691561463953445,23.03829142209912,96.66075802826438,81.12482467450864,-0.0012303352123126,0.1140638068318367,0,0,0
7644,321761.31060578715,2011-01-22 06:40:49,101.88885021013913,7,37,-1.0993878841400146,3.836867094039917,23.691561463953445,23.047457296245877,96.66075802826438,81.16016941555702,-0.0009389400365762,0.1140638068318367,0,0,0
7645,321791.3259102965,2011-01-22 06:41:19,131.90415471444214,7,37,-1.0993878841400146,3.804975748062134,23.691561463953445,23.056623320061885,96.66075802826438,81.19518779058862,-0.0008418083307333,0.1140638068318367,0,0,0
7646,321821.34081945044,2011-01-22 06:41:49,161.91906386841052,7,37,-1.099568486213684,3.77955961227417,23.691561463953445,23.065789247001188,96.66075802826438,81.2299459236692,-0.0007122993702068,0.1140638068318367,0,0,0
7647,321851.35591848765,2011-01-22 06:42:19,191.93416290562632,7,37,-1.0993878841400146,3.758838176727295,23.691561463953445,23.074955243206286,96.66075802826438,81.26449320090722,-0.0005180359003134,0.1140638068318367,0,0,0
7648,321881.3710393543,2011-01-22 06:42:49,221.94928386247264,7,37,-1.099568486213684,3.7407071590423584,23.691561463953445,23.08412123956743,96.66075802826438,81.2988614556728,-0.0004856586456298,0.1140638068318367,0,0,0
7649,321911.38615634124,2011-01-22 06:43:19,251.96440076421231,7,37,-1.0993878841400146,3.7245185375213614,23.691561463953445,23.093287159337983,96.66075802826438,81.33307261864867,-0.0003885269106831,0.1140638068318367,0,0,0
7650,321941.4012685563,2011-01-22 06:43:49,281.9795129792714,7,37,-1.0993878841400146,3.709786891937256,23.691561463953445,23.102453172872387,96.66075802826438,81.36714271084799,-0.0003885269106831,0.1140638068318367,0,0,0
7651,321971.41636142816,2011-01-22 06:44:19,311.99460585112126,7,37,-1.099568486213684,3.695864677429199,23.691561463953445,23.11161919911056,96.66075802826438,81.4010825725992,-0.0003885269106831,0.1140638068318367,0,0,0
7652,322001.4316383738,2011-01-22 06:44:49,342.0098828969894,7,37,-1.0993878841400146,3.6832375526428223,23.691561463953445,23.120785185634443,96.66075802826438,81.43490066128784,-0.0002913951757363,0.1140638068318367,0,0,0
7653,322031.44657911645,2011-01-22 06:45:19,372.0248235394368,7,37,-1.0993878841400146,3.670934438705444,23.691561463953445,23.129951175292973,96.66075802826438,81.46860378443164,-0.0002913951757363,0.1140638068318367,0,0,0
7654,322061.4616776224,2011-01-22 06:45:49,402.0399220453283,7,37,-1.0993878841400146,3.659116744995117,23.691561463953445,23.139117178519417,96.66075802826438,81.50219710167417,-0.0002913951757363,0.1140638068318367,0,0,0
7655,322091.476782454,2011-01-22 06:46:19,432.0550268769858,7,37,-1.0993878841400146,3.64778470993042,23.691561463953445,23.148283191133316,96.66075802826438,81.53568442983108,-0.0003237724304199,0.1140638068318367,0,0,0
7656,322121.4918948545,2011-01-22 06:46:49,462.0701392775071,7,37,-1.0993878841400146,3.636938333511353,23.691561463953445,23.15744914896202,96.66075802826438,81.56906949481343,-0.0002590179501567,0.1140638068318367,0,0,0
7657,322151.50703066844,2011-01-22 06:47:19,492.0852750863691,7,37,-1.0993878841400146,3.626253843307495,23.691561463953445,23.166615159885488,96.66075802826438,81.60235647148144,-0.0002913951757363,0.1140638068318367,0,0,0
7658,322181.5221165528,2011-01-22 06:47:49,522.1003609758167,7,37,-1.0993878841400146,3.6162168979644775,23.691561463953445,23.175781134479024,96.66075802826438,81.63554808437559,-0.0002266406954731,0.1140638068318367,0,0,0
7659,322211.5372200512,2011-01-22 06:48:19,552.1154644741509,7,37,-1.099568486213684,3.60617995262146,23.691561463953445,23.18494712660481,96.66075802826438,81.66864799611425,-0.0002590179501567,0.1140638068318367,0,0,0
7660,322241.552302467,2011-01-22 06:48:49,582.1305468899411,7,37,-1.099568486213684,3.5964667797088623,23.691561463953445,23.19411304278461,96.66075802826438,81.70165807011898,-0.0002590179501567,0.1140638068318367,0,0,0
7661,322271.5674402959,2011-01-22 06:49:19,612.1456847138253,7,37,-1.0993878841400146,3.587401390075684,23.691561463953445,23.203279037315053,96.66075802826438,81.73458158228514,-0.0001942634553415,0.1140638068318367,0,0,0
7662,322301.58266893605,2011-01-22 06:49:49,642.1609133540517,7,37,-1.0993878841400146,3.578173875808716,23.691561463953445,23.212445221534303,96.66075802826438,81.76742151929633,-0.0002590179501567,0.1140638068318367,0,0,0
7663,322331.59762958845,2011-01-22 06:50:19,672.1758740965946,7,37,-1.0993878841400146,3.569270133972168,23.691561463953445,23.22161116379883,96.66075802826438,81.80017822265957,-0.0002266406954731,0.1140638068318367,0,0,0
7664,322361.6127631066,2011-01-22 06:50:49,702.1910075144976,7,37,-1.0992072820663452,3.56069016456604,23.691561463953445,23.230777155765747,96.66075802826438,81.83285403573434,-0.0001618862152099,0.1140638068318367,0,0,0
7665,322391.62798627315,2011-01-22 06:51:19,732.2062306810823,7,37,-1.0993878841400146,3.552272081375122,23.691561463953445,23.23994320018677,96.66075802826438,81.86545149425332,-0.0001618862152099,0.1140638068318367,0,0,0
7666,322421.6431740064,2011-01-22 06:51:49,762.2214184093433,7,37,-1.099568486213684,3.543692111968994,23.691561463953445,23.249109260210822,96.66075802826438,81.89797258374296,-0.0002590179501567,0.1140638068318367,0,0,0
7667,322451.6580639425,2011-01-22 06:52:19,792.2363083654647,7,37,-1.0993878841400146,3.535921573638916,23.691561463953445,23.258275216418888,96.66075802826438,81.93041952916934,-0.0002266406954731,0.1140638068318367,0,0,0
7668,322481.6731733305,2011-01-22 06:52:49,822.2514177534779,7,37,-1.0992072820663452,3.528312921524048,23.691561463953445,23.267441239597968,96.66075802826438,81.96279485752376,-0.0002266406954731,0.1140638068318367,0,0,0
7669,322511.68832724955,2011-01-22 06:53:19,852.2665716674635,7,37,-1.099568486213684,3.52070426940918,23.691561463953445,23.276607325994405,96.66075802826438,81.99510097546022,-0.0001942634553415,0.1140638068318367,0,0,0
7670,322541.70353639615,2011-01-22 06:53:49,882.2817808191184,7,37,-1.0993878841400146,3.5134193897247314,23.691561463953445,23.28577339633352,96.66075802826438,82.0273392586061,-0.0002590179501567,0.1140638068318367,0,0,0
7671,322571.71852350445,2011-01-22 06:54:19,912.2967679223603,7,37,-1.0993878841400146,3.5064585208892822,23.691561463953445,23.294939426847986,96.66075802826438,82.05951182922857,-0.0001942634553415,0.1140638068318367,0,0,0
7672,322601.73377820454,2011-01-22 06:54:49,942.312022622536,7,37,-1.0993878841400146,3.499659299850464,23.691561463953445,23.30410552552942,96.66075802826438,82.09162163187699,-0.0001942634553415,0.1140638068318367,0,0,0
7673,322631.7487066767,2011-01-22 06:55:19,972.3269510946512,7,37,-1.0993878841400146,3.493183851242065,23.691561463953445,23.31327144779575,96.66075802826438,82.12366963952958,-0.0001618862152099,0.1140638068318367,0,0,0
7674,322661.76380073646,2011-01-22 06:55:49,1002.3420451594744,7,37,-1.0993878841400146,3.486708402633667,23.691561463953445,23.322437407168355,96.66075802826438,82.15565880078859,-0.0001618862152099,0.1140638068318367,0,0,0
7675,322691.77900333685,2011-01-22 06:56:19,1032.357247930226,7,37,-1.0993878841400146,3.4803948402404785,23.691561463953445,23.3316033595168,96.66075802826438,82.18758927070176,-0.0001618862152099,0.1140638068318367,0,0,0
7676,322721.7940562441,2011-01-22 06:56:49,1062.3723007372218,7,37,-1.0993878841400146,3.47391939163208,23.691561463953445,23.34076918893853,96.66075802826438,82.21946087012348,-0.0001942634553415,0.1140638068318367,0,0,0
7677,322751.8114374843,2011-01-22 06:57:19,1092.3896819122274,7,37,-1.0993878841400146,3.4679296016693115,23.691561463953445,23.349935919011248,96.66075802826438,82.2512780524432,-0.0001618862152099,0.1140638068318367,0,0,0
7678,322781.8242696016,2011-01-22 06:57:49,1122.4025140095314,7,37,-1.0993878841400146,3.461616039276123,23.691561463953445,23.359101227733955,96.66075802826438,82.2830339400012,-0.0001618862152099,0.1140638068318367,0,0,0
7679,322811.8393528645,2011-01-22 06:58:19,1152.4175973726828,7,37,-1.0992072820663452,3.4556262493133545,23.691561463953445,23.36826725523337,96.66075802826438,82.31473583486172,-0.0001618862152099,0.1140638068318367,0,0,0
7680,322841.85457478295,2011-01-22 06:58:49,1182.432819190907,7,37,-1.099568486213684,3.449312686920166,23.691561463953445,23.377433320308505,96.66075802826438,82.34638201988733,-0.0001942634553415,0.1140638068318367,0,0,0
7681,322871.86946780176,2011-01-22 06:59:19,1212.4477122246983,7,37,-1.0993878841400146,3.442999124526977,23.691561463953445,23.386599317594666,96.66075802826438,82.37797047867174,-0.0001942634553415,0.1140638068318367,0,0,0
7682,322901.88465037715,2011-01-22 06:59:49,1242.4628947951046,7,37,-1.0993878841400146,3.437009334564209,23.691561463953445,23.395765366410604,96.66075802826438,82.4095013370816,-0.0001295089750783,0.1140638068318367,0,0,0
7683,322931.8997211439,2011-01-22 07:00:19,1272.4779655618618,7,37,-1.0993878841400146,3.43004846572876,23.691561463953445,23.404931406060392,96.66075802826438,82.44097223576212,-0.0001942634553415,0.1140638068318367,0,0,0
7684,322961.9150389914,2011-01-22 07:00:49,1302.4932834144329,7,37,-1.099568486213684,3.4230873584747314,23.691561463953445,23.414097574385256,96.66075802826438,82.47238151824456,-0.0002266406954731,0.1140638068318367,0,0,0
7685,322991.9300424104,2011-01-22 07:01:19,1332.5082868383513,7,37,-1.0993878841400146,3.416288137435913,23.691561463953445,23.42326373703836,96.66075802826438,82.50372694881776,-0.0001942634553415,0.1140638068318367,0,0,0
7686,323021.9452498227,2011-01-22 07:01:49,1362.5234942456584,7,37,-1.0992072820663452,3.409003257751465,23.691561463953445,23.432429863261877,96.66075802826438,82.53500771237498,-0.0001942634553415,0.1140638068318367,0,0,0
7687,323051.9625522364,2011-01-22 07:02:19,1392.5407967395663,7,37,-1.0992072820663452,3.4012327194213867,23.691561463953445,23.441596634289457,96.66075802826438,82.56622226569075,-0.0002266406954731,0.1140638068318367,0,0,0
7688,323081.9753409255,2011-01-22 07:02:49,1422.5535853585088,7,37,-1.0993878841400146,3.393300294876098,23.691561463953445,23.450762023584225,96.66075802826438,82.59736007542357,-0.0002266406954731,0.1140638068318367,0,0,0
7689,323111.9904646894,2011-01-22 07:03:19,1452.5687091173386,7,37,-1.0993878841400146,3.3852059841156006,23.691561463953445,23.459928033543022,96.66075802826438,82.62842646954459,-0.0001942634553415,0.1140638068318367,0,0,0
7690,323142.00555935065,2011-01-22 07:03:49,1482.5838037736355,7,37,-1.0993878841400146,3.3763022422790527,23.691561463953445,23.46909407213127,96.66075802826438,82.65941469425331,-0.0002266406954731,0.1140638068318367,0,0,0
7691,323172.0206674555,2011-01-22 07:04:19,1512.5989118734385,7,37,-1.0993878841400146,3.366912841796875,23.691561463953445,23.478260200865517,96.66075802826438,82.69031995176363,-0.0002590179501567,0.1140638068318367,0,0,0
7692,323202.0357993646,2011-01-22 07:04:49,1542.6140438778186,7,37,-1.0992072820663452,3.3567140102386475,23.691561463953445,23.487426323286176,96.66075802826438,82.72113507418324,-0.0002913951757363,0.1140638068318367,0,0,0
7693,323232.0509323665,2011-01-22 07:05:20,1572.6291768796846,7,37,-1.0992072820663452,3.34522032737732,23.691561463953445,23.49659243825067,96.66075802826438,82.75185045470124,-0.0002913951757363,0.1140638068318367,0,0,0
7694,323262.065993795,2011-01-22 07:05:50,1602.6442382179432,7,37,-1.0993878841400146,3.3325932025909424,23.691561463953445,23.50575855134095,96.66075802826438,82.78245541542577,-0.0003561496851034,0.1140638068318367,0,0,0
7695,323292.0811201854,2011-01-22 07:06:20,1632.6593646083315,7,37,-1.0993878841400146,3.318347215652466,23.691561463953445,23.514924666460196,96.66075802826438,82.81293812628748,-0.0004209041653666,0.1140638068318367,0,0,0
7696,323322.0962073781,2011-01-22 07:06:50,1662.674451801027,7,37,-1.099568486213684,3.3021585941314697,23.691561463953445,23.5240907011979,96.66075802826438,82.84328157033046,-0.0004532813909463,0.1140638068318367,0,0,0
7697,323352.11125983915,2011-01-22 07:07:20,1692.6895042571489,7,37,-1.0993878841400146,3.2830560207366943,23.691561463953445,23.53325672573276,96.66075802826438,82.87346386331434,-0.0005827903514727,0.1140638068318367,0,0,0
7698,323382.1263987859,2011-01-22 07:07:50,1722.704643213856,7,37,-1.0993878841400146,3.260877847671509,23.691561463953445,23.54242284596287,96.66075802826438,82.90345848142825,-0.0006475448608398,0.1140638068318367,0,0,0
7699,323412.14165791706,2011-01-22 07:08:20,1752.7199023250255,7,37,-1.0993878841400146,3.2338428497314453,23.691561463953445,23.55158896817175,96.66075802826438,82.93322814693994,-0.0008418083307333,0.1140638068318367,0,0,0
7700,323442.15666740615,2011-01-22 07:08:50,1782.7349118240843,7,37,-1.0992072820663452,3.2004942893981934,23.691561463953445,23.56075498502203,96.66075802826438,82.96272233708089,-0.0009065627818927,0.1140638068318367,0,0,0
7701,323472.17177663377,2011-01-22 07:09:20,1812.750021066736,7,37,-1.099568486213684,3.1579184532165527,23.691561463953445,23.569921057302288,96.66075802826438,82.99187226940654,-0.0012950897216796,0.1140638068318367,0,0,0
7702,323502.1870093842,2011-01-22 07:09:50,1842.7652537921435,7,37,-1.0993878841400146,3.1006109714508057,23.691561463953445,23.57908728165659,96.66075802826438,83.02056946496496,-0.0017483711708337,0.1140638068318367,0,0,0
7703,323532.2019815552,2011-01-22 07:10:20,1872.7802259631696,7,37,-1.0993878841400146,3.020963191986084,23.691561463953445,23.58825332093502,96.66075802826438,83.04864684650221,-0.0024930001236498,0.1140638068318367,0,0,0
7704,323562.21709004603,2011-01-22 07:10:50,1902.795334463972,7,37,-1.0993878841400146,2.904567241668701,23.691561463953445,23.59741946527592,96.66075802826438,83.07583701839924,-0.0036262511275708,0.1140638068318367,0,0,0
7705,323592.2322091633,2011-01-22 07:11:20,1932.8104535862456,7,37,-1.0993878841400146,2.739605665206909,23.691561463953445,23.60658557617818,96.66075802826438,83.10174341962183,-0.004953718278557,0.1140638068318367,0,0,0
7706,323598.5758415671,2011-01-22 07:11:26,1939.1540859750453,7,37,-1.0992072820663452,2.699943780899048,23.691561463953445,23.60852280657077,96.66075802826438,83.1070125748328,-0.0050508021377027,0.1140638068318367,0,0,0
7707,323658.5912825661,2011-01-22 07:12:26,60.01445343394306,8,37,0.0,3.629815340042114,23.691561463953445,23.60852280657077,96.66075802826438,83.1070125748328,0.0012950897216796,0.1140638068318367,0,0,0
7708,323658.7809294031,2011-01-22 07:12:26,0.187624317529844,9,37,-1.9243103452026844e-05,3.629815340042114,23.691561463953445,23.608522807573685,96.66075802826438,83.10701257847319,0.0,0.1095065325498581,0,0,0
7709,323663.60885576106,2011-01-22 07:12:31,5.015550695579753,9,37,0.0007031940040178,3.6371002197265625,23.69156261497653,23.608522807740226,96.66076221112118,83.10701257907769,0.0010360718006268,0.1095065325498581,0,0,0
