Data_Point,Test_Time(s),Date_Time,Step_Time(s),Step_Index,Cycle_Index,Current(A),Voltage(V),Charge_Capacity(Ah),Discharge_Capacity(Ah),Charge_Energy(Wh),Discharge_Energy(Wh),dV/dt(V/s),Internal_Resistance(Ohm),Is_FC_Data,AC_Impedance(Ohm),ACI_Phase_Angle(Deg)
4939,204503.98357512752,2011-01-20 22:06:15,30.015105378019065,1,24,0.0,3.6536126136779785,15.132593153141013,15.082214124409337,61.66879299924614,53.229326277782725,0.0006799221155233,0.106165811419487,0,0,0
4940,204533.99871064065,2011-01-20 22:06:45,60.03024089615658,1,24,0.0,3.672229528427124,15.132593153141013,15.082214124409337,61.66879299924614,53.229326277782725,0.0003885269106831,0.106165811419487,0,0,0
4941,204564.0139316769,2011-01-20 22:07:15,90.04546192240663,1,24,0.0,3.685665845870972,15.132593153141013,15.082214124409337,61.66879299924614,53.229326277782725,0.0002913951757363,0.106165811419487,0,0,0
4942,204593.9820587556,2011-01-20 22:07:45,120.0135889709738,1,24,0.0,3.695864677429199,15.132593153141013,15.082214124409337,61.66879299924614,53.229326277782725,0.0002590179501567,0.106165811419487,0,0,0
4943,204623.99083650435,2011-01-20 22:08:15,30.014867610429068,2,24,0.5501165986061096,3.816469669342041,15.137180239908506,15.082214124409337,61.68621495997794,53.229326277782725,0.0007446765666827,0.106165811419487,0,0,0
4944,204654.00593346136,2011-01-20 22:08:45,60.02996456746044,2,24,0.5501165986061096,3.837028980255127,15.14176738154744,15.082214124409337,61.703772795415176,53.229326277782725,0.0004209041653666,0.106165811419487,0,0,0
4945,204684.02117422683,2011-01-20 22:09:15,90.04520532789414,2,24,0.550297200679779,3.8511130809783936,15.146354486458492,15.082214124409337,61.7214073089055,53.229326277782725,0.0003561496851034,0.106165811419487,0,0,0
4946,204714.0361683375,2011-01-20 22:09:45,120.06019944361331,2,24,0.5499359965324402,3.861959457397461,15.150941505976014,15.082214124409337,61.73909828846261,53.229326277782725,0.0002266406954731,0.106165811419487,0,0,0
4947,204744.0513987321,2011-01-20 22:10:15,150.07542983319965,2,24,0.5499359965324402,3.8716726303100586,15.155528647518176,15.082214124409337,61.75683709409737,53.229326277782725,0.0002266406954731,0.106165811419487,0,0,0
4948,204774.0663790986,2011-01-20 22:10:45,180.09041021468892,2,24,0.550297200679779,3.8802525997161865,15.160115724982155,15.082214124409337,61.77461709901438,53.229326277782725,0.0001942634553415,0.106165811419487,0,0,0
4949,204804.0815142157,2011-01-20 22:11:15,210.1055453167896,2,24,0.5504778623580933,3.8881850242614746,15.164702812340336,15.082214124409337,61.79243432241181,53.229326277782725,0.0002266406954731,0.106165811419487,0,0,0
4950,204834.0965935288,2011-01-20 22:11:45,240.12062464488417,2,24,0.5501165986061096,3.894984245300293,15.169289908238047,15.082214124409337,61.810285776895945,53.229326277782725,0.0001295089750783,0.106165811419487,0,0,0
4951,204864.11169472136,2011-01-20 22:12:15,270.13572583747185,2,24,0.550297200679779,3.901945352554321,15.173877010523642,15.082214124409337,61.82816873478063,53.229326277782725,0.0001618862152099,0.106165811419487,0,0,0
4952,204894.12684474065,2011-01-20 22:12:45,300.15087584672574,2,24,0.550297200679779,3.9082589149475098,15.17846409226816,15.082214124409337,61.846081357669085,53.229326277782725,0.0001942634553415,0.106165811419487,0,0,0
4953,204924.14209239825,2011-01-20 22:13:15,330.1661235143743,2,24,0.550297200679779,3.914086580276489,15.183051167723937,15.082214124409337,61.86402193553405,53.229326277782725,0.0001294612884521,0.106165811419487,0,0,0
4954,204954.15708056412,2011-01-20 22:13:45,360.1811116852772,2,24,0.550297200679779,3.919914484024048,15.18763828068537,15.082214124409337,61.881989514031005,53.229326277782725,0.0001942634553415,0.106165811419487,0,0,0
4955,204984.1721909998,2011-01-20 22:14:15,390.1962221158888,2,24,0.5499359965324402,3.925256729125977,15.19222543364308,15.082214124409337,61.8999828947933,53.229326277782725,0.0001295089750783,0.106165811419487,0,0,0
4956,205014.1873189892,2011-01-20 22:14:45,420.21135009022487,2,24,0.5501165986061096,3.930598974227905,15.196812558472656,15.082214124409337,61.91800084330624,53.229326277782725,0.0001295089750783,0.106165811419487,0,0,0
4957,205044.2024077608,2011-01-20 22:15:15,450.2264388718807,2,24,0.5504778623580933,3.935779333114624,15.20139965250333,15.082214124409337,61.9360422846737,53.229326277782725,0.0001942634553415,0.106165811419487,0,0,0
4958,205074.21754455208,2011-01-20 22:15:45,480.2415756732164,2,24,0.5501165986061096,3.940312147140503,15.205986814755592,15.082214124409337,61.95410669003689,53.229326277782725,9.713172767078504e-05,0.106165811419487,0,0,0
4959,205104.23275835035,2011-01-20 22:16:15,510.25678944137707,2,24,0.550297200679779,3.9451687335968018,15.210573986189372,15.082214124409337,61.97219280490173,53.229326277782725,0.0001618862152099,0.106165811419487,0,0,0
4960,205134.2477440601,2011-01-20 22:16:45,540.2717751661834,2,24,0.550297200679779,3.949539661407471,15.21516109704254,15.082214124409337,61.99029939271318,53.229326277782725,9.713172767078504e-05,0.106165811419487,0,0,0
4961,205164.2628657237,2011-01-20 22:17:15,570.2868968297911,2,24,0.5501165986061096,3.9537487030029297,15.219748253998882,15.082214124409337,62.00842612308059,53.229326277782725,0.0001295089750783,0.106165811419487,0,0,0
4962,205194.2779802796,2011-01-20 22:17:45,600.3020113856844,2,24,0.550297200679779,3.9577958583831783,15.224335370849142,15.082214124409337,62.02657185450258,53.229326277782725,6.47544875391759e-05,0.106165811419487,0,0,0
4963,205224.29331403185,2011-01-20 22:18:15,630.3173451278572,2,24,0.5501165986061096,3.961843013763428,15.228922544111954,15.082214124409337,62.04473609373972,53.229326277782725,0.0001295089750783,0.106165811419487,0,0,0
4964,205254.30819285012,2011-01-20 22:18:45,660.3322239462198,2,24,0.5501165986061096,3.965404510498047,15.233509656289804,15.082214124409337,62.06291764199855,53.229326277782725,6.47544875391759e-05,0.106165811419487,0,0,0
4965,205284.32330314544,2011-01-20 22:19:15,690.3473342264567,2,24,0.550297200679779,3.969289779663086,15.238096828877651,15.082214124409337,62.08111641827744,53.229326277782725,0.0001295089750783,0.106165811419487,0,0,0
4966,205314.33858629657,2011-01-20 22:19:45,720.3626173975908,2,24,0.550297200679779,3.972851276397705,15.242683939430782,15.082214124409337,62.099331503581965,53.229326277782725,9.713172767078504e-05,0.106165811419487,0,0,0
4967,205344.3536520959,2011-01-20 22:20:15,750.3776831969678,2,24,0.550297200679779,3.976250886917114,15.247271109012749,15.082214124409337,62.11756301424169,53.229326277782725,9.713172767078504e-05,0.106165811419487,0,0,0
4968,205374.3686638155,2011-01-20 22:20:45,780.3926949115488,2,24,0.550297200679779,3.979650497436523,15.251858319452593,15.082214124409337,62.13581029466394,53.229326277782725,9.713172767078504e-05,0.106165811419487,0,0,0
4969,205404.3837632136,2011-01-20 22:21:15,810.4077943196892,2,24,0.550297200679779,3.9830501079559326,15.256445438393438,15.082214124409337,62.15407291343092,53.229326277782725,0.0001295089750783,0.106165811419487,0,0,0
4970,205434.3988979197,2011-01-20 22:21:45,840.4229290258028,2,24,0.550297200679779,3.986287832260132,15.26103254934708,15.082214124409337,62.17235060487241,53.229326277782725,0.0001295089750783,0.106165811419487,0,0,0
4971,205464.41411629936,2011-01-20 22:22:15,870.438147420494,2,24,0.550297200679779,3.989363670349121,15.265619655521824,15.082214124409337,62.19064312522969,53.229326277782725,6.47544875391759e-05,0.106165811419487,0,0,0
4972,205494.42908229,2011-01-20 22:22:45,900.4531133960795,2,24,0.5501165986061096,3.9924395084381104,15.270206702315804,15.082214124409337,62.20895006961469,53.229326277782725,6.47544875391759e-05,0.106165811419487,0,0,0
4973,205524.44418739737,2011-01-20 22:23:15,930.468218503424,2,24,0.5501165986061096,3.995838880538941,15.274793825460865,15.082214124409337,62.22727183989354,53.229326277782725,9.713172767078504e-05,0.106165811419487,0,0,0
4974,205554.46180310188,2011-01-20 22:23:45,960.4858342129614,2,24,0.5501165986061096,3.9989147186279297,15.279381350152557,15.082214124409337,62.24560957016933,53.229326277782725,9.713172767078504e-05,0.106165811419487,0,0,0
4975,205584.474462599,2011-01-20 22:24:15,990.4984936900428,2,24,0.5501165986061096,4.001990795135498,15.283968052591367,15.082214124409337,62.2639581124739,53.229326277782725,0.0001295089750783,0.106165811419487,0,0,0
4976,205614.4895266089,2011-01-20 22:24:45,1020.5135577250225,2,24,0.550297200679779,4.004742622375488,15.288555124348374,15.082214124409337,62.28232211979008,53.229326277782725,3.23295607813634e-05,0.106165811419487,0,0,0
4977,205644.50480794045,2011-01-20 22:25:15,1050.5288391217343,2,24,0.550297200679779,4.007980346679688,15.293142202776297,15.082214124409337,62.300699901590846,53.229326277782725,9.70840483205393e-05,0.106165811419487,0,0,0
4978,205674.5196843378,2011-01-20 22:25:45,1080.543715428838,2,24,0.5501165986061096,4.010894298553467,15.297729257058718,15.082214124409337,62.3190911792815,53.229326277782725,9.70840483205393e-05,0.106165811419487,0,0,0
4979,205704.5349432284,2011-01-20 22:26:15,1110.5589743395078,2,24,0.550297200679779,4.013970375061035,15.302316350538796,15.082214124409337,62.33749618211124,53.229326277782725,9.71794142969884e-05,0.106165811419487,0,0,0
4980,205734.5499129834,2011-01-20 22:26:45,1140.5739440895,2,24,0.550297200679779,4.016722202301025,15.30690349661634,15.082214124409337,62.35591474672968,53.229326277782725,9.70840483205393e-05,0.106165811419487,0,0,0
4981,205764.56515767868,2011-01-20 22:27:15,1170.5891887897533,2,24,0.5499359965324402,4.019312381744385,15.311490712582929,15.082214124409337,62.37434683334515,53.229326277782725,3.23295607813634e-05,0.106165811419487,0,0,0
4982,205794.58009197027,2011-01-20 22:27:45,1200.6041230863846,2,24,0.550297200679779,4.022550106048584,15.31607771822732,15.082214124409337,62.39279108419911,53.229326277782725,0.0001295089750783,0.106165811419487,0,0,0
4983,205824.59526028013,2011-01-20 22:28:15,1230.6192913711868,2,24,0.550297200679779,4.025302410125732,15.320664879207872,15.082214124409337,62.411248983724064,53.229326277782725,9.71794142969884e-05,0.106165811419487,0,0,0
4984,205854.61263748023,2011-01-20 22:28:45,1260.6366686665226,2,24,0.5501165986061096,4.028054237365723,15.325252367256232,15.082214124409337,62.42972105882672,53.229326277782725,9.70840483205393e-05,0.106165811419487,0,0,0
4985,205884.6254945949,2011-01-20 22:29:15,1290.6495256859405,2,24,0.550297200679779,4.030968189239502,15.329839195812864,15.082214124409337,62.44820320999558,53.229326277782725,0.0001295089750783,0.106165811419487,0,0,0
4986,205914.6406160129,2011-01-20 22:29:45,1320.6646471189736,2,24,0.5501165986061096,4.033558368682861,15.334426280313265,15.082214124409337,62.466699127776536,53.229326277782725,9.70840483205393e-05,0.106165811419487,0,0,0
4987,205944.65570804264,2011-01-20 22:30:15,1350.6797391386997,2,24,0.5501165986061096,4.036310195922852,15.339013469936742,15.082214124409337,62.48520830431406,53.229326277782725,9.70840483205393e-05,0.106165811419487,0,0,0
4988,205974.67081937552,2011-01-20 22:30:45,1380.69485047156,2,24,0.5501165986061096,4.0390625,15.343600642459064,15.082214124409337,62.50373013170845,53.229326277782725,6.47544875391759e-05,0.106165811419487,0,0,0
4989,206004.68592548533,2011-01-20 22:31:15,1410.7099565964404,2,24,0.550297200679779,4.041976451873779,15.348187819759143,15.082214124409337,62.5222645606521,53.229326277782725,9.71794142969884e-05,0.106165811419487,0,0,0
4990,206034.70105057248,2011-01-20 22:31:46,1440.7250816685432,2,24,0.550297200679779,4.0447282791137695,15.352775011097227,15.082214124409337,62.54081170591909,53.229326277782725,9.70840483205393e-05,0.106165811419487,0,0,0
4991,206064.7162534285,2011-01-20 22:32:16,1470.7402846297696,2,24,0.5501165986061096,4.047480583190918,15.357362188109326,15.082214124409337,62.55937135875681,53.229326277782725,6.47544875391759e-05,0.106165811419487,0,0,0
4992,206094.731263529,2011-01-20 22:32:46,1500.7552946350904,2,24,0.5501165986061096,4.050232410430908,15.361949386031904,15.082214124409337,62.57794380846282,53.229326277782725,9.70840483205393e-05,0.106165811419487,0,0,0
4993,206124.74638202472,2011-01-20 22:33:16,1530.7704131358155,2,24,0.550297200679779,4.052822589874268,15.366536610307218,15.082214124409337,62.59652899378883,53.229326277782725,6.47544875391759e-05,0.106165811419487,0,0,0
4994,206154.76149572348,2011-01-20 22:33:46,1560.7855268345725,2,24,0.5499359965324402,4.055736541748047,15.371123793991258,15.082214124409337,62.61512672318119,53.229326277782725,9.70840483205393e-05,0.106165811419487,0,0,0
4995,206184.7766014574,2011-01-20 22:34:16,1590.8006325734907,2,24,0.550297200679779,4.058488845825195,15.375711006368642,15.082214124409337,62.6337372855745,53.229326277782725,6.47544875391759e-05,0.106165811419487,0,0,0
4996,206214.791706675,2011-01-20 22:34:46,1620.815737781085,2,24,0.5501165986061096,4.0612406730651855,15.380298215154324,15.082214124409337,62.652360466504064,53.229326277782725,0.0001295089750783,0.106165811419487,0,0,0
4997,206244.8068194264,2011-01-20 22:35:16,1650.8308505174434,2,24,0.550297200679779,4.063992977142334,15.384885335112786,15.082214124409337,62.67099588654614,53.229326277782725,6.47544875391759e-05,0.106165811419487,0,0,0
4998,206274.82196309988,2011-01-20 22:35:46,1680.8459942109566,2,24,0.5501165986061096,4.066583156585693,15.389472491499513,15.082214124409337,62.689644283781874,53.229326277782725,3.24249267578125e-05,0.106165811419487,0,0,0
4999,206304.83719461225,2011-01-20 22:36:16,1710.8612258035407,2,24,0.5504778623580933,4.069658756256104,15.394059666386148,15.082214124409337,62.70830557863342,53.229326277782725,9.70840483205393e-05,0.106165811419487,0,0,0
5000,206334.8521541067,2011-01-20 22:36:46,1740.876185212761,2,24,0.550297200679779,4.072572708129883,15.398646933543269,15.082214124409337,62.72698011964776,53.229326277782725,9.70840483205393e-05,0.106165811419487,0,0,0
5001,206364.86725899347,2011-01-20 22:37:16,1770.8912900945431,2,24,0.5501165986061096,4.075162887573242,15.403234031730513,15.082214124409337,62.74566689091368,53.229326277782725,9.70840483205393e-05,0.106165811419487,0,0,0
5002,206394.88240684732,2011-01-20 22:37:46,1800.906437953438,2,24,0.5501165986061096,4.0780768394470215,15.407821150575469,15.082214124409337,62.76436677398885,53.229326277782725,9.70840483205393e-05,0.106165811419487,0,0,0
5003,206424.8974816542,2011-01-20 22:38:16,1830.9215127702887,2,24,0.550297200679779,4.080990791320801,15.412408366246124,15.082214124409337,62.78308018637807,53.229326277782725,6.47544875391759e-05,0.106165811419487,0,0,0
5004,206454.91261157332,2011-01-20 22:38:46,1860.9366426894724,2,24,0.5504778623580933,4.083743095397949,15.416995479713451,15.082214124409337,62.80180623853573,53.229326277782725,9.71794142969884e-05,0.106165811419487,0,0,0
5005,206484.92772885103,2011-01-20 22:39:16,1890.951759957124,2,24,0.5501165986061096,4.0866570472717285,15.4215825812277,15.082214124409337,62.820545549840446,53.229326277782725,6.47544875391759e-05,0.106165811419487,0,0,0
5006,206514.94304166103,2011-01-20 22:39:46,1920.967072782165,2,24,0.550297200679779,4.089570999145508,15.426169774332667,15.082214124409337,62.83929858888974,53.229326277782725,6.47544875391759e-05,0.106165811419487,0,0,0
5007,206544.9579764439,2011-01-20 22:40:16,1950.9820075599955,2,24,0.5501165986061096,4.092646598815918,15.43075698910036,15.082214124409337,62.85806513629354,53.229326277782725,9.70840483205393e-05,0.106165811419487,0,0,0
5008,206574.9730647243,2011-01-20 22:40:46,1980.9970958303768,2,24,0.550297200679779,4.095398902893066,15.43534414618068,15.082214124409337,62.87684496064894,53.229326277782725,6.47544875391759e-05,0.106165811419487,0,0,0
5009,206604.98828368532,2011-01-20 22:41:16,2011.0123147714305,2,24,0.550297200679779,4.098474502563477,15.43993133772946,15.082214124409337,62.895638513001785,53.229326277782725,6.47544875391759e-05,0.106165811419487,0,0,0
5010,206635.00328512932,2011-01-20 22:41:46,2041.0273162204264,2,24,0.550297200679779,4.101550579071045,15.444518542075604,15.082214124409337,62.91444595607933,53.229326277782725,6.47544875391759e-05,0.106165811419487,0,0,0
5011,206665.0183807531,2011-01-20 22:42:16,2071.042411869197,2,24,0.550297200679779,4.104626178741455,15.449105719842567,15.082214124409337,62.93326708754468,53.229326277782725,0.0001295089750783,0.106165811419487,0,0,0
5012,206695.03351137904,2011-01-20 22:42:46,2101.0575424851168,2,24,0.5499359965324402,4.107540130615234,15.45369269440055,15.082214124409337,62.95210129267059,53.229326277782725,0.0001295089750783,0.106165811419487,0,0,0
5013,206725.04860075217,2011-01-20 22:43:16,2131.072631858247,2,24,0.5501165986061096,4.110616207122803,15.458279218895065,15.082214124409337,62.97094757641542,53.229326277782725,6.47544875391759e-05,0.106165811419487,0,0,0
5014,206755.0637470472,2011-01-20 22:43:46,2161.087778153244,2,24,0.550297200679779,4.113691806793213,15.462865810832987,15.082214124409337,62.98980827910609,53.229326277782725,6.47544875391759e-05,0.106165811419487,0,0,0
5015,206785.07884852547,2011-01-20 22:44:16,2191.102879631543,2,24,0.5499359965324402,4.116767406463623,15.467453016328127,15.082214124409337,63.00868594694124,53.229326277782725,6.47544875391759e-05,0.106165811419487,0,0,0
5016,206815.09395909644,2011-01-20 22:44:46,2221.1179902025046,2,24,0.5501165986061096,4.120005130767822,15.472040256926196,15.082214124409337,63.02757819869765,53.229326277782725,6.47544875391759e-05,0.106165811419487,0,0,0
5017,206845.10919566132,2011-01-20 22:45:16,2251.1332267724947,2,24,0.550297200679779,4.1232428550720215,15.476627518861193,15.082214124409337,63.04648508811104,53.229326277782725,0.0001295089750783,0.106165811419487,0,0,0
5018,206875.1241866443,2011-01-20 22:45:46,2281.148217740368,2,24,0.550297200679779,4.126480579376221,15.481214705168114,15.082214124409337,63.06540640628289,53.229326277782725,6.47544875391759e-05,0.106165811419487,0,0,0
5019,206905.13931310485,2011-01-20 22:46:16,2311.163344205944,2,24,0.5501165986061096,4.12971830368042,15.485801873299428,15.082214124409337,63.08434257396589,53.229326277782725,6.47544875391759e-05,0.106165811419487,0,0,0
5020,206935.15453195068,2011-01-20 22:46:46,2341.1785630467475,2,24,0.550297200679779,4.132956027984619,15.490389124103274,15.082214124409337,63.10329415279866,53.229326277782725,6.47544875391759e-05,0.106165811419487,0,0,0
5021,206965.1695145828,2011-01-20 22:47:16,2371.193545688871,2,24,0.5504778623580933,4.136517524719238,15.494976329919329,15.082214124409337,63.12226064007698,53.229326277782725,0.0001618385285837,0.106165811419487,0,0,0
5022,206995.18461765003,2011-01-20 22:47:46,2401.2086487561305,2,24,0.5501165986061096,4.1397552490234375,15.499563582724296,15.082214124409337,63.14124268146156,53.229326277782725,0.0001295089750783,0.106165811419487,0,0,0
5023,207025.19983819008,2011-01-20 22:48:16,2431.2238692911565,2,24,0.5501165986061096,4.143155097961426,15.504150870497725,15.082214124409337,63.16024035999393,53.229326277782725,9.71794142969884e-05,0.106165811419487,0,0,0
5024,207055.21483809524,2011-01-20 22:48:46,2461.238869201317,2,24,0.5501165986061096,4.146554470062256,15.508738030120805,15.082214124409337,63.17925320805653,53.229326277782725,9.70840483205393e-05,0.106165811419487,0,0,0
5025,207085.22994916243,2011-01-20 22:49:16,2491.253980268515,2,24,0.5501165986061096,4.149954319000244,15.513325199134584,15.082214124409337,63.19828184428577,53.229326277782725,6.47544875391759e-05,0.106165811419487,0,0,0
5026,207115.24520415333,2011-01-20 22:49:46,2521.2692352694407,2,24,0.5501165986061096,4.153515815734863,15.517912392942296,15.082214124409337,63.21732643401978,53.229326277782725,9.71794142969884e-05,0.106165811419487,0,0,0
5027,207145.2603872701,2011-01-20 22:50:16,2551.2844183661587,2,24,0.5501165986061096,4.156915187835693,15.522499525064564,15.082214124409337,63.236386672756375,53.229326277782725,9.70840483205393e-05,0.106165811419487,0,0,0
5028,207175.275402318,2011-01-20 22:50:46,2581.2994334290847,2,24,0.5501165986061096,4.160152912139893,15.527086639088008,15.082214124409337,63.25546291596708,53.229326277782725,3.23295607813634e-05,0.106165811419487,0,0,0
5029,207205.29042631816,2011-01-20 22:51:16,2611.314457424273,2,24,0.550297200679779,4.163876533508301,15.53167385211639,15.082214124409337,63.27455565500989,53.229326277782725,9.71794142969884e-05,0.106165811419487,0,0,0
5030,207235.3055325784,2011-01-20 22:51:46,2641.3295636844905,2,24,0.550297200679779,4.167599678039551,15.536261006404816,15.082214124409337,63.29366434450452,53.229326277782725,0.0001295089750783,0.106165811419487,0,0,0
5031,207265.3207597149,2011-01-20 22:52:16,2671.344790810944,2,24,0.5501165986061096,4.17116117477417,15.540848176850549,15.082214124409337,63.31278959894687,53.229326277782725,9.70840483205393e-05,0.106165811419487,0,0,0
5032,207295.3358646468,2011-01-20 22:52:46,2701.359895757889,2,24,0.5501165986061096,4.174561023712158,15.545435411137673,15.082214124409337,63.33193167646118,53.229326277782725,3.24249267578125e-05,0.106165811419487,0,0,0
5033,207325.3510055333,2011-01-20 22:53:16,2731.3750366494187,2,24,0.5501165986061096,4.178284168243408,15.550022552799524,15.082214124409337,63.3510900892804,53.229326277782725,9.70840483205393e-05,0.106165811419487,0,0,0
5034,207355.3659650127,2011-01-20 22:53:46,2761.389996118788,2,24,0.5501165986061096,4.182007789611816,15.55460973377276,15.082214124409337,63.370265718625085,53.229326277782725,9.71794142969884e-05,0.106165811419487,0,0,0
5035,207385.3812491613,2011-01-20 22:54:16,2791.405280272372,2,24,0.5501165986061096,4.185730934143066,15.55919697486346,15.082214124409337,63.38945861823216,53.229326277782725,9.70840483205393e-05,0.106165811419487,0,0,0
5036,207415.39616638035,2011-01-20 22:54:46,2821.420197486428,2,24,0.5501165986061096,4.1896162033081055,15.563784050067756,15.082214124409337,63.40866795914403,53.229326277782725,0.0001295089750783,0.106165811419487,0,0,0
5037,207445.41128831464,2011-01-20 22:55:16,2851.43531942071,2,24,0.5501165986061096,4.193339824676514,15.56837122614524,15.082214124409337,63.42789504846827,53.229326277782725,9.71794142969884e-05,0.106165811419487,0,0,0
5038,207475.42877286728,2011-01-20 22:55:46,2881.452803983389,2,24,0.5501165986061096,4.1972246170043945,15.572958801002256,15.082214124409337,63.447141279348,53.229326277782725,0.0001295089750783,0.106165811419487,0,0,0
5039,207496.0197901781,2011-01-20 22:56:07,2902.0438212791883,2,24,0.5501165986061096,4.200138568878174,15.576105773349356,15.082214124409337,63.4603538940283,53.229326277782725,0.0001618385285837,0.106165811419487,0,0,0
5040,207526.03181441512,2011-01-20 22:56:37,30.01529203823375,3,24,0.0,4.091189861297607,15.576105773349356,15.082214124409337,63.4603538940283,53.229326277782725,-0.0005180359003134,0.106165811419487,0,0,0
5041,207556.0467519398,2011-01-20 22:57:07,60.03022956792313,3,24,0.0,4.077105522155762,15.576105773349356,15.082214124409337,63.4603538940283,53.229326277782725,-0.0003237724304199,0.106165811419487,0,0,0
5042,207586.06210211292,2011-01-20 22:57:37,90.04557973102193,3,24,0.0,4.068363666534424,15.576105773349356,15.082214124409337,63.4603538940283,53.229326277782725,-0.0001619339018361,0.106165811419487,0,0,0
5043,207616.03020307148,2011-01-20 22:58:07,120.01368070961472,3,24,0.0,4.062211990356445,15.576105773349356,15.082214124409337,63.4603538940283,53.229326277782725,-0.0001295089750783,0.106165811419487,0,0,0
5044,207616.04449358743,2011-01-20 22:58:07,0.015616611400722,4,24,1.021145582199097,4.199814796447754,15.57611025552712,15.082214124409337,63.460372718708186,53.229326277782725,-3.24249267578125e-05,0.106165811419487,0,0,0
5045,207616.77885387928,2011-01-20 22:58:08,0.749976908217403,4,24,0.9709362387657166,4.199976921081543,15.576312015318058,15.082214124409337,63.461220075760245,53.229326277782725,0.0,0.106165811419487,0,0,0
5046,207618.7319580157,2011-01-20 22:58:10,2.70308102964311,4,24,0.9205462336540222,4.199814796447754,15.576824029984834,15.082214124409337,63.46337044978048,53.229326277782725,-3.24249267578125e-05,0.106165811419487,0,0,0
5047,207621.7006881848,2011-01-20 22:58:13,5.671811208704773,4,24,0.8705174922943115,4.199814796447754,15.577561530449035,15.082214124409337,63.46646784648274,53.229326277782725,0.0,0.106165811419487,0,0,0
5048,207625.80995968377,2011-01-20 22:58:17,9.781082717696412,4,24,0.8203080892562866,4.199814796447754,15.578525360873863,15.082214124409337,63.47051579325454,53.229326277782725,0.0,0.106165811419487,0,0,0
5049,207631.24737504587,2011-01-20 22:58:22,15.218498054767268,4,24,0.7699180841445923,4.199814796447754,15.579724870201014,15.082214124409337,63.47555356637002,53.229326277782725,0.0,0.106165811419487,0,0,0
5050,207638.309746674,2011-01-20 22:58:29,22.28086969793948,4,24,0.7198893427848816,4.199976921081543,15.581184334514584,15.082214124409337,63.481683140989865,53.229326277782725,3.24249267578125e-05,0.106165811419487,0,0,0
5051,207647.7158269151,2011-01-20 22:58:39,31.686949939078936,4,24,0.6698605418205261,4.199976921081543,15.582996893760534,15.082214124409337,63.48929564077764,53.229326277782725,0.0,0.106165811419487,0,0,0
5052,207660.68437238576,2011-01-20 22:58:52,44.65549538966347,4,24,0.6198318004608154,4.199814796447754,15.58531554546229,15.082214124409337,63.49903369013767,53.229326277782725,-3.24249267578125e-05,0.106165811419487,0,0,0
5053,207680.84027400444,2011-01-20 22:59:12,64.81139712360036,4,24,0.56980299949646,4.199814796447754,15.588636205989866,15.082214124409337,63.51298005300241,53.229326277782725,-3.24249267578125e-05,0.106165811419487,0,0,0
5054,207716.21465068057,2011-01-20 22:59:47,100.18577370446344,4,24,0.5197742581367493,4.199814796447754,15.593964762263624,15.082214124409337,63.535359356822894,53.229326277782725,0.0,0.106165811419487,0,0,0
5055,207786.90091010864,2011-01-20 23:00:58,170.87203313758909,4,24,0.4697454869747162,4.199814796447754,15.603627704201664,15.082214124409337,63.5759425538756,53.229326277782725,-3.24249267578125e-05,0.106165811419487,0,0,0
5056,207902.9301871233,2011-01-20 23:02:54,286.901310187313,4,24,0.4197167158126831,4.199814796447754,15.617920330744528,15.082214124409337,63.63596996918264,53.229326277782725,-3.24249267578125e-05,0.106165811419487,0,0,0
5057,208051.83389709503,2011-01-20 23:05:23,435.80502011898886,4,24,0.36968794465065,4.199814796447754,15.634227288997812,15.082214124409337,63.70445727682748,53.229326277782725,-3.24249267578125e-05,0.106165811419487,0,0,0
5058,208231.92468313643,2011-01-20 23:08:23,615.8958061503284,4,24,0.3196591734886169,4.199814796447754,15.651447712759074,15.082214124409337,63.77678102951484,53.229326277782725,-3.24249267578125e-05,0.106165811419487,0,0,0
5059,208451.1708189873,2011-01-20 23:12:02,835.1419421014683,4,24,0.2696304023265838,4.199814796447754,15.669352674146012,15.082214124409337,63.85197969310605,53.229326277782725,3.23295607813634e-05,0.106165811419487,0,0,0
5060,208721.9474133564,2011-01-20 23:16:33,1105.9185363602364,4,24,0.2194210290908813,4.199814796447754,15.687704753805134,15.082214124409337,63.92905625524091,53.229326277782725,-3.24249267578125e-05,0.106165811419487,0,0,0
5061,209069.59809595684,2011-01-20 23:22:21,1453.5692189857798,4,24,0.1692116558551788,4.199814796447754,15.706421068830023,15.082214124409337,64.00766261291592,53.229326277782725,0.0,0.106165811419487,0,0,0
5062,209556.91789248932,2011-01-20 23:30:28,1940.8890155082668,4,24,0.1191828772425651,4.199814796447754,15.72579322383502,15.082214124409337,64.08902337344162,53.229326277782725,0.0,0.106165811419487,0,0,0
5063,210365.7317824439,2011-01-20 23:43:57,2749.7029054678587,4,24,0.0691541135311126,4.199814796447754,15.746413243160536,15.082214124409337,64.17562489757466,53.229326277782725,0.0,0.106165811419487,0,0,0
5064,210928.55027276676,2011-01-20 23:53:20,3312.521395775625,4,24,0.0498289167881011,4.199976921081543,15.75567158127617,15.082214124409337,64.2145089139507,53.229326277782725,3.24249267578125e-05,0.106165811419487,0,0,0
5065,210958.55842316287,2011-01-20 23:53:50,30.015141818840803,5,24,0.0,4.1896162033081055,15.75567158127617,15.082214124409337,64.2145089139507,53.229326277782725,-6.47544875391759e-05,0.106165811419487,0,0,0
5066,210988.55798382367,2011-01-20 23:54:20,60.01470248966656,5,24,0.0,4.187835693359375,15.75567158127617,15.082214124409337,64.2145089139507,53.229326277782725,-6.47544875391759e-05,0.106165811419487,0,0,0
5067,210988.73921163904,2011-01-20 23:54:20,0.187323562956908,6,24,-1.9243103452026844e-05,4.187673568725586,15.75567158127617,15.08221412541064,64.2145089139507,53.22932628197585,0.0,0.1124458834528923,0,0,0
5068,210993.56726131943,2011-01-20 23:54:25,5.015373243314106,6,24,0.0008838032954372,4.187835693359375,15.755672767243686,15.082214125577678,64.21451388084762,53.229326282675366,-6.47544875391759e-05,0.1124458834528923,0,0,0
5069,211007.21715258097,2011-01-20 23:54:39,13.655784346370956,7,24,-1.099568486213684,3.9877448081970215,15.755672767243686,15.086384455718788,64.21451388084762,53.24603216218066,-0.0018778324592858,0.1124458834528923,0,0,0
5070,211037.2322863949,2011-01-20 23:55:09,43.670918140210986,7,24,-1.0992072820663452,3.9307608604431152,15.755672767243686,15.095550601411192,64.21451388084762,53.28231246301349,-0.0013598442310467,0.1124458834528923,0,0,0
5071,211067.24740118132,2011-01-20 23:55:39,73.68603294672877,7,24,-1.099568486213684,3.8852710723876953,15.755672767243686,15.10471672934266,64.21451388084762,53.31812542439514,-0.0011332035064697,0.1124458834528923,0,0,0
5072,211097.26252060436,2011-01-20 23:56:09,103.7011523647398,7,24,-1.0993878841400146,3.848361015319824,15.755672767243686,15.113882861184122,64.21451388084762,53.35356210629939,-0.0009065627818927,0.1124458834528923,0,0,0
5073,211127.27760388728,2011-01-20 23:56:39,133.7162356527037,7,24,-1.099568486213684,3.8195455074310303,15.755672767243686,15.123048964015474,64.21451388084762,53.388699720371314,-0.0006799221155233,0.1124458834528923,0,0,0
5074,211157.29273030275,2011-01-20 23:57:09,163.73136206815448,7,24,-1.0992072820663452,3.796233892440796,15.755672767243686,15.13221510366266,64.21451388084762,53.42359952203871,-0.0005504131549969,0.1124458834528923,0,0,0
5075,211187.3078600064,2011-01-20 23:57:39,193.7464917718005,7,24,-1.099568486213684,3.7763218879699703,15.755672767243686,15.141381346001864,64.21451388084762,53.45830288031883,-0.0005180359003134,0.1124458834528923,0,0,0
5076,211217.32300665727,2011-01-20 23:58:09,223.7616385078966,7,24,-1.0993878841400146,3.758838176727295,15.755672767243686,15.15054753240835,64.21451388084762,53.4928346295192,-0.0004209041653666,0.1124458834528923,0,0,0
5077,211247.33804099823,2011-01-20 23:58:39,253.7766727636571,7,24,-1.099568486213684,3.742973566055298,15.755672767243686,15.15971416232261,64.21451388084762,53.52721565862694,-0.0003885269106831,0.1124458834528923,0,0,0
5078,211277.35319227568,2011-01-20 23:59:09,283.7918240160091,7,24,-1.0993878841400146,3.728727579116821,15.755672767243686,15.168881096611596,64.21451388084762,53.56146072895961,-0.0003237724304199,0.1124458834528923,0,0,0
5079,211307.36827143337,2011-01-20 23:59:39,313.8069031987415,7,24,-1.099568486213684,3.7152910232543945,15.755672767243686,15.178047947497834,64.21451388084762,53.59557930783986,-0.0003237724304199,0.1124458834528923,0,0,0
5080,211337.38337200932,2011-01-21 00:00:09,343.82200377479256,7,24,-1.099568486213684,3.7026638984680176,15.755672767243686,15.18721485928079,64.21451388084762,53.62957829514832,-0.0002913951757363,0.1124458834528923,0,0,0
5081,211367.3984850716,2011-01-21 00:00:39,373.837116806888,7,24,-1.0993878841400146,3.6908462047576895,15.755672767243686,15.196381332990873,64.21451388084762,53.66346378303573,-0.0002913951757363,0.1124458834528923,0,0,0
5082,211397.41360517623,2011-01-21 00:01:09,403.852236916623,7,24,-1.0992072820663452,3.679676055908203,15.755672767243686,15.20554758679825,64.21451388084762,53.6972426077494,-0.0002590179501567,0.1124458834528923,0,0,0
5083,211427.42870556185,2011-01-21 00:01:39,433.8673373072118,7,24,-1.099568486213684,3.668344259262085,15.755672767243686,15.214713828278722,64.21451388084762,53.73091937044806,-0.0003237724304199,0.1124458834528923,0,0,0
5084,211457.443809792,2011-01-21 00:02:09,463.88244155742,7,24,-1.0993878841400146,3.6578216552734375,15.755672767243686,15.22387997485389,64.21451388084762,53.76449588622798,-0.0002590179501567,0.1124458834528923,0,0,0
5085,211487.45913456683,2011-01-21 00:02:39,493.897766317206,7,24,-1.0993878841400146,3.64762282371521,15.755672767243686,15.233046245677674,64.21451388084762,53.797977235804176,-0.0002590179501567,0.1124458834528923,0,0,0
5086,211517.4740499012,2011-01-21 00:03:09,523.9126816415528,7,24,-1.099568486213684,3.637585878372192,15.755672767243686,15.242212299673708,64.21451388084762,53.83136494857455,-0.0002590179501567,0.1124458834528923,0,0,0
5087,211547.48928387472,2011-01-21 00:03:39,553.9279156351214,7,24,-1.0992072820663452,3.6280345916748047,15.755672767243686,15.251378538518932,64.21451388084762,53.86466374755796,-0.0002590179501567,0.1124458834528923,0,0,0
5088,211577.50425648183,2011-01-21 00:04:09,583.9428882322095,7,24,-1.0993878841400146,3.618483304977417,15.755672767243686,15.260544699038649,64.21451388084762,53.89787499138226,-0.0002913951757363,0.1124458834528923,0,0,0
5089,211607.51951419955,2011-01-21 00:04:39,613.9581459649435,7,24,-1.0993878841400146,3.6090939044952393,15.755672767243686,15.269710943960806,64.21451388084762,53.93100004266642,-0.0002266406954731,0.1124458834528923,0,0,0
5090,211637.53449342816,2011-01-21 00:05:09,643.9731251885469,7,24,-1.0993878841400146,3.5998663902282715,15.755672767243686,15.27887708493196,64.21451388084762,53.96404019071972,-0.0002913951757363,0.1124458834528923,0,0,0
5091,211667.5498125138,2011-01-21 00:05:39,673.9884442641661,7,24,-1.099568486213684,3.5912866592407227,15.755672767243686,15.288043353304843,64.21451388084762,53.996998405108336,-0.0001942157687153,0.1124458834528923,0,0,0
5092,211697.5647214071,2011-01-21 00:06:09,704.0033531624973,7,24,-1.099568486213684,3.5825448036193848,15.755672767243686,15.297209451998825,64.21451388084762,54.02987627246554,-0.0002590179501567,0.1124458834528923,0,0,0
5093,211727.57994859372,2011-01-21 00:06:39,734.0185803440883,7,24,-1.0993878841400146,3.574126720428467,15.755672767243686,15.306375720392856,64.21451388084762,54.06267719591064,-0.0002590179501567,0.1124458834528923,0,0,0
5094,211757.59498555624,2011-01-21 00:07:09,764.0336173015824,7,24,-1.0993878841400146,3.565870523452759,15.755672767243686,15.315541916045513,64.21451388084762,54.09540179548366,-0.0002266406954731,0.1124458834528923,0,0,0
5095,211787.6101663021,2011-01-21 00:07:39,794.0487980674912,7,24,-1.0992072820663452,3.5579380989074707,15.755672767243686,15.324708162767612,64.21451388084762,54.12805205227054,-0.0002266406954731,0.1124458834528923,0,0,0
5096,211817.6251619817,2011-01-21 00:08:09,824.0637938323206,7,24,-1.0993878841400146,3.5503294467926025,15.755672767243686,15.333874346917945,64.21451388084762,54.16063008665483,-0.0001942634553415,0.1124458834528923,0,0,0
5097,211847.64026669305,2011-01-21 00:08:39,854.0788984584658,7,24,-1.099568486213684,3.5425589084625244,15.755672767243686,15.343040633731208,64.21451388084762,54.193138494341696,-0.0002266406954731,0.1124458834528923,0,0,0
5098,211877.65540070244,2011-01-21 00:09:09,884.094032437768,7,24,-1.0993878841400146,3.535597801208496,15.755672767243686,15.352206914996756,64.21451388084762,54.22557919506658,-0.0001942634553415,0.1124458834528923,0,0,0
5099,211907.67050174467,2011-01-21 00:09:39,914.1091335000308,7,24,-1.0993878841400146,3.528474807739258,15.755672767243686,15.361373231851427,64.21451388084762,54.25795353854846,-0.0001618862152099,0.1124458834528923,0,0,0
5100,211937.68559263155,2011-01-21 00:10:09,944.1242243718962,7,24,-1.099568486213684,3.5213518142700195,15.755672767243686,15.370539478445384,64.21451388084762,54.2902634300666,-0.0001942634553415,0.1124458834528923,0,0,0
5101,211967.70077523205,2011-01-21 00:10:39,974.1394069924272,7,24,-1.0993878841400146,3.514714479446411,15.755672767243686,15.379705792798385,64.21451388084762,54.32251189989963,-0.0001618862152099,0.1124458834528923,0,0,0
5102,211997.71834895192,2011-01-21 00:11:09,1004.1569808125636,7,24,-1.0993878841400146,3.508239269256592,15.755672767243686,15.388872752808735,64.21451388084762,54.354701520248085,-0.0001618862152099,0.1124458834528923,0,0,0
5103,212027.7309268507,2011-01-21 00:11:39,1034.1695586160893,7,24,-1.0993878841400146,3.5020875930786133,15.755672767243686,15.398038249477908,64.21451388084762,54.38682712257597,-0.0001295089750783,0.1124458834528923,0,0,0
5104,212057.7461891097,2011-01-21 00:12:09,1064.1848208500417,7,24,-1.0992072820663452,3.495774030685425,15.755672767243686,15.407204461769322,64.21451388084762,54.418898477098615,-0.0001942634553415,0.1124458834528923,0,0,0
5105,212087.76107265483,2011-01-21 00:12:39,1094.1997044152347,7,24,-1.0993878841400146,3.489784240722656,15.755672767243686,15.416370740990343,64.21451388084762,54.45091452775748,-0.0001618862152099,0.1124458834528923,0,0,0
5106,212117.7762688241,2011-01-21 00:13:09,1124.2149005845338,7,24,-1.099568486213684,3.484118223190308,15.755672767243686,15.425537043398943,64.21451388084762,54.48287707723324,-0.0001295089750783,0.1124458834528923,0,0,0
5107,212147.79130859367,2011-01-21 00:13:39,1154.229940359049,7,24,-1.0993878841400146,3.478128433227539,15.755672767243686,15.434703211832613,64.21451388084762,54.51478478257803,-0.0001295089750783,0.1124458834528923,0,0,0
5108,212177.8065202365,2011-01-21 00:14:09,1184.2451520019124,7,24,-1.0993878841400146,3.4723005294799805,15.755672767243686,15.443869443750543,64.21451388084762,54.5466397649239,-0.0001618862152099,0.1124458834528923,0,0,0
5109,212207.8216354791,2011-01-21 00:14:39,1214.2602672445173,7,24,-1.099568486213684,3.466634511947632,15.755672767243686,15.453035636446028,64.21451388084762,54.57844202501979,-0.0001295089750783,0.1124458834528923,0,0,0
5110,212237.836747624,2011-01-21 00:15:09,1244.2753793693514,7,24,-1.0993878841400146,3.4606447219848637,15.755672767243686,15.462201853918208,64.21451388084762,54.61019038843253,-0.0001295089750783,0.1124458834528923,0,0,0
5111,212267.8518375836,2011-01-21 00:15:39,1274.2904693489927,7,24,-1.0993878841400146,3.4546549320220947,15.755672767243686,15.471368068939876,64.21451388084762,54.64188471571474,-0.0001942634553415,0.1124458834528923,0,0,0
5112,212297.86916232287,2011-01-21 00:16:09,1304.3077940783182,7,24,-1.0993878841400146,3.448988914489746,15.755672767243686,15.480534961362393,64.21451388084762,54.6735272911664,-0.0001295089750783,0.1124458834528923,0,0,0
5113,212327.88208058,2011-01-21 00:16:39,1334.3207123353588,7,24,-1.099568486213684,3.442999124526977,15.755672767243686,15.489700572138371,64.21451388084762,54.705112183996725,-0.0001618862152099,0.1124458834528923,0,0,0
5114,212357.8971804944,2011-01-21 00:17:09,1364.3358122547734,7,24,-1.0993878841400146,3.437009334564209,15.755672767243686,15.49886677829866,64.21451388084762,54.73664437944508,-0.0001618862152099,0.1124458834528923,0,0,0
5115,212387.9122791406,2011-01-21 00:17:39,1394.350910901015,7,24,-1.0993878841400146,3.43037223815918,15.755672767243686,15.508033029856827,64.21451388084762,54.768119478867256,-0.0002265930233988,0.1124458834528923,0,0,0
5116,212417.92737866408,2011-01-21 00:18:09,1424.3660104244425,7,24,-1.099568486213684,3.423896789550781,15.755672767243686,15.517199270674393,64.21451388084762,54.79953419850682,-0.0001618862152099,0.1124458834528923,0,0,0
5117,212447.9424976209,2011-01-21 00:18:39,1454.3811293813042,7,24,-1.0993878841400146,3.417421340942383,15.755672767243686,15.526365575582556,64.21451388084762,54.83088940516611,-0.0001618862152099,0.1124458834528923,0,0,0
5118,212477.9576089989,2011-01-21 00:19:10,1484.3962407642894,7,24,-1.0993878841400146,3.4104602336883545,15.755672767243686,15.535531886409933,64.21451388084762,54.86218278019359,-0.0001618862152099,0.1124458834528923,0,0,0
5119,212507.9727191137,2011-01-21 00:19:40,1514.4113508590642,7,24,-1.0993878841400146,3.4028515815734863,15.755672767243686,15.544698150343176,64.21451388084762,54.89340965541686,-0.0002266406954731,0.1124458834528923,0,0,0
5120,212537.9879834078,2011-01-21 00:20:10,1544.4266151932509,7,24,-1.0993878841400146,3.395242929458618,15.755672767243686,15.553864369896138,64.21451388084762,54.92456627478794,-0.0002266406954731,0.1124458834528923,0,0,0
5121,212568.0030624953,2011-01-21 00:20:40,1574.4416942356331,7,24,-1.0993878841400146,3.3866629600524902,15.755672767243686,15.563030576854034,64.21451388084762,54.95564883652375,-0.0002590179501567,0.1124458834528923,0,0,0
5122,212598.0180604556,2011-01-21 00:21:10,1604.4566922159845,7,24,-1.0993878841400146,3.3780829906463623,15.755672767243686,15.572196744832782,64.21451388084762,54.98665287168586,-0.0002590179501567,0.1124458834528923,0,0,0
5123,212628.03316074595,2011-01-21 00:21:40,1634.4717925063237,7,24,-1.0993878841400146,3.3683698177337646,15.755672767243686,15.581362987132165,64.21451388084762,55.01757368292314,-0.0003237724304199,0.1124458834528923,0,0,0
5124,212658.0482686402,2011-01-21 00:22:10,1664.4869004056263,7,24,-1.0993878841400146,3.358170986175537,15.755672767243686,15.590529248296672,64.21451388084762,55.04840307110539,-0.0002913951757363,0.1124458834528923,0,0,0
5125,212688.06338168232,2011-01-21 00:22:40,1694.5020134477463,7,24,-1.0992072820663452,3.346515417098999,15.755672767243686,15.599695438466084,64.21451388084762,55.079132396849296,-0.0002913951757363,0.1124458834528923,0,0,0
5126,212718.0785135464,2011-01-21 00:23:10,1724.5171453117773,7,24,-1.0993878841400146,3.3332407474517822,15.755672767243686,15.608861654885448,64.21451388084762,55.10974749545745,-0.0003561496851034,0.1124458834528923,0,0,0
5127,212748.09374850732,2011-01-21 00:23:40,1754.5323802727569,7,24,-1.0993878841400146,3.318347215652466,15.755672767243686,15.618027977691511,64.21451388084762,55.140233576500655,-0.0004209041653666,0.1124458834528923,0,0,0
5128,212778.10884151456,2011-01-21 00:24:10,1784.5474733551312,7,24,-1.0992072820663452,3.30037784576416,15.755672767243686,15.627194088342588,64.21451388084762,55.1705696464234,-0.0004856586456298,0.1124458834528923,0,0,0
5129,212808.12382321432,2011-01-21 00:24:40,1814.5624549797187,7,24,-1.099568486213684,3.2791707515716557,15.755672767243686,15.636360228573968,64.21451388084762,55.20072722881905,-0.0006151676061563,0.1124458834528923,0,0,0
5130,212838.13895384024,2011-01-21 00:25:10,1844.5775855755885,7,24,-1.0992072820663452,3.2535929679870605,15.755672767243686,15.645526473744916,64.21451388084762,55.230671492827085,-0.0007122993702068,0.1124458834528923,0,0,0
5131,212868.1541121251,2011-01-21 00:25:40,1874.592743860468,7,24,-1.0992072820663452,3.2210538387298584,15.755672767243686,15.654692698955907,64.21451388084762,55.26035071040722,-0.0009389400365762,0.1124458834528923,0,0,0
5132,212898.1691764358,2011-01-21 00:26:10,1904.6078081961969,7,24,-1.099568486213684,3.1788017749786377,15.755672767243686,15.66385888028352,64.21451388084762,55.28969175767723,-0.0012950897216796,0.1124458834528923,0,0,0
5133,212928.184280676,2011-01-21 00:26:40,1934.62291243638,7,24,-1.0993878841400146,3.1219797134399414,15.755672767243686,15.673025126769849,64.21451388084762,55.318583894860126,-0.0017483711708337,0.1124458834528923,0,0,0
5134,212958.1996793099,2011-01-21 00:27:10,1964.6383110953448,7,24,-1.0992072820663452,3.0428175926208496,15.755672767243686,15.682191462000828,64.21451388084762,55.346859606374615,-0.0024606704246252,0.1124458834528923,0,0,0
5135,212988.21450460987,2011-01-21 00:27:40,1994.653136370261,7,24,-1.0993878841400146,2.926745653152466,15.755672767243686,15.691357656108933,64.21451388084762,55.37425362677891,-0.0036586285568773,0.1124458834528923,0,0,0
5136,213018.22963051405,2011-01-21 00:28:10,2024.6682622594003,7,24,-1.0993878841400146,2.7585463523864746,15.755672767243686,15.700523910551496,64.21451388084762,55.40035184949338,-0.0050832270644605,0.1124458834528923,0,0,0
5137,213026.9951013695,2011-01-21 00:28:19,2033.4337331248653,7,24,-1.0993878841400146,2.699943780899048,15.755672767243686,15.703200808506514,64.21451388084762,55.40765883140305,-0.0054393289610743,0.1124458834528923,0,0,0
5138,213087.00722108403,2011-01-21 00:29:19,60.01446023088312,8,24,0.0,3.616378784179688,15.755672767243686,15.703200808506514,64.21451388084762,55.40765883140305,0.0012627125252038,0.1124458834528923,0,0,0
5139,213087.19333764972,2011-01-21 00:29:19,0.187401462105555,9,24,-1.9243103452026844e-05,3.6167025566101074,15.755672767243686,15.703200809508232,64.21451388084762,55.40765883502596,0.0,0.108498990535736,0,0,0
5140,213092.0213679017,2011-01-21 00:29:24,5.015431719053641,9,24,0.0007031940040178,3.623987436294556,15.755673908677034,15.703200809675367,64.21451801382304,55.40765883563044,0.0010684489971026,0.108498990535736,0,0,0
