Data_Point,Test_Time(s),Date_Time,Step_Time(s),Step_Index,Cycle_Index,Current(A),Voltage(V),Charge_Capacity(Ah),Discharge_Capacity(Ah),Charge_Energy(Wh),Discharge_Energy(Wh),dV/dt(V/s),Internal_Resistance(Ohm),Is_FC_Data,AC_Impedance(Ohm),ACI_Phase_Angle(Deg)
4320,178477.40218062542,2011-01-20 14:52:24,30.01511160353496,1,21,0.0,3.644223213195801,13.232091702207915,13.193250893277751,53.9120770092128,46.5883314232314,0.0007122993702068,0.106165811419487,0,0,0
4321,178507.4178631669,2011-01-20 14:52:54,60.03079435053518,1,21,0.0,3.664297103881836,13.232091702207915,13.193250893277751,53.9120770092128,46.5883314232314,0.0004856586456298,0.106165811419487,0,0,0
4322,178537.4190569179,2011-01-20 14:53:24,90.03198800626176,1,21,0.0,3.678057193756104,13.232091702207915,13.193250893277751,53.9120770092128,46.5883314232314,0.0002913951757363,0.106165811419487,0,0,0
4323,178567.40064651924,2011-01-20 14:53:54,120.01357752244054,1,21,0.0,3.688903570175171,13.232091702207915,13.193250893277751,53.9120770092128,46.5883314232314,0.0002913951757363,0.106165811419487,0,0,0
4324,178597.4200743997,2011-01-20 14:54:25,30.015245146364784,2,21,0.5501165986061096,3.810803651809693,13.236678214047767,13.193250893277751,53.92946776334144,46.5883314232314,0.0008094310760498,0.106165811419487,0,0,0
4325,178627.43519472497,2011-01-20 14:54:55,60.03036546161202,2,21,0.550297200679779,3.831525087356568,13.241264734034218,13.193250893277751,53.946997717205065,46.5883314232314,0.0004209041653666,0.106165811419487,0,0,0
4326,178657.450176119,2011-01-20 14:55:25,90.04534684559981,2,21,0.550297200679779,3.845447063446045,13.245851168828596,13.193250893277751,53.96460435686875,46.5883314232314,0.0003237724304199,0.106165811419487,0,0,0
4327,178687.46541283934,2011-01-20 14:55:55,120.06058360105186,2,21,0.5501165986061096,3.856455326080322,13.250437702588227,13.193250893277751,53.98226782761199,46.5883314232314,0.0002590179501567,0.106165811419487,0,0,0
4328,178717.4804015466,2011-01-20 14:56:25,150.07557229826645,2,21,0.5499359965324402,3.86600661277771,13.255024175542928,13.193250893277751,53.99997790532518,46.5883314232314,0.0001942634553415,0.106165811419487,0,0,0
4329,178747.49567364014,2011-01-20 14:56:55,180.09084438677937,2,21,0.5501165986061096,3.874262809753418,13.259610660365292,13.193250893277751,54.01772907245914,46.5883314232314,0.0001942634553415,0.106165811419487,0,0,0
4330,178777.5107657952,2011-01-20 14:57:25,210.1059365568802,2,21,0.5501165986061096,3.882033348083496,13.264197117062158,13.193250893277751,54.035516972391136,46.5883314232314,0.0001618862152099,0.106165811419487,0,0,0
4331,178807.52575496357,2011-01-20 14:57:55,240.12092571524417,2,21,0.550297200679779,3.889318227767944,13.268783548634316,13.193250893277751,54.05333846778266,46.5883314232314,0.0002266406954731,0.106165811419487,0,0,0
4332,178837.5408628679,2011-01-20 14:58:25,270.1360335995096,2,21,0.5501165986061096,3.895793676376343,13.273370017831622,13.193250893277751,54.07119116862881,46.5883314232314,0.0001942634553415,0.106165811419487,0,0,0
4333,178867.5559900352,2011-01-20 14:58:55,300.15116078688425,2,21,0.5499359965324402,3.9017834663391113,13.277956490178084,13.193250893277751,54.08907281173899,46.5883314232314,0.0001295089750783,0.106165811419487,0,0,0
4334,178897.57109437062,2011-01-20 14:59:25,330.1662651223048,2,21,0.5501165986061096,3.90761137008667,13.28254296730096,13.193250893277751,54.10698203262333,46.5883314232314,0.0001618862152099,0.106165811419487,0,0,0
4335,178927.58621827484,2011-01-20 14:59:55,360.1813890264968,2,21,0.5501165986061096,3.913439273834229,13.287129430319034,13.193250893277751,54.12491775238729,46.5883314232314,0.0001295089750783,0.106165811419487,0,0,0
4336,178957.60138344686,2011-01-20 15:00:25,390.19655419352847,2,21,0.5501165986061096,3.918943166732788,13.291715882398655,13.193250893277751,54.14287897840027,46.5883314232314,0.0001942634553415,0.106165811419487,0,0,0
4337,178987.61665793636,2011-01-20 15:00:55,420.2118286930504,2,21,0.5501165986061096,3.924123525619507,13.296302417096808,13.193250893277751,54.16086505050433,46.5883314232314,0.0001618862152099,0.106165811419487,0,0,0
4338,179017.63160774665,2011-01-20 15:01:25,450.2267785685092,2,21,0.5501165986061096,3.929141998291016,13.30088893187072,13.193250893277751,54.17887438230103,46.5883314232314,0.0001618862152099,0.106165811419487,0,0,0
4339,179047.64667009242,2011-01-20 15:01:55,480.24184084410376,2,21,0.5499359965324402,3.933836698532105,13.305475419085395,13.193250893277751,54.19690587268096,46.5883314232314,0.0001618862152099,0.106165811419487,0,0,0
4340,179077.66179344527,2011-01-20 15:02:25,510.2569641718591,2,21,0.5501165986061096,3.938369512557984,13.31006192988781,13.193250893277751,54.21495875045685,46.5883314232314,9.713172767078504e-05,0.106165811419487,0,0,0
4341,179107.6769132392,2011-01-20 15:02:55,540.2720839758321,2,21,0.550297200679779,3.942740440368652,13.314648423193828,13.193250893277751,54.23303204993984,46.5883314232314,9.713172767078504e-05,0.106165811419487,0,0,0
4342,179137.69201808088,2011-01-20 15:03:25,570.2871888325519,2,21,0.5501165986061096,3.9469494819641113,13.319234842134398,13.193250893277751,54.251124598873865,46.5883314232314,9.713172767078504e-05,0.106165811419487,0,0,0
4343,179167.70716203505,2011-01-20 15:03:55,600.302332781702,2,21,0.5499359965324402,3.9508347511291504,13.323821307415434,13.193250893277751,54.269235908400425,46.5883314232314,9.713172767078504e-05,0.106165811419487,0,0,0
4344,179197.7223225204,2011-01-20 15:04:25,630.3174933673155,2,21,0.550297200679779,3.9547200202941895,13.328407784702344,13.193250893277751,54.28736527386958,46.5883314232314,9.713172767078504e-05,0.106165811419487,0,0,0
4345,179227.7373711871,2011-01-20 15:04:55,660.3325419387551,2,21,0.5501165986061096,3.9582815170288086,13.332994264597202,13.193250893277751,54.30551168724644,46.5883314232314,6.47544875391759e-05,0.106165811419487,0,0,0
4346,179257.75247815406,2011-01-20 15:05:25,690.3476489057343,2,21,0.5501165986061096,3.961843013763428,13.337580713236838,13.193250893277751,54.32367426499528,46.5883314232314,0.0001295089750783,0.106165811419487,0,0,0
4347,179287.76758607343,2011-01-20 15:05:55,720.3627568000246,2,21,0.5501165986061096,3.965404510498047,13.3421671662086,13.193250893277751,54.3418528599208,46.5883314232314,0.0001295089750783,0.106165811419487,0,0,0
4348,179317.78283284884,2011-01-20 15:06:25,750.3780036756996,2,21,0.5499359965324402,3.968480348587036,13.346753654219558,13.193250893277751,54.36004711602257,46.5883314232314,6.47544875391759e-05,0.106165811419487,0,0,0
4349,179347.79783064875,2011-01-20 15:06:55,780.3930014004135,2,21,0.5501165986061096,3.971879959106445,13.351340101500648,13.193250893277751,54.378256481031805,46.5883314232314,6.47544875391759e-05,0.106165811419487,0,0,0
4350,179377.81298708403,2011-01-20 15:07:25,810.4081578356827,2,21,0.550297200679779,3.975117683410645,13.355926575093076,13.193250893277751,54.39648095814151,46.5883314232314,6.47544875391759e-05,0.106165811419487,0,0,0
4351,179407.82805668286,2011-01-20 15:07:55,840.4232274094667,2,21,0.550297200679779,3.977869749069214,13.360513065046025,13.193250893277751,54.414719982619154,46.5883314232314,0.0,0.106165811419487,0,0,0
4352,179437.84328368402,2011-01-20 15:08:25,870.4384544206328,2,21,0.5501165986061096,3.981431245803833,13.365099461352218,13.193250893277751,54.432973151514354,46.5883314232314,6.47544875391759e-05,0.106165811419487,0,0,0
4353,179467.85828835104,2011-01-20 15:08:55,900.4534591026867,2,21,0.5499359965324402,3.984345197677612,13.369685824803303,13.193250893277751,54.45124060882579,46.5883314232314,6.47544875391759e-05,0.106165811419487,0,0,0
4354,179497.87366814798,2011-01-20 15:09:25,930.4688388996424,2,21,0.5499359965324402,3.987582921981812,13.374272264271026,13.193250893277751,54.46952246000085,46.5883314232314,9.713172767078504e-05,0.106165811419487,0,0,0
4355,179527.8885095631,2011-01-20 15:09:55,960.483680289722,2,21,0.5501165986061096,3.990658760070801,13.378858587207896,13.193250893277751,54.48781764202485,46.5883314232314,9.713172767078504e-05,0.106165811419487,0,0,0
4356,179557.90363171796,2011-01-20 15:10:25,990.4988024696166,2,21,0.5499359965324402,3.99341082572937,13.383444976976412,13.193250893277751,54.506126914829245,46.5883314232314,3.237724376958795e-05,0.106165811419487,0,0,0
4357,179587.91876555193,2011-01-20 15:10:55,1020.513936298544,2,21,0.5499359965324402,3.9963245391845694,13.388031314071284,13.193250893277751,54.52444952393181,46.5883314232314,3.237724376958795e-05,0.106165811419487,0,0,0
4358,179617.9341268277,2011-01-20 15:11:25,1050.5292976846138,2,21,0.550297200679779,3.9995622634887695,13.392617784108229,13.193250893277751,54.542785969132325,46.5883314232314,0.0001295089750783,0.106165811419487,0,0,0
4359,179647.94897233802,2011-01-20 15:11:55,1080.5441430897006,2,21,0.5499359965324402,4.002314567565918,13.397204052993652,13.193250893277751,54.56113474948808,46.5883314232314,6.47544875391759e-05,0.106165811419487,0,0,0
4360,179677.96413702387,2011-01-20 15:12:25,1110.559307860745,2,21,0.5501165986061096,4.005066394805908,13.401790425358838,13.193250893277751,54.57949707394645,46.5883314232314,6.47544875391759e-05,0.106165811419487,0,0,0
4361,179707.97921887322,2011-01-20 15:12:55,1140.5743896249114,2,21,0.5501165986061096,4.007980346679688,13.406376880635934,13.193250893277751,54.59787270607751,46.5883314232314,6.47544875391759e-05,0.106165811419487,0,0,0
4362,179737.99447732276,2011-01-20 15:13:25,1170.5896480844565,2,21,0.5499359965324402,4.010570526123047,13.410963190341745,13.193250893277751,54.6162605002113,46.5883314232314,6.47544875391759e-05,0.106165811419487,0,0,0
4363,179768.00942543382,2011-01-20 15:13:55,1200.6045961854927,2,21,0.5501165986061096,4.013484477996826,13.415549593233107,13.193250893277751,54.63466148755572,46.5883314232314,6.47544875391759e-05,0.106165811419487,0,0,0
4364,179798.02455610991,2011-01-20 15:14:25,1230.6197268766002,2,21,0.5501165986061096,4.016236782073975,13.420135902790236,13.193250893277751,54.65307470362655,46.5883314232314,3.24249267578125e-05,0.106165811419487,0,0,0
4365,179828.03966787382,2011-01-20 15:14:55,1260.6348386004347,2,21,0.5497553944587708,4.018826961517334,13.424721524526532,13.193250893277751,54.67149758355483,46.5883314232314,3.24249267578125e-05,0.106165811419487,0,0,0
4366,179858.05477883577,2011-01-20 15:15:25,1290.6499495924456,2,21,0.5499359965324402,4.021578788757324,13.42930717528135,13.193250893277751,54.68993296993196,46.5883314232314,9.70840483205393e-05,0.106165811419487,0,0,0
4367,179888.0699032813,2011-01-20 15:15:55,1320.6650740079122,2,21,0.5499359965324402,4.024331092834473,13.433893617255675,13.193250893277751,54.70838423327361,46.5883314232314,6.47544875391759e-05,0.106165811419487,0,0,0
4368,179918.0850198873,2011-01-20 15:16:25,1350.6801906139146,2,21,0.550297200679779,4.027245044708252,13.438480050647147,13.193250893277751,54.72684785855974,46.5883314232314,9.71794142969884e-05,0.106165811419487,0,0,0
4369,179948.10249786355,2011-01-20 15:16:55,1380.6976686904284,2,21,0.5499359965324402,4.029673099517822,13.443066758066587,13.193250893277751,54.745324876253626,46.5883314232314,6.47544875391759e-05,0.106165811419487,0,0,0
4370,179978.11539093786,2011-01-20 15:17:25,1410.710561694531,2,21,0.5501165986061096,4.032425403594971,13.447652767884708,13.193250893277751,54.76381126855659,46.5883314232314,6.47544875391759e-05,0.106165811419487,0,0,0
4371,180008.13052194472,2011-01-20 15:17:55,1440.7256926813752,2,21,0.5501165986061096,4.035177230834961,13.452239164119115,13.193250893277751,54.7823114988255,46.5883314232314,9.71794142969884e-05,0.106165811419487,0,0,0
4372,180038.14560833044,2011-01-20 15:18:25,1470.7407790770844,2,21,0.5501165986061096,4.03776741027832,13.456825573946368,13.193250893277751,54.80082405107011,46.5883314232314,9.71794142969884e-05,0.106165811419487,0,0,0
4373,180068.1606183959,2011-01-20 15:18:55,1500.7557891275178,2,21,0.5499359965324402,4.04035758972168,13.461412250272238,13.193250893277751,54.81934995377679,46.5883314232314,6.47544875391759e-05,0.106165811419487,0,0,0
4374,180098.1757191123,2011-01-20 15:19:25,1530.770889843919,2,21,0.550297200679779,4.04310941696167,13.465999503012252,13.193250893277751,54.83789038792224,46.5883314232314,9.70840483205393e-05,0.106165811419487,0,0,0
4375,180128.19085178332,2011-01-20 15:19:55,1560.7860225149602,2,21,0.5501165986061096,4.045699596405029,13.470586502733797,13.193250893277751,54.8564419204275,46.5883314232314,9.70840483205393e-05,0.106165811419487,0,0,0
4376,180158.2059885947,2011-01-20 15:20:25,1590.8011593263209,2,21,0.5499359965324402,4.048289775848389,13.475172864655642,13.193250893277751,54.87500302659655,46.5883314232314,3.23295607813634e-05,0.106165811419487,0,0,0
4377,180188.2210889803,2011-01-20 15:20:55,1620.8162597068847,2,21,0.5501165986061096,4.051203727722168,13.47975924926956,13.193250893277751,54.8935765515926,46.5883314232314,0.0001295089750783,0.106165811419487,0,0,0
4378,180218.23618598745,2011-01-20 15:21:25,1650.8313567441162,2,21,0.550297200679779,4.053793907165527,13.48434566857056,13.193250893277751,54.91216262196,46.5883314232314,6.47544875391759e-05,0.106165811419487,0,0,0
4379,180248.25356221516,2011-01-20 15:21:55,1680.848732951741,2,21,0.5499359965324402,4.056384086608887,13.488932408271666,13.193250893277751,54.93076238566869,46.5883314232314,9.70840483205393e-05,0.106165811419487,0,0,0
4380,180278.26640155044,2011-01-20 15:22:25,1710.8615722870848,2,21,0.5499359965324402,4.058974266052246,13.493518486166815,13.193250893277751,54.949371906904965,46.5883314232314,3.23295607813634e-05,0.106165811419487,0,0,0
4381,180308.28150926428,2011-01-20 15:22:55,1740.8766799909004,2,21,0.5499359965324402,4.0617265701293945,13.498104902676031,13.193250893277751,54.96799495405519,46.5883314232314,3.24249267578125e-05,0.106165811419487,0,0,0
4382,180338.2966150784,2011-01-20 15:23:25,1770.8917858050063,2,21,0.5501165986061096,4.064478397369385,13.502691313844688,13.193250893277751,54.98663036880751,46.5883314232314,6.47544875391759e-05,0.106165811419487,0,0,0
4383,180368.3117984408,2011-01-20 15:23:55,1800.9069691723987,2,21,0.5501165986061096,4.067392349243164,13.50727766503349,13.193250893277751,55.00527820764318,46.5883314232314,6.47544875391759e-05,0.106165811419487,0,0,0
4384,180398.3269096684,2011-01-20 15:24:25,1830.922080410022,2,21,0.5501165986061096,4.0701446533203125,13.511863957565572,13.193250893277751,55.02393858980107,46.5883314232314,6.47544875391759e-05,0.106165811419487,0,0,0
4385,180428.34203485577,2011-01-20 15:24:56,1860.9372056124496,2,21,0.5501165986061096,4.073058605194092,13.516450252858714,13.193250893277751,55.04261178061024,46.5883314232314,6.47544875391759e-05,0.106165811419487,0,0,0
4386,180458.3572473708,2011-01-20 15:25:26,1890.952418122475,2,21,0.5495747923851013,4.075648784637451,13.52103653159663,13.193250893277751,55.061297933722976,46.5883314232314,3.24249267578125e-05,0.106165811419487,0,0,0
4387,180488.3722515867,2011-01-20 15:25:56,1920.9674223183165,2,21,0.5499359965324402,4.078562736511231,13.52562280920022,13.193250893277751,55.0799970569053,46.5883314232314,9.71794142969884e-05,0.106165811419487,0,0,0
4388,180518.3873496064,2011-01-20 15:26:26,1950.982520332984,2,21,0.5501165986061096,4.08147668838501,13.530209135952584,13.193250893277751,55.098709497233536,46.5883314232314,6.47544875391759e-05,0.106165811419487,0,0,0
4389,180548.40247054817,2011-01-20 15:26:56,1980.9976412798053,2,21,0.5501165986061096,4.084390640258789,13.53479544333171,13.193250893277751,55.11743489792168,46.5883314232314,6.47544875391759e-05,0.106165811419487,0,0,0
4390,180578.4175698461,2011-01-20 15:27:26,2011.0127405776705,2,21,0.5501165986061096,4.087304592132568,13.539381707233302,13.193250893277751,55.136173455357486,46.5883314232314,9.71794142969884e-05,0.106165811419487,0,0,0
4391,180608.43281182952,2011-01-20 15:27:56,2041.0279825812024,2,21,0.5499359965324402,4.090218544006348,13.543968052417728,13.193250893277751,55.15492571994141,46.5883314232314,9.71794142969884e-05,0.106165811419487,0,0,0
4392,180638.447817078,2011-01-20 15:28:26,2071.0429878346804,2,21,0.550297200679779,4.093294143676758,13.548554329784954,13.193250893277751,55.173691150455845,46.5883314232314,9.70840483205393e-05,0.106165811419487,0,0,0
4393,180668.46305647003,2011-01-20 15:28:56,2101.058227221691,2,21,0.5501165986061096,4.096208095550537,13.553140588637463,13.193250893277751,55.19247006975949,46.5883314232314,0.0001295089750783,0.106165811419487,0,0,0
4394,180698.47827351137,2011-01-20 15:29:26,2131.073444247972,2,21,0.5499359965324402,4.099122047424316,13.557726899276355,13.193250893277751,55.211262902964044,46.5883314232314,9.70840483205393e-05,0.106165811419487,0,0,0
4395,180728.4932861783,2011-01-20 15:29:56,2161.088457020189,2,21,0.5501165986061096,4.102035999298096,13.562313154543356,13.193250893277751,55.23006936948757,46.5883314232314,3.23295607813634e-05,0.106165811419487,0,0,0
4396,180758.5082628355,2011-01-20 15:30:26,2191.1034335721333,2,21,0.5499359965324402,4.105112075805664,13.566899384597397,13.193250893277751,55.248889647074535,46.5883314232314,6.47544875391759e-05,0.106165811419487,0,0,0
4397,180788.52339049405,2011-01-20 15:30:56,2221.118561315895,2,21,0.5501165986061096,4.108187675476074,13.571485653603537,13.193250893277751,55.26772413409621,46.5883314232314,9.70840483205393e-05,0.106165811419487,0,0,0
4398,180818.53848952628,2011-01-20 15:31:26,2251.133660257873,2,21,0.5499359965324402,4.111425399780273,13.576071894206686,13.193250893277751,55.28657266201356,46.5883314232314,9.70840483205393e-05,0.106165811419487,0,0,0
4399,180848.5536501119,2011-01-20 15:31:56,2281.1488208485,2,21,0.550297200679779,4.114663124084473,13.580658176659956,13.193250893277751,55.30543575194129,46.5883314232314,9.70840483205393e-05,0.106165811419487,0,0,0
4400,180878.56876139963,2011-01-20 15:32:26,2311.1639321362472,2,21,0.5501165986061096,4.117738723754883,13.585244461844344,13.193250893277751,55.324313473057614,46.5883314232314,9.70840483205393e-05,0.106165811419487,0,0,0
4401,180908.58406562824,2011-01-20 15:32:56,2341.1792363598506,2,21,0.5501165986061096,4.120976448059082,13.589830749632563,13.193250893277751,55.343205883246185,46.5883314232314,9.70840483205393e-05,0.106165811419487,0,0,0
4402,180938.5990789819,2011-01-20 15:33:26,2371.1942497335667,2,21,0.5501165986061096,4.124214172363281,13.59441702307168,13.193250893277751,55.36211295341493,46.5883314232314,0.0001295089750783,0.106165811419487,0,0,0
4403,180968.61404573944,2011-01-20 15:33:56,2401.209216496113,2,21,0.5499359965324402,4.1274518966674805,13.599003188466233,13.193250893277751,55.38103439853582,46.5883314232314,6.47544875391759e-05,0.106165811419487,0,0,0
4404,180998.6291631825,2011-01-20 15:34:26,2431.224333944215,2,21,0.5501165986061096,4.13068962097168,13.603589373723992,13.193250893277751,55.39997085723049,46.5883314232314,9.70840483205393e-05,0.106165811419487,0,0,0
4405,181028.64432711148,2011-01-20 15:34:56,2461.2394978480984,2,21,0.5499359965324402,4.133927345275879,13.60817559554498,13.193250893277751,55.41892260103556,46.5883314232314,0.0001295089750783,0.106165811419487,0,0,0
4406,181058.65944797808,2011-01-20 15:35:26,2491.2546187097078,2,21,0.5501165986061096,4.137327194213867,13.612761861346485,13.193250893277751,55.43788975542379,46.5883314232314,0.0001295089750783,0.106165811419487,0,0,0
4407,181088.6745849699,2011-01-20 15:35:56,2521.2697557015176,2,21,0.550297200679779,4.140726566314697,13.6173482483633,13.193250893277751,55.456872783349866,46.5883314232314,6.47544875391759e-05,0.106165811419487,0,0,0
4408,181118.68973414207,2011-01-20 15:36:26,2551.2849050290724,2,21,0.5501165986061096,4.1439642906188965,13.621934554622822,13.193250893277751,55.47587073115429,46.5883314232314,9.70840483205393e-05,0.106165811419487,0,0,0
4409,181148.70481518444,2011-01-20 15:36:56,2581.29998595114,2,21,0.5501165986061096,4.147525787353516,13.62652080354854,13.193250893277751,55.49488427705454,46.5883314232314,6.47544875391759e-05,0.106165811419487,0,0,0
4410,181178.7200496492,2011-01-20 15:37:26,2611.3152204058574,2,21,0.550297200679779,4.151087284088135,13.631107114194634,13.193250893277751,55.513913881209696,46.5883314232314,0.0001295089750783,0.106165811419487,0,0,0
4411,181208.73514929792,2011-01-20 15:37:56,2641.3303200646224,2,21,0.550297200679779,4.154487133026123,13.6356933910196,13.193250893277751,55.53295925750128,46.5883314232314,0.0001295089750783,0.106165811419487,0,0,0
4412,181238.75011983488,2011-01-20 15:38:26,2671.3452905614763,2,21,0.550297200679779,4.158048629760742,13.640279689654363,13.193250893277751,55.55202080551344,46.5883314232314,9.71794142969884e-05,0.106165811419487,0,0,0
4413,181268.7654367,2011-01-20 15:38:56,2701.360607431599,2,21,0.5499359965324402,4.161448001861572,13.644866008247217,13.193250893277751,55.57109856140268,46.5883314232314,6.47544875391759e-05,0.106165811419487,0,0,0
4414,181298.78035830497,2011-01-20 15:39:26,2731.375529036599,2,21,0.5501165986061096,4.1648478507995605,13.649452277295277,13.193250893277751,55.590192250413104,46.5883314232314,6.47544875391759e-05,0.106165811419487,0,0,0
4415,181328.7954655276,2011-01-20 15:39:56,2761.3906362892903,2,21,0.5499359965324402,4.16840934753418,13.654038487570814,13.193250893277751,55.60930195665084,46.5883314232314,6.47544875391759e-05,0.106165811419487,0,0,0
4416,181358.81071534057,2011-01-20 15:40:26,2791.405886097273,2,21,0.5501165986061096,4.172294616699219,13.658624757757478,13.193250893277751,55.62842830061148,46.5883314232314,0.0001295089750783,0.106165811419487,0,0,0
4417,181388.8257344837,2011-01-20 15:40:56,2821.420905245381,2,21,0.5501165986061096,4.175856113433838,13.66321100683188,13.193250893277751,55.6475710124941,46.5883314232314,9.71794142969884e-05,0.106165811419487,0,0,0
4418,181418.8409437005,2011-01-20 15:41:26,2851.4361144371355,2,21,0.5501165986061096,4.179417610168457,13.667797329016969,13.193250893277751,55.66673060315821,46.5883314232314,0.0001295089750783,0.106165811419487,0,0,0
4419,181448.85593117468,2011-01-20 15:41:56,2881.451101911302,2,21,0.5501165986061096,4.183140754699707,13.672383618132226,13.193250893277751,55.68590678152472,46.5883314232314,0.0001295089750783,0.106165811419487,0,0,0
4420,181478.8710983116,2011-01-20 15:42:26,2911.466269068293,2,21,0.5499359965324402,4.186864376068115,13.676969964697289,13.193250893277751,55.70510017386496,46.5883314232314,0.0001295089750783,0.106165811419487,0,0,0
4421,181508.8861935544,2011-01-20 15:42:56,2941.481364285989,2,21,0.5501165986061096,4.190587520599365,13.681556220149986,13.193250893277751,55.72431029218389,46.5883314232314,9.70840483205393e-05,0.106165811419487,0,0,0
4422,181538.9016847289,2011-01-20 15:43:26,2971.496855570807,2,21,0.550297200679779,4.194472789764404,13.686142495705992,13.193250893277751,55.743537748561245,46.5883314232314,0.0001295089750783,0.106165811419487,0,0,0
4423,181568.91639815507,2011-01-20 15:43:56,3001.5115688916994,2,21,0.5499359965324402,4.198034286499023,13.690728674092602,13.193250893277751,55.7627822253975,46.5883314232314,0.0001295089750783,0.106165811419487,0,0,0
4424,181583.4786651802,2011-01-20 15:44:11,3016.0738359970237,2,21,0.5501165986061096,4.200138568878174,13.692953811842257,13.193250893277751,55.772125652292495,46.5883314232314,0.0001295089750783,0.106165811419487,0,0,0
4425,181613.4864203472,2011-01-20 15:44:41,30.01490013649403,3,21,0.0,4.093294143676758,13.692953811842257,13.193250893277751,55.772125652292495,46.5883314232314,-0.0004857063177041,0.106165811419487,0,0,0
4426,181643.50152769516,2011-01-20 15:45:11,60.0300074944477,3,21,0.0,4.079371929168701,13.692953811842257,13.193250893277751,55.772125652292495,46.5883314232314,-0.0003237724304199,0.106165811419487,0,0,0
4427,181673.5166441307,2011-01-20 15:45:41,90.0451239250131,3,21,0.0,4.070792198181152,13.692953811842257,13.193250893277751,55.772125652292495,46.5883314232314,-0.0002265930233988,0.106165811419487,0,0,0
4428,181703.48488827617,2011-01-20 15:46:11,120.01336807543416,3,21,0.0,4.064964294433594,13.692953811842257,13.193250893277751,55.772125652292495,46.5883314232314,-0.0001618385285837,0.106165811419487,0,0,0
4429,181703.49541759727,2011-01-20 15:46:11,0.015623463478207,4,21,1.0280088186264038,4.199976921081543,13.692958273247235,13.193250893277751,55.772144390090446,46.5883314232314,0.0,0.106165811419487,0,0,0
4430,181704.0579159362,2011-01-20 15:46:12,0.578121807427743,4,21,0.9772575497627258,4.199976921081543,13.693113387648886,13.193250893277751,55.77279584182016,46.5883314232314,0.0,0.106165811419487,0,0,0
4431,181705.81025033773,2011-01-20 15:46:13,2.330456329235942,4,21,0.9272288084030152,4.199653148651123,13.69357577574694,13.193250893277751,55.7747377751993,46.5883314232314,-6.47544875391759e-05,0.106165811419487,0,0,0
4432,181708.62036141416,2011-01-20 15:46:16,5.140567325488139,4,21,0.8768388032913208,4.199814796447754,13.69427887456634,13.193250893277751,55.77769064899382,46.5883314232314,3.23295607813634e-05,0.106165811419487,0,0,0
4433,181712.49526470044,2011-01-20 15:46:20,9.015470571655513,4,21,0.8268100023269653,4.199814796447754,13.695194623659328,13.193250893277751,55.78153662963794,46.5883314232314,0.0,0.106165811419487,0,0,0
4434,181717.6201972392,2011-01-20 15:46:25,14.140403115456984,4,21,0.7767812609672546,4.199814796447754,13.696334778778214,13.193250893277751,55.78632509267721,46.5883314232314,-3.24249267578125e-05,0.106165811419487,0,0,0
4435,181724.3387945009,2011-01-20 15:46:32,20.85900036706869,4,21,0.7265718579292297,4.199653148651123,13.697736026670864,13.193250893277751,55.79221009135686,46.5883314232314,-3.23295607813634e-05,0.106165811419487,0,0,0
4436,181733.198150918,2011-01-20 15:46:41,29.71835679424103,4,21,0.676543116569519,4.199814796447754,13.699460049058262,13.193250893277751,55.7994507065387,46.5883314232314,0.0,0.106165811419487,0,0,0
4437,181745.46343720536,2011-01-20 15:46:53,41.983643066565904,4,21,0.6265143156051636,4.199814796447754,13.701675117787811,13.193250893277751,55.8087536257413,46.5883314232314,0.0,0.106165811419487,0,0,0
4438,181763.72876722788,2011-01-20 15:47:11,60.24897310412104,4,21,0.5764855742454529,4.199653148651123,13.70471762624634,13.193250893277751,55.8215316793893,46.5883314232314,-6.47544875391759e-05,0.106165811419487,0,0,0
4439,181795.21260583104,2011-01-20 15:47:43,91.732811707255,4,21,0.5264567732810974,4.199814796447754,13.709518403394044,13.193250893277751,55.84169418327975,46.5883314232314,0.0,0.106165811419487,0,0,0
4440,181857.1334178722,2011-01-20 15:48:45,153.65362376846912,4,21,0.4764280319213867,4.199653148651123,13.718097464030492,13.193250893277751,55.8777248516894,46.5883314232314,-3.23295607813634e-05,0.106165811419487,0,0,0
4441,181964.8056698691,2011-01-20 15:50:32,261.3258757352941,4,21,0.4263992607593536,4.199814796447754,13.731559996185748,13.193250893277751,55.93426539018031,46.5883314232314,0.0,0.106165811419487,0,0,0
4442,182108.06676348476,2011-01-20 15:52:56,404.58696935593326,4,21,0.3763704895973205,4.199653148651123,13.747512092801168,13.193250893277751,56.00126177651179,46.5883314232314,-6.47544875391759e-05,0.106165811419487,0,0,0
4443,182280.0325161529,2011-01-20 15:55:47,576.5527220191092,4,21,0.3263417184352875,4.199653148651123,13.76426765059406,13.193250893277751,56.07163257751608,46.5883314232314,-3.23295607813634e-05,0.106165811419487,0,0,0
4444,182487.8415057963,2011-01-20 15:59:15,784.3617116675406,4,21,0.2763129472732544,4.199814796447754,13.781627836561045,13.193250893277751,56.144542570527946,46.5883314232314,0.0,0.106165811419487,0,0,0
4445,182742.6966876164,2011-01-20 16:03:30,1039.2168934976405,4,21,0.2262841761112213,4.199653148651123,13.799377218312232,13.193250893277751,56.21908707858087,46.5883314232314,-3.23295607813634e-05,0.106165811419487,0,0,0
4446,183067.3005265912,2011-01-20 16:08:55,1363.82073247247,4,21,0.1762554049491882,4.199814796447754,13.817464397828967,13.193250893277751,56.295049861074574,46.5883314232314,-3.24249267578125e-05,0.106165811419487,0,0,0
4447,183513.5115574859,2011-01-20 16:16:21,1810.031763352124,4,21,0.1258654296398162,4.199653148651123,13.836092169248166,13.193250893277751,56.37328363518552,46.5883314232314,-6.47544875391759e-05,0.106165811419487,0,0,0
4448,184245.56166735588,2011-01-20 16:28:33,2542.0818732170947,4,21,0.0758366510272026,4.199814796447754,13.856191723790928,13.193250893277751,56.4576986201598,46.5883314232314,3.23295607813634e-05,0.106165811419487,0,0,0
4449,184937.29991678605,2011-01-20 16:40:05,3233.8201226472133,4,21,0.0498289167881011,4.199814796447754,13.868105381246274,13.193250893277751,56.50773399664884,46.5883314232314,0.0,0.106165811419487,0,0,0
4450,184967.3181109623,2011-01-20 16:40:35,30.01529925121071,5,21,0.0,4.189939975738525,13.868105381246274,13.193250893277751,56.50773399664884,46.5883314232314,-3.24249267578125e-05,0.106165811419487,0,0,0
4451,184997.31742385065,2011-01-20 16:41:05,60.01461211943613,5,21,0.0,4.188159465789795,13.868105381246274,13.193250893277751,56.50773399664884,46.5883314232314,-3.23295607813634e-05,0.106165811419487,0,0,0
4452,184997.51138450467,2011-01-20 16:41:05,0.190055857676054,6,21,0.0001613661734154,4.188321113586426,13.868105389765326,13.193250893277751,56.50773403232937,46.5883314232314,0.0,0.1099197939038276,0,0,0
4453,185002.3371279873,2011-01-20 16:41:10,5.015799224991517,6,21,0.0007031940040178,4.188159465789795,13.868106334863402,13.193250893277751,56.507737990702246,46.5883314232314,-6.47544875391759e-05,0.1099197939038276,0,0,0
4454,185018.77806068023,2011-01-20 16:41:27,16.437216410901016,7,21,-1.099568486213684,3.9880685806274414,13.868106334863402,13.198271308739368,56.507737990702246,46.60845497587975,-0.0017807006370276,0.1099197939038276,0,0,0
4455,185048.7931914215,2011-01-20 16:41:57,46.452347162158,7,21,-1.099568486213684,3.9343223571777344,13.868106334863402,13.2074386946111,56.507737990702246,46.64475987788382,-0.0013274669181555,0.1099197939038276,0,0,0
4456,185078.80830862897,2011-01-20 16:42:27,76.4674643546223,7,21,-1.0993878841400146,3.893041610717773,13.868106334863402,13.216606072277918,56.507737990702246,46.680631216880265,-0.0009713172912597,0.1099197939038276,0,0,0
4457,185108.8235666274,2011-01-20 16:42:57,106.48272237808077,7,21,-1.0993878841400146,3.859854936599731,13.868106334863402,13.225773471385788,56.507737990702246,46.7161629303115,-0.0007770538213662,0.1099197939038276,0,0,0
4458,185138.83854132472,2011-01-20 16:43:27,136.49769704532835,7,21,-1.0997490882873535,3.833467483520508,13.868106334863402,13.234940818162723,56.507737990702246,46.75142365815917,-0.0006799221155233,0.1099197939038276,0,0,0
4459,185168.853670487,2011-01-20 16:43:57,166.51282621765014,7,21,-1.099568486213684,3.811936855316162,13.868106334863402,13.24410817035827,56.507737990702246,46.78646593783946,-0.0005180359003134,0.1099197939038276,0,0,0
4460,185198.86879360923,2011-01-20 16:44:27,196.5279493348808,7,21,-1.099568486213684,3.7933199405670166,13.868106334863402,13.253275531187642,56.507737990702246,46.821324130519095,-0.0004856586456298,0.1099197939038276,0,0,0
4461,185228.88394585907,2011-01-20 16:44:57,226.5431015797064,7,21,-1.099568486213684,3.7764837741851807,13.868106334863402,13.262442919876833,56.507737990702246,46.856020837627526,-0.0004209041653666,0.1099197939038276,0,0,0
4462,185258.8990095232,2011-01-20 16:45:27,256.5581652437614,7,21,-1.099568486213684,3.7614283561706543,13.868106334863402,13.27161025845068,56.507737990702246,46.89057167573006,-0.0003561496851034,0.1099197939038276,0,0,0
4463,185288.91413238476,2011-01-20 16:45:57,286.57328811036734,7,21,-1.0992072820663452,3.7475063800811768,13.868106334863402,13.280777630523422,56.507737990702246,46.92498904955457,-0.0003561496851034,0.1099197939038276,0,0,0
4464,185318.92946221711,2011-01-20 16:46:27,316.5886179377834,7,21,-1.0997490882873535,3.73406982421875,13.868106334863402,13.289945123392794,56.507737990702246,46.9592818032244,-0.0003561496851034,0.1099197939038276,0,0,0
4465,185348.94452697897,2011-01-20 16:46:57,346.6036827095993,7,21,-1.099568486213684,3.721604585647583,13.868106334863402,13.299112477425528,56.507737990702246,46.993456655226055,-0.0003561496851034,0.1099197939038276,0,0,0
4466,185378.9594721226,2011-01-20 16:47:27,376.6186278482526,7,21,-1.099568486213684,3.709786891937256,13.868106334863402,13.308279768207036,56.507737990702246,47.02752013507451,-0.0003237724304199,0.1099197939038276,0,0,0
4467,185408.97458874364,2011-01-20 16:47:57,406.6337444692927,7,21,-1.0993878841400146,3.6982929706573486,13.868106334863402,13.31744716882282,56.507737990702246,47.06147675030418,-0.0003237724304199,0.1099197939038276,0,0,0
4468,185438.98984537364,2011-01-20 16:48:27,436.6490011143157,7,21,-1.0997490882873535,3.687446594238281,13.868106334863402,13.326614585705965,56.507737990702246,47.095331495565006,-0.0002913951757363,0.1099197939038276,0,0,0
4469,185469.0048239356,2011-01-20 16:48:57,466.66397966123264,7,21,-1.099568486213684,3.677085876464844,13.868106334863402,13.335781904441951,56.507737990702246,47.12908760995656,-0.0002266406954731,0.1099197939038276,0,0,0
4470,185499.01993935363,2011-01-20 16:49:27,496.679095074262,7,21,-1.099568486213684,3.666725397109986,13.868106334863402,13.344949317692471,56.507737990702246,47.162748334168896,-0.0002590179501567,0.1099197939038276,0,0,0
4471,185529.0350847965,2011-01-20 16:49:57,526.69424052716,7,21,-1.099568486213684,3.656688451766968,13.868106334863402,13.354116818005014,56.507737990702246,47.19631682544111,-0.0002590179501567,0.1099197939038276,0,0,0
4472,185559.0501913525,2011-01-20 16:50:27,556.7093470730898,7,21,-1.0993878841400146,3.64697527885437,13.868106334863402,13.363284265046822,56.507737990702246,47.229795136812406,-0.0002913951757363,0.1099197939038276,0,0,0
4473,185589.065299753,2011-01-20 16:50:57,586.7244554786545,7,21,-1.0993878841400146,3.6374239921569824,13.868106334863402,13.372451615148144,56.507737990702246,47.26318405110423,-0.0002266406954731,0.1099197939038276,0,0,0
4474,185619.08041306585,2011-01-20 16:51:27,616.739568786437,7,21,-1.099568486213684,3.6280345916748047,13.868106334863402,13.381619028881202,56.507737990702246,47.29648649934714,-0.0002590179501567,0.1099197939038276,0,0,0
4475,185649.09548875983,2011-01-20 16:51:57,646.7546444854869,7,21,-1.099568486213684,3.619130849838257,13.868106334863402,13.390786048651266,56.507737990702246,47.32970449785262,-0.0002590179501567,0.1099197939038276,0,0,0
4476,185679.1105973008,2011-01-20 16:52:27,676.7697530314014,7,21,-1.099568486213684,3.610227108001709,13.868106334863402,13.399952611649836,56.507737990702246,47.36283980807205,-0.0002590179501567,0.1099197939038276,0,0,0
4477,185709.12558736137,2011-01-20 16:52:57,706.7847431321138,7,21,-1.099568486213684,3.601970911026001,13.868106334863402,13.409119202070258,56.507737990702246,47.39589617866554,-0.0002266406954731,0.1099197939038276,0,0,0
4478,185739.14078379635,2011-01-20 16:53:27,736.7999395570499,7,21,-1.0993878841400146,3.593552827835083,13.868106334863402,13.418285806429369,56.507737990702246,47.42887551551088,-0.0001942634553415,0.1099197939038276,0,0,0
4479,185769.1558486734,2011-01-20 16:53:57,766.8150044441531,7,21,-1.099568486213684,3.585458755493164,13.868106334863402,13.427452365096086,56.507737990702246,47.461778989078006,-0.0002266406954731,0.1099197939038276,0,0,0
4480,185799.1711020252,2011-01-20 16:54:27,796.830257770906,7,21,-1.0993878841400146,3.577526330947876,13.868106334863402,13.436618988807716,56.507737990702246,47.49460837656726,-0.0001942634553415,0.1099197939038276,0,0,0
4481,185829.1862100649,2011-01-20 16:54:57,826.8453658005337,7,21,-1.0992072820663452,3.569755792617798,13.868106334863402,13.445785629671306,56.507737990702246,47.52736571760297,-0.0001618862152099,0.1099197939038276,0,0,0
4482,185859.20119940367,2011-01-20 16:55:27,856.8603551493724,7,21,-1.0997490882873535,3.5621471405029297,13.868106334863402,13.454952242667808,56.507737990702246,47.56005302876815,-0.0001942634553415,0.1099197939038276,0,0,0
4483,185889.21633645563,2011-01-20 16:55:57,886.8754921913076,7,21,-1.099568486213684,3.5550241470336914,13.868106334863402,13.464118895739547,56.507737990702246,47.59267379130386,-0.0001942634553415,0.1099197939038276,0,0,0
4484,185919.23145327216,2011-01-20 16:56:27,916.89060901786,7,21,-1.099568486213684,3.547901153564453,13.868106334863402,13.473285523922264,56.507737990702246,47.62522860662039,-0.0001942634553415,0.1099197939038276,0,0,0
4485,185949.2467962424,2011-01-20 16:56:57,946.9059519930444,7,21,-1.099568486213684,3.540940046310425,13.868106334863402,13.482452163715132,56.507737990702246,47.6577191412046,-0.0001618862152099,0.1099197939038276,0,0,0
4486,185979.2618013755,2011-01-20 16:57:27,976.9209571262224,7,21,-1.0993878841400146,3.5343027114868164,13.868106334863402,13.491618764069386,56.507737990702246,47.690147006487386,-0.0001618862152099,0.1099197939038276,0,0,0
4487,186009.27679421805,2011-01-20 16:57:57,1006.9359499637558,7,21,-1.0993878841400146,3.527827262878418,13.868106334863402,13.5007853442261,56.507737990702246,47.722514198888376,-0.0001618862152099,0.1099197939038276,0,0,0
4488,186039.29194889896,2011-01-20 16:58:27,1036.9511046446528,7,21,-1.099568486213684,3.5213518142700195,13.868106334863402,13.509951991759523,56.507737990702246,47.7548223223611,-0.0001295089750783,0.1099197939038276,0,0,0
4489,186069.3071556647,2011-01-20 16:58:57,1066.9663114103612,7,21,-1.0993878841400146,3.515200138092041,13.868106334863402,13.519118615189704,56.507737990702246,47.78707316596193,-0.0001942634553415,0.1099197939038276,0,0,0
4490,186099.3221500461,2011-01-20 16:59:27,1096.9813058168047,7,21,-1.0993878841400146,3.509210586547852,13.868106334863402,13.528285201104175,56.507737990702246,47.81926838522847,-0.0001942634553415,0.1099197939038276,0,0,0
4491,186129.33726691772,2011-01-20 16:59:57,1126.99642266842,7,21,-1.0993878841400146,3.503220796585083,13.868106334863402,13.537451804269471,56.507737990702246,47.851408634717664,-0.0001618862152099,0.1099197939038276,0,0,0
4492,186159.35240586445,2011-01-20 17:00:27,1157.0115616251271,7,21,-1.0993878841400146,3.4977166652679443,13.868106334863402,13.546618382071111,56.507737990702246,47.88349628949639,-0.0001618862152099,0.1099197939038276,0,0,0
4493,186189.3675008315,2011-01-20 17:00:57,1187.0266565821742,7,21,-1.0993878841400146,3.492050647735596,13.868106334863402,13.555785066142583,56.507737990702246,47.91553333274267,-0.0001618862152099,0.1099197939038276,0,0,0
4494,186219.3826370313,2011-01-20 17:01:27,1217.0417927669732,7,21,-1.099568486213684,3.486546516418457,13.868106334863402,13.564951700469033,56.507737990702246,47.9475198985987,-0.0001618862152099,0.1099197939038276,0,0,0
4495,186249.39773203345,2011-01-20 17:01:57,1247.0568877941948,7,21,-1.0993878841400146,3.4813661575317383,13.868106334863402,13.57411836829166,56.507737990702246,47.97945682103714,-0.0001618862152099,0.1099197939038276,0,0,0
4496,186279.41538909107,2011-01-20 17:02:27,1277.074544967072,7,21,-1.099568486213684,3.4760239124298096,13.868106334863402,13.58328571946172,56.507737990702246,48.01134665902536,-0.0001618862152099,0.1099197939038276,0,0,0
4497,186309.42798448345,2011-01-20 17:02:57,1307.0871402441471,7,21,-1.099568486213684,3.470681667327881,13.868106334863402,13.59245157444952,56.507737990702246,48.043182884781416,-0.0001295089750783,0.1099197939038276,0,0,0
4498,186339.44311241768,2011-01-20 17:03:27,1337.1022681633456,7,21,-1.0993878841400146,3.465015649795532,13.868106334863402,13.601618173460272,56.507737990702246,48.074972035357234,-0.0001942634553415,0.1099197939038276,0,0,0
4499,186369.4582345675,2011-01-20 17:03:57,1367.11739034324,7,21,-1.0993878841400146,3.4595115184783936,13.868106334863402,13.610784809042762,56.507737990702246,48.10671031077068,-0.0001618862152099,0.1099197939038276,0,0,0
4500,186399.47334812587,2011-01-20 17:04:27,1397.1325038715722,7,21,-1.099568486213684,3.454007387161255,13.868106334863402,13.619951438161088,56.507737990702246,48.13839872357288,-0.0001942634553415,0.1099197939038276,0,0,0
4501,186429.48845175453,2011-01-20 17:04:57,1427.147607520281,7,21,-1.099568486213684,3.448503255844116,13.868106334863402,13.629118070281796,56.507737990702246,48.17003541938576,-0.0001295089750783,0.1099197939038276,0,0,0
4502,186459.5035601401,2011-01-20 17:05:27,1457.162715875721,7,21,-1.0993878841400146,3.4426753520965576,13.868106334863402,13.63828470740184,56.507737990702246,48.20161879273456,-0.0001295089750783,0.1099197939038276,0,0,0
4503,186489.5186745456,2011-01-20 17:05:57,1487.1778303063018,7,21,-1.0993878841400146,3.436523675918579,13.868106334863402,13.647451407014502,56.507737990702246,48.23314769677297,-0.0001942634553415,0.1099197939038276,0,0,0
4504,186519.5338131464,2011-01-20 17:06:27,1517.192968892085,7,21,-1.099568486213684,3.4302103519439697,13.868106334863402,13.65661810728265,56.507737990702246,48.26462025754336,-0.0001618862152099,0.1099197939038276,0,0,0
4505,186549.5489828397,2011-01-20 17:06:57,1547.2081386956725,7,21,-1.099568486213684,3.423411130905152,13.868106334863402,13.665784819959852,56.507737990702246,48.296033194579465,-0.0001942634553415,0.1099197939038276,0,0,0
4506,186579.56642000424,2011-01-20 17:07:27,1577.2255757750083,7,21,-1.0993878841400146,3.416288137435913,13.868106334863402,13.674952215869403,56.507737990702246,48.32738550251206,-0.0002266406954731,0.1099197939038276,0,0,0
4507,186609.5791632551,2011-01-20 17:07:57,1607.238319015855,7,21,-1.099568486213684,3.408679485321045,13.868106334863402,13.684118133058815,56.507737990702246,48.35866521441126,-0.0002266406954731,0.1099197939038276,0,0,0
4508,186639.59457973356,2011-01-20 17:08:27,1637.253735479194,7,21,-1.0993878841400146,3.400747060775757,13.868106334863402,13.693284925599627,56.507737990702246,48.389876300710434,-0.0002266406954731,0.1099197939038276,0,0,0
4509,186669.609391991,2011-01-20 17:08:57,1667.2685477517043,7,21,-1.0993878841400146,3.392167091369629,13.868106334863402,13.702451480983346,56.507737990702246,48.421010697793164,-0.0002266406954731,0.1099197939038276,0,0,0
4510,186699.6245006171,2011-01-20 17:09:27,1697.283656357769,7,21,-1.0993878841400146,3.382939577102661,13.868106334863402,13.711618128644655,56.507737990702246,48.45206352947817,-0.0002266406954731,0.1099197939038276,0,0,0
4511,186729.6396321804,2011-01-20 17:09:57,1727.2987879461118,7,21,-1.0993878841400146,3.372578859329224,13.868106334863402,13.720784770818236,56.507737990702246,48.48302589661281,-0.0002913951757363,0.1099197939038276,0,0,0
4512,186759.6548804445,2011-01-20 17:10:28,1757.3140361952096,7,21,-1.099568486213684,3.3607611656188965,13.868106334863402,13.729951538060542,56.507737990702246,48.51388830902855,-0.0003237724304199,0.1099197939038276,0,0,0
4513,186789.669887312,2011-01-20 17:10:58,1787.32904308276,7,21,-1.0993878841400146,3.347324848175049,13.868106334863402,13.739118168626202,56.507737990702246,48.54463497254079,-0.0003885269106831,0.1099197939038276,0,0,0
4514,186819.68498311617,2011-01-20 17:11:28,1817.344138861856,7,21,-1.0993878841400146,3.3321075439453125,13.868106334863402,13.748284829643412,56.507737990702246,48.57525043504666,-0.0003885269106831,0.1099197939038276,0,0,0
4515,186849.700106058,2011-01-20 17:11:58,1847.3592618086616,7,21,-1.099568486213684,3.313652515411377,13.868106334863402,13.757451457082174,56.507737990702246,48.60571173022496,-0.0004856586456298,0.1099197939038276,0,0,0
4516,186879.7152387691,2011-01-20 17:12:28,1877.3743945147908,7,21,-1.0993878841400146,3.2911503314971924,13.868106334863402,13.76661796954568,56.507737990702246,48.635986945704445,-0.0006799221155233,0.1099197939038276,0,0,0
4517,186909.73045846703,2011-01-20 17:12:58,1907.3896142127303,7,21,-1.0993878841400146,3.263306140899658,13.868106334863402,13.775784604752852,56.507737990702246,48.666033883913215,-0.0008741855854168,0.1099197939038276,0,0,0
4518,186939.74544786097,2011-01-20 17:13:28,1937.4046035966564,7,21,-1.0992072820663452,3.2280149459838867,13.868106334863402,13.784951198693737,56.507737990702246,48.695790888446496,-0.0010684489971026,0.1099197939038276,0,0,0
4519,186969.7605663918,2011-01-20 17:13:58,1967.419722132469,7,21,-1.0993878841400146,3.181553840637207,13.868106334863402,13.794117816391426,56.507737990702246,48.72517873858944,-0.0014893531333655,0.1099197939038276,0,0,0
4520,186999.77574634063,2011-01-20 17:14:28,1997.4349020863533,7,21,-1.0993878841400146,3.119389533996582,13.868106334863402,13.803284471552947,56.507737990702246,48.754074176692605,-0.0019102573860436,0.1099197939038276,0,0,0
4521,187029.790944921,2011-01-20 17:14:58,2027.450100681699,7,21,-1.0990266799926758,3.0298666954040527,13.868106334863402,13.812451177755117,56.507737990702246,48.78228393149826,-0.002816820051521,0.1099197939038276,0,0,0
4522,187059.80592348293,2011-01-20 17:15:28,2057.4650792336283,7,21,-1.0993878841400146,2.895501613616944,13.868106334863402,13.821617829000838,56.507737990702246,48.80948325463038,-0.0042090415954589,0.1099197939038276,0,0,0
4523,187089.82117551647,2011-01-20 17:15:58,2087.480331252121,7,21,-1.0993878841400146,2.700915098190308,13.868106334863402,13.83078458017099,56.507737990702246,48.83517877753274,-0.0057631013914942,0.1099197939038276,0,0,0
4524,187089.93041977176,2011-01-20 17:15:58,2087.5895755374936,7,21,-1.099568486213684,2.699943780899048,13.868106334863402,13.830817943750253,56.507737990702246,48.83526887816576,-0.0058278562501072,0.1099197939038276,0,0,0
4525,187149.95317199788,2011-01-20 17:16:58,60.01459030005552,8,21,0.0,3.6005139350891118,13.868106334863402,13.830817943750253,56.507737990702246,48.83526887816576,0.0012950897216796,0.1099197939038276,0,0,0
4526,187150.13435087889,2011-01-20 17:16:58,0.187629139547796,9,21,-1.9243103452026844e-05,3.6006758213043213,13.868106334863402,13.830817944753187,56.507737990702246,48.835268881777,0.0,0.108498990535736,0,0,0
4527,187154.9622920488,2011-01-20 17:17:03,5.015570324501065,9,21,0.0007031940040178,3.60860824584961,13.868107469982217,13.830817944932429,56.50774208308015,48.83526888242239,0.0011008263099938,0.108498990535736,0,0,0
