Data_Point,Test_Time(s),Date_Time,Step_Time(s),Step_Index,Cycle_Index,Current(A),Voltage(V),Charge_Capacity(Ah),Discharge_Capacity(Ah),Charge_Energy(Wh),Discharge_Energy(Wh),dV/dt(V/s),Internal_Resistance(Ohm),Is_FC_Data,AC_Impedance(Ohm),ACI_Phase_Angle(Deg)
4736,195860.19668059115,2011-01-20 19:42:10,30.01523168782196,1,23,0.0,3.64940357208252,14.504724192019792,14.459291641756764,59.10441599345738,51.04332374978068,0.0006475448608398,0.1099197939038276,0,0,0
4737,195890.2116704112,2011-01-20 19:42:40,60.030221497809926,1,23,0.0,3.669153690338135,14.504724192019792,14.459291641756764,59.10441599345738,51.04332374978068,0.0004532813909463,0.1099197939038276,0,0,0
4738,195920.22679444065,2011-01-20 19:43:10,90.04534552731423,1,23,0.0,3.6825900077819824,14.504724192019792,14.459291641756764,59.10441599345738,51.04332374978068,0.0002913951757363,0.1099197939038276,0,0,0
4739,195950.1951747404,2011-01-20 19:43:40,120.01372583708628,1,23,0.0,3.69295072555542,14.504724192019792,14.459291641756764,59.10441599345738,51.04332374978068,0.0002590179501567,0.1099197939038276,0,0,0
4740,195980.21265571177,2011-01-20 19:44:10,30.015247417023964,2,23,0.5501165986061096,3.814041376113892,14.50931147822332,14.459291641756764,59.121826642503,51.04332374978068,0.0007770538213662,0.1099197939038276,0,0,0
4741,196010.22764753675,2011-01-20 19:44:40,60.030239226996514,2,23,0.5501165986061096,3.834762573242188,14.513898582979646,14.459291641756764,59.13937369832204,51.04332374978068,0.000453233718872,0.1099197939038276,0,0,0
4742,196040.24277821783,2011-01-20 19:45:10,90.0453699080786,2,23,0.5501165986061096,3.848684787750244,14.518485680807949,14.459291641756764,59.1569975838464,51.04332374978068,0.0003237724304199,0.1099197939038276,0,0,0
4743,196070.25787637787,2011-01-20 19:45:40,120.06046809317068,2,23,0.5501165986061096,3.859854936599731,14.523072899828048,14.459291641756764,59.17467846666296,51.04332374978068,0.0003237724304199,0.1099197939038276,0,0,0
4744,196100.27309784523,2011-01-20 19:46:10,150.07568957054505,2,23,0.5501165986061096,3.869244337081909,14.527660084748062,14.459291641756764,59.1924062521567,51.04332374978068,0.0001942634553415,0.1099197939038276,0,0,0
4745,196130.28808934943,2011-01-20 19:46:40,180.09068104969307,2,23,0.5501165986061096,3.877662420272827,14.532247188997276,14.459291641756764,59.21017508452502,51.04332374978068,0.0002266406954731,0.1099197939038276,0,0,0
4746,196160.30319451191,2011-01-20 19:47:10,210.10578621217496,2,23,0.5501165986061096,3.8855948448181152,14.536834428824823,14.459291641756764,59.22798167793147,51.04332374978068,0.0002266406954731,0.1099197939038276,0,0,0
4747,196190.31830763424,2011-01-20 19:47:40,240.12089932447023,2,23,0.550297200679779,3.8927178382873535,14.541421618229364,14.459291641756764,59.24582205878092,51.04332374978068,0.0001942634553415,0.1099197939038276,0,0,0
4748,196220.3334179696,2011-01-20 19:48:10,270.1360096698695,2,23,0.550297200679779,3.899355173110962,14.54600884899553,14.459291641756764,59.2636939740707,51.04332374978068,0.0001942634553415,0.1099197939038276,0,0,0
4749,196250.34854082612,2011-01-20 19:48:40,300.15113251642555,2,23,0.5501165986061096,3.905506849288941,14.550596029442952,14.459291641756764,59.281595477615085,51.04332374978068,0.0001295089750783,0.1099197939038276,0,0,0
4750,196280.36379096,2011-01-20 19:49:10,330.166382685308,2,23,0.5501165986061096,3.911496639251709,14.55518309232853,14.459291641756764,59.2995245754533,51.04332374978068,0.0001618862152099,0.1099197939038276,0,0,0
4751,196310.3787367252,2011-01-20 19:49:40,360.1813284254604,2,23,0.5501165986061096,3.9174861907958975,14.559770194967324,14.459291641756764,59.31748070674891,51.04332374978068,0.0001942634553415,0.1099197939038276,0,0,0
4752,196340.39397098945,2011-01-20 19:50:10,390.1965626997286,2,23,0.550297200679779,3.922828435897827,14.564357339966014,14.459291641756764,59.335462733019085,51.04332374978068,0.0001295089750783,0.1099197939038276,0,0,0
4753,196370.4090935202,2011-01-20 19:50:40,420.211685225485,2,23,0.5501165986061096,3.928008794784546,14.5689445101217,14.459291641756764,59.353469488150175,51.04332374978068,0.0001618862152099,0.1099197939038276,0,0,0
4754,196400.42421678783,2011-01-20 19:51:10,450.22680849309046,2,23,0.550297200679779,3.9331891536712646,14.573531608662472,14.459291641756764,59.37149949470904,51.04332374978068,0.0001295089750783,0.1099197939038276,0,0,0
4755,196430.4392169336,2011-01-20 19:51:40,480.2418086388384,2,23,0.550297200679779,3.938045740127564,14.578118768121966,14.459291641756764,59.3895525097655,51.04332374978068,0.0001618862152099,0.1099197939038276,0,0,0
4756,196460.45445583932,2011-01-20 19:52:10,510.25704756469975,2,23,0.550297200679779,3.942740440368652,14.58270601230056,14.459291641756764,59.4076277507801,51.04332374978068,0.0001618862152099,0.1099197939038276,0,0,0
4757,196490.4694588222,2011-01-20 19:52:40,540.2720505425059,2,23,0.5501165986061096,3.9469494819641113,14.58729319140796,14.459291641756764,59.42572340777848,51.04332374978068,0.0001295089750783,0.1099197939038276,0,0,0
4758,196520.4849449893,2011-01-20 19:53:10,570.287536694531,2,23,0.5501165986061096,3.9511585235595694,14.591880464359978,14.459291641756764,59.44383922975244,51.04332374978068,9.713172767078504e-05,0.1099197939038276,0,0,0
4759,196550.4996294482,2011-01-20 19:53:40,600.3022211685277,2,23,0.550297200679779,3.955367565155029,14.596467636175268,14.459291641756764,59.46197376196162,51.04332374978068,0.0001295089750783,0.1099197939038276,0,0,0
4760,196580.51487891036,2011-01-20 19:54:10,630.3174706356612,2,23,0.550297200679779,3.959252834320069,14.601054925436507,14.459291641756764,59.48012701898156,51.04332374978068,0.0001295089750783,0.1099197939038276,0,0,0
4761,196610.53002793711,2011-01-20 19:54:40,660.332619637404,2,23,0.5501165986061096,3.962814331054688,14.605642115580336,14.459291641756764,59.49829730948671,51.04332374978068,6.47544875391759e-05,0.1099197939038276,0,0,0
4762,196640.54510785668,2011-01-20 19:55:10,690.3476995770227,2,23,0.5501165986061096,3.9665377140045166,14.61022937152292,14.459291641756764,59.51648485521447,51.04332374978068,9.713172767078504e-05,0.1099197939038276,0,0,0
4763,196670.56008817305,2011-01-20 19:55:40,720.3626798933495,2,23,0.550297200679779,3.9702610969543457,14.614816552214304,14.459291641756764,59.53468846594901,51.04332374978068,6.47544875391759e-05,0.1099197939038276,0,0,0
4764,196700.575212789,2011-01-20 19:56:10,750.3778044992905,2,23,0.5501165986061096,3.973660707473755,14.619403754714256,14.459291641756764,59.55290809713565,51.04332374978068,0.0001295089750783,0.1099197939038276,0,0,0
4765,196730.5904436748,2011-01-20 19:56:40,780.3930353951387,2,23,0.550297200679779,3.977060317993164,14.623991012487496,14.459291641756764,59.571143720924205,51.04332374978068,9.713172767078504e-05,0.1099197939038276,0,0,0
4766,196760.6055655289,2011-01-20 19:57:10,810.4081572291713,2,23,0.5501165986061096,3.9802980422973633,14.628578187207362,14.459291641756764,59.589394138603645,51.04332374978068,9.713172767078504e-05,0.1099197939038276,0,0,0
4767,196790.62052746443,2011-01-20 19:57:40,840.42311918975,2,23,0.5501165986061096,3.9835357666015625,14.633165269715745,14.459291641756764,59.60765952652295,51.04332374978068,9.713172767078504e-05,0.1099197939038276,0,0,0
4768,196820.63576622485,2011-01-20 19:58:10,870.438357920124,2,23,0.550297200679779,3.9867734909057617,14.63775243917018,14.459291641756764,59.625940017043774,51.04332374978068,9.713172767078504e-05,0.1099197939038276,0,0,0
4769,196850.653113345,2011-01-20 19:58:40,900.4557051605541,2,23,0.5501165986061096,3.989849328994751,14.64233997551435,14.459291641756764,59.644236427046096,51.04332374978068,6.47544875391759e-05,0.1099197939038276,0,0,0
4770,196880.66600409348,2011-01-20 19:59:10,930.4685958137976,2,23,0.550297200679779,3.99308705329895,14.646926793348271,14.459291641756764,59.66254426795247,51.04332374978068,9.713172767078504e-05,0.1099197939038276,0,0,0
4771,196910.68100191845,2011-01-20 19:59:40,960.4835936337488,2,23,0.550297200679779,3.9963245391845694,14.651513817732376,14.459291641756764,59.680867050250576,51.04332374978068,0.0001618862152099,0.1099197939038276,0,0,0
4772,196940.6960941337,2011-01-20 20:00:10,990.4986858539744,2,23,0.5501165986061096,3.99907660484314,14.6561009837574,14.459291641756764,59.69920444304739,51.04332374978068,0.0001295089750783,0.1099197939038276,0,0,0
4773,196970.71121778723,2011-01-20 20:00:40,1020.5138095125544,2,23,0.5501165986061096,4.002152442932129,14.660687979821812,14.459291641756764,59.71755493604893,51.04332374978068,9.70840483205393e-05,0.1099197939038276,0,0,0
4774,197000.72631750617,2011-01-20 20:01:10,1050.5289092064068,2,23,0.5501165986061096,4.005066394805908,14.665275063504785,14.459291641756764,59.73591936536854,51.04332374978068,9.70840483205393e-05,0.1099197939038276,0,0,0
4775,197030.74142543552,2011-01-20 20:01:40,1080.5440171458094,2,23,0.550297200679779,4.007980346679688,14.66986216951592,14.459291641756764,59.75429730121735,51.04332374978068,9.70840483205393e-05,0.1099197939038276,0,0,0
4776,197060.75653763555,2011-01-20 20:02:10,1110.5591293358063,2,23,0.5501165986061096,4.010732650756836,14.674449326719747,14.459291641756764,59.77268860707163,51.04332374978068,6.47544875391759e-05,0.1099197939038276,0,0,0
4777,197090.77166090315,2011-01-20 20:02:40,1140.574252608424,2,23,0.5499359965324402,4.013484477996826,14.67903642348424,14.459291641756764,59.79109284448197,51.04332374978068,3.23295607813634e-05,0.1099197939038276,0,0,0
4778,197120.78678721836,2011-01-20 20:03:10,1170.58937893365,2,23,0.550297200679779,4.0165605545043945,14.683623540103335,14.459291641756764,59.80951018340014,51.04332374978068,0.0001295089750783,0.1099197939038276,0,0,0
4779,197150.8025666513,2011-01-20 20:03:40,1200.6051584418087,2,23,0.5504778623580933,4.019312381744385,14.68821083321391,14.459291641756764,59.82794122455272,51.04332374978068,6.47544875391759e-05,0.1099197939038276,0,0,0
4780,197180.80267906224,2011-01-20 20:04:10,1230.6052708778032,2,23,0.550297200679779,4.022064685821533,14.692795668219295,14.459291641756764,59.84637524271696,51.04332374978068,6.47544875391759e-05,0.1099197939038276,0,0,0
4781,197210.8165241392,2011-01-20 20:04:40,1260.6191158595268,2,23,0.5501165986061096,4.024816513061523,14.697382654245136,14.459291641756764,59.86483073472113,51.04332374978068,9.70840483205393e-05,0.1099197939038276,0,0,0
4782,197240.831621006,2011-01-20 20:05:10,1290.6342126962584,2,23,0.550297200679779,4.027730464935303,14.701969747596385,14.459291641756764,59.88329928590626,51.04332374978068,0.0001295089750783,0.1099197939038276,0,0,0
4783,197270.84672959705,2011-01-20 20:05:40,1320.6493212872854,2,23,0.5499359965324402,4.030158996582031,14.706556878795896,14.459291641756764,59.90178058301698,51.04332374978068,3.24249267578125e-05,0.1099197939038276,0,0,0
4784,197300.8618294864,2011-01-20 20:06:10,1350.6644211816374,2,23,0.5501165986061096,4.033234596252441,14.711144032879858,14.459291641756764,59.920274634345446,51.04332374978068,0.0001295089750783,0.1099197939038276,0,0,0
4785,197330.8769542728,2011-01-20 20:06:40,1380.6795459630157,2,23,0.5499359965324402,4.035824775695801,14.715731178413131,14.459291641756764,59.93878125776807,51.04332374978068,6.47544875391759e-05,0.1099197939038276,0,0,0
4786,197360.89205216212,2011-01-20 20:07:11,1410.694643867408,2,23,0.5501165986061096,4.03841495513916,14.72031838174792,14.459291641756764,59.95730079180255,51.04332374978068,3.24249267578125e-05,0.1099197939038276,0,0,0
4787,197390.90715951004,2011-01-20 20:07:41,1440.7097512353866,2,23,0.5501165986061096,4.04132890701294,14.724905560421517,14.459291641756764,59.97583275668185,51.04332374978068,9.71794142969884e-05,0.1099197939038276,0,0,0
4788,197420.9222615247,2011-01-20 20:08:11,1470.7248532399983,2,23,0.5501165986061096,4.04408073425293,14.729492595237318,14.459291641756764,59.99437669227141,51.04332374978068,9.70840483205393e-05,0.1099197939038276,0,0,0
4789,197450.9374073485,2011-01-20 20:08:41,1500.7399990487831,2,23,0.550297200679779,4.046833038330078,14.734079756039678,14.459291641756764,60.01293374254906,51.04332374978068,9.71794142969884e-05,0.1099197939038276,0,0,0
4790,197480.9525257339,2011-01-20 20:09:11,1530.7551174542707,2,23,0.550297200679779,4.049584865570068,14.738666897533292,14.459291641756764,60.031503347359,51.04332374978068,6.47544875391759e-05,0.1099197939038276,0,0,0
4791,197510.96760671612,2011-01-20 20:09:41,1560.7701984465127,2,23,0.5501165986061096,4.052175045013428,14.743254089806966,14.459291641756764,60.05008573188592,51.04332374978068,3.23295607813634e-05,0.1099197939038276,0,0,0
4792,197540.9827159689,2011-01-20 20:10:11,1590.7853076991887,2,23,0.5501165986061096,4.055088996887207,14.747841238216264,14.459291641756764,60.068680432981296,51.04332374978068,6.47544875391759e-05,0.1099197939038276,0,0,0
4793,197570.9979491404,2011-01-20 20:10:41,1620.800540845646,2,23,0.5499359965324402,4.057679176330566,14.752428444895404,14.459291641756764,60.08728790224116,51.04332374978068,3.23295607813634e-05,0.1099197939038276,0,0,0
4794,197601.01295348656,2011-01-20 20:11:11,1650.815545181838,2,23,0.550297200679779,4.060431480407715,14.757015590788434,14.459291641756764,60.1059078228972,51.04332374978068,0.0,0.1099197939038276,0,0,0
4795,197631.0281902621,2011-01-20 20:11:41,1680.8307819824024,2,23,0.5501165986061096,4.063183307647705,14.761602768825172,14.459291641756764,60.12454001350712,51.04332374978068,6.47544875391759e-05,0.1099197939038276,0,0,0
4796,197661.0431627439,2011-01-20 20:12:11,1710.845754444153,2,23,0.550297200679779,4.0659356117248535,14.766189931226418,14.459291641756764,60.14318497822507,51.04332374978068,6.47544875391759e-05,0.1099197939038276,0,0,0
4797,197691.05829002144,2011-01-20 20:12:41,1740.8608817317777,2,23,0.5501165986061096,4.068687438964844,14.770777066057212,14.459291641756764,60.16184258595761,51.04332374978068,3.23295607813634e-05,0.1099197939038276,0,0,0
4798,197721.0733986526,2011-01-20 20:13:11,1770.8759903528794,2,23,0.550297200679779,4.071601390838623,14.775364243874558,14.459291641756764,60.18051318137234,51.04332374978068,9.70840483205393e-05,0.1099197939038276,0,0,0
4799,197751.08875490588,2011-01-20 20:13:41,1800.8913467414943,2,23,0.5501165986061096,4.074353694915772,14.779951441429503,14.459291641756764,60.199196743177325,51.04332374978068,3.24249267578125e-05,0.1099197939038276,0,0,0
4800,197781.103632025,2011-01-20 20:14:11,1830.9062237553592,2,23,0.5501165986061096,4.077267646789551,14.7845385528783,14.459291641756764,60.21789307775355,51.04332374978068,6.47544875391759e-05,0.1099197939038276,0,0,0
4801,197811.11886447476,2011-01-20 20:14:41,1860.9214561850304,2,23,0.550297200679779,4.08018159866333,14.789125681314331,14.459291641756764,60.23660256234576,51.04332374978068,9.71794142969884e-05,0.1099197939038276,0,0,0
4802,197841.1340723532,2011-01-20 20:15:11,1890.9366640484748,2,23,0.550297200679779,4.083095550537109,14.793712879871586,14.459291641756764,60.25532544908554,51.04332374978068,9.71794142969884e-05,0.1099197939038276,0,0,0
4803,197871.14908363167,2011-01-20 20:15:41,1920.9516753319813,2,23,0.550297200679779,4.0858473777771,14.798300033016384,14.459291641756764,60.274061503441175,51.04332374978068,3.23295607813634e-05,0.1099197939038276,0,0,0
4804,197901.16407336653,2011-01-20 20:16:11,1950.9666650818192,2,23,0.5499359965324402,4.088761329650879,14.802886447032217,14.459291641756764,60.29280777232289,51.04332374978068,6.47544875391759e-05,0.1099197939038276,0,0,0
4805,197931.1791756769,2011-01-20 20:16:41,1980.9817673771552,2,23,0.5501165986061096,4.091675281524658,14.807472867918507,14.459291641756764,60.31156753324293,51.04332374978068,3.23295607813634e-05,0.1099197939038276,0,0,0
4806,197961.19432142552,2011-01-20 20:17:11,2010.9969131558653,2,23,0.5504778623580933,4.094913005828857,14.812060030809109,14.459291641756764,60.330343968351606,51.04332374978068,9.70840483205393e-05,0.1099197939038276,0,0,0
4807,197991.20943078343,2011-01-20 20:17:41,2041.0120225087912,2,23,0.5499359965324402,4.097665309906006,14.816647197957195,14.459291641756764,60.34913420466817,51.04332374978068,9.71794142969884e-05,0.1099197939038276,0,0,0
4808,198021.22452735453,2011-01-20 20:18:11,2071.0271190798608,2,23,0.550297200679779,4.100903034210205,14.821234387590374,14.459291641756764,60.367938330672885,51.04332374978068,9.71794142969884e-05,0.1099197939038276,0,0,0
4809,198051.23976846584,2011-01-20 20:18:41,2101.042360191169,2,23,0.550297200679779,4.103978633880615,14.82582162745865,14.459291641756764,60.38675652705727,51.04332374978068,0.0001295089750783,0.1099197939038276,0,0,0
4810,198081.25476161417,2011-01-20 20:19:11,2131.057353329452,2,23,0.5501165986061096,4.1068925857543945,14.830408826422651,14.459291641756764,60.40558865618049,51.04332374978068,6.47544875391759e-05,0.1099197939038276,0,0,0
4811,198111.2698800347,2011-01-20 20:19:41,2161.072471749977,2,23,0.550297200679779,4.109968662261963,14.834996022690154,14.459291641756764,60.42443493843934,51.04332374978068,6.47544875391759e-05,0.1099197939038276,0,0,0
4812,198141.28497437012,2011-01-20 20:20:11,2191.087566090487,2,23,0.550297200679779,4.113206386566162,14.839583243833992,14.459291641756764,60.44329563538624,51.04332374978068,0.0001295089750783,0.1099197939038276,0,0,0
4813,198171.30008804388,2011-01-20 20:20:41,2221.1026797742065,2,23,0.5501165986061096,4.116281986236572,14.844170359783272,14.459291641756764,60.46217023438351,51.04332374978068,9.71794142969884e-05,0.1099197939038276,0,0,0
4814,198201.31521316108,2011-01-20 20:21:11,2251.1178048813968,2,23,0.5501165986061096,4.119519710540772,14.848757534528874,14.459291641756764,60.481059677546014,51.04332374978068,9.71794142969884e-05,0.1099197939038276,0,0,0
4815,198231.3304691144,2011-01-20 20:21:41,2281.133060814645,2,23,0.5501165986061096,4.122757434844971,14.853344705023945,14.459291641756764,60.49996380872396,51.04332374978068,9.71794142969884e-05,0.1099197939038276,0,0,0
4816,198261.34541539088,2011-01-20 20:22:11,2311.1480071161973,2,23,0.550297200679779,4.126156806945801,14.857931818584571,14.459291641756764,60.51888241875405,51.04332374978068,0.0001295089750783,0.1099197939038276,0,0,0
4817,198291.36054540027,2011-01-20 20:22:41,2341.163137105555,2,23,0.5501165986061096,4.12907075881958,14.862518990386125,14.459291641756764,60.537816253868165,51.04332374978068,3.23295607813634e-05,0.1099197939038276,0,0,0
4818,198321.3758674684,2011-01-20 20:23:11,2371.1784591936826,2,23,0.5501165986061096,4.132632255554199,14.867106178971518,14.459291641756764,60.55676521467056,51.04332374978068,0.0001295089750783,0.1099197939038276,0,0,0
4819,198351.39088925303,2011-01-20 20:23:41,2401.1934809683366,2,23,0.550297200679779,4.135869979858398,14.8716933165281,14.459291641756764,60.57572903996585,51.04332374978068,0.0001295089750783,0.1099197939038276,0,0,0
4820,198381.4059927714,2011-01-20 20:24:11,2431.2085844516337,2,23,0.5501165986061096,4.139269828796387,14.876280486287175,14.459291641756764,60.59470833470808,51.04332374978068,9.71794142969884e-05,0.1099197939038276,0,0,0
4821,198411.4209932229,2011-01-20 20:24:41,2461.223584913168,2,23,0.5501165986061096,4.142507553100586,14.880867698684003,14.459291641756764,60.61370329579077,51.04332374978068,9.71794142969884e-05,0.1099197939038276,0,0,0
4822,198441.43622729168,2011-01-20 20:25:11,2491.2388189919493,2,23,0.5501165986061096,4.145906925201416,14.885454865823794,14.459291641756764,60.63271369353479,51.04332374978068,3.23295607813634e-05,0.1099197939038276,0,0,0
4823,198471.451454358,2011-01-20 20:25:41,2521.2540460582527,2,23,0.550297200679779,4.149468421936035,14.890042069110548,14.459291641756764,60.651740232966354,51.04332374978068,9.70840483205393e-05,0.1099197939038276,0,0,0
4824,198501.4663196777,2011-01-20 20:26:11,2551.2689114030354,2,23,0.5501165986061096,4.153029918670654,14.89462915338522,14.459291641756764,60.6707821665315,51.04332374978068,9.70840483205393e-05,0.1099197939038276,0,0,0
4825,198531.48145091016,2011-01-20 20:26:41,2581.2840426354915,2,23,0.5501165986061096,4.1562676429748535,14.89921623871882,14.459291641756764,60.68984003820531,51.04332374978068,3.23295607813634e-05,0.1099197939038276,0,0,0
4826,198561.49670901883,2011-01-20 20:27:11,2611.299300734137,2,23,0.5504778623580933,4.160152912139893,14.903803416736563,14.459291641756764,60.70891430667319,51.04332374978068,0.0001618385285837,0.1099197939038276,0,0,0
4827,198591.5117842116,2011-01-20 20:27:41,2641.3143759369505,2,23,0.550297200679779,4.163390636444092,14.908390555411264,14.459291641756764,60.72800450830234,51.04332374978068,9.70840483205393e-05,0.1099197939038276,0,0,0
4828,198621.5267662372,2011-01-20 20:28:11,2671.329357937475,2,23,0.5501165986061096,4.166952133178711,14.912977713958124,14.459291641756764,60.74711103319777,51.04332374978068,9.70840483205393e-05,0.1099197939038276,0,0,0
4829,198651.5418802217,2011-01-20 20:28:41,2701.344471941994,2,23,0.550297200679779,4.170675754547119,14.917564875333928,14.459291641756764,60.76623406416569,51.04332374978068,9.71794142969884e-05,0.1099197939038276,0,0,0
4830,198681.5570022913,2011-01-20 20:29:11,2731.3595940015884,2,23,0.5499359965324402,4.174075126647949,14.922151999022097,14.459291641756764,60.7853736540716,51.04332374978068,6.47544875391759e-05,0.1099197939038276,0,0,0
4831,198711.57251342057,2011-01-20 20:29:41,2761.37510512084,2,23,0.5501165986061096,4.177960395812988,14.926739203237448,14.459291641756764,60.80453019461108,51.04332374978068,0.0001295089750783,0.1099197939038276,0,0,0
4832,198741.58740367743,2011-01-20 20:30:11,2791.3899954679355,2,23,0.5501165986061096,4.181521892547607,14.931326287068147,14.459291641756764,60.8237029829346,51.04332374978068,0.0001295089750783,0.1099197939038276,0,0,0
4833,198771.60231970355,2011-01-20 20:30:41,2821.4049114238564,2,23,0.5501165986061096,4.185083389282227,14.935913410039545,14.459291641756764,60.842892871674735,51.04332374978068,6.47544875391759e-05,0.1099197939038276,0,0,0
4834,198801.6198504664,2011-01-20 20:31:11,2851.4224421866807,2,23,0.550297200679779,4.188968658447266,14.940500958397667,14.459291641756764,60.86210158573798,51.04332374978068,9.70840483205393e-05,0.1099197939038276,0,0,0
4835,198831.63256804325,2011-01-20 20:31:41,2881.435159763565,2,23,0.5501165986061096,4.192853927612305,14.945087800045572,14.459291641756764,60.88132456819993,51.04332374978068,0.0001295089750783,0.1099197939038276,0,0,0
4836,198861.64764913075,2011-01-20 20:32:11,2911.4502408510443,2,23,0.550297200679779,4.196577072143555,14.949674944201073,14.459291641756764,60.900566141692046,51.04332374978068,9.70840483205393e-05,0.1099197939038276,0,0,0
4837,198888.03788449732,2011-01-20 20:32:38,2937.840476212637,2,23,0.550297200679779,4.200138568878174,14.95370804937908,14.459291641756764,60.917498121351606,51.04332374978068,0.0001295089750783,0.1099197939038276,0,0,0
4838,198918.05864884943,2011-01-20 20:33:08,30.015093869335885,3,23,0.0,4.091513633728027,14.95370804937908,14.459291641756764,60.917498121351606,51.04332374978068,-0.0004856109735555,0.1099197939038276,0,0,0
4839,198948.0737647437,2011-01-20 20:33:38,60.03020975855208,3,23,0.0,4.077429294586182,14.95370804937908,14.459291641756764,60.917498121351606,51.04332374978068,-0.0002590179501567,0.1099197939038276,0,0,0
4840,198978.0888644275,2011-01-20 20:34:08,90.04530943736695,3,23,0.0,4.068687438964844,14.95370804937908,14.459291641756764,60.917498121351606,51.04332374978068,-0.0001619339018361,0.1099197939038276,0,0,0
4841,199008.05714118923,2011-01-20 20:34:38,120.01358618904038,3,23,0.0,4.062535762786865,14.95370804937908,14.459291641756764,60.917498121351606,51.04332374978068,-0.0001619339018361,0.1099197939038276,0,0,0
4842,199008.0648904232,2011-01-20 20:34:38,2.631558654e-06,4,23,1.0310791730880735,4.199814796447754,14.953708050132787,14.459291641756764,60.91749812451704,51.04332374978068,0.0,0.1099197939038276,0,0,0
4843,199008.5649160609,2011-01-20 20:34:38,0.500028299376909,4,23,0.9805085062980652,4.199653148651123,14.953846543613333,14.459291641756764,60.918079778300765,51.04332374978068,-3.23295607813634e-05,0.1099197939038276,0,0,0
4844,199010.33047618,2011-01-20 20:34:40,2.265588418442888,4,23,0.9299378991127014,4.199814796447754,14.954313965755013,14.459291641756764,60.92004287842719,51.04332374978068,0.0,0.1099197939038276,0,0,0
4845,199013.1429396794,2011-01-20 20:34:43,5.078051917856812,4,23,0.8795479536056519,4.199976921081543,14.95501964144511,14.459291641756764,60.923006621260285,51.04332374978068,3.24249267578125e-05,0.1099197939038276,0,0,0
4846,199016.98661644457,2011-01-20 20:34:47,8.921728683025387,4,23,0.829338550567627,4.199814796447754,14.955930831790385,14.459291641756764,60.92683351131937,51.04332374978068,-3.24249267578125e-05,0.1099197939038276,0,0,0
4847,199022.1742548056,2011-01-20 20:34:52,14.10936702897992,4,23,0.779129147529602,4.199976921081543,14.957088465139895,14.459291641756764,60.93169542294704,51.04332374978068,3.24249267578125e-05,0.1099197939038276,0,0,0
4848,199028.89265624416,2011-01-20 20:34:59,20.82776849262778,4,23,0.7289198040962219,4.199976921081543,14.958493922465877,14.459291641756764,60.93759817767848,51.04332374978068,3.24249267578125e-05,0.1099197939038276,0,0,0
4849,199037.7518863064,2011-01-20 20:35:08,29.68699854483481,4,23,0.6788910031318665,4.199814796447754,14.960223788120269,14.459291641756764,60.94486341085502,51.04332374978068,0.0,0.1099197939038276,0,0,0
4850,199050.01743508293,2011-01-20 20:35:20,41.95254731137605,4,23,0.6288622617721558,4.199814796447754,14.96244715873402,14.459291641756764,60.954201299488886,51.04332374978068,-3.24249267578125e-05,0.1099197939038276,0,0,0
4851,199068.31385863508,2011-01-20 20:35:38,60.24897085852432,4,23,0.5788334608078003,4.199814796447754,14.965507295087177,14.459291641756764,60.96705350351892,51.04332374978068,-3.24249267578125e-05,0.1099197939038276,0,0,0
4852,199099.61019862903,2011-01-20 20:36:10,91.5453108624572,4,23,0.5288047194480896,4.199814796447754,14.970301767014112,14.459291641756764,60.98718975512833,51.04332374978068,-3.24249267578125e-05,0.1099197939038276,0,0,0
4853,199162.0466331751,2011-01-20 20:37:12,153.9817454135692,4,23,0.4785953462123871,4.199814796447754,14.978992120525575,14.459291641756764,61.02368820606177,51.04332374978068,0.0,0.1099197939038276,0,0,0
4854,199270.87291453825,2011-01-20 20:39:01,262.80802677172335,4,23,0.428566575050354,4.199814796447754,14.992664566130305,14.459291641756764,61.08111089999545,51.04332374978068,-3.24249267578125e-05,0.1099197939038276,0,0,0
4855,199414.83940635828,2011-01-20 20:41:25,406.7745185867084,4,23,0.3785378038883209,4.199814796447754,15.00878026295218,14.459291641756764,61.148794941882905,51.04332374978068,3.23295607813634e-05,0.1099197939038276,0,0,0
4856,199589.21139594924,2011-01-20 20:44:19,581.146508177689,4,23,0.3285090327262878,4.199814796447754,15.025877427848783,14.459291641756764,61.22060100279205,51.04332374978068,-3.24249267578125e-05,0.1099197939038276,0,0,0
4857,199799.23901438827,2011-01-20 20:47:49,791.1741266117091,4,23,0.2784802615642547,4.199653148651123,15.043551084007737,14.459291641756764,61.29482817906417,51.04332374978068,-3.23295607813634e-05,0.1099197939038276,0,0,0
4858,200057.67198161045,2011-01-20 20:52:08,1049.6070938188254,4,23,0.2284514904022216,4.199814796447754,15.061700318296014,14.459291641756764,61.3710526978032,51.04332374978068,0.0,0.1099197939038276,0,0,0
4859,200385.9945189157,2011-01-20 20:57:36,1377.9296313396464,4,23,0.1784227192401886,4.199814796447754,15.080181492451525,14.459291641756764,61.44867136637641,51.04332374978068,-3.24249267578125e-05,0.1099197939038276,0,0,0
4860,200833.5492930821,2011-01-20 21:05:03,1825.4844052955057,4,23,0.1283939480781555,4.199653148651123,15.09913178624123,14.459291641756764,61.5282602171869,51.04332374978068,-3.23295607813634e-05,0.1099197939038276,0,0,0
4861,201554.59961254988,2011-01-20 21:17:05,2546.534724773281,4,23,0.078365184366703,4.199814796447754,15.119433281902248,14.459291641756764,61.61352378385095,51.04332374978068,0.0,0.1099197939038276,0,0,0
4862,202304.11811350533,2011-01-20 21:29:34,3296.05322572874,4,23,0.0498289167881011,4.199814796447754,15.13259080635633,14.459291641756764,61.66878383253954,51.04332374978068,-3.24249267578125e-05,0.1099197939038276,0,0,0
4863,202334.1346426147,2011-01-20 21:30:04,30.01509286182485,5,23,0.0,4.1896162033081055,15.13259080635633,14.459291641756764,61.66878383253954,51.04332374978068,-3.24249267578125e-05,0.1099197939038276,0,0,0
4864,202364.13414000784,2011-01-20 21:30:34,60.01459022486813,5,23,0.0,4.187673568725586,15.13259080635633,14.459291641756764,61.66878383253954,51.04332374978068,-6.47544875391759e-05,0.1099197939038276,0,0,0
4865,202364.324274545,2011-01-20 21:30:35,0.18745510078966,6,23,-1.9243103452026844e-05,4.187835693359375,15.13259080635633,14.459291642758773,61.66878383253954,51.043323753976914,0.0,0.1118387952446937,0,0,0
4866,202369.15228480712,2011-01-20 21:30:39,5.01546536290447,6,23,0.0008838032954372,4.187673568725586,15.132591989805611,14.459291642843247,61.66878878882505,51.043323754330686,-9.71794142969884e-05,0.1118387952446937,0,0,0
4867,202382.81107946497,2011-01-20 21:30:53,13.656019928514144,7,23,-1.0993878841400146,3.987582921981812,15.132591989805611,14.46346208139402,61.66878878882505,51.06002941050711,-0.0019102096557617,0.1118387952446937,0,0,0
4868,202412.8261662917,2011-01-20 21:31:23,43.671106750285325,7,23,-1.099568486213684,3.929789543151856,15.132591989805611,14.472628378604496,61.66878878882505,51.09630513993593,-0.0013922214275225,0.1118387952446937,0,0,0
4869,202442.8415375875,2011-01-20 21:31:53,73.68647805106573,7,23,-1.0992072820663452,3.885109186172485,15.132591989805611,14.481794692041342,61.66878878882505,51.13211372635125,-0.0010360718006268,0.1118387952446937,0,0,0
4870,202472.85652265567,2011-01-20 21:32:23,103.70146311923564,7,23,-1.0992072820663452,3.848684787750244,15.132591989805611,14.490960860717378,61.66878878882505,51.16755110161514,-0.0008741855854168,0.1118387952446937,0,0,0
4871,202502.87152097185,2011-01-20 21:32:53,133.7164614304112,7,23,-1.0993878841400146,3.82019305229187,15.132591989805611,14.500127381742416,61.66878878882505,51.20269395545251,-0.0006799221155233,0.1118387952446937,0,0,0
4872,202532.88661435497,2011-01-20 21:33:23,163.73155481854778,7,23,-1.099568486213684,3.796881437301636,15.132591989805611,14.509294256415613,61.66878878882505,51.237601895746685,-0.0005827903514727,0.1118387952446937,0,0,0
4873,202562.9018039429,2011-01-20 21:33:53,193.7467443763688,7,23,-1.099568486213684,3.7769694328308105,15.132591989805611,14.518461313991834,61.66878878882505,51.27231505638302,-0.0005180359003134,0.1118387952446937,0,0,0
4874,202592.91683716603,2011-01-20 21:34:23,223.7617776296308,7,23,-1.0992072820663452,3.7598094940185542,15.132591989805611,14.527628285586294,61.66878878882505,51.30685790092642,-0.0004209041653666,0.1118387952446937,0,0,0
4875,202622.9319475666,2011-01-20 21:34:53,253.776888025155,7,23,-1.0992072820663452,3.7442686557769775,15.132591989805611,14.536794902327223,61.66878878882505,51.34124877144414,-0.0003561496851034,0.1118387952446937,0,0,0
4876,202652.94708087924,2011-01-20 21:35:23,283.7920213127333,7,23,-1.0992072820663452,3.729860782623291,15.132591989805611,14.545961079635305,61.66878878882505,51.37550179981354,-0.0003561496851034,0.1118387952446937,0,0,0
4877,202682.96436785444,2011-01-20 21:35:53,313.8093083230513,7,23,-1.0993878841400146,3.716586112976074,15.132591989805611,14.555127988634176,61.66878878882505,51.40963197772183,-0.0003561496851034,0.1118387952446937,0,0,0
4878,202712.977293134,2011-01-20 21:36:23,343.8222335725192,7,23,-1.0992072820663452,3.7041208744049072,15.132591989805611,14.56429361493344,61.66878878882505,51.44363880455301,-0.0002913951757363,0.1118387952446937,0,0,0
4879,202742.9923975446,2011-01-20 21:36:53,373.8373379831272,7,23,-1.0993878841400146,3.69214129447937,15.132591989805611,14.573459830773462,61.66878878882505,51.4775358691719,-0.0003237724304199,0.1118387952446937,0,0,0
4880,202773.00752555905,2011-01-20 21:37:23,403.8524660176131,7,23,-1.099568486213684,3.680647373199463,15.132591989805611,14.58262614076377,61.66878878882505,51.5113264022176,-0.0003237724304199,0.1118387952446937,0,0,0
4881,202803.02263353355,2011-01-20 21:37:53,433.8675739921034,7,23,-1.0993878841400146,3.669963121414185,15.132591989805611,14.591792418468785,61.66878878882505,51.54501500651755,-0.0002913951757363,0.1118387952446937,0,0,0
4882,202833.03774167845,2011-01-20 21:38:23,463.8826821420309,7,23,-1.0992072820663452,3.659278631210327,15.132591989805611,14.600958765676005,61.66878878882505,51.57860602598248,-0.0002913951757363,0.1118387952446937,0,0,0
4883,202863.05286999865,2011-01-20 21:38:53,493.8978104822789,7,23,-1.0993878841400146,3.6492416858673096,15.132591989805611,14.61012505162292,61.66878878882505,51.61210238497164,-0.0002590179501567,0.1118387952446937,0,0,0
4884,202893.0680889046,2011-01-20 21:39:23,523.9130293732071,7,23,-1.0993878841400146,3.639204740524292,15.132591989805611,14.619291294022712,61.66878878882505,51.64550552708354,-0.0002590179501567,0.1118387952446937,0,0,0
4885,202923.08305325612,2011-01-20 21:39:53,553.9279937247447,7,23,-1.0993878841400146,3.629329681396485,15.132591989805611,14.628457457341138,61.66878878882505,51.67881799629932,-0.0002590179501567,0.1118387952446937,0,0,0
4886,202953.09813988244,2011-01-20 21:40:23,583.9430803510287,7,23,-1.099568486213684,3.619940280914306,15.132591989805611,14.6376236616717,61.66878878882505,51.712042670454935,-0.0002913951757363,0.1118387952446937,0,0,0
4887,202983.11544123848,2011-01-20 21:40:53,613.9603817822882,7,23,-1.0990266799926758,3.611036539077759,15.132591989805611,14.646790552349698,61.66878878882505,51.74518438707282,-0.0001942634553415,0.1118387952446937,0,0,0
4888,203013.12857700765,2011-01-20 21:41:23,643.973517461211,7,23,-1.0993878841400146,3.601970911026001,15.132591989805611,14.655956191821373,61.66878878882505,51.77823862053464,-0.0001942634553415,0.1118387952446937,0,0,0
4889,203043.1436017196,2011-01-20 21:41:53,673.988542178198,7,23,-1.0993878841400146,3.592905282974243,15.132591989805611,14.66512253357031,61.66878878882505,51.81121296996148,-0.0002266406954731,0.1118387952446937,0,0,0
4890,203073.15868920303,2011-01-20 21:42:23,704.0036296566057,7,23,-1.099568486213684,3.5840017795562744,15.132591989805611,14.674288868917586,61.66878878882505,51.84410706175778,-0.0002590179501567,0.1118387952446937,0,0,0
4891,203103.17378025537,2011-01-20 21:42:53,734.0187206888708,7,23,-1.0993878841400146,3.5759074687957764,15.132591989805611,14.68345529031346,61.66878878882505,51.87692261703568,-0.0001942634553415,0.1118387952446937,0,0,0
4892,203133.18888707692,2011-01-20 21:43:23,764.0338275104876,7,23,-1.099568486213684,3.5676512718200684,15.132591989805611,14.692621610655394,61.66878878882505,51.909661752942576,-0.0001942634553415,0.1118387952446937,0,0,0
4893,203163.20414162177,2011-01-20 21:43:54,794.0490820753263,7,23,-1.0993878841400146,3.5598807334899902,15.132591989805611,14.701787985805051,61.66878878882505,51.942328905257874,-0.0002266406954731,0.1118387952446937,0,0,0
4894,203193.2191147953,2011-01-20 21:44:24,824.0640552588759,7,23,-1.099568486213684,3.552272081375122,15.132591989805611,14.710954277047648,61.66878878882505,51.9749250831729,-0.0001942634553415,0.1118387952446937,0,0,0
4895,203223.23435103445,2011-01-20 21:44:54,854.0792915030537,7,23,-1.0992072820663452,3.544987201690674,15.132591989805611,14.7201206562019,61.66878878882505,52.00745279426116,-0.0001618862152099,0.1118387952446937,0,0,0
4896,203253.24934334063,2011-01-20 21:45:24,884.0942837741757,7,23,-1.0993878841400146,3.5377023220062256,15.132591989805611,14.729286987324052,61.66878878882505,52.03991296135246,-0.0002266406954731,0.1118387952446937,0,0,0
4897,203283.2645970133,2011-01-20 21:45:54,914.1095374668404,7,23,-1.0993878841400146,3.5305793285369877,15.132591989805611,14.738453447193915,61.66878878882505,52.072308404023765,-0.0001942634553415,0.1118387952446937,0,0,0
4898,203313.2795588335,2011-01-20 21:46:24,944.1244992670194,7,23,-1.0993878841400146,3.523780107498169,15.132591989805611,14.74761982581558,61.66878878882505,52.104639390042365,-0.0001295089750783,0.1118387952446937,0,0,0
4899,203343.29466878792,2011-01-20 21:46:54,974.1396092465068,7,23,-1.0992072820663452,3.5171427726745605,15.132591989805611,14.756786231575589,61.66878878882505,52.13690925267402,-0.0001618862152099,0.1118387952446937,0,0,0
4900,203373.3098096795,2011-01-20 21:47:24,1004.1547501430488,7,23,-1.0993878841400146,3.510829448699951,15.132591989805611,14.765952584321528,61.66878878882505,52.16911952765254,-0.0001618862152099,0.1118387952446937,0,0,0
4901,203403.32490414527,2011-01-20 21:47:54,1034.169844613884,7,23,-1.0993878841400146,3.5045158863067627,15.132591989805611,14.775118937865903,61.66878878882505,52.20127212649093,-0.0001618862152099,0.1118387952446937,0,0,0
4902,203433.34014558743,2011-01-20 21:48:24,1064.1850860409793,7,23,-1.0992072820663452,3.498364210128784,15.132591989805611,14.784285329628307,61.66878878882505,52.23336704668376,-0.0001618862152099,0.1118387952446937,0,0,0
4903,203463.35526722093,2011-01-20 21:48:54,1094.2002076694994,7,23,-1.0993878841400146,3.492374420166016,15.132591989805611,14.793451757784704,61.66878878882505,52.26540690330144,-0.0001618862152099,0.1118387952446937,0,0,0
4904,203493.3702553568,2011-01-20 21:49:24,1124.2151958153397,7,23,-1.0993878841400146,3.486870288848877,15.132591989805611,14.802618111374072,61.66878878882505,52.297393307630514,-0.0001618862152099,0.1118387952446937,0,0,0
4905,203523.38535073987,2011-01-20 21:49:54,1154.2302912084735,7,23,-1.099568486213684,3.4808804988861084,15.132591989805611,14.811784561205032,61.66878878882505,52.32932757217554,-0.0001618862152099,0.1118387952446937,0,0,0
4906,203553.40047872925,2011-01-20 21:50:24,1184.2454191727843,7,23,-1.0993878841400146,3.47521448135376,15.132591989805611,14.820950911868405,61.66878878882505,52.361208906576,-0.0001295089750783,0.1118387952446937,0,0,0
4907,203583.41559091423,2011-01-20 21:50:54,1214.260531372806,7,23,-1.0993878841400146,3.469548463821411,15.132591989805611,14.830117244091458,61.66878878882505,52.39303718113711,-9.713172767078504e-05,0.1118387952446937,0,0,0
4908,203613.430680548,2011-01-20 21:51:24,1244.2756210166106,7,23,-1.0992072820663452,3.4635586738586426,15.132591989805611,14.83928360574676,61.66878878882505,52.42481265754984,-0.0001942634553415,0.1118387952446937,0,0,0
4909,203643.44601318243,2011-01-20 21:51:54,1274.2909536409977,7,23,-1.099568486213684,3.457568883895874,15.132591989805611,14.848450027116108,61.66878878882505,52.45653491307647,-0.0002266406954731,0.1118387952446937,0,0,0
4910,203673.46103129795,2011-01-20 21:52:24,1304.305971751519,7,23,-1.0992072820663452,3.4519028663635254,15.132591989805611,14.857616294444242,61.66878878882505,52.48820261663791,-0.0001618862152099,0.1118387952446937,0,0,0
4911,203703.476036777,2011-01-20 21:52:54,1334.3209772355715,7,23,-1.0993878841400146,3.445913076400757,15.132591989805611,14.86678261473029,61.66878878882505,52.51981631651655,-0.0001618862152099,0.1118387952446937,0,0,0
4912,203733.49124295125,2011-01-20 21:53:24,1364.3361834047937,7,23,-1.0993878841400146,3.4399232864379883,15.132591989805611,14.875949033830311,61.66878878882505,52.551375284509525,-0.0001295089750783,0.1118387952446937,0,0,0
4913,203763.50623987897,2011-01-20 21:53:54,1394.3511803475585,7,23,-1.0993878841400146,3.4337716102600098,15.132591989805611,14.885115279751975,61.66878878882505,52.582877831352846,-0.0001295089750783,0.1118387952446937,0,0,0
4914,203793.5213435527,2011-01-20 21:54:24,1424.3662839962676,7,23,-1.0992072820663452,3.4272964000701904,15.132591989805611,14.894281680965268,61.66878878882505,52.61432340598897,-0.0001618862152099,0.1118387952446937,0,0,0
4915,203823.53645138687,2011-01-20 21:54:54,1454.381391850458,7,23,-1.0992072820663452,3.420820951461792,15.132591989805611,14.903448109601532,61.66878878882505,52.64570983310568,-0.0001295089750783,0.1118387952446937,0,0,0
4916,203853.55155882,2011-01-20 21:55:24,1484.3964992886115,7,23,-1.099568486213684,3.413859844207764,15.132591989805611,14.912614460887664,61.66878878882505,52.67703449777608,-0.0001942634553415,0.1118387952446937,0,0,0
4917,203883.56669277427,2011-01-20 21:55:54,1514.4116332328265,7,23,-1.0993878841400146,3.4065749645233154,15.132591989805611,14.921780838637664,61.66878878882505,52.70829397578443,-0.0002266406954731,0.1118387952446937,0,0,0
4918,203913.58180820727,2011-01-20 21:56:24,1544.4267486659055,7,23,-1.0993878841400146,3.3983187675476074,15.132591989805611,14.93094728120444,61.66878878882505,52.739482526522536,-0.0002590179501567,0.1118387952446937,0,0,0
4919,203943.5970213439,2011-01-20 21:56:54,1574.4419617924673,7,23,-1.0993878841400146,3.39038634300232,15.132591989805611,14.94011365318944,61.66878878882505,52.77059741755555,-0.0001942634553415,0.1118387952446937,0,0,0
4920,203973.6120089735,2011-01-20 21:57:24,1604.4569494470836,7,23,-1.0993878841400146,3.3818063735961914,15.132591989805611,14.94928002214978,61.66878878882505,52.80163652089183,-0.0002266406954731,0.1118387952446937,0,0,0
4921,204003.62712618097,2011-01-20 21:57:54,1634.4720666395476,7,23,-1.0993878841400146,3.372902631759644,15.132591989805611,14.958446410829204,61.66878878882505,52.832596204261066,-0.0002590179501567,0.1118387952446937,0,0,0
4922,204033.6423644502,2011-01-20 21:58:24,1664.4873048987477,7,23,-1.099568486213684,3.362541913986206,15.132591989805611,14.967612826077165,61.66878878882505,52.86346826515321,-0.0003237724304199,0.1118387952446937,0,0,0
4923,204063.6573366563,2011-01-20 21:58:54,1694.5022771148865,7,23,-1.099568486213684,3.351047992706299,15.132591989805611,14.976779177263005,61.66878878882505,52.8942403750849,-0.0003561496851034,0.1118387952446937,0,0,0
4924,204093.6724482799,2011-01-20 21:59:24,1724.5173887384713,7,23,-1.0993878841400146,3.338097333908081,15.132591989805611,14.985945546048208,61.66878878882505,52.92490149373437,-0.0004532813909463,0.1118387952446937,0,0,0
4925,204123.68758447972,2011-01-20 21:59:54,1754.5325249332952,7,23,-1.0993878841400146,3.3233656883239746,15.132591989805611,14.99511194492287,61.66878878882505,52.9554342735192,-0.0003885269106831,0.1118387952446937,0,0,0
4926,204153.70284712472,2011-01-20 22:00:24,1784.547787598322,7,23,-1.0993878841400146,3.306043863296509,15.132591989805611,15.004278364243888,61.66878878882505,52.9858203258582,-0.0004856586456298,0.1118387952446937,0,0,0
4927,204183.71778455915,2011-01-20 22:00:54,1814.562725032774,7,23,-1.099568486213684,3.285484313964844,15.132591989805611,15.01344468780356,61.66878878882505,53.01603444005681,-0.0006151676061563,0.1118387952446937,0,0,0
4928,204213.73290484937,2011-01-20 22:01:24,1844.5778452978964,7,23,-1.0993878841400146,3.260230302810669,15.132591989805611,15.022611052676517,61.66878878882505,53.04603900239207,-0.0007446765666827,0.1118387952446937,0,0,0
4929,204243.7480230794,2011-01-20 22:01:54,1874.5929635379712,7,23,-1.0993878841400146,3.2293100357055664,15.132591989805611,15.031777463241555,61.66878878882505,53.07578755685969,-0.0009389400365762,0.1118387952446937,0,0,0
4930,204273.763523888,2011-01-20 22:02:24,1904.6084643365,7,23,-1.0993878841400146,3.1888387203216557,15.132591989805611,15.040943930659775,61.66878878882505,53.10521248437555,-0.0012626647949218,0.1118387952446937,0,0,0
4931,204303.77836484692,2011-01-20 22:02:54,1934.6233052955056,7,23,-1.0993878841400146,3.136225700378418,15.132591989805611,15.050110213412577,61.66878878882505,53.13421383054679,-0.0015864849556237,0.1118387952446937,0,0,0
4932,204333.7933558399,2011-01-20 22:03:24,1964.638296298467,7,23,-1.0997490882873535,3.062082052230835,15.132591989805611,15.059276577830632,61.66878878882505,53.16264193083381,-0.0023311614058911,0.1118387952446937,0,0,0
4933,204363.80852178385,2011-01-20 22:03:54,1994.6534622273973,7,23,-1.0993878841400146,2.95507550239563,15.132591989805611,15.068443019627953,61.66878878882505,53.190252823971726,-0.0033348561264574,0.1118387952446937,0,0,0
4934,204393.823711066,2011-01-20 22:04:24,2024.6686515195563,7,23,-1.099568486213684,2.798208236694336,15.132591989805611,15.077609420605002,61.66878878882505,53.21666429283301,-0.0048565864562988,0.1118387952446937,0,0,0
4935,204408.9016918736,2011-01-20 22:04:39,2039.7466323220951,7,23,-1.0993878841400146,2.699458122253418,15.132591989805611,15.082214123239876,61.66878878882505,53.22932627355522,-0.0054393289610743,0.1118387952446937,0,0,0
4936,204468.92239391385,2011-01-20 22:05:39,60.01457598938894,8,23,0.0,3.614921808242798,15.132591989805611,15.082214123239876,61.66878878882505,53.22932627355522,0.0012950897216796,0.1118387952446937,0,0,0
4937,204469.1174395876,2011-01-20 22:05:40,0.187634858801937,9,23,-1.9243103452026844e-05,3.614921808242798,15.132591989805611,15.082214124242844,61.66878878882505,53.22932627718087,0.0,0.106165811419487,0,0,0
4938,204473.9453457051,2011-01-20 22:05:44,5.015540946281502,9,23,0.0008838032954372,3.622206687927246,15.132593153141013,15.082214124409337,61.66879299924614,53.229326277782725,0.0011008263099938,0.106165811419487,0,0,0
