Data_Point,Test_Time(s),Date_Time,Step_Time(s),Step_Index,Cycle_Index,Current(A),Voltage(V),Charge_Capacity(Ah),Discharge_Capacity(Ah),Charge_Energy(Wh),Discharge_Energy(Wh),dV/dt(V/s),Internal_Resistance(Ohm),Is_FC_Data,AC_Impedance(Ohm),ACI_Phase_Angle(Deg)
3079,126052.52591615904,2011-01-20 00:18:32,30.01508874155588,1,15,0.0,3.643575668334961,9.409621114835662,9.378211747528978,38.306958991241295,33.17921486067336,0.0007122993702068,0.1075921058654785,0,0,0
3080,126082.54103552693,2011-01-20 00:19:02,60.03020811445449,1,15,0.0,3.663163900375366,9.409621114835662,9.378211747528978,38.306958991241295,33.17921486067336,0.0004209041653666,0.1075921058654785,0,0,0
3081,126112.5562743024,2011-01-20 00:19:32,90.04544690497856,1,15,0.0,3.6772477626800537,9.409621114835662,9.378211747528978,38.306958991241295,33.17921486067336,0.0003561496851034,0.1075921058654785,0,0,0
3082,126142.52438966183,2011-01-20 00:20:02,120.01356224436287,1,15,0.0,3.687608480453491,9.409621114835662,9.378211747528978,38.306958991241295,33.17921486067336,0.0002590179501567,0.1075921058654785,0,0,0
3083,126172.53645216508,2011-01-20 00:20:32,30.012814408217405,2,15,0.5499359965324402,3.8095085620880127,9.414207008806686,9.378211747528978,38.32434294359137,33.17921486067336,0.0007446765666827,0.1075921058654785,0,0,0
3084,126202.55138743916,2011-01-20 00:21:02,60.02774957201024,2,15,0.5501165986061096,3.830553770065308,9.41879324837532,9.378211747528978,38.3418668031669,33.17921486067336,0.0004856586456298,0.1075921058654785,0,0,0
3085,126232.5664705918,2011-01-20 00:21:32,90.04283272463678,2,15,0.5501165986061096,3.844151973724365,9.42337943765776,9.378211747528978,38.35946700433512,33.17921486067336,0.0002913951757363,0.1075921058654785,0,0,0
3086,126262.58160902216,2011-01-20 00:22:02,120.05797115002004,2,15,0.5501165986061096,3.8551602363586426,9.427965644951822,9.378211747528978,38.37712358711316,33.17921486067336,0.0002266406954731,0.1075921058654785,0,0,0
3087,126292.59670054066,2011-01-20 00:22:32,150.07306266348436,2,15,0.5501165986061096,3.8647115230560303,9.432551790405274,9.378211747528978,38.39482674074721,33.17921486067336,0.0002590179501567,0.1075921058654785,0,0,0
3088,126322.61180305654,2011-01-20 00:23:02,180.0881651843826,2,15,0.5501165986061096,3.873453378677368,9.4371379113024,9.378211747528978,38.41257101759938,33.17921486067336,0.0002590179501567,0.1075921058654785,0,0,0
3089,126352.62691538189,2011-01-20 00:23:32,210.1032775097165,2,15,0.5501165986061096,3.8812239170074463,9.441723969089416,9.378211747528978,38.43035224492079,33.17921486067336,0.0001942634553415,0.1075921058654785,0,0,0
3090,126382.64202817336,2011-01-20 00:24:02,240.1183903262747,2,15,0.5501165986061096,3.888346910476685,9.44631017405042,9.378211747528978,38.44816822700028,33.17921486067336,0.0001942634553415,0.1075921058654785,0,0,0
3091,126412.65724541518,2011-01-20 00:24:32,270.1336075731053,2,15,0.5501165986061096,3.894822359085083,9.450896498450197,9.378211747528978,38.46601633006467,33.17921486067336,0.0001618862152099,0.1075921058654785,0,0,0
3092,126442.67446324308,2011-01-20 00:25:02,300.15082539097443,2,15,0.5501165986061096,3.901135921478272,9.455483129042168,9.378211747528978,38.48389486739165,33.17921486067336,0.0001942634553415,0.1075921058654785,0,0,0
3093,126472.68747822118,2011-01-20 00:25:32,330.1638403690737,2,15,0.5499359965324402,3.90696382522583,9.460069041201388,9.378211747528978,38.50179871771085,33.17921486067336,0.0001295089750783,0.1075921058654785,0,0,0
3094,126502.7024869383,2011-01-20 00:26:02,360.1788490561091,2,15,0.5499359965324402,3.9126298427581783,9.464655323771032,9.378211747528978,38.5197307462574,33.17921486067336,9.713172767078504e-05,0.1075921058654785,0,0,0
3095,126532.71757847682,2011-01-20 00:26:32,390.1939406046608,2,15,0.5501165986061096,3.918295621871948,9.46924165357428,9.378211747528978,38.53768851714951,33.17921486067336,0.0001618862152099,0.1075921058654785,0,0,0
3096,126562.73268622576,2011-01-20 00:27:02,420.20904834857646,2,15,0.5501165986061096,3.923475980758667,9.473827940884876,9.378211747528978,38.55567057607547,33.17921486067336,0.0001618862152099,0.1075921058654785,0,0,0
3097,126592.74785143288,2011-01-20 00:27:32,450.22421358077054,2,15,0.5499359965324402,3.928494453430176,9.478414287983089,9.378211747528978,38.57367637065596,33.17921486067336,0.0001618862152099,0.1075921058654785,0,0,0
3098,126622.76292847528,2011-01-20 00:28:03,480.2392905981061,2,15,0.5501165986061096,3.9333510398864746,9.483000601277462,9.378211747528978,38.591704454300185,33.17921486067336,0.0001618862152099,0.1075921058654785,0,0,0
3099,126652.77803064528,2011-01-20 00:28:33,510.2543927681298,2,15,0.5501165986061096,3.937721967697144,9.487586972852528,9.378211747528978,38.6097541977862,33.17921486067336,9.713172767078504e-05,0.1075921058654785,0,0,0
3100,126682.7931785844,2011-01-20 00:29:03,540.2695407523366,2,15,0.5501165986061096,3.942092895507813,9.492173338999642,9.378211747528978,38.62782444388797,33.17921486067336,0.0001295089750783,0.1075921058654785,0,0,0
3101,126712.80826771192,2011-01-20 00:29:33,570.2846298297294,2,15,0.5501165986061096,3.946301937103272,9.49675965024892,9.378211747528978,38.64591400977388,33.17921486067336,9.713172767078504e-05,0.1075921058654785,0,0,0
3102,126742.8252202787,2011-01-20 00:30:03,600.3015825067861,2,15,0.5501165986061096,3.950349092483521,9.501346247616196,9.378211747528978,38.66402338170324,33.17921486067336,0.0001295089750783,0.1075921058654785,0,0,0
3103,126772.83848729495,2011-01-20 00:30:33,630.3148494177797,2,15,0.5501165986061096,3.95423436164856,9.505932283422444,9.378211747528978,38.68214863083127,33.17921486067336,9.713172767078504e-05,0.1075921058654785,0,0,0
3104,126802.8536153946,2011-01-20 00:31:03,660.3299775424905,2,15,0.5497553944587708,3.9577958583831783,9.51051858807236,9.378211747528978,38.70029225839546,33.17921486067336,9.713172767078504e-05,0.1075921058654785,0,0,0
3105,126832.86870496823,2011-01-20 00:31:33,690.3450670910577,2,15,0.5501165986061096,3.961357355117798,9.51510487992032,9.378211747528978,38.71845244867811,33.17921486067336,6.47544875391759e-05,0.1075921058654785,0,0,0
3106,126862.88384805022,2011-01-20 00:32:03,720.3602101730467,2,15,0.5499359965324402,3.964918851852417,9.519691277099708,9.378211747528978,38.73662912532127,33.17921486067336,9.713172767078504e-05,0.1075921058654785,0,0,0
3107,126892.8990659988,2011-01-20 00:32:33,750.3754281316512,2,15,0.5499359965324402,3.968156576156616,9.524277641402852,9.378211747528978,38.75482142414448,33.17921486067336,6.47544875391759e-05,0.1075921058654785,0,0,0
3108,126922.91404287655,2011-01-20 00:33:03,780.390404999383,2,15,0.5501165986061096,3.9715561866760254,9.528863908631148,9.378211747528978,38.77302859070086,33.17921486067336,0.0001295089750783,0.1075921058654785,0,0,0
3109,126952.92932752136,2011-01-20 00:33:33,810.4056896792775,2,15,0.5501165986061096,3.9747939109802246,9.533450286253398,9.378211747528978,38.791250973058645,33.17921486067336,9.713172767078504e-05,0.1075921058654785,0,0,0
3110,126982.94428503084,2011-01-20 00:34:03,840.4206471586879,2,15,0.5501165986061096,3.977707862854004,9.53803661427706,9.378211747528978,38.80948765151615,33.17921486067336,3.237724376958795e-05,0.1075921058654785,0,0,0
3111,127012.95941115556,2011-01-20 00:34:33,870.4357733034642,2,15,0.5499359965324402,3.980945587158203,9.54262289931747,9.378211747528978,38.827738195089765,33.17921486067336,6.47544875391759e-05,0.1075921058654785,0,0,0
3112,127042.97450811262,2011-01-20 00:35:03,900.4508702404454,2,15,0.5497553944587708,3.9838595390319824,9.547209089721887,9.378211747528978,38.84600273549402,33.17921486067336,3.237724376958795e-05,0.1075921058654785,0,0,0
3113,127072.9897381062,2011-01-20 00:35:33,930.4661002340448,2,15,0.5501165986061096,3.987259149551392,9.551795325716544,9.378211747528978,38.86428140191832,33.17921486067336,0.0001295089750783,0.1075921058654785,0,0,0
3114,127103.00493390458,2011-01-20 00:36:03,960.481296142694,2,15,0.5499359965324402,3.990011215209961,9.556381622462125,9.378211747528978,38.88257398409719,33.17921486067336,9.713172767078504e-05,0.1075921058654785,0,0,0
3115,127133.01997054128,2011-01-20 00:36:33,990.4963326791388,2,15,0.5501165986061096,3.99292516708374,9.560967852912588,9.378211747528978,38.90087986975719,33.17921486067336,6.47544875391759e-05,0.1075921058654785,0,0,0
3116,127163.03494674734,2011-01-20 00:37:03,1020.5113088751966,2,15,0.5501165986061096,3.995838880538941,9.565554102311832,9.378211747528978,38.919199204615104,33.17921486067336,9.713172767078504e-05,0.1075921058654785,0,0,0
3117,127193.05013713724,2011-01-20 00:37:33,1050.5264993503038,2,15,0.5499359965324402,3.9985909461975098,9.570140373769878,9.378211747528978,38.93753193633303,33.17921486067336,3.237724376958795e-05,0.1075921058654785,0,0,0
3118,127223.06532431411,2011-01-20 00:38:03,1080.5416864620283,2,15,0.5499359965324402,4.001667022705078,9.574726617843131,9.378211747528978,38.95587760239284,33.17921486067336,9.71794142969884e-05,0.1075921058654785,0,0,0
3119,127253.08029287116,2011-01-20 00:38:33,1110.5566549939851,2,15,0.550297200679779,4.004418849945068,9.57931279439511,9.378211747528978,38.97423582752585,33.17921486067336,0.0001295089750783,0.1075921058654785,0,0,0
3120,127283.0954139884,2011-01-20 00:39:03,1140.571776121256,2,15,0.5497553944587708,4.006847381591797,9.58389909748275,9.378211747528978,38.99260723651078,33.17921486067336,3.24249267578125e-05,0.1075921058654785,0,0,0
3121,127313.11051280003,2011-01-20 00:39:33,1170.586874917872,2,15,0.5501165986061096,4.009761333465576,9.588485403918062,9.378211747528978,39.0109911622738,33.17921486067336,3.24249267578125e-05,0.1075921058654785,0,0,0
3122,127343.12748230406,2011-01-20 00:40:03,1200.6038444369042,2,15,0.5501165986061096,4.012513160705566,9.593071982257076,9.378211747528978,39.029388632350994,33.17921486067336,6.47544875391759e-05,0.1075921058654785,0,0,0
3123,127373.1409170684,2011-01-20 00:40:33,1230.61727930149,2,15,0.5497553944587708,4.015103340148926,9.59765805447234,9.378211747528978,39.04779652902442,33.17921486067336,6.47544875391759e-05,0.1075921058654785,0,0,0
3124,127403.1558353852,2011-01-20 00:41:03,1260.6321975180451,2,15,0.5499359965324402,4.017855644226074,9.602244331068434,9.378211747528978,39.06621764249136,33.17921486067336,6.47544875391759e-05,0.1075921058654785,0,0,0
3125,127433.17098632678,2011-01-20 00:41:33,1290.6473484596224,2,15,0.5499359965324402,4.020445823669434,9.60683057980642,9.378211747528978,39.084650861555765,33.17921486067336,3.24249267578125e-05,0.1075921058654785,0,0,0
3126,127463.18613642124,2011-01-20 00:42:03,1320.6624985540886,2,15,0.5501165986061096,4.023197650909424,9.61141681535368,9.378211747528978,39.10309631914466,33.17921486067336,6.47544875391759e-05,0.1075921058654785,0,0,0
3127,127493.20129826498,2011-01-20 00:42:33,1350.6776604279123,2,15,0.5499359965324402,4.025787830352783,9.616003032270797,9.378211747528978,39.12155388947723,33.17921486067336,6.47544875391759e-05,0.1075921058654785,0,0,0
3128,127523.21631636049,2011-01-20 00:43:03,1380.6926784983343,2,15,0.5499359965324402,4.028540134429932,9.62058926605796,9.378211747528978,39.140023769341134,33.17921486067336,6.47544875391759e-05,0.1075921058654785,0,0,0
3129,127553.23140229504,2011-01-20 00:43:33,1410.707764422869,2,15,0.5499359965324402,4.031291961669922,9.625175531167958,9.378211747528978,39.15850586021976,33.17921486067336,9.70840483205393e-05,0.1075921058654785,0,0,0
3130,127583.24653042977,2011-01-20 00:44:03,1440.722892577655,2,15,0.5499359965324402,4.033882141113281,9.62976178673771,9.378211747528978,39.17700010784738,33.17921486067336,9.70840483205393e-05,0.1075921058654785,0,0,0
3131,127613.26190459268,2011-01-20 00:44:33,1470.738266750594,2,15,0.5501165986061096,4.036472320556641,9.634348051630605,9.378211747528978,39.19550649924216,33.17921486067336,9.71794142969884e-05,0.1075921058654785,0,0,0
3132,127643.27676543122,2011-01-20 00:45:03,1500.7531275991705,2,15,0.5499359965324402,4.0390625,9.63893427490548,9.378211747528978,39.21402485048635,33.17921486067336,3.24249267578125e-05,0.1075921058654785,0,0,0
3133,127673.29186243836,2011-01-20 00:45:33,1530.7682245612143,2,15,0.5501165986061096,4.04181432723999,9.64352053607168,9.378211747528978,39.232555387414585,33.17921486067336,6.47544875391759e-05,0.1075921058654785,0,0,0
3134,127703.30700415696,2011-01-20 00:46:03,1560.7833662848177,2,15,0.5501165986061096,4.04440450668335,9.64810678380754,9.378211747528978,39.251097992849566,33.17921486067336,6.47544875391759e-05,0.1075921058654785,0,0,0
3135,127733.32235125244,2011-01-20 00:46:33,1590.798713390296,2,15,0.5499359965324402,4.046994686126709,9.652693124002448,9.378211747528978,39.26965310247509,33.17921486067336,3.23295607813634e-05,0.1075921058654785,0,0,0
3136,127763.33719164,2011-01-20 00:47:03,1620.8135537628395,2,15,0.5501165986061096,4.049746990203857,9.657279373093129,9.378211747528978,39.28822000768904,33.17921486067336,9.71794142969884e-05,0.1075921058654785,0,0,0
3137,127793.35230675228,2011-01-20 00:47:33,1650.828668875119,2,15,0.5501165986061096,4.052337169647217,9.661865702596778,9.378211747528978,39.30679936730728,33.17921486067336,6.47544875391759e-05,0.1075921058654785,0,0,0
3138,127823.36742630064,2011-01-20 00:48:03,1680.8437884234554,2,15,0.5499359965324402,4.054927349090576,9.666451981761568,9.378211747528978,39.32539073825362,33.17921486067336,6.47544875391759e-05,0.1075921058654785,0,0,0
3139,127853.38268765238,2011-01-20 00:48:33,1710.859049805284,2,15,0.5499359965324402,4.057679176330566,9.671038303493717,9.378211747528978,39.34399456331911,33.17921486067336,6.47544875391759e-05,0.1075921058654785,0,0,0
3140,127883.39764114685,2011-01-20 00:49:03,1740.8740032746998,2,15,0.5499359965324402,4.060431480407715,9.675624617297627,9.378211747528978,39.362610729355474,33.17921486067336,9.71794142969884e-05,0.1075921058654785,0,0,0
3141,127913.41288870924,2011-01-20 00:49:33,1770.8892509323236,2,15,0.5499359965324402,4.062859535217285,9.680210939934046,9.378211747528978,39.38123882161313,33.17921486067336,3.23295607813634e-05,0.1075921058654785,0,0,0
3142,127943.4296634779,2011-01-20 00:50:03,1800.906025610753,2,15,0.5499359965324402,4.0657734870910645,9.684797446548252,9.378211747528978,39.39988011754596,33.17921486067336,6.47544875391759e-05,0.1075921058654785,0,0,0
3143,127973.443120623,2011-01-20 00:50:33,1830.9194827558688,2,15,0.5499359965324402,4.068525791168213,9.689383367923751,9.378211747528978,39.41853145282212,33.17921486067336,0.0001295089750783,0.1075921058654785,0,0,0
3144,128003.45808711989,2011-01-20 00:51:03,1860.934449252753,2,15,0.5501165986061096,4.071277618408203,9.693969590705638,9.378211747528978,39.43719660599169,33.17921486067336,6.47544875391759e-05,0.1075921058654785,0,0,0
3145,128033.47320784615,2011-01-20 00:51:33,1890.949569969,2,15,0.5499359965324402,4.073706150054932,9.698555880746872,9.378211747528978,39.45587458680106,33.17921486067336,0.0,0.1075921058654785,0,0,0
3146,128063.4907577968,2011-01-20 00:52:03,1920.9671200449584,2,15,0.5501165986061096,4.076781749725342,9.703142504327989,9.378211747528978,39.47456670263451,33.17921486067336,6.47544875391759e-05,0.1075921058654785,0,0,0
3147,128093.50357726264,2011-01-20 00:52:33,1950.9799394055185,2,15,0.5501165986061096,4.07953405380249,9.707728425129504,9.378211747528978,39.49326885702085,33.17921486067336,6.47544875391759e-05,0.1075921058654785,0,0,0
3148,128123.51860858109,2011-01-20 00:53:03,1980.9949707941328,2,15,0.550297200679779,4.0822858810424805,9.712314698295565,9.378211747528978,39.51198533649492,33.17921486067336,6.47544875391759e-05,0.1075921058654785,0,0,0
3149,128153.53367237546,2011-01-20 00:53:33,2011.010034498288,2,15,0.5501165986061096,4.085361957550049,9.716900891396614,9.378211747528978,39.53071450511142,33.17921486067336,9.71794142969884e-05,0.1075921058654785,0,0,0
3150,128183.548954103,2011-01-20 00:54:03,2041.0253162408617,2,15,0.5501165986061096,4.088275909423828,9.721487168392656,9.378211747528978,39.549457222268224,33.17921486067336,9.71794142969884e-05,0.1075921058654785,0,0,0
3151,128213.56388218916,2011-01-20 00:54:33,2071.040244311978,2,15,0.550297200679779,4.091027736663818,9.726073450344296,9.378211747528978,39.56821339356984,33.17921486067336,6.47544875391759e-05,0.1075921058654785,0,0,0
3152,128243.57894821408,2011-01-20 00:55:03,2101.055310346941,2,15,0.5499359965324402,4.093941688537598,9.730659547047452,9.378211747528978,39.58698204006289,33.17921486067336,9.70840483205393e-05,0.1075921058654785,0,0,0
3153,128273.5942101874,2011-01-20 00:55:33,2131.0705723453066,2,15,0.5499359965324402,4.096855640411377,9.735245036507568,9.378211747528978,39.6057616551903,33.17921486067336,6.47544875391759e-05,0.1075921058654785,0,0,0
3154,128303.6091242135,2011-01-20 00:56:03,2161.085486366406,2,15,0.5499359965324402,4.100093364715576,9.739830574548876,9.378211747528978,39.6245550719468,33.17921486067336,9.70840483205393e-05,0.1075921058654785,0,0,0
3155,128333.62443514884,2011-01-20 00:56:33,2191.1007972917114,2,15,0.5499359965324402,4.102845668792725,9.744416092080153,9.378211747528978,39.64336210567882,33.17921486067336,6.47544875391759e-05,0.1075921058654785,0,0,0
3156,128363.64174184822,2011-01-20 00:57:03,2221.118104071301,2,15,0.5501165986061096,4.105921268463135,9.74900188752655,9.378211747528978,39.6621842454452,33.17921486067336,6.47544875391759e-05,0.1075921058654785,0,0,0
3157,128393.65466597992,2011-01-20 00:57:33,2251.1310281227825,2,15,0.5501165986061096,4.108997344970703,9.753587025971836,9.378211747528978,39.68101768873634,33.17921486067336,6.47544875391759e-05,0.1075921058654785,0,0,0
3158,128423.6695798406,2011-01-20 00:58:03,2281.145941998519,2,15,0.5501165986061096,4.112072944641113,9.758172465960108,9.378211747528978,39.6998665106038,33.17921486067336,6.47544875391759e-05,0.1075921058654785,0,0,0
3159,128453.68488992882,2011-01-20 00:58:33,2311.161252061677,2,15,0.550297200679779,4.115148544311523,9.76275888373258,9.378211747528978,39.71873358456385,33.17921486067336,6.47544875391759e-05,0.1075921058654785,0,0,0
3160,128483.69989919227,2011-01-20 00:59:03,2341.1762613401866,2,15,0.5499359965324402,4.118224620819092,9.767345239179352,9.378211747528978,39.737614749372696,33.17921486067336,6.47544875391759e-05,0.1075921058654785,0,0,0
3161,128513.71499188368,2011-01-20 00:59:33,2371.191354006524,2,15,0.5499359965324402,4.121623992919922,9.771931571155031,9.378211747528978,39.75651031504706,33.17921486067336,9.70840483205393e-05,0.1075921058654785,0,0,0
3162,128543.73185423065,2011-01-20 01:00:04,2401.208216363475,2,15,0.5501165986061096,4.12470006942749,9.776518225952753,9.378211747528978,39.77542177742402,33.17921486067336,6.47544875391759e-05,0.1075921058654785,0,0,0
3163,128573.74522979742,2011-01-20 01:00:34,2431.221591920247,2,15,0.5501165986061096,4.1279377937316895,9.78110436302145,9.378211747528978,39.79434591754616,33.17921486067336,6.47544875391759e-05,0.1075921058654785,0,0,0
3164,128603.76032597752,2011-01-20 01:01:04,2461.2366881003422,2,15,0.5499359965324402,4.131175518035889,9.785690765815623,9.378211747528978,39.81328598037614,33.17921486067336,6.47544875391759e-05,0.1075921058654785,0,0,0
3165,128633.77544713988,2011-01-20 01:01:34,2491.251809262701,2,15,0.5501165986061096,4.134413242340088,9.790277143996695,9.378211747528978,39.83224091145344,33.17921486067336,6.47544875391759e-05,0.1075921058654785,0,0,0
3166,128663.79056289876,2011-01-20 01:02:04,2521.266925021592,2,15,0.5501165986061096,4.137974739074707,9.794863537452652,9.378211747528978,39.85121101269821,33.17921486067336,0.0001295089750783,0.1075921058654785,0,0,0
3167,128693.80569209112,2011-01-20 01:02:34,2551.2820542390264,2,15,0.5501165986061096,4.141050338745117,9.79944998947338,9.378211747528978,39.87019666511043,33.17921486067336,6.47544875391759e-05,0.1075921058654785,0,0,0
3168,128723.8207768678,2011-01-20 01:03:04,2581.297139015701,2,15,0.5501165986061096,4.1444501876831055,9.804036414683884,9.378211747528978,39.889197565627065,33.17921486067336,3.24249267578125e-05,0.1075921058654785,0,0,0
3169,128753.83588960917,2011-01-20 01:03:34,2611.312251732009,2,15,0.5501165986061096,4.148011684417725,9.808622721411565,9.378211747528978,39.90821388367753,33.17921486067336,9.71794142969884e-05,0.1075921058654785,0,0,0
3170,128783.8510164908,2011-01-20 01:04:04,2641.3273786186346,2,15,0.5501165986061096,4.151411056518555,9.813209040218217,9.378211747528978,39.92724598245337,33.17921486067336,6.47544875391759e-05,0.1075921058654785,0,0,0
3171,128813.86624491548,2011-01-20 01:04:34,2671.3426070533483,2,15,0.5499359965324402,4.154810905456543,9.817795507460668,9.378211747528978,39.94629458432934,33.17921486067336,6.47544875391759e-05,0.1075921058654785,0,0,0
3172,128843.881240154,2011-01-20 01:05:04,2701.357602281841,2,15,0.5499359965324402,4.158372402191162,9.822381845137269,9.378211747528978,39.96535857046781,33.17921486067336,6.47544875391759e-05,0.1075921058654785,0,0,0
3173,128873.89634144182,2011-01-20 01:05:34,2731.3727035646534,2,15,0.5501165986061096,4.162095546722412,9.826968245251107,9.378211747528978,39.98443897675134,33.17921486067336,0.0001618385285837,0.1075921058654785,0,0,0
3174,128903.91148004265,2011-01-20 01:06:04,2761.387842190536,2,15,0.5501165986061096,4.1654953956604,9.831554691808318,9.378211747528978,40.003535752226064,33.17921486067336,6.47544875391759e-05,0.1075921058654785,0,0,0
3175,128933.92656840826,2011-01-20 01:06:34,2791.402930531093,2,15,0.5497553944587708,4.16905689239502,9.836141010104924,9.378211747528978,40.022648396242445,33.17921486067336,6.47544875391759e-05,0.1075921058654785,0,0,0
3176,128963.94168584634,2011-01-20 01:07:04,2821.418047969169,2,15,0.5501165986061096,4.1727800369262695,9.840727321512606,9.378211747528978,40.041777413674765,33.17921486067336,9.70840483205393e-05,0.1075921058654785,0,0,0
3177,128993.95678957023,2011-01-20 01:07:34,2851.4331516880534,2,15,0.5501165986061096,4.176341533660889,9.84531377359173,9.378211747528978,40.06092369931283,33.17921486067336,0.0001295089750783,0.1075921058654785,0,0,0
3178,129023.97213520204,2011-01-20 01:08:04,2881.4484973399085,2,15,0.5501165986061096,4.179903030395508,9.849900128605087,9.378211747528978,40.08008629144061,33.17921486067336,9.70840483205393e-05,0.1075921058654785,0,0,0
3179,129053.98716285134,2011-01-20 01:08:34,2911.463524989204,2,15,0.5499359965324402,4.183626651763916,9.854486451378865,9.378211747528978,40.09926571233574,33.17921486067336,6.47544875391759e-05,0.1075921058654785,0,0,0
3180,129084.00213105748,2011-01-20 01:09:04,2941.4784931853237,2,15,0.5501165986061096,4.187511920928955,9.859072806792174,9.378211747528978,40.11846225746309,33.17921486067336,0.0001295089750783,0.1075921058654785,0,0,0
3181,129114.01725760326,2011-01-20 01:09:34,2971.493619731099,2,15,0.5499359965324402,4.191235065460205,9.86365916554306,9.378211747528978,40.13767600867299,33.17921486067336,9.70840483205393e-05,0.1075921058654785,0,0,0
3182,129144.03237519672,2011-01-20 01:10:04,3001.508737324563,2,15,0.5499359965324402,4.194958209991455,9.868245478656428,9.378211747528978,40.15690684984959,33.17921486067336,0.0001294136018259,0.1075921058654785,0,0,0
3183,129174.03379282064,2011-01-20 01:10:34,3031.510154958512,2,15,0.5501165986061096,4.198681831359863,9.872829730972454,9.378211747528978,40.176146460960005,33.17921486067336,6.47544875391759e-05,0.1075921058654785,0,0,0
3184,129182.47189164926,2011-01-20 01:10:42,3039.9482538723432,2,15,0.550297200679779,4.200138568878174,9.874119095900571,9.378211747528978,40.18156096812224,33.17921486067336,0.0001618385285837,0.1075921058654785,0,0,0
3185,129212.48865106294,2011-01-20 01:11:12,30.01513830508344,3,15,0.0,4.091837406158447,9.874119095900571,9.378211747528978,40.18156096812224,33.17921486067336,-0.0005180359003134,0.1075921058654785,0,0,0
3186,129242.5037355088,2011-01-20 01:11:42,60.030222750933085,3,15,0.0,4.0782389640808105,9.874119095900571,9.378211747528978,40.18156096812224,33.17921486067336,-0.0002590179501567,0.1075921058654785,0,0,0
3187,129272.52123611144,2011-01-20 01:12:12,90.04772336862642,3,15,0.0,4.069497108459473,9.874119095900571,9.378211747528978,40.18156096812224,33.17921486067336,-0.0001618385285837,0.1075921058654785,0,0,0
3188,129302.48709734793,2011-01-20 01:12:42,120.01358461010518,3,15,0.0,4.063345432281494,9.874119095900571,9.378211747528978,40.18156096812224,33.17921486067336,-0.0001618385285837,0.1075921058654785,0,0,0
3189,129302.50123425807,2011-01-20 01:12:43,0.0155961002807,4,15,1.0193395614624023,4.200138568878174,9.874123562802138,9.378211747528978,40.18157972936774,33.17921486067336,3.23295607813634e-05,0.1075921058654785,0,0,0
3190,129303.23560184806,2011-01-20 01:12:43,0.749963690274222,4,15,0.9693107604980468,4.199814796447754,9.874324938781037,9.378211747528978,40.18242547622641,33.17921486067336,-3.24249267578125e-05,0.1075921058654785,0,0,0
3191,129305.18867802984,2011-01-20 01:12:45,2.703039867053271,4,15,0.9192819595336914,4.199814796447754,9.874836025961356,9.378211747528978,40.18457195518582,33.17921486067336,-3.24249267578125e-05,0.1075921058654785,0,0,0
3192,129308.15751653892,2011-01-20 01:12:48,5.671878371094111,4,15,0.8688920140266418,4.199814796447754,9.87557222868031,9.378211747528978,40.1876638874688,33.17921486067336,0.0,0.1075921058654785,0,0,0
3193,129312.31356166716,2011-01-20 01:12:52,9.827923509361794,4,15,0.8186826109886169,4.199976921081543,9.876544934390802,9.378211747528978,40.19174910861224,33.17921486067336,3.24249267578125e-05,0.1075921058654785,0,0,0
3194,129317.67299081363,2011-01-20 01:12:58,15.187352640812486,4,15,0.7686538100242615,4.199814796447754,9.87772483663989,9.378211747528978,40.19670451063567,33.17921486067336,-3.24249267578125e-05,0.1075921058654785,0,0,0
3195,129324.7666045467,2011-01-20 01:13:05,22.280966393935653,4,15,0.7184444665908813,4.199814796447754,9.879188060366756,9.378211747528978,40.20284984452273,33.17921486067336,0.0,0.1075921058654785,0,0,0
3196,129334.17268802592,2011-01-20 01:13:14,31.687049873145376,4,15,0.6684156656265259,4.199976921081543,9.880996816880216,9.378211747528978,40.21044639495083,33.17921486067336,0.0,0.1075921058654785,0,0,0
3197,129347.26612344572,2011-01-20 01:13:27,44.78048528293593,4,15,0.6183869242668152,4.199814796447754,9.88333125179626,9.378211747528978,40.22025071938258,33.17921486067336,0.0,0.1075921058654785,0,0,0
3198,129367.17219168774,2011-01-20 01:13:47,64.68655361516394,4,15,0.5683581233024597,4.199814796447754,9.886601461205576,9.378211747528978,40.23398514391283,33.17921486067336,-3.24249267578125e-05,0.1075921058654785,0,0,0
3199,129402.56201309687,2011-01-20 01:14:23,100.07637490900396,4,15,0.518329381942749,4.199814796447754,9.891917688937582,9.378211747528978,40.25631254317176,33.17921486067336,-3.24249267578125e-05,0.1075921058654785,0,0,0
3200,129473.1859477174,2011-01-20 01:15:33,170.70030956460718,4,15,0.4683006107807159,4.199814796447754,9.901545902154744,9.378211747528978,40.29674973217031,33.17921486067336,0.0,0.1075921058654785,0,0,0
3201,129589.30885114284,2011-01-20 01:17:29,286.82321298004257,4,15,0.4180912375450134,4.199814796447754,9.915808915902453,9.378211747528978,40.35665242458945,33.17921486067336,3.23295607813634e-05,0.1075921058654785,0,0,0
3202,129738.30627773028,2011-01-20 01:19:58,435.8206395474105,4,15,0.3680624663829803,4.199653148651123,9.932062864882884,9.378211747528978,40.424916752881664,33.17921486067336,-3.23295607813634e-05,0.1075921058654785,0,0,0
3203,129918.95969844036,2011-01-20 01:22:59,616.4740602925754,4,15,0.3180336952209472,4.199976921081543,9.949261749989113,9.378211747528978,40.49715024724317,33.17921486067336,0.0,0.1075921058654785,0,0,0
3204,130136.64320680272,2011-01-20 01:26:37,834.157568609843,4,15,0.2678243219852447,4.199653148651123,9.966950335289017,9.378211747528978,40.571439891909804,33.17921486067336,-3.23295607813634e-05,0.1075921058654785,0,0,0
3205,130408.99805899088,2011-01-20 01:31:09,1106.5124208431014,4,15,0.217614933848381,4.199814796447754,9.985282026638632,9.378211747528978,40.64843038887728,33.17921486067336,-3.24249267578125e-05,0.1075921058654785,0,0,0
3206,130759.663958244,2011-01-20 01:37:00,1457.1783200611524,4,15,0.1675861626863479,4.199976921081543,10.003972506837616,9.378211747528978,40.72692797868779,33.17921486067336,3.24249267578125e-05,0.1075921058654785,0,0,0
3207,131250.9228466605,2011-01-20 01:45:11,1948.43720848268,4,15,0.1175573989748954,4.199814796447754,10.02326323679602,9.378211747528978,40.80794651548128,33.17921486067336,0.0,0.1075921058654785,0,0,0
3208,132073.3601734415,2011-01-20 01:58:53,2770.8745352586448,4,15,0.0675286278128624,4.199814796447754,10.04385688407166,9.378211747528978,40.89443710776618,33.17921486067336,-3.24249267578125e-05,0.1075921058654785,0,0,0
3209,132582.25779638175,2011-01-20 02:07:22,3279.7721582089207,4,15,0.0498289167881011,4.199814796447754,10.052131273451836,9.378211747528978,40.92918843991024,33.17921486067336,0.0,0.1075921058654785,0,0,0
3210,132612.27271834834,2011-01-20 02:07:52,30.015128310173047,5,15,0.0,4.189778327941895,10.052131273451836,9.378211747528978,40.92918843991024,33.17921486067336,-6.47544875391759e-05,0.1075921058654785,0,0,0
3211,132642.2723181617,2011-01-20 02:08:22,60.014728123554086,5,15,0.0,4.188321113586426,10.052131273451836,9.378211747528978,40.92918843991024,33.17921486067336,3.23295607813634e-05,0.1075921058654785,0,0,0
3212,132642.4605381165,2011-01-20 02:08:23,0.187408670070021,6,15,-1.9243103452026844e-05,4.187835693359375,10.052131273451836,9.378211748530736,40.92918843991024,33.179214864868555,0.0,0.110118381679058,0,0,0
3213,132647.2888135595,2011-01-20 02:08:28,5.015684093047288,6,15,0.0008838032954372,4.187997341156006,10.052132231904269,9.378211748614506,40.92919245405309,33.17921486521938,-3.24249267578125e-05,0.110118381679058,0,0,0
3214,132661.89883615475,2011-01-20 02:08:42,14.609238347111262,7,15,-1.0993878841400146,3.987906694412232,10.052132231904269,9.382673685459595,40.92919245405309,33.197092368765645,-0.0018130779499188,0.110118381679058,0,0,0
3215,132691.91381718285,2011-01-20 02:09:12,44.624219385237055,7,15,-1.099568486213684,3.932541608810425,10.052132231904269,9.391840763867387,40.92919245405309,33.23338697026156,-0.0013598442310467,0.110118381679058,0,0,0
3216,132721.92907931152,2011-01-20 02:09:42,74.63948150891453,7,15,-1.099568486213684,3.889803886413574,10.052132231904269,9.401007942612242,40.92919245405309,33.26923340747036,-0.0010360718006268,0.110118381679058,0,0,0
3217,132751.94407178817,2011-01-20 02:10:12,104.6544739855486,7,15,-1.0993878841400146,3.855645895004273,10.052132231904269,9.410175064158024,40.92919245405309,33.304728624273935,-0.0008094310760498,0.110118381679058,0,0,0
3218,132781.95917606843,2011-01-20 02:10:42,134.6695782507943,7,15,-1.0993878841400146,3.828449249267578,10.052132231904269,9.419342138745272,40.92919245405309,33.339944837293174,-0.0006799221155233,0.110118381679058,0,0,0
3219,132811.9765248527,2011-01-20 02:11:12,164.68692714033435,7,15,-1.0993878841400146,3.806108951568604,10.052132231904269,9.428509887443466,40.92919245405309,33.37493867612749,-0.0005504131549969,0.110118381679058,0,0,0
3220,132841.98951274832,2011-01-20 02:11:42,194.69991495573584,7,15,-1.099568486213684,3.787006378173828,10.052132231904269,9.437676366757689,40.92919245405309,33.40973794224206,-0.0005180359003134,0.110118381679058,0,0,0
3221,132872.0045108991,2011-01-20 02:12:12,224.71491309147413,7,15,-1.099568486213684,3.770170211791992,10.052132231904269,9.446843403894576,40.92919245405309,33.44437570628588,-0.0004209041653666,0.110118381679058,0,0,0
3222,132902.01967932927,2011-01-20 02:12:42,254.7300816068509,7,15,-1.0993878841400146,3.754952907562256,10.052132231904269,9.456010481896133,40.92919245405309,33.47886699921472,-0.0003561496851034,0.110118381679058,0,0,0
3223,132932.03471893838,2011-01-20 02:13:12,284.74512113074127,7,15,-1.0993878841400146,3.740869045257568,10.052132231904269,9.465177549407676,40.92919245405309,33.5132236964788,-0.0003561496851034,0.110118381679058,0,0,0
3224,132962.04984688264,2011-01-20 02:13:42,314.7602490750023,7,15,-1.0993878841400146,3.7277562618255615,10.052132231904269,9.474344633053049,40.92919245405309,33.547455839147126,-0.0003237724304199,0.110118381679058,0,0,0
3225,132992.06493138362,2011-01-20 02:14:13,344.77533359603933,7,15,-1.0993878841400146,3.715452909469605,10.052132231904269,9.483511640853502,40.92919245405309,33.58157066836016,-0.0003237724304199,0.110118381679058,0,0,0
3226,133022.0800355436,2011-01-20 02:14:43,374.79043772594775,7,15,-1.0993878841400146,3.7033114433288574,10.052132231904269,9.492678703321015,40.92919245405309,33.61557397278407,-0.0003237724304199,0.110118381679058,0,0,0
3227,133052.09520724692,2011-01-20 02:15:13,404.8056095245073,7,15,-1.099568486213684,3.69197940826416,10.052132231904269,9.50184581302092,40.92919245405309,33.64947097889321,-0.0002913951757363,0.110118381679058,0,0,0
3228,133082.11026164287,2011-01-20 02:15:43,434.8206638603134,7,15,-1.0993878841400146,3.6811330318450928,10.052132231904269,9.511012926842012,40.92919245405309,33.68326575859998,-0.0002913951757363,0.110118381679058,0,0,0
3229,133112.12719771857,2011-01-20 02:16:13,464.83759990090687,7,15,-1.0993878841400146,3.670610666275024,10.052132231904269,9.520180599627228,40.92919245405309,33.71696449627928,-0.0002913951757363,0.110118381679058,0,0,0
3230,133142.14052512532,2011-01-20 02:16:43,494.85092730767445,7,15,-1.0993878841400146,3.660411834716797,10.052132231904269,9.52934712048456,40.92919245405309,33.75056412311933,-0.0002590179501567,0.110118381679058,0,0,0
3231,133172.15563724516,2011-01-20 02:17:13,524.8660394726087,7,15,-1.099568486213684,3.650536775588989,10.052132231904269,9.538514168032645,40.92919245405309,33.784073566045066,-0.0002266406954731,0.110118381679058,0,0,0
3232,133202.17072127495,2011-01-20 02:17:43,554.8811234623215,7,15,-1.0993878841400146,3.640823602676392,10.052132231904269,9.547681236392028,40.92919245405309,33.8174932014508,-0.0002266406954731,0.110118381679058,0,0,0
3233,133232.18586553488,2011-01-20 02:18:13,584.8962677272588,7,15,-1.099568486213684,3.631434202194214,10.052132231904269,9.556848307318166,40.92919245405309,33.85082548806769,-0.0002590179501567,0.110118381679058,0,0,0
3234,133262.2011960039,2011-01-20 02:18:43,614.9115981912613,7,15,-1.099568486213684,3.622044801712036,10.052132231904269,9.566015488283057,40.92919245405309,33.884071332226696,-0.0002266406954731,0.110118381679058,0,0,0
3235,133292.2160623863,2011-01-20 02:19:13,644.9264645736297,7,15,-1.0993878841400146,3.612817287445069,10.052132231904269,9.575182492152772,40.92919245405309,33.917231678606775,-0.0002266406954731,0.110118381679058,0,0,0
3236,133322.23125023482,2011-01-20 02:19:43,674.941652517428,7,15,-1.099568486213684,3.603913545608521,10.052132231904269,9.584349516983467,40.92919245405309,33.950308821303075,-0.0001942634553415,0.110118381679058,0,0,0
3237,133352.24628165353,2011-01-20 02:20:13,704.9566838358679,7,15,-1.0993878841400146,3.5953335762023926,10.052132231904269,9.593516556349586,40.92919245405309,33.98330587566576,-0.0001942634553415,0.110118381679058,0,0,0
3238,133382.26152346155,2011-01-20 02:20:43,734.9719256940374,7,15,-1.0993878841400146,3.586753845214844,10.052132231904269,9.602683612441002,40.92919245405309,34.01622441414721,-0.0002266406954731,0.110118381679058,0,0,0
3239,133412.2764758984,2011-01-20 02:21:13,764.9868781008051,7,15,-1.0993878841400146,3.578335762023926,10.052132231904269,9.611850335895808,40.92919245405309,34.04906431271654,-0.0002266406954731,0.110118381679058,0,0,0
3240,133442.29158634908,2011-01-20 02:21:43,795.0019885314166,7,15,-1.099568486213684,3.570241451263428,10.052132231904269,9.621017159008847,40.92919245405309,34.08182954370037,-0.0002590179501567,0.110118381679058,0,0,0
3241,133472.30694494318,2011-01-20 02:22:13,825.0173471255283,7,15,-1.0992072820663452,3.562794685363769,10.052132231904269,9.630184252041117,40.92919245405309,34.114522785053374,-0.0001295089750783,0.110118381679058,0,0,0
3242,133502.3218636259,2011-01-20 02:22:43,855.03226581827,7,15,-1.099568486213684,3.5550241470336914,10.052132231904269,9.639351266987893,40.92919245405309,34.14714550674482,-0.0001618862152099,0.110118381679058,0,0,0
3243,133532.3369571293,2011-01-20 02:23:13,885.0473593116691,7,15,-1.099568486213684,3.547577381134033,10.052132231904269,9.64851830160554,40.92919245405309,34.17969984488692,-0.0001618862152099,0.110118381679058,0,0,0
3244,133562.35219596996,2011-01-20 02:23:43,915.0625981773804,7,15,-1.0993878841400146,3.540292501449585,10.052132231904269,9.65768540990992,40.92919245405309,34.2121866979898,-0.0001618862152099,0.110118381679058,0,0,0
3245,133592.36721562935,2011-01-20 02:24:13,945.0776178117,7,15,-1.0993878841400146,3.5333313941955566,10.052132231904269,9.666852510256131,40.92919245405309,34.24460756814564,-0.0001942634553415,0.110118381679058,0,0,0
3246,133622.38231266156,2011-01-20 02:24:43,975.0927148439188,7,15,-1.0993878841400146,3.5262084007263184,10.052132231904269,9.67601962107819,40.92919245405309,34.27696440135052,-0.0001942634553415,0.110118381679058,0,0,0
3247,133652.3974100597,2011-01-20 02:25:13,1005.1078122420494,7,15,-1.0993878841400146,3.51973295211792,10.052132231904269,9.68518677334718,40.92919245405309,34.3092598010797,-0.0001618862152099,0.110118381679058,0,0,0
3248,133682.41252419955,2011-01-20 02:25:43,1035.1229263819057,7,15,-1.099568486213684,3.513257503509521,10.052132231904269,9.69435391507812,40.92919245405309,34.34149616387509,-0.0001942634553415,0.110118381679058,0,0,0
3249,133712.42952542764,2011-01-20 02:26:13,1065.139927614979,7,15,-1.0993878841400146,3.507267951965332,10.052132231904269,9.703521602349756,40.92919245405309,34.37367652085258,-0.0001295089750783,0.110118381679058,0,0,0
3250,133742.44281787224,2011-01-20 02:26:43,1095.1532200545976,7,15,-1.0993878841400146,3.501116275787353,10.052132231904269,9.712688155448186,40.92919245405309,34.40579659479752,-0.0001295089750783,0.110118381679058,0,0,0
3251,133772.4579007943,2011-01-20 02:27:13,1125.1683030718868,7,15,-1.099568486213684,3.495288372039795,10.052132231904269,9.72185521478351,40.92919245405309,34.43786428086589,-0.0001295089750783,0.110118381679058,0,0,0
3252,133802.4731184271,2011-01-20 02:27:43,1155.1835206495418,7,15,-1.099568486213684,3.4892985820770264,10.052132231904269,9.731022351013532,40.92919245405309,34.46987775279482,-0.0001618862152099,0.110118381679058,0,0,0
3253,133832.48809686876,2011-01-20 02:28:13,1185.1984990510966,7,15,-1.099568486213684,3.483308792114258,10.052132231904269,9.740189460505407,40.92919245405309,34.50183690525761,-0.0001618862152099,0.110118381679058,0,0,0
3254,133862.50319253255,2011-01-20 02:28:43,1215.213594714905,7,15,-1.099568486213684,3.477480888366699,10.052132231904269,9.749356515820168,40.92919245405309,34.53374288054178,-0.0001618862152099,0.110118381679058,0,0,0
3255,133892.51842782437,2011-01-20 02:29:13,1245.2288300317714,7,15,-1.099568486213684,3.4719767570495605,10.052132231904269,9.758523602251431,40.92919245405309,34.56559658520684,-0.0001295089750783,0.110118381679058,0,0,0
3256,133922.53341562435,2011-01-20 02:29:43,1275.2438178066875,7,15,-1.0993878841400146,3.466472625732422,10.052132231904269,9.767690649487074,40.92919245405309,34.59739830567769,-9.713172767078504e-05,0.110118381679058,0,0,0
3257,133952.5486648559,2011-01-20 02:30:13,1305.2590670632962,7,15,-1.0993878841400146,3.460968494415283,10.052132231904269,9.776857774299398,40.92919245405309,34.62914955131767,-0.0001295089750783,0.110118381679058,0,0,0
3258,133982.5637662189,2011-01-20 02:30:43,1335.2741684012462,7,15,-1.0993878841400146,3.4551405906677246,10.052132231904269,9.78602479426228,40.92919245405309,34.66084896919237,-0.0001295089750783,0.110118381679058,0,0,0
3259,134012.57876808895,2011-01-20 02:31:13,1365.2891702913416,7,15,-1.099568486213684,3.449150800704956,10.052132231904269,9.795191847189535,40.92919245405309,34.69249463886363,-0.0001618862152099,0.110118381679058,0,0,0
3260,134042.59387612357,2011-01-20 02:31:43,1395.3042783059318,7,15,-1.0997490882873535,3.4431610107421875,10.052132231904269,9.8043589443285,40.92919245405309,34.72408661317907,-0.0001942634553415,0.110118381679058,0,0,0
3261,134072.60898818326,2011-01-20 02:32:13,1425.3193903656036,7,15,-1.099568486213684,3.437333106994629,10.052132231904269,9.81352600836878,40.92919245405309,34.7556244943081,-0.0001942634553415,0.110118381679058,0,0,0
3262,134102.6246248354,2011-01-20 02:32:43,1455.335027138021,7,15,-1.0993878841400146,3.431181669235229,10.052132231904269,9.82269265585624,40.92919245405309,34.78710580960148,-0.0001618385285837,0.110118381679058,0,0,0
3263,134132.63932373532,2011-01-20 02:33:13,1485.3497259327091,7,15,-1.099568486213684,3.424706220626831,10.052132231904269,9.831858933359356,40.92919245405309,34.81852754109912,-0.0002266406954731,0.110118381679058,0,0,0
3264,134162.65433017677,2011-01-20 02:33:43,1515.3647323691353,7,15,-1.0993878841400146,3.4179069995880127,10.052132231904269,9.84102526683376,40.92919245405309,34.84988839262412,-0.0001942634553415,0.110118381679058,0,0,0
3265,134192.66944589556,2011-01-20 02:34:13,1545.3798480829144,7,15,-1.0993878841400146,3.4106221199035645,10.052132231904269,9.850191651037935,40.92919245405309,34.881185465355095,-0.0001942634553415,0.110118381679058,0,0,0
3266,134222.68469439028,2011-01-20 02:34:43,1575.3950966127118,7,15,-1.099568486213684,3.403337240219116,10.052132231904269,9.85935874463518,40.92919245405309,34.91241859208569,-0.0001942634553415,0.110118381679058,0,0,0
3267,134252.69964687724,2011-01-20 02:35:13,1605.4100490595793,7,15,-1.0997490882873535,3.395404815673828,10.052132231904269,9.868525809300898,40.92919245405309,34.94358145916733,-0.0002590179501567,0.110118381679058,0,0,0
3268,134282.71488451486,2011-01-20 02:35:43,1635.4252867122675,7,15,-1.099568486213684,3.38714861869812,10.052132231904269,9.877692903128818,40.92919245405309,34.9746697937525,-0.0001942634553415,0.110118381679058,0,0,0
3269,134312.73169804012,2011-01-20 02:36:13,1665.44210024754,7,15,-1.099568486213684,3.3780829906463623,10.052132231904269,9.88686058924922,40.92919245405309,35.00568078624644,-0.0002590179501567,0.110118381679058,0,0,0
3270,134342.74499320152,2011-01-20 02:36:43,1695.4553953939048,7,15,-1.099568486213684,3.3688554763793945,10.052132231904269,9.896027208435292,40.92919245405309,35.0366050085438,-0.0002590179501567,0.110118381679058,0,0,0
3271,134372.76010179255,2011-01-20 02:37:13,1725.4705039849316,7,15,-1.099568486213684,3.358494758605957,10.052132231904269,9.905194620972594,40.92919245405309,35.06744211940034,-0.0002590179501567,0.110118381679058,0,0,0
3272,134402.77520811794,2011-01-20 02:37:43,1755.4856103253492,7,15,-1.0993878841400146,3.346677303314209,10.052132231904269,9.914362424093866,40.92919245405309,35.0981782434693,-0.0003237724304199,0.110118381679058,0,0,0
3273,134432.7926866857,2011-01-20 02:38:13,1785.5030889131374,7,15,-1.099568486213684,3.333402633666992,10.052132231904269,9.923530786257148,40.92919245405309,35.128801954343395,-0.0003561496851034,0.110118381679058,0,0,0
3274,134462.80547598127,2011-01-20 02:38:43,1815.5158781736795,7,15,-1.099568486213684,3.317699670791626,10.052132231904269,9.932697265901728,40.92919245405309,35.159287201775946,-0.0004209041653666,0.110118381679058,0,0,0
3275,134492.82057848715,2011-01-20 02:39:13,1845.53098067954,7,15,-1.0993878841400146,3.2992446422576904,10.052132231904269,9.941864305210466,40.92919245405309,35.18961852753575,-0.0005504131549969,0.110118381679058,0,0,0
3276,134522.8356984265,2011-01-20 02:39:43,1875.5461007040624,7,15,-1.099568486213684,3.277066230773926,10.052132231904269,9.951031468400751,40.92919245405309,35.219765272062055,-0.0006475448608398,0.110118381679058,0,0,0
3277,134552.8508269973,2011-01-20 02:40:13,1905.5612292097228,7,15,-1.099568486213684,3.2498695850372314,10.052132231904269,9.960198640886306,40.92919245405309,35.24968633044082,-0.0008094310760498,0.110118381679058,0,0,0
3278,134582.86592484656,2011-01-20 02:40:43,1935.5763270289028,7,15,-1.099568486213684,3.21587347984314,10.052132231904269,9.969365754345008,40.92919245405309,35.27932943314128,-0.0010036944877356,0.110118381679058,0,0,0
3279,134612.8810165104,2011-01-20 02:41:13,1965.591418702767,7,15,-1.099568486213684,3.1721644401550293,10.052132231904269,9.978532993220874,40.92919245405309,35.30861789540758,-0.0012627125252038,0.110118381679058,0,0,0
3280,134642.8962049705,2011-01-20 02:41:43,1995.6066072530773,7,15,-1.099568486213684,3.1135616302490234,10.052132231904269,9.987700173118233,40.92919245405309,35.33744283984826,-0.0017483711708337,0.110118381679058,0,0,0
3281,134672.91125091037,2011-01-20 02:42:13,2025.621653102733,7,15,-1.0992072820663452,3.0318093299865723,10.052132231904269,9.996867320133644,40.92919245405309,35.36563097157126,-0.0024606704246252,0.110118381679058,0,0,0
3282,134702.92636989226,2011-01-20 02:42:43,2055.6367720896696,7,15,-1.0993878841400146,2.9124996662139893,10.052132231904269,10.006034463748737,40.92919245405309,35.392912631978334,-0.0037233829498291,0.110118381679058,0,0,0
3283,134732.94372641083,2011-01-20 02:43:13,2085.654128728524,7,15,-1.099568486213684,2.739443778991699,10.052132231904269,10.015202313052376,40.92919245405309,35.41886567985063,-0.0052451132796704,0.110118381679058,0,0,0
3284,134738.78534480633,2011-01-20 02:43:19,2091.495746998673,7,15,-1.0993878841400146,2.699943780899048,10.052132231904269,10.016986476031189,40.92919245405309,35.42371850198261,-0.0054393289610743,0.110118381679058,0,0,0
3285,134798.8052193354,2011-01-20 02:44:19,60.01460200422592,8,15,0.0,3.6073131561279297,10.052132231904269,10.016986476031189,40.92919245405309,35.42371850198261,0.0012303352123126,0.110118381679058,0,0,0
3286,134798.99938558668,2011-01-20 02:44:20,0.187638096872205,9,15,-1.9243103452026844e-05,3.6076369285583496,10.052132231904269,10.01698647703417,40.92919245405309,35.42371850560101,0.0,0.1069762408733367,0,0,0
3287,134803.8272946165,2011-01-20 02:44:25,5.015547121672476,9,15,0.0008838032954372,3.615083694458008,10.052133145842417,10.016986477117255,40.92919575512705,35.42371850590075,0.0010360718006268,0.1069762408733367,0,0,0
