Data_Point,Test_Time(s),Date_Time,Step_Time(s),Step_Index,Cycle_Index,Current(A),Voltage(V),Charge_Capacity(Ah),Discharge_Capacity(Ah),Charge_Energy(Wh),Discharge_Energy(Wh),dV/dt(V/s),Internal_Resistance(Ohm),Is_FC_Data,AC_Impedance(Ohm),ACI_Phase_Angle(Deg)
8090,340407.6533712362,2011-01-22 11:51:38,30.01509739311824,1,40,0.0,3.6694774627685542,24.873807345362124,24.78601891167147,101.50122631550502,87.21797153437575,0.0006151676061563,0.1093086898326873,0,0,0
8091,340437.668469306,2011-01-22 11:52:08,60.03019547796045,1,40,0.0,3.687932252883911,24.873807345362124,24.78601891167147,101.50122631550502,87.21797153437575,0.0003885269106831,0.1093086898326873,0,0,0
8092,340467.6835701728,2011-01-22 11:52:38,90.04529634473612,1,40,0.0,3.700883150100708,24.873807345362124,24.78601891167147,101.50122631550502,87.21797153437575,0.0002590179501567,0.1093086898326873,0,0,0
8093,340497.65181803243,2011-01-22 11:53:08,120.01354420941423,1,40,0.0,3.710758209228516,24.873807345362124,24.78601891167147,101.50122631550502,87.21797153437575,0.0002590179501567,0.1093086898326873,0,0,0
8094,340527.6779130186,2011-01-22 11:53:38,30.01532404299948,2,40,0.5499359965324402,3.8300681114196777,24.87839452780792,24.78601891167147,101.51871428647634,87.21797153437575,0.0006799221155233,0.1093086898326873,0,0,0
8095,340557.6929190791,2011-01-22 11:54:08,60.030330098476206,2,40,0.550297200679779,3.8507893085479736,24.882981655758627,24.78601891167147,101.53633452293894,87.21797153437575,0.0004856586456298,0.1093086898326873,0,0,0
8096,340587.7078861023,2011-01-22 11:54:38,90.04529713670995,2,40,0.5501165986061096,3.86503529548645,24.88756872827981,24.78601891167147,101.55403191210604,87.21797153437575,0.0003561496851034,0.1093086898326873,0,0,0
8097,340617.723045124,2011-01-22 11:55:08,120.06045614840065,2,40,0.5501165986061096,3.876367330551148,24.89215581231639,24.78601891167147,101.5717876520671,87.21797153437575,0.0002590179501567,0.1093086898326873,0,0,0
8098,340647.73823127337,2011-01-22 11:55:38,150.07564230273914,2,40,0.550297200679779,3.886242389678955,24.89674296620604,24.78601891167147,101.58959198013224,87.21797153437575,0.0003237724304199,0.1093086898326873,0,0,0
8099,340677.75322824623,2011-01-22 11:56:08,180.0906392856041,2,40,0.5499359965324402,3.894660472869873,24.90133012325127,24.78601891167147,101.60743828592062,87.21797153437575,0.0002266406954731,0.1093086898326873,0,0,0
8100,340707.76844980376,2011-01-22 11:56:38,210.1058608181159,2,40,0.550297200679779,3.902592897415161,24.905917243590743,24.78601891167147,101.62532213275225,87.21797153437575,0.0001942634553415,0.1093086898326873,0,0,0
8101,340737.7834315537,2011-01-22 11:57:08,240.12084258806564,2,40,0.5501165986061096,3.9097158908844,24.910504333393156,24.78601891167147,101.64324061855396,87.21797153437575,0.0001618862152099,0.1093086898326873,0,0,0
8102,340767.7986573568,2011-01-22 11:57:38,270.13606837117123,2,40,0.5501165986061096,3.9168386459350586,24.915091482636928,24.78601891167147,101.66119162789434,87.21797153437575,0.0001942634553415,0.1093086898326873,0,0,0
8103,340797.8136387158,2011-01-22 11:58:08,300.1510497501465,2,40,0.5501165986061096,3.923152208328247,24.919678534333045,24.78601891167147,101.67917272117356,87.21797153437575,0.0001618862152099,0.1093086898326873,0,0,0
8104,340827.82887567166,2011-01-22 11:58:38,330.1662867060983,2,40,0.550297200679779,3.9296276569366455,24.924265639164613,24.78601891167147,101.69718302399292,87.21797153437575,0.0001942634553415,0.1093086898326873,0,0,0
8105,340857.84624417016,2011-01-22 11:59:08,360.18365520450965,2,40,0.5499359965324402,3.935293674468994,24.928853112013133,24.78601891167147,101.71522262643336,87.21797153437575,0.0001618862152099,0.1093086898326873,0,0,0
8106,340887.8590360823,2011-01-22 11:59:38,390.1964471116475,2,40,0.5501165986061096,3.940959692001343,24.933439799500366,24.78601891167147,101.73328560035712,87.21797153437575,0.0001618862152099,0.1093086898326873,0,0,0
8107,340917.8740754858,2011-01-22 12:00:08,420.21148652526296,2,40,0.5501165986061096,3.946301937103272,24.93802682168728,24.78601891167147,101.75137509512422,87.21797153437575,0.0001295089750783,0.1093086898326873,0,0,0
8108,340947.88918322977,2011-01-22 12:00:38,450.22659426416607,2,40,0.5501165986061096,3.95132040977478,24.94261389984163,24.78601891167147,101.76948884286972,87.21797153437575,0.0001295089750783,0.1093086898326873,0,0,0
8109,340977.9043008132,2011-01-22 12:01:08,480.24171183757977,2,40,0.5501165986061096,3.956338882446289,24.94720109022688,24.78601891167147,101.78762616458376,87.21797153437575,9.713172767078504e-05,0.1093086898326873,0,0,0
8110,341007.9194023366,2011-01-22 12:01:38,510.256813371017,2,40,0.5501165986061096,3.961033582687378,24.95178823848377,24.78601891167147,101.80578549176506,87.21797153437575,9.713172767078504e-05,0.1093086898326873,0,0,0
8111,341037.93450812064,2011-01-22 12:02:08,540.271919155048,2,40,0.550297200679779,3.965728282928467,24.95637540206593,24.78601891167147,101.82396634820832,87.21797153437575,0.0001618862152099,0.1093086898326873,0,0,0
8112,341067.94974822446,2011-01-22 12:02:38,570.2871592438077,2,40,0.5501165986061096,3.970099210739136,24.960962587660504,24.78601891167147,101.8421677108466,87.21797153437575,0.0001295089750783,0.1093086898326873,0,0,0
8113,341097.96474547795,2011-01-22 12:03:08,600.3021565123847,2,40,0.5501165986061096,3.9743082523345943,24.96554966094431,24.78601891167147,101.86038834460491,87.21797153437575,9.713172767078504e-05,0.1093086898326873,0,0,0
8114,341127.9798340441,2011-01-22 12:03:38,630.3172450584534,2,40,0.550297200679779,3.978031635284424,24.97013686030441,24.78601891167147,101.87862828465676,87.21797153437575,6.47544875391759e-05,0.1093086898326873,0,0,0
8115,341157.9971139567,2011-01-22 12:04:08,660.3345249760943,2,40,0.550297200679779,3.982240676879883,24.97472428237371,24.78601891167147,101.89688750184132,87.21797153437575,9.713172767078504e-05,0.1093086898326873,0,0,0
8116,341188.0102034305,2011-01-22 12:04:38,690.3476144398346,2,40,0.5501165986061096,3.986125946044922,24.97931100856556,24.78601891167147,101.91516175268494,87.21797153437575,0.0001295089750783,0.1093086898326873,0,0,0
8117,341218.025169361,2011-01-22 12:05:08,720.3625804003825,2,40,0.5501165986061096,3.989849328994751,24.98389802284889,24.78601891167147,101.93345458870866,87.21797153437575,9.713172767078504e-05,0.1093086898326873,0,0,0
8118,341248.04026290955,2011-01-22 12:05:38,750.377673938894,2,40,0.550297200679779,3.99357271194458,24.98848503009821,24.78601891167147,101.95176441964298,87.21797153437575,9.713172767078504e-05,0.1093086898326873,0,0,0
8119,341278.0554913592,2011-01-22 12:06:08,780.3929023936581,2,40,0.5504778623580933,3.99729585647583,24.99307205955244,24.78601891167147,101.97009111372748,87.21797153437575,0.0001295089750783,0.1093086898326873,0,0,0
8120,341308.0704971792,2011-01-22 12:06:38,810.4079082085352,2,40,0.550297200679779,4.000857353210449,24.99765912520515,24.78601891167147,101.98843427223802,87.21797153437575,0.0001618385285837,0.1093086898326873,0,0,0
8121,341338.0856073191,2011-01-22 12:07:09,840.4230183484223,2,40,0.5501165986061096,4.004095077514648,25.00224608433821,24.78601891167147,102.00679306916956,87.21797153437575,9.70840483205393e-05,0.1093086898326873,0,0,0
8122,341368.10069937387,2011-01-22 12:07:39,870.4381104032359,2,40,0.550297200679779,4.007656574249268,25.00683306783679,24.78601891167147,102.02516800887072,87.21797153437575,6.47544875391759e-05,0.1093086898326873,0,0,0
8123,341398.1158058596,2011-01-22 12:08:09,900.4532168890157,2,40,0.5501165986061096,4.011056423187256,25.01142012465499,24.78601891167147,102.043558947569,87.21797153437575,9.71794142969884e-05,0.1093086898326873,0,0,0
8124,341428.13093120744,2011-01-22 12:08:39,930.4683422368056,2,40,0.5501165986061096,4.014132022857666,25.01600714357752,24.78601891167147,102.06196516059164,87.21797153437575,6.47544875391759e-05,0.1093086898326873,0,0,0
8125,341458.14602932235,2011-01-22 12:09:09,960.4834403266605,2,40,0.550297200679779,4.017693519592285,25.02059412029377,24.78601891167147,102.0803864462496,87.21797153437575,9.70840483205393e-05,0.1093086898326873,0,0,0
8126,341488.16113010386,2011-01-22 12:09:39,990.498541133286,2,40,0.550297200679779,4.020931243896484,25.025181146455584,24.78601891167147,102.09882282774755,87.21797153437575,9.70840483205393e-05,0.1093086898326873,0,0,0
8127,341518.17629773205,2011-01-22 12:10:09,1020.5137087363892,2,40,0.5499359965324402,4.024168968200684,25.029768111577592,24.78601891167147,102.11727384633254,87.21797153437575,9.70840483205393e-05,0.1093086898326873,0,0,0
8128,341548.1914685281,2011-01-22 12:10:39,1050.5288795575125,2,40,0.550297200679779,4.027406692504883,25.034355140310023,24.78601891167147,102.1357398078154,87.21797153437575,9.70840483205393e-05,0.1093086898326873,0,0,0
8129,341578.2064608093,2011-01-22 12:11:09,1080.5438718386597,2,40,0.5501165986061096,4.030482769012451,25.038942240541736,24.78601891167147,102.15422057399192,87.21797153437575,9.71794142969884e-05,0.1093086898326873,0,0,0
8130,341608.2216969883,2011-01-22 12:11:39,1110.5591080176748,2,40,0.550297200679779,4.03372049331665,25.043529266640448,24.78601891167147,102.17271531141652,87.21797153437575,0.0001619339018361,0.1093086898326873,0,0,0
8131,341638.236665851,2011-01-22 12:12:09,1140.574076880456,2,40,0.5501165986061096,4.036472320556641,25.04811627499381,24.78601891167147,102.19122424416376,87.21797153437575,6.47544875391759e-05,0.1093086898326873,0,0,0
8132,341668.2517778105,2011-01-22 12:12:39,1170.589188839878,2,40,0.5501165986061096,4.03971004486084,25.05270334239969,24.78601891167147,102.2097475667978,87.21797153437575,6.47544875391759e-05,0.1093086898326873,0,0,0
8133,341698.26689479244,2011-01-22 12:13:09,1200.6043058218174,2,40,0.5501165986061096,4.04278564453125,25.05729040271788,24.78601891167147,102.22828484516208,87.21797153437575,9.70840483205393e-05,0.1093086898326873,0,0,0
8134,341728.2820090476,2011-01-22 12:13:39,1230.619420076961,2,40,0.550297200679779,4.045861721038818,25.06187742721817,24.78601891167147,102.24683600974784,87.21797153437575,9.71794142969884e-05,0.1093086898326873,0,0,0
8135,341758.29708825034,2011-01-22 12:14:09,1260.6344992797433,2,40,0.5501165986061096,4.048775672912598,25.06646439540291,24.78601891167147,102.2654008673088,87.21797153437575,6.47544875391759e-05,0.1093086898326873,0,0,0
8136,341788.31219203444,2011-01-22 12:14:39,1290.6496030637898,2,40,0.5501165986061096,4.051689624786377,25.071051449482685,24.78601891167147,102.283979896521,87.21797153437575,6.47544875391759e-05,0.1093086898326873,0,0,0
8137,341818.3275659166,2011-01-22 12:15:09,1320.6649769409914,2,40,0.5501165986061096,4.054927349090576,25.075638579067103,24.78601891167147,102.30257312531629,87.21797153437575,9.71794142969884e-05,0.1093086898326873,0,0,0
8138,341848.3425907489,2011-01-22 12:15:39,1350.6800017632406,2,40,0.5501165986061096,4.057841300964356,25.080225571949324,24.78601891167147,102.3211796749108,87.21797153437575,6.47544875391759e-05,0.1093086898326873,0,0,0
8139,341878.35755203775,2011-01-22 12:16:09,1380.6949630671827,2,40,0.550297200679779,4.060755252838135,25.08481263892976,24.78601891167147,102.33980034134868,87.21797153437575,6.47544875391759e-05,0.1093086898326873,0,0,0
8140,341908.37265940075,2011-01-22 12:16:39,1410.710070430149,2,40,0.550297200679779,4.063830852508545,25.08939970503986,24.78601891167147,102.35843427040736,87.21797153437575,6.47544875391759e-05,0.1093086898326873,0,0,0
8141,341938.38779233745,2011-01-22 12:17:09,1440.7252033468028,2,40,0.5501165986061096,4.066744804382324,25.09398666676079,24.78601891167147,102.3770815512874,87.21797153437575,6.47544875391759e-05,0.1093086898326873,0,0,0
8142,341968.4030089026,2011-01-22 12:17:39,1470.7404199169468,2,40,0.550297200679779,4.069820880889893,25.098573635459488,24.78601891167147,102.395742659491,87.21797153437575,6.47544875391759e-05,0.1093086898326873,0,0,0
8143,341998.41798316885,2011-01-22 12:18:09,1500.7553941982326,2,40,0.5499359965324402,4.072734832763672,25.10316062306032,24.78601891167147,102.41441762448406,87.21797153437575,6.47544875391759e-05,0.1093086898326873,0,0,0
8144,342028.4332190572,2011-01-22 12:18:39,1530.7706300714858,2,40,0.5501165986061096,4.075972557067871,25.107747624701044,24.78601891167147,102.43310638670454,87.21797153437575,9.71794142969884e-05,0.1093086898326873,0,0,0
8145,342058.4482126064,2011-01-22 12:19:09,1560.7856236358307,2,40,0.5501165986061096,4.078724384307861,25.11233461476101,24.78601891167147,102.45180887255164,87.21797153437575,6.47544875391759e-05,0.1093086898326873,0,0,0
8146,342088.4633191223,2011-01-22 12:19:39,1590.8007301516857,2,40,0.5501165986061096,4.08180046081543,25.11692163686151,24.78601891167147,102.4705253127036,87.21797153437575,9.71794142969884e-05,0.1093086898326873,0,0,0
8147,342118.4784165154,2011-01-22 12:20:09,1620.815827544804,2,40,0.5499359965324402,4.084714412689209,25.121508638900437,24.78601891167147,102.48925552777168,87.21797153437575,6.47544875391759e-05,0.1093086898326873,0,0,0
8148,342148.4934992219,2011-01-22 12:20:39,1650.830910246306,2,40,0.5499359965324402,4.087790012359619,25.12609537886881,24.78601891167147,102.50799850502123,87.21797153437575,3.23295607813634e-05,0.1093086898326873,0,0,0
8149,342178.508601016,2011-01-22 12:21:09,1680.846012040393,2,40,0.5501165986061096,4.091027736663818,25.130681646481925,24.78601891167147,102.5267533961624,87.21797153437575,0.0001295089750783,0.1093086898326873,0,0,0
8150,342208.52369597304,2011-01-22 12:21:39,1710.8611070024522,2,40,0.5501165986061096,4.094103813171387,25.13526809468392,24.78601891167147,102.54552302321062,87.21797153437575,6.47544875391759e-05,0.1093086898326873,0,0,0
8151,342238.53885236324,2011-01-22 12:22:09,1740.8762633926094,2,40,0.5497553944587708,4.096855640411377,25.13985445483493,24.78601891167147,102.56430644256864,87.21797153437575,6.47544875391759e-05,0.1093086898326873,0,0,0
8152,342268.55395722494,2011-01-22 12:22:39,1770.8913682543416,2,40,0.5499359965324402,4.100093364715576,25.144440822403304,24.78601891167147,102.58310408381962,87.21797153437575,6.47544875391759e-05,0.1093086898326873,0,0,0
8153,342298.5690803623,2011-01-22 12:23:09,1800.9064913916222,2,40,0.5501165986061096,4.103331089019775,25.1490271933494,24.78601891167147,102.6019161118828,87.21797153437575,9.70840483205393e-05,0.1093086898326873,0,0,0
8154,342328.5842977845,2011-01-22 12:23:39,1830.9217088088776,2,40,0.5499359965324402,4.106568813323975,25.15361363759111,24.78601891167147,102.62074297883431,87.21797153437575,9.70840483205393e-05,0.1093086898326873,0,0,0
8155,342358.5993088124,2011-01-22 12:24:09,1860.9367198417592,2,40,0.5501165986061096,4.109644889831543,25.15820072572076,24.78601891167147,102.63958711382932,87.21797153437575,6.47544875391759e-05,0.1093086898326873,0,0,0
8156,342388.6145500139,2011-01-22 12:24:39,1890.951961028255,2,40,0.5501165986061096,4.112882614135742,25.162787834042028,24.78601891167147,102.65844587783496,87.21797153437575,9.71794142969884e-05,0.1093086898326873,0,0,0
8157,342418.6296270212,2011-01-22 12:25:09,1920.9670380506032,2,40,0.5501165986061096,4.115958213806152,25.16737488209172,24.78601891167147,102.6773189164167,87.21797153437575,9.71794142969884e-05,0.1093086898326873,0,0,0
8158,342448.644842649,2011-01-22 12:25:39,1950.9822536583488,2,40,0.5501165986061096,4.119195938110352,25.171961914318203,24.78601891167147,102.69620674861292,87.21797153437575,6.47544875391759e-05,0.1093086898326873,0,0,0
8159,342478.65990810754,2011-01-22 12:26:09,1980.9973191218885,2,40,0.550297200679779,4.122595310211182,25.176549022739128,24.78601891167147,102.71510990723937,87.21797153437575,9.70840483205393e-05,0.1093086898326873,0,0,0
8160,342508.6748513715,2011-01-22 12:26:39,2011.0122624009068,2,40,0.550297200679779,4.12599515914917,25.18113605020128,24.78601891167147,102.73402764618082,87.21797153437575,0.0001619339018361,0.1093086898326873,0,0,0
8161,342538.6899442484,2011-01-22 12:27:09,2041.027355252707,2,40,0.550297200679779,4.129232883453369,25.18572312222136,24.78601891167147,102.75296079202268,87.21797153437575,0.0001295089750783,0.1093086898326873,0,0,0
8162,342568.7051962468,2011-01-22 12:27:39,2071.042607276212,2,40,0.5501165986061096,4.132308483123779,25.190310286525246,24.78601891167147,102.77190949949782,87.21797153437575,6.47544875391759e-05,0.1093086898326873,0,0,0
8163,342598.7201526736,2011-01-22 12:28:09,2101.0575637029983,2,40,0.5499359965324402,4.135708332061768,25.19489732723209,24.78601891167147,102.79087291226024,87.21797153437575,6.47544875391759e-05,0.1093086898326873,0,0,0
8164,342628.73526373075,2011-01-22 12:28:39,2131.072674745134,2,40,0.5504778623580933,4.139269828796387,25.199484452652527,24.78601891167147,102.8098520999612,87.21797153437575,9.71794142969884e-05,0.1093086898326873,0,0,0
8165,342658.7503728632,2011-01-22 12:29:09,2161.087783887535,2,40,0.5499359965324402,4.142507553100586,25.204071528301217,24.78601891167147,102.8288465695572,87.21797153437575,6.47544875391759e-05,0.1093086898326873,0,0,0
8166,342688.76548326865,2011-01-22 12:29:39,2191.1028942980965,2,40,0.550297200679779,4.146069049835205,25.208658586218085,24.78601891167147,102.84785677055828,87.21797153437575,9.71794142969884e-05,0.1093086898326873,0,0,0
8167,342718.7805816342,2011-01-22 12:30:09,2221.1179926586265,2,40,0.5499359965324402,4.149468421936035,25.213245684812623,24.78601891167147,102.86688317709472,87.21797153437575,6.47544875391759e-05,0.1093086898326873,0,0,0
8168,342748.79569301225,2011-01-22 12:30:39,2251.133104036599,2,40,0.5501165986061096,4.153029918670654,25.21783269752687,24.78601891167147,102.88592507230074,87.21797153437575,0.0001295089750783,0.1093086898326873,0,0,0
8169,342778.81320155965,2011-01-22 12:31:09,2281.150612684305,2,40,0.5501165986061096,4.156429767608643,25.222420152503307,24.78601891167147,102.90498484854676,87.21797153437575,6.47544875391759e-05,0.1093086898326873,0,0,0
8170,342808.8259247756,2011-01-22 12:31:39,2311.1633357899686,2,40,0.550297200679779,4.160152912139893,25.22700684062304,24.78601891167147,102.92405759271304,87.21797153437575,0.0001295089750783,0.1093086898326873,0,0,0
8171,342838.8410245948,2011-01-22 12:32:09,2341.178435619159,2,40,0.550297200679779,4.163876533508301,25.23159396453901,24.78601891167147,102.94314848680897,87.21797153437575,0.0001295089750783,0.1093086898326873,0,0,0
8172,342868.85624907963,2011-01-22 12:32:39,2371.1936601090406,2,40,0.550297200679779,4.16743803024292,25.236181035431777,24.78601891167147,102.96225561098716,87.21797153437575,0.0001619339018361,0.1093086898326873,0,0,0
8173,342898.8712455262,2011-01-22 12:33:09,2401.208656540532,2,40,0.5501165986061096,4.17083740234375,25.240768092701064,24.78601891167147,102.98137924295412,87.21797153437575,6.47544875391759e-05,0.1093086898326873,0,0,0
8174,342928.8864659109,2011-01-22 12:33:39,2431.2238769201704,2,40,0.5501165986061096,4.174561023712158,25.24535521708415,24.78601891167147,103.00051972085252,87.21797153437575,0.0001295089750783,0.1093086898326873,0,0,0
8175,342958.9014535905,2011-01-22 12:34:09,2461.238864619899,2,40,0.550297200679779,4.178122520446777,25.24994227373265,24.78601891167147,103.01967653218507,87.21797153437575,9.71794142969884e-05,0.1093086898326873,0,0,0
8176,342988.916704401,2011-01-22 12:34:39,2491.254115415343,2,40,0.5501165986061096,4.181845664978027,25.254529403974782,24.78601891167147,103.0388505432047,87.21797153437575,9.70840483205393e-05,0.1093086898326873,0,0,0
8177,343018.9316828527,2011-01-22 12:35:09,2521.26909388206,2,40,0.550297200679779,4.185569286346436,25.259116455978013,24.78601891167147,103.05804113854468,87.21797153437575,0.0001295089750783,0.1093086898326873,0,0,0
8178,343048.9467802207,2011-01-22 12:35:39,2551.284191250116,2,40,0.550297200679779,4.1892924308776855,25.26370351978496,24.78601891167147,103.07724891762714,87.21797153437575,0.0001295089750783,0.1093086898326873,0,0,0
8179,343078.96457401913,2011-01-22 12:36:09,2581.301985143743,2,40,0.5501165986061096,4.193016052246094,25.268290982287983,24.78601891167147,103.09647568264782,87.21797153437575,9.71794142969884e-05,0.1093086898326873,0,0,0
8180,343108.9771245697,2011-01-22 12:36:39,2611.314535584071,2,40,0.5501165986061096,4.196900844573975,25.272877679364548,24.78601891167147,103.11571664610808,87.21797153437575,0.0001295089750783,0.1093086898326873,0,0,0
8181,343133.5078411734,2011-01-22 12:37:04,2635.8452522027974,2,40,0.550297200679779,4.200138568878174,25.276626543155416,24.78601891167147,103.13145595943227,87.21797153437575,9.70840483205393e-05,0.1093086898326873,0,0,0
8182,343163.5323770656,2011-01-22 12:37:34,30.01528383779574,3,40,0.0,4.088923454284668,25.276626543155416,24.78601891167147,103.13145595943227,87.21797153437575,-0.0005180359003134,0.1093086898326873,0,0,0
8183,343193.5472605155,2011-01-22 12:38:04,60.03016729772664,3,40,0.0,4.074839115142822,25.276626543155416,24.78601891167147,103.13145595943227,87.21797153437575,-0.0002590179501567,0.1093086898326873,0,0,0
8184,343223.5623866352,2011-01-22 12:38:34,90.04529339237791,3,40,0.0,4.0657734870910645,25.276626543155416,24.78601891167147,103.13145595943227,87.21797153437575,-0.0001942634553415,0.1093086898326873,0,0,0
8185,343253.5308294508,2011-01-22 12:39:04,120.0137362179586,3,40,0.0,4.059621810913086,25.276626543155416,24.78601891167147,103.13145595943227,87.21797153437575,-9.71794142969884e-05,0.1093086898326873,0,0,0
8186,343253.541947336,2011-01-22 12:39:04,2.5313088e-06,4,40,1.0429993867874146,4.199976921081543,25.276626543888792,24.78601891167147,103.13145596251243,87.21797153437575,0.0,0.1093086898326873,0,0,0
8187,343253.77629246115,2011-01-22 12:39:05,0.234347711604306,4,40,0.9929705858230592,4.200138568878174,25.27669199080429,24.78601891167147,103.13173083423452,87.21797153437575,3.23295607813634e-05,0.1093086898326873,0,0,0
8188,343255.18255375704,2011-01-22 12:39:06,1.640609007449335,4,40,0.9429417848587036,4.199814796447754,25.277068875365064,24.78601891167147,103.13331370419162,87.21797153437575,-3.24249267578125e-05,0.1093086898326873,0,0,0
8189,343257.6848592422,2011-01-22 12:39:08,4.142914497671119,4,40,0.8929130434989929,4.199814796447754,25.277706022238345,24.78601891167147,103.1359896209551,87.21797153437575,0.0,0.1093086898326873,0,0,0
8190,343261.3075493657,2011-01-22 12:39:12,7.765604616120177,4,40,0.842703640460968,4.199814796447754,25.27857813075272,24.78601891167147,103.13965235903363,87.21797153437575,0.0,0.1093086898326873,0,0,0
8191,343266.10419251124,2011-01-22 12:39:17,12.562247761729234,4,40,0.7926748991012573,4.199814796447754,25.27966627028953,24.78601891167147,103.14422238951263,87.21797153437575,0.0,0.1093086898326873,0,0,0
8192,343272.494832297,2011-01-22 12:39:23,18.95288754742589,4,40,0.7426460981369019,4.199976921081543,25.281027168111727,24.78601891167147,103.14993799093176,87.21797153437575,3.24249267578125e-05,0.1093086898326873,0,0,0
8193,343280.76019020705,2011-01-22 12:39:31,27.218245452512416,4,40,0.6926173567771912,4.199814796447754,25.28267246932997,24.78601891167147,103.15684803850128,87.21797153437575,0.0,0.1093086898326873,0,0,0
8194,343292.275761499,2011-01-22 12:39:43,38.733816749437054,4,40,0.6425885558128357,4.199653148651123,25.28480397191775,24.78601891167147,103.16580008677592,87.21797153437575,-6.47544875391759e-05,0.1093086898326873,0,0,0
8195,343308.916089727,2011-01-22 12:40:00,55.37414497246985,4,40,0.592559814453125,4.199814796447754,25.28765073967097,24.78601891167147,103.17775618547216,87.21797153437575,-3.24249267578125e-05,0.1093086898326873,0,0,0
8196,343336.4623679632,2011-01-22 12:40:27,82.92042321362473,4,40,0.5425310134887695,4.199814796447754,25.29197624886519,24.78601891167147,103.19592283025943,87.21797153437575,0.0,0.1093086898326873,0,0,0
8197,343390.0395908629,2011-01-22 12:41:21,136.49764611339032,4,40,0.4925022423267364,4.199814796447754,25.299636750251818,24.78601891167147,103.22809607253346,87.21797153437575,3.23295607813634e-05,0.1093086898326873,0,0,0
8198,343490.6159587132,2011-01-22 12:43:01,237.07401396364784,4,40,0.4424734711647033,4.199814796447754,25.31264616260741,24.78601891167147,103.28273405293614,87.21797153437575,-3.24249267578125e-05,0.1093086898326873,0,0,0
8199,343630.25417247746,2011-01-22 12:45:21,376.7122277279528,4,40,0.3924447298049927,4.199814796447754,25.328798819918177,24.78601891167147,103.35057248784256,87.21797153437575,-3.24249267578125e-05,0.1093086898326873,0,0,0
8200,343800.81386758765,2011-01-22 12:48:12,547.2719228230359,4,40,0.3424159586429596,4.199814796447754,25.34618233488909,24.78601891167147,103.42358126746338,87.21797153437575,0.0,0.1093086898326873,0,0,0
8201,344007.091438745,2011-01-22 12:51:38,753.5494940004319,4,40,0.2923871874809265,4.199814796447754,25.36434105397428,24.78601891167147,103.49984577117412,87.21797153437575,0.0,0.1093086898326873,0,0,0
8202,344258.8683475465,2011-01-22 12:55:50,1005.3264027969708,4,40,0.2423584014177322,4.199814796447754,25.38299579234697,24.78601891167147,103.5781935233057,87.21797153437575,0.0,0.1093086898326873,0,0,0
8203,344575.0348853006,2011-01-22 13:01:06,1321.492940551066,4,40,0.1923296302556991,4.199653148651123,25.402024487629497,24.78601891167147,103.65811180201332,87.21797153437575,-6.47544875391759e-05,0.1093086898326873,0,0,0
8204,344998.6837333685,2011-01-22 13:08:09,1745.1417886189424,4,40,0.1423008739948272,4.199653148651123,25.42160003225703,24.78601891167147,103.74032668581044,87.21797153437575,-3.23295607813634e-05,0.1093086898326873,0,0,0
8205,345634.8135489411,2011-01-22 13:18:46,2381.271604181576,4,40,0.0922720953822135,4.199814796447754,25.442032953813204,24.78601891167147,103.8261423727064,87.21797153437575,0.0,0.1093086898326873,0,0,0
8206,346661.79572348966,2011-01-22 13:35:53,3408.2537787300657,4,40,0.0498289167881011,4.199653148651123,25.461654109464583,24.78601891167147,103.90854887353984,87.21797153437575,-6.47544875391759e-05,0.1093086898326873,0,0,0
8207,346691.81835211883,2011-01-22 13:36:23,30.0150864007218,5,40,0.0,4.1892924308776855,25.461654109464583,24.78601891167147,103.90854887353984,87.21797153437575,-9.71794142969884e-05,0.1093086898326873,0,0,0
8208,346721.81784163736,2011-01-22 13:36:53,60.01457592422653,5,40,0.0,4.187673568725586,25.461654109464583,24.78601891167147,103.90854887353984,87.21797153437575,0.0,0.1093086898326873,0,0,0
8209,346722.01384059625,2011-01-22 13:36:53,0.187422273975138,6,40,-1.9243103452026844e-05,4.187511920928955,25.461654109464583,24.7860189126733,103.90854887353984,87.21797153857092,0.0,0.1141668483614921,0,0,0
8210,346726.84200729325,2011-01-22 13:36:58,5.015588975986304,6,40,0.0008838032954372,4.187511920928955,25.461655305188778,24.786018912757925,103.90855388090142,87.2179715389253,-6.47544875391759e-05,0.1141668483614921,0,0,0
8211,346738.3973370833,2011-01-22 13:37:09,11.54678462013017,7,40,-1.0993878841400146,3.9874210357666016,25.461655305188778,24.789545120682497,103.90855388090142,87.23209043821451,-0.0020720958709716,0.1141668483614921,0,0,0
8212,346768.4123479207,2011-01-22 13:37:40,41.56179544749992,7,40,-1.0993878841400146,3.925904273986816,25.461655305188778,24.798711180862924,103.90855388090142,87.26834670971172,-0.0015217304462566,0.1141668483614921,0,0,0
8213,346798.427556937,2011-01-22 13:38:10,71.57700445880502,7,40,-1.0993878841400146,3.875396013259888,25.461655305188778,24.80787722150366,103.90855388090142,87.30409239063697,-0.0011655807029455,0.1141668483614921,0,0,0
8214,346828.4425339501,2011-01-22 13:38:40,101.5919814769117,7,40,-1.0993878841400146,3.834115028381348,25.461655305188778,24.81704325795116,103.90855388090142,87.33941767362464,-0.0010360718006268,0.1141668483614921,0,0,0
8215,346858.4577835526,2011-01-22 13:39:10,131.60723107437,7,40,-1.0993878841400146,3.801899909973145,25.461655305188778,24.826209363490506,103.90855388090142,87.37440867334846,-0.0007770538213662,0.1141668483614921,0,0,0
8216,346888.4727775129,2011-01-22 13:39:40,161.62222505475185,7,40,-1.099568486213684,3.775998115539551,25.461655305188778,24.83537533025796,103.90855388090142,87.40913441199574,-0.0006475448608398,0.1141668483614921,0,0,0
8217,346918.48799335625,2011-01-22 13:40:10,191.63744088805947,7,40,-1.0992072820663452,3.754952907562256,25.461655305188778,24.84454137266417,103.90855388090142,87.44364655688301,-0.0005180359003134,0.1141668483614921,0,0,0
8218,346948.50297864,2011-01-22 13:40:40,221.65242617677907,7,40,-1.099568486213684,3.7364981174468994,25.461655305188778,24.853707442409448,103.90855388090142,87.47797822965032,-0.0004532813909463,0.1141668483614921,0,0,0
8219,346978.51820983656,2011-01-22 13:41:10,251.66765737337676,7,40,-1.099568486213684,3.720147609710693,25.461655305188778,24.86287350844622,103.90855388090142,87.5121515534681,-0.0004209041653666,0.1141668483614921,0,0,0
8220,347008.5332001478,2011-01-22 13:41:40,281.68264766957645,7,40,-1.0993878841400146,3.705415964126587,25.461655305188778,24.872039586163616,103.90855388090142,87.54618216109553,-0.0003561496851034,0.1141668483614921,0,0,0
8221,347038.54842515395,2011-01-22 13:42:10,311.6978726707332,7,40,-1.099568486213684,3.69133186340332,25.461655305188778,24.88120569972777,103.90855388090142,87.5800811194911,-0.0003561496851034,0.1141668483614921,0,0,0
8222,347068.5635311736,2011-01-22 13:42:40,341.71297869536386,7,40,-1.0993878841400146,3.678380966186523,25.461655305188778,24.89037178603373,103.90855388090142,87.61385706631872,-0.0003885269106831,0.1141668483614921,0,0,0
8223,347098.5785435749,2011-01-22 13:43:10,371.7279910966563,7,40,-1.0993878841400146,3.6660778522491455,25.461655305188778,24.899537839155407,103.90855388090142,87.64751711608893,-0.0003561496851034,0.1141668483614921,0,0,0
8224,347128.59363802563,2011-01-22 13:43:40,401.74308555245386,7,40,-1.0992072820663452,3.6545839309692383,25.461655305188778,24.908703904367872,103.90855388090142,87.68106757838316,-0.0002913951757363,0.1141668483614921,0,0,0
8225,347158.60885277623,2011-01-22 13:44:10,431.7583002880255,7,40,-1.0992072820663452,3.643251895904541,25.461655305188778,24.91786998189144,103.90855388090142,87.71451232080199,-0.0002913951757363,0.1141668483614921,0,0,0
8226,347188.62384172913,2011-01-22 13:44:40,461.77328925591473,7,40,-1.0992072820663452,3.632243633270264,25.461655305188778,24.927035939366323,103.90855388090142,87.7478543998446,-0.0002913951757363,0.1141668483614921,0,0,0
8227,347218.63894490164,2011-01-22 13:45:10,491.7883924635245,7,40,-1.0992072820663452,3.621721029281616,25.461655305188778,24.93620205862096,103.90855388090142,87.78109917403596,-0.0002590179501567,0.1141668483614921,0,0,0
8228,347248.6542769446,2011-01-22 13:45:40,521.8037244613498,7,40,-1.0993878841400146,3.6115221977233887,25.461655305188778,24.945368205877596,103.90855388090142,87.81424937763244,-0.0002266406954731,0.1141668483614921,0,0,0
8229,347278.66916698584,2011-01-22 13:46:10,551.8186145076961,7,40,-1.0993878841400146,3.601485252380371,25.461655305188778,24.954534210967424,103.90855388090142,87.84730617461277,-0.0002590179501567,0.1141668483614921,0,0,0
8230,347308.68430547643,2011-01-22 13:46:40,581.8337529882168,7,40,-1.099568486213684,3.5916104316711426,25.461655305188778,24.963700347679502,103.90855388090142,87.88027265578482,-0.0002589702489785,0.1141668483614921,0,0,0
8231,347338.6993803334,2011-01-22 13:47:10,611.8488278702305,7,40,-1.099568486213684,3.582221031188965,25.461655305188778,24.972866428573784,103.90855388090142,87.9131514372269,-0.0002590179501567,0.1141668483614921,0,0,0
8232,347368.7145067789,2011-01-22 13:47:40,641.8639543157562,7,40,-1.0993878841400146,3.573155403137207,25.461655305188778,24.982032451357117,103.90855388090142,87.94594460431473,-0.0002590179501567,0.1141668483614921,0,0,0
8233,347398.7296062472,2011-01-22 13:48:10,671.8790537690089,7,40,-1.0993878841400146,3.564251661300659,25.461655305188778,24.99119856271972,103.90855388090142,87.9786547767398,-0.0001618862152099,0.1141668483614921,0,0,0
8234,347428.74469576066,2011-01-22 13:48:40,701.8941433025386,7,40,-1.0993878841400146,3.5555098056793213,25.461655305188778,25.000365003289275,103.90855388090142,88.01128566259189,-0.0002266406954731,0.1141668483614921,0,0,0
8235,347458.7598093943,2011-01-22 13:49:10,731.9092569311207,7,40,-1.0993878841400146,3.5470917224884038,25.461655305188778,25.0095318086521,103.90855388090142,88.04383840202593,-0.0001618862152099,0.1141668483614921,0,0,0
8236,347488.77496943856,2011-01-22 13:49:40,761.9244169653598,7,40,-1.0993878841400146,3.5386736392974854,25.461655305188778,25.018698340468816,103.90855388090142,88.07631343069932,-0.0001942634553415,0.1141668483614921,0,0,0
8237,347518.79006049584,2011-01-22 13:50:10,791.9395080377247,7,40,-1.0992072820663452,3.5307412147521973,25.461655305188778,25.027864493761665,103.90855388090142,88.10871329033988,-0.0001942634553415,0.1141668483614921,0,0,0
8238,347548.8051528364,2011-01-22 13:50:40,821.9546003782503,7,40,-1.0992072820663452,3.523294448852539,25.461655305188778,25.037030665058133,103.90855388090142,88.14104233988665,-0.0001618862152099,0.1141668483614921,0,0,0
8239,347578.820260866,2011-01-22 13:51:10,851.9697084078781,7,40,-1.0993878841400146,3.516009569168091,25.461655305188778,25.04619681496996,103.90855388090142,88.17330232636128,-0.0001295089750783,0.1141668483614921,0,0,0
8240,347608.83538795315,2011-01-22 13:51:40,881.9848354950029,7,40,-1.0993878841400146,3.508563041687012,25.461655305188778,25.05536304498723,103.90855388090142,88.20549551357071,-0.0001942634553415,0.1141668483614921,0,0,0
8241,347638.8504805693,2011-01-22 13:52:10,911.9999281062032,7,40,-1.0993878841400146,3.5012781620025635,25.461655305188778,25.06452920286446,103.90855388090142,88.2376225912524,-0.0002266406954731,0.1141668483614921,0,0,0
8242,347668.86558230326,2011-01-22 13:52:40,942.015029830115,7,40,-1.0993878841400146,3.494478940963745,25.461655305188778,25.07369537021433,103.90855388090142,88.26968506526153,-0.0001618862152099,0.1141668483614921,0,0,0
8243,347698.8806965534,2011-01-22 13:53:10,972.0301440952836,7,40,-1.0993878841400146,3.4878416061401367,25.461655305188778,25.082861517105822,103.90855388090142,88.30168537366303,-0.0001618862152099,0.1141668483614921,0,0,0
8244,347728.8958356956,2011-01-22 13:53:40,1002.0452832324409,7,40,-1.0993878841400146,3.4812042713165283,25.461655305188778,25.092027695886955,103.90855388090142,88.33362523743371,-0.0001942634553415,0.1141668483614921,0,0,0
8245,347758.9110403711,2011-01-22 13:54:10,1032.0604878979148,7,40,-1.0993878841400146,3.47489070892334,25.461655305188778,25.10119385392159,103.90855388090142,88.36550460049901,-0.0001618862152099,0.1141668483614921,0,0,0
8246,347788.9260171586,2011-01-22 13:54:40,1062.0754647004842,7,40,-1.0993878841400146,3.468577146530152,25.461655305188778,25.11035995908163,103.90855388090142,88.39732564984716,-0.0001618862152099,0.1141668483614921,0,0,0
8247,347818.9411359802,2011-01-22 13:55:10,1092.090583516996,7,40,-1.0993878841400146,3.461939811706543,25.461655305188778,25.119526109489097,103.90855388090142,88.42908880476415,-0.0001942634553415,0.1141668483614921,0,0,0
8248,347848.9562442554,2011-01-22 13:55:40,1122.105691792236,7,40,-1.0993878841400146,3.4557881355285645,25.461655305188778,25.12869228116813,103.90855388090142,88.46079346789979,-0.0001618862152099,0.1141668483614921,0,0,0
8249,347878.9715651004,2011-01-22 13:56:10,1152.1210126122028,7,40,-1.0993878841400146,3.449312686920166,25.461655305188778,25.137858556948416,103.90855388090142,88.49244001645799,-0.0001618862152099,0.1141668483614921,0,0,0
8250,347908.98645063554,2011-01-22 13:56:40,1182.1358981773803,7,40,-1.0993878841400146,3.442837238311768,25.461655305188778,25.147024754419284,103.90855388090142,88.52402761571216,-0.0001618862152099,0.1141668483614921,0,0,0
8251,347939.0016571105,2011-01-22 13:57:10,1212.1511046323144,7,40,-1.0993878841400146,3.436361789703369,25.461655305188778,25.15619093406199,103.90855388090142,88.55555538078052,-0.0001618862152099,0.1141668483614921,0,0,0
8252,347969.016651547,2011-01-22 13:57:40,1242.166099083871,7,40,-1.0992072820663452,3.42972469329834,25.461655305188778,25.165357179325213,103.90855388090142,88.58702371563125,-0.0001618862152099,0.1141668483614921,0,0,0
8253,347999.0318822524,2011-01-22 13:58:10,1272.1813297892438,7,40,-1.0992072820663452,3.4227635860443115,25.461655305188778,25.174523466802977,103.90855388090142,88.61842973515651,-0.0002266406954731,0.1141668483614921,0,0,0
8254,348029.0468539623,2011-01-22 13:58:40,1302.1963014991209,7,40,-1.0993878841400146,3.4153168201446533,25.461655305188778,25.183689673957936,103.90855388090142,88.6497700400645,-0.0002266406954731,0.1141668483614921,0,0,0
8255,348059.06196309463,2011-01-22 13:59:10,1332.2114106314968,7,40,-1.099568486213684,3.407870054244995,25.461655305188778,25.192855861296348,103.90855388090142,88.68104250637029,-0.0002266406954731,0.1141668483614921,0,0,0
8256,348089.07720960944,2011-01-22 13:59:40,1362.2266571312348,7,40,-1.0993878841400146,3.400099515914917,25.461655305188778,25.20202218709064,103.90855388090142,88.7122451568819,-0.0002266406954731,0.1141668483614921,0,0,0
8257,348119.09217731934,2011-01-22 14:00:10,1392.24162485618,7,40,-1.0992072820663452,3.391843318939209,25.461655305188778,25.21118832689921,103.90855388090142,88.74337319368689,-0.0001942634553415,0.1141668483614921,0,0,0
8258,348149.1073119804,2011-01-22 14:00:40,1422.2567595171813,7,40,-1.0993878841400146,3.383101463317871,25.461655305188778,25.22035448556312,103.90855388090142,88.77442283759164,-0.0002266406954731,0.1141668483614921,0,0,0
8259,348179.12237414566,2011-01-22 14:01:10,1452.271821682501,7,40,-1.0992072820663452,3.3740358352661133,25.461655305188778,25.22952056353965,103.90855388090142,88.80539082729888,-0.0002266406954731,0.1141668483614921,0,0,0
8260,348209.13769188296,2011-01-22 14:01:40,1482.2871394197848,7,40,-1.0993878841400146,3.3641607761383057,25.461655305188778,25.2386868020936,103.90855388090142,88.83627245022828,-0.0002590179501567,0.1141668483614921,0,0,0
8261,348239.13935303385,2011-01-22 14:02:10,1512.2888005706532,7,40,-1.0993878841400146,3.353638172149658,25.461655305188778,25.24784880456384,103.90855388090142,88.86704814476222,-0.0003237724304199,0.1141668483614921,0,0,0
8262,348269.1520824853,2011-01-22 14:02:40,1542.3015300121067,7,40,-1.099568486213684,3.34214448928833,25.461655305188778,25.257014180715988,103.90855388090142,88.89773383142291,-0.0003237724304199,0.1141668483614921,0,0,0
8263,348299.16764547385,2011-01-22 14:03:10,1572.3170929855949,7,40,-1.0993878841400146,3.329355478286743,25.461655305188778,25.26618040213675,103.90855388090142,88.92831100718033,-0.0003885269106831,0.1141668483614921,0,0,0
8264,348329.1823046899,2011-01-22 14:03:40,1602.331752231716,7,40,-1.0992072820663452,3.3157570362091064,25.461655305188778,25.275346348041065,103.90855388090142,88.95876765104568,-0.0003885269106831,0.1141668483614921,0,0,0
8265,348359.19741806784,2011-01-22 14:04:10,1632.3468656046607,7,40,-1.0992072820663452,3.30005407333374,25.461655305188778,25.28451239865963,103.90855388090142,88.98908931578616,-0.0004209041653666,0.1141668483614921,0,0,0
8266,348389.21251576167,2011-01-22 14:04:40,1662.361963273466,7,40,-1.0993878841400146,3.281760931015014,25.461655305188778,25.293678446223108,103.90855388090142,89.01925550757602,-0.0005180359003134,0.1141668483614921,0,0,0
8267,348419.22762347054,2011-01-22 14:05:10,1692.3770709923194,7,40,-1.099568486213684,3.260068416595459,25.461655305188778,25.302844477294823,103.90855388090142,89.04924026086185,-0.0006799221155233,0.1141668483614921,0,0,0
8268,348449.2427317307,2011-01-22 14:05:40,1722.3921792525216,7,40,-1.0993878841400146,3.234166622161865,25.461655305188778,25.312010548059817,103.90855388090142,89.07900839951527,-0.0007770538213662,0.1141668483614921,0,0,0
8269,348479.2578414144,2011-01-22 14:06:10,1752.407288956322,7,40,-1.0993878841400146,3.202113151550293,25.461655305188778,25.32117658509092,103.90855388090142,89.10851070101731,-0.0009389400365762,0.1141668483614921,0,0,0
8270,348509.27303266653,2011-01-22 14:06:40,1782.422480288565,7,40,-1.0993878841400146,3.161803722381592,25.461655305188778,25.330342661091663,103.90855388090142,89.13768398144327,-0.0012303352123126,0.1141668483614921,0,0,0
8271,348539.2891449089,2011-01-22 14:07:10,1812.4385925360127,7,40,-1.0993878841400146,3.109514713287353,25.461655305188778,25.33950890761957,103.90855388090142,89.16643699024188,-0.0015540600288659,0.1141668483614921,0,0,0
8272,348569.29040476464,2011-01-22 14:07:40,1842.4398522714305,7,40,-1.0992072820663452,3.037637233734131,25.461655305188778,25.34867067721042,103.90855388090142,89.19461532454115,-0.0022340298164635,0.1141668483614921,0,0,0
8273,348599.3026670869,2011-01-22 14:08:10,1872.4521146839045,7,40,-1.0993878841400146,2.934192419052124,25.461655305188778,25.35783580485063,103.90855388090142,89.22201085969871,-0.0033024311996996,0.1141668483614921,0,0,0
8274,348629.3177872869,2011-01-22 14:08:40,1902.4672348136896,7,40,-1.099568486213684,2.787362098693848,25.461655305188778,25.367001830494218,103.90855388090142,89.24827137406291,-0.0044680116698145,0.1141668483614921,0,0,0
8275,348643.97374345915,2011-01-22 14:08:55,1917.1231909960209,7,40,-1.0992072820663452,2.699943780899048,25.461655305188778,25.37147750571753,103.90855388090142,89.26055371681419,-0.0048889159224927,0.1141668483614921,0,0,0
8276,348703.9833075889,2011-01-22 14:09:55,60.01471868001789,8,40,0.0,3.6327292919158936,25.461655305188778,25.37147750571753,103.90855388090142,89.26055371681419,0.0012627125252038,0.1141668483614921,0,0,0
8277,348704.18208560924,2011-01-22 14:09:56,0.187417381782288,9,40,-1.9243103452026844e-05,3.632891178131104,25.461655305188778,25.371477506719337,103.90855388090142,89.26055372045363,0.0,0.1100189909338951,0,0,0
8278,348709.0101477657,2011-01-22 14:10:00,5.015479543246245,9,40,0.0007031940040178,3.640176057815552,25.461656465597336,25.37147750688649,103.90855810137047,89.26055372106087,0.0010684489971026,0.1100189909338951,0,0,0
