Data_Point,Test_Time(s),Date_Time,Step_Time(s),Step_Index,Cycle_Index,Current(A),Voltage(V),Charge_Capacity(Ah),Discharge_Capacity(Ah),Charge_Energy(Wh),Discharge_Energy(Wh),dV/dt(V/s),Internal_Resistance(Ohm),Is_FC_Data,AC_Impedance(Ohm),ACI_Phase_Angle(Deg)
7326,306909.55805962323,2011-01-22 02:33:15,30.015077919584197,1,36,0.0,3.6660778522491455,22.50071847578441,22.422151032347443,91.7863426342776,78.96232293821504,0.0006151676061563,0.1093086898326873,0,0,0
7327,306939.5731595076,2011-01-22 02:33:45,60.030177803911286,1,36,0.0,3.684856414794922,22.50071847578441,22.422151032347443,91.7863426342776,78.96232293821504,0.0004532813909463,0.1093086898326873,0,0,0
7328,306969.58826820884,2011-01-22 02:34:15,90.04528651022548,1,36,0.0,3.697645425796509,22.50071847578441,22.422151032347443,91.7863426342776,78.96232293821504,0.0003237724304199,0.1093086898326873,0,0,0
7329,306999.55650663504,2011-01-22 02:34:45,120.01352492635492,1,36,0.0,3.7073585987091056,22.50071847578441,22.422151032347443,91.7863426342776,78.96232293821504,0.0002266406954731,0.1093086898326873,0,0,0
7330,307029.5836568102,2011-01-22 02:35:15,30.01488154014621,2,36,0.550297200679779,3.8271541595458975,22.505305552566497,22.422151032347443,91.80381534627504,78.96232293821504,0.0007446765666827,0.1093086898326873,0,0,0
7331,307059.5987627246,2011-01-22 02:35:45,60.02998747956445,2,36,0.5501165986061096,3.847389698028565,22.509892665632577,22.422151032347443,91.82142106440055,78.96232293821504,0.0004209041653666,0.1093086898326873,0,0,0
7332,307089.6138837115,2011-01-22 02:36:15,90.0451084664857,2,36,0.550297200679779,3.861797571182251,22.51447978600145,22.422151032347443,91.83910383098316,78.96232293821504,0.0003237724304199,0.1093086898326873,0,0,0
7333,307119.6292210677,2011-01-22 02:36:45,120.06044579760324,2,36,0.5501165986061096,3.8729677200317374,22.519066888983623,22.422151032347443,91.85684452451304,78.96232293821504,0.0002590179501567,0.1093086898326873,0,0,0
7334,307149.6440876556,2011-01-22 02:37:15,150.0753124005213,2,36,0.550297200679779,3.882842779159546,22.52365395683052,22.422151032347443,91.87463326576142,78.96232293821504,0.0002590179501567,0.1093086898326873,0,0,0
7335,307179.6592361761,2011-01-22 02:37:45,180.0904609310898,2,36,0.5499359965324402,3.891260862350464,22.52824101736961,22.422151032347443,91.89246416742978,78.96232293821504,0.0001618862152099,0.1093086898326873,0,0,0
7336,307209.6743612132,2011-01-22 02:38:15,210.1055859480551,2,36,0.5501165986061096,3.899193286895752,22.532828090959903,22.422151032347443,91.9103328235915,78.96232293821504,0.0001942634553415,0.1093086898326873,0,0,0
7337,307239.689452476,2011-01-22 02:38:45,240.12067730613225,2,36,0.550297200679779,3.9064781665802,22.537415153612315,22.422151032347443,91.92823584493556,78.96232293821504,0.0001618862152099,0.1093086898326873,0,0,0
7338,307269.70452400466,2011-01-22 02:39:15,270.13574875458835,2,36,0.5499359965324402,3.9132773876190186,22.54200220380696,22.422151032347443,91.9461709864248,78.96232293821504,0.0001942634553415,0.1093086898326873,0,0,0
7339,307299.71975814353,2011-01-22 02:39:45,300.1509828734692,2,36,0.550297200679779,3.919752597808838,22.54658928141071,22.422151032347443,91.96413647224944,78.96232293821504,0.0001942634553415,0.1093086898326873,0,0,0
7340,307329.73709456204,2011-01-22 02:40:15,330.1683194022024,2,36,0.550297200679779,3.925904273986816,22.551176623499,22.422151032347443,91.98213198179404,78.96232293821504,0.0001295089750783,0.1093086898326873,0,0,0
7341,307359.74986308085,2011-01-22 02:40:45,360.181087825812,2,36,0.5501165986061096,3.931570291519165,22.55576330329924,22.422151032347443,92.00015239403554,78.96232293821504,0.0001618862152099,0.1093086898326873,0,0,0
7342,307389.7649839074,2011-01-22 02:41:15,390.1962086523335,2,36,0.5501165986061096,3.937398195266724,22.560350371818156,22.422151032347443,92.01820076038918,78.96232293821504,0.0001295089750783,0.1093086898326873,0,0,0
7343,307419.78007523034,2011-01-22 02:41:45,420.2112999803356,2,36,0.550297200679779,3.9429023265838623,22.564937470235467,22.422151032347443,92.0362744345198,78.96232293821504,0.0001942634553415,0.1093086898326873,0,0,0
7344,307449.79526044737,2011-01-22 02:42:15,450.2264851923254,2,36,0.5501165986061096,3.947758913040161,22.56952451514933,22.422151032347443,92.05437180546495,78.96232293821504,9.713172767078504e-05,0.1093086898326873,0,0,0
7345,307479.810291455,2011-01-22 02:42:45,480.2415162100157,2,36,0.550297200679779,3.95261549949646,22.57411151865549,22.422151032347443,92.07249183032016,78.96232293821504,9.713172767078504e-05,0.1093086898326873,0,0,0
7346,307509.8253987679,2011-01-22 02:43:15,510.2566235178445,2,36,0.550297200679779,3.957310199737549,22.57869860118389,22.422151032347443,92.09063404197528,78.96232293821504,9.713172767078504e-05,0.1093086898326873,0,0,0
7347,307539.8406318342,2011-01-22 02:43:45,540.2718565841019,2,36,0.550297200679779,3.9620048999786377,22.583285709363157,22.422151032347443,92.10879723919427,78.96232293821504,0.0001618862152099,0.1093086898326873,0,0,0
7348,307569.8556330025,2011-01-22 02:44:15,570.2868577523982,2,36,0.5501165986061096,3.966052055358887,22.58787278914743,22.422151032347443,92.12698048289828,78.96232293821504,9.713172767078504e-05,0.1093086898326873,0,0,0
7349,307599.87086577795,2011-01-22 02:44:45,600.3020905078812,2,36,0.5501165986061096,3.970099210739136,22.59245992317061,22.422151032347443,92.14518328295672,78.96232293821504,6.47544875391759e-05,0.1093086898326873,0,0,0
7350,307629.88586160296,2011-01-22 02:45:15,630.317086327848,2,36,0.5501165986061096,3.9743082523345943,22.597047070329587,22.422151032347443,92.16340496891073,78.96232293821504,9.713172767078504e-05,0.1093086898326873,0,0,0
7351,307659.88603196834,2011-01-22 02:45:45,660.3172568085074,2,36,0.5501165986061096,3.977869749069214,22.601632034120524,22.422151032347443,92.1816361800967,78.96232293821504,0.0,0.1093086898326873,0,0,0
7352,307689.88722562406,2011-01-22 02:46:15,690.3184504491965,2,36,0.5501165986061096,3.982078790664673,22.60621700260089,22.422151032347443,92.19988527514738,78.96232293821504,0.0001295089750783,0.1093086898326873,0,0,0
7353,307719.899903502,2011-01-22 02:46:45,720.3311282319011,2,36,0.5501165986061096,3.985802173614502,22.610803684054183,22.422151032347443,92.2181584872769,78.96232293821504,6.47544875391759e-05,0.1093086898326873,0,0,0
7354,307749.9150085442,2011-01-22 02:47:15,750.3462332790956,2,36,0.5499359965324402,3.989363670349121,22.61539078617901,22.422151032347443,92.2364501786411,78.96232293821504,6.47544875391759e-05,0.1093086898326873,0,0,0
7355,307779.93023026217,2011-01-22 02:47:45,780.3614550121072,2,36,0.5499359965324402,3.99292516708374,22.619977884109712,22.422151032347443,92.25475826513647,78.96232293821504,6.47544875391759e-05,0.1093086898326873,0,0,0
7356,307809.9452108542,2011-01-22 02:48:15,810.3764356041211,2,36,0.5501165986061096,3.99648642539978,22.624564971731385,22.422151032347443,92.2730824080322,78.96232293821504,9.713172767078504e-05,0.1093086898326873,0,0,0
7357,307839.9604666821,2011-01-22 02:48:45,840.3916914170702,2,36,0.5501165986061096,3.99972414970398,22.62915207035269,22.422151032347443,92.2914225129103,78.96232293821504,6.47544875391759e-05,0.1093086898326873,0,0,0
7358,307869.9754431038,2011-01-22 02:49:16,870.4066678587402,2,36,0.550297200679779,4.003285884857178,22.63373913735575,22.422151032347443,92.30977813101124,78.96232293821504,9.71794142969884e-05,0.1093086898326873,0,0,0
7359,307899.9906704207,2011-01-22 02:49:46,900.4218951706562,2,36,0.550297200679779,4.006523609161377,22.638325769972337,22.422151032347443,92.3281472496904,78.96232293821504,6.47544875391759e-05,0.1093086898326873,0,0,0
7360,307930.0056361206,2011-01-22 02:50:16,930.4368608605292,2,36,0.5501165986061096,4.009922981262207,22.642912135412665,22.422151032347443,92.34653042809803,78.96232293821504,9.70840483205393e-05,0.1093086898326873,0,0,0
7361,307960.0208135231,2011-01-22 02:50:46,960.4520382780933,2,36,0.5499359965324402,4.012999057769775,22.64749894914036,22.422151032347443,92.36493039170166,78.96232293821504,6.47544875391759e-05,0.1093086898326873,0,0,0
7362,307990.0359251317,2011-01-22 02:51:16,990.467149881628,2,36,0.550297200679779,4.0163984298706055,22.652086029044483,22.422151032347443,92.38334623795346,78.96232293821504,9.70840483205393e-05,0.1093086898326873,0,0,0
7363,308020.05102062004,2011-01-22 02:51:46,1020.4822453699992,2,36,0.5501165986061096,4.019150733947754,22.6566731438252,22.422151032347443,92.40177678250876,78.96232293821504,0.0,0.1093086898326873,0,0,0
7364,308050.0665127219,2011-01-22 02:52:16,1050.497737441778,2,36,0.550297200679779,4.022712230682373,22.661260273371862,22.422151032347443,92.42022167763992,78.96232293821504,9.71794142969884e-05,0.1093086898326873,0,0,0
7365,308080.08123842865,2011-01-22 02:52:46,1080.5124631786143,2,36,0.5501165986061096,4.025626182556152,22.665847299846607,22.422151032347443,92.43868029972344,78.96232293821504,6.47544875391759e-05,0.1093086898326873,0,0,0
7366,308110.0963645183,2011-01-22 02:53:16,1110.5275892682532,2,36,0.5501165986061096,4.0287017822265625,22.67043435175089,22.422151032347443,92.45715309304124,78.96232293821504,9.70840483205393e-05,0.1093086898326873,0,0,0
7367,308140.11169767904,2011-01-22 02:53:46,1140.5429224339894,2,36,0.5501165986061096,4.031615734100342,22.675021504762945,22.422151032347443,92.47564021462289,78.96232293821504,3.23295607813634e-05,0.1093086898326873,0,0,0
7368,308170.12656399125,2011-01-22 02:54:16,1170.5577887411705,2,36,0.5499359965324402,4.034691333770752,22.67960856908916,22.422151032347443,92.49414081596872,78.96232293821504,9.70840483205393e-05,0.1093086898326873,0,0,0
7369,308200.14179520286,2011-01-22 02:54:46,1200.5730199477928,2,36,0.550297200679779,4.037605285644531,22.68419563818938,22.422151032347443,92.5126552383457,78.96232293821504,9.70840483205393e-05,0.1093086898326873,0,0,0
7370,308230.1567897547,2011-01-22 02:55:16,1230.5880145046117,2,36,0.5501165986061096,4.0406813621521,22.68878274849345,22.422151032347443,92.53118343772852,78.96232293821504,0.0001295089750783,0.1093086898326873,0,0,0
7371,308260.1718919347,2011-01-22 02:55:46,1260.6031166846603,2,36,0.5499359965324402,4.04343318939209,22.69336979993485,22.422151032347443,92.549725013605,78.96232293821504,6.47544875391759e-05,0.1093086898326873,0,0,0
7372,308290.1870041297,2011-01-22 02:56:16,1290.618228884682,2,36,0.5501165986061096,4.046509265899658,22.6979568794914,22.422151032347443,92.56828029394433,78.96232293821504,6.47544875391759e-05,0.1093086898326873,0,0,0
7373,308320.2021407957,2011-01-22 02:56:46,1320.6333655456676,2,36,0.550297200679779,4.049584865570068,22.702543973954725,22.422151032347443,92.58684917587333,78.96232293821504,6.47544875391759e-05,0.1093086898326873,0,0,0
7374,308350.217427245,2011-01-22 02:57:16,1350.6486519899595,2,36,0.5504778623580933,4.052498817443848,22.707131040680245,22.422151032347443,92.60543137053898,78.96232293821504,0.0001295089750783,0.1093086898326873,0,0,0
7375,308380.23253864807,2011-01-22 02:57:46,1380.6637633980072,2,36,0.550297200679779,4.055412769317627,22.711718151539827,22.422151032347443,92.62402726457928,78.96232293821504,9.70840483205393e-05,0.1093086898326873,0,0,0
7376,308410.2474336468,2011-01-22 02:58:16,1410.6786583966964,2,36,0.5499359965324402,4.058326721191406,22.7163052823816,22.422151032347443,92.64263665658297,78.96232293821504,9.70840483205393e-05,0.1093086898326873,0,0,0
7377,308440.2625516512,2011-01-22 02:58:46,1440.693776396172,2,36,0.550297200679779,4.061079025268555,22.720892437797364,22.422151032347443,92.66125949065268,78.96232293821504,6.47544875391759e-05,0.1093086898326873,0,0,0
7378,308470.27766773594,2011-01-22 02:59:16,1470.708892485888,2,36,0.5501165986061096,4.064154624938965,22.72547953313946,22.422151032347443,92.67989534929866,78.96232293821504,6.47544875391759e-05,0.1093086898326873,0,0,0
7379,308500.2928058305,2011-01-22 02:59:46,1500.7240305503717,2,36,0.5501165986061096,4.067068576812744,22.730066589580872,22.422151032347443,92.69854452641628,78.96232293821504,3.23295607813634e-05,0.1093086898326873,0,0,0
7380,308530.3078866974,2011-01-22 03:00:16,1530.7391114523891,2,36,0.550297200679779,4.0701446533203125,22.73465364515383,22.422151032347443,92.71720713035246,78.96232293821504,9.71794142969884e-05,0.1093086898326873,0,0,0
7381,308560.3229967321,2011-01-22 03:00:46,1560.7542214569387,2,36,0.5499359965324402,4.072896480560303,22.739240715659868,22.422151032347443,92.73588328440104,78.96232293821504,9.70840483205393e-05,0.1093086898326873,0,0,0
7382,308590.33809601486,2011-01-22 03:01:16,1590.7693207598168,2,36,0.5501165986061096,4.075972557067871,22.74382779886141,22.422151032347443,92.75457307498256,78.96232293821504,6.47544875391759e-05,0.1093086898326873,0,0,0
7383,308620.353207062,2011-01-22 03:01:46,1620.784431801953,2,36,0.550297200679779,4.07888650894165,22.74841481424616,22.422151032347443,92.7732761675554,78.96232293821504,6.47544875391759e-05,0.1093086898326873,0,0,0
7384,308650.368329658,2011-01-22 03:02:16,1650.799554397884,2,36,0.5501165986061096,4.08180046081543,22.753001930809607,22.422151032347443,92.79199333240126,78.96232293821504,6.47544875391759e-05,0.1093086898326873,0,0,0
7385,308680.3834199233,2011-01-22 03:02:46,1680.81464466825,2,36,0.550297200679779,4.084714412689209,22.75758899498761,22.422151032347443,92.81072388878864,78.96232293821504,6.47544875391759e-05,0.1093086898326873,0,0,0
7386,308710.3985491859,2011-01-22 03:03:16,1710.8297739307966,2,36,0.550297200679779,4.087790012359619,22.76217608046184,22.422151032347443,92.8294682825392,78.96232293821504,6.47544875391759e-05,0.1093086898326873,0,0,0
7387,308740.4137816256,2011-01-22 03:03:46,1740.845006355455,2,36,0.550297200679779,4.090866088867188,22.766763180707382,22.422151032347443,92.84822650408547,78.96232293821504,6.47544875391759e-05,0.1093086898326873,0,0,0
7388,308770.4287427691,2011-01-22 03:04:16,1770.8599675140351,2,36,0.550297200679779,4.093941688537598,22.771350241912227,22.422151032347443,92.86699837104888,78.96232293821504,9.70840483205393e-05,0.1093086898326873,0,0,0
7389,308800.4440854636,2011-01-22 03:04:46,1800.8753102085195,2,36,0.550297200679779,4.097017765045166,22.77593739550218,22.422151032347443,92.88578456669238,78.96232293821504,9.71794142969884e-05,0.1093086898326873,0,0,0
7390,308830.4589768633,2011-01-22 03:05:16,1830.8902016082395,2,36,0.5501165986061096,4.100093364715576,22.78052450365763,22.422151032347443,92.90458461526856,78.96232293821504,9.70840483205393e-05,0.1093086898326873,0,0,0
7391,308860.4742007066,2011-01-22 03:05:46,1860.9054254464977,2,36,0.5501165986061096,4.1031694412231445,22.785111671551764,22.422151032347443,92.92339905146214,78.96232293821504,6.47544875391759e-05,0.1093086898326873,0,0,0
7392,308890.48918112315,2011-01-22 03:06:16,1890.9204058680864,2,36,0.5501165986061096,4.106245040893555,22.78969877932479,22.422151032347443,92.94222758137872,78.96232293821504,6.47544875391759e-05,0.1093086898326873,0,0,0
7393,308920.50430028554,2011-01-22 03:06:46,1920.935525025448,2,36,0.550297200679779,4.109321117401123,22.794285930238583,22.422151032347443,92.9610706735381,78.96232293821504,9.71794142969884e-05,0.1093086898326873,0,0,0
7394,308950.5194246308,2011-01-22 03:07:16,1950.95064937074,2,36,0.5501165986061096,4.112558841705322,22.798873082203585,22.422151032347443,92.9799282338106,78.96232293821504,9.71794142969884e-05,0.1093086898326873,0,0,0
7395,308980.5347255412,2011-01-22 03:07:46,1980.96595027106,2,36,0.5501165986061096,4.115796089172363,22.803460277066662,22.422151032347443,92.99880047133604,78.96232293821504,9.70840483205393e-05,0.1093086898326873,0,0,0
7396,309010.54958775814,2011-01-22 03:08:16,2010.9808125030845,2,36,0.550297200679779,4.118872165679932,22.80804735849495,22.422151032347443,93.0176868950758,78.96232293821504,6.47544875391759e-05,0.1093086898326873,0,0,0
7397,309040.56471872,2011-01-22 03:08:46,2040.9959434648663,2,36,0.5501165986061096,4.122109889984131,22.81263447637169,22.422151032347443,93.03658818823776,78.96232293821504,6.47544875391759e-05,0.1093086898326873,0,0,0
7398,309070.5798580075,2011-01-22 03:09:16,2071.011082752398,2,36,0.550297200679779,4.125509262084961,22.81722160706816,22.422151032347443,93.05550436908707,78.96232293821504,0.0001295089750783,0.1093086898326873,0,0,0
7399,309100.595203549,2011-01-22 03:09:46,2101.026428293979,2,36,0.550297200679779,4.12874698638916,22.82180881625911,22.422151032347443,93.07443589531358,78.96232293821504,9.70840483205393e-05,0.1093086898326873,0,0,0
7400,309130.61006369087,2011-01-22 03:10:16,2131.0412884357934,2,36,0.5501165986061096,4.1318230628967285,22.826395882527446,22.422151032347443,93.09338196693515,78.96232293821504,6.47544875391759e-05,0.1093086898326873,0,0,0
7401,309160.62532786466,2011-01-22 03:10:46,2161.0565526095806,2,36,0.5501165986061096,4.1355462074279785,22.83098302809281,22.422151032347443,93.11234357955864,78.96232293821504,0.0001295089750783,0.1093086898326873,0,0,0
7402,309190.64030322863,2011-01-22 03:11:16,2191.0715279685523,2,36,0.5501165986061096,4.138622283935547,22.83557018636135,22.422151032347443,93.13132060808424,78.96232293821504,6.47544875391759e-05,0.1093086898326873,0,0,0
7403,309220.65551754815,2011-01-22 03:11:46,2221.0867422931,2,36,0.550297200679779,4.142183780670166,22.84015739366332,22.422151032347443,93.15031340605027,78.96232293821504,0.0001295089750783,0.1093086898326873,0,0,0
7404,309250.67049489205,2011-01-22 03:12:16,2251.1017196370185,2,36,0.550297200679779,4.145583152770996,22.84474452193976,22.422151032347443,93.16932158860892,78.96232293821504,9.70840483205393e-05,0.1093086898326873,0,0,0
7405,309280.6856125256,2011-01-22 03:12:46,2281.116837270582,2,36,0.550297200679779,4.149144649505615,22.849331646766185,22.422151032347443,93.188345807182,78.96232293821504,9.70840483205393e-05,0.1093086898326873,0,0,0
7406,309310.70288723026,2011-01-22 03:13:16,2311.1341119652056,2,36,0.5499359965324402,4.152382373809815,22.85391907338043,22.422151032347443,93.20738706378285,78.96232293821504,9.70840483205393e-05,0.1093086898326873,0,0,0
7407,309340.7158453717,2011-01-22 03:13:46,2341.147070111663,2,36,0.550297200679779,4.156105995178223,22.858505858213057,22.422151032347443,93.22644152332909,78.96232293821504,9.71794142969884e-05,0.1093086898326873,0,0,0
7408,309370.731088082,2011-01-22 03:14:16,2371.162312826969,2,36,0.550297200679779,4.159343719482422,22.86309299486487,22.422151032347443,93.24551348782713,78.96232293821504,6.47544875391759e-05,0.1093086898326873,0,0,0
7409,309400.74604409776,2011-01-22 03:14:46,2401.177268842732,2,36,0.550297200679779,4.163066864013672,22.867680134872565,22.422151032347443,93.26460170699616,78.96232293821504,9.70840483205393e-05,0.1093086898326873,0,0,0
7410,309430.7612963619,2011-01-22 03:15:16,2431.192521091798,2,36,0.5501165986061096,4.166628360748291,22.87226721585003,22.422151032347443,93.28370592458803,78.96232293821504,0.0001295089750783,0.1093086898326873,0,0,0
7411,309460.77626466827,2011-01-22 03:15:46,2461.2074894132297,2,36,0.550297200679779,4.170351982116699,22.87685426691292,22.422151032347443,93.30282649144462,78.96232293821504,9.71794142969884e-05,0.1093086898326873,0,0,0
7412,309490.7913782568,2011-01-22 03:16:16,2491.222603001712,2,36,0.5504778623580933,4.173913478851318,22.88144138111388,22.422151032347443,93.32196401641696,78.96232293821504,0.0001295089750783,0.1093086898326873,0,0,0
7413,309520.8064842163,2011-01-22 03:16:46,2521.23770896118,2,36,0.5501165986061096,4.1774749755859375,22.88602852788194,22.422151032347443,93.34111840242664,78.96232293821504,9.71794142969884e-05,0.1093086898326873,0,0,0
7414,309550.8216107971,2011-01-22 03:17:16,2551.252835537031,2,36,0.550297200679779,4.181360244750977,22.89061561400285,22.422151032347443,93.36028935954972,78.96232293821504,0.0001295089750783,0.1093086898326873,0,0,0
7415,309580.8368416228,2011-01-22 03:17:46,2581.2680663627043,2,36,0.5501165986061096,4.184921741485596,22.895202692921167,22.422151032347443,93.37947729906392,78.96232293821504,9.71794142969884e-05,0.1093086898326873,0,0,0
7416,309610.8541816953,2011-01-22 03:18:16,2611.285406440282,2,36,0.550297200679779,4.188644886016846,22.89979004846079,22.422151032347443,93.39868341328985,78.96232293821504,9.70840483205393e-05,0.1093086898326873,0,0,0
7417,309640.86696458,2011-01-22 03:18:46,2641.2981893299457,2,36,0.5501165986061096,4.192530155181885,22.90437679673035,22.422151032347443,93.4179044086342,78.96232293821504,0.0001295089750783,0.1093086898326873,0,0,0
7418,309670.882045878,2011-01-22 03:19:16,2671.313270622937,2,36,0.550297200679779,4.196253299713135,22.908963879672857,22.422151032347443,93.43714419108444,78.96232293821504,9.70840483205393e-05,0.1093086898326873,0,0,0
7419,309700.4128911308,2011-01-22 03:19:46,2700.844115855671,2,36,0.550297200679779,4.200138568878174,22.913476920365344,22.422151032347443,93.45609045467174,78.96232293821504,9.70840483205393e-05,0.1093086898326873,0,0,0
7420,309730.43945748534,2011-01-22 03:20:16,30.0148914698942,3,36,0.0,4.089408874511719,22.913476920365344,22.422151032347443,93.45609045467174,78.96232293821504,-0.0005180359003134,0.1093086898326873,0,0,0
7421,309760.4545652693,2011-01-22 03:20:46,60.02999925390974,3,36,0.0,4.075162887573242,22.913476920365344,22.422151032347443,93.45609045467174,78.96232293821504,-0.0002914428769145,0.1093086898326873,0,0,0
7422,309790.46967373503,2011-01-22 03:21:16,90.0451077196243,3,36,0.0,4.066097259521484,22.913476920365344,22.422151032347443,93.45609045467174,78.96232293821504,-0.0002266883820993,0.1093086898326873,0,0,0
7423,309820.4379033342,2011-01-22 03:21:46,120.01333731877912,3,36,0.0,4.059945583343506,22.913476920365344,22.422151032347443,93.45609045467174,78.96232293821504,-0.0001295089750783,0.1093086898326873,0,0,0
7424,309820.4517693276,2011-01-22 03:21:46,2.651608625e-06,4,36,1.041735053062439,4.200138568878174,22.91347692113264,22.422151032347443,93.45609045789448,78.96232293821504,0.0,0.1093086898326873,0,0,0
7425,309820.7173817055,2011-01-22 03:21:47,0.265615084518338,4,36,0.990261435508728,4.199814796447754,22.913550943868525,22.422151032347443,93.4564013432619,78.96232293821504,-6.47544875391759e-05,0.1093086898326873,0,0,0
7426,309822.2330348444,2011-01-22 03:21:48,1.781268218482988,4,36,0.9396908283233644,4.199814796447754,22.91395592598305,22.422151032347443,93.4581022045624,78.96232293821504,-6.47544875391759e-05,0.1093086898326873,0,0,0
7427,309824.8268096694,2011-01-22 03:21:51,4.375043048443814,4,36,0.8893008232116699,4.199653148651123,22.914613635410326,22.422151032347443,93.46086448172048,78.96232293821504,-3.23295607813634e-05,0.1093086898326873,0,0,0
7428,309828.49850992113,2011-01-22 03:21:54,8.046743300225176,4,36,0.8392720818519592,4.199814796447754,22.915493826615247,22.422151032347443,93.46456115120256,78.96232293821504,-3.24249267578125e-05,0.1093086898326873,0,0,0
7429,309833.42028151534,2011-01-22 03:21:59,12.968514894429193,4,36,0.7890626788139343,4.199814796447754,22.91660538087103,22.422151032347443,93.4692295242004,78.96232293821504,0.0,0.1093086898326873,0,0,0
7430,309839.8889226995,2011-01-22 03:22:06,19.43715607861131,4,36,0.7390339374542236,4.199814796447754,22.91797634899656,22.422151032347443,93.47498741208126,78.96232293821504,0.0,0.1093086898326873,0,0,0
7431,309848.3420275929,2011-01-22 03:22:14,27.89026095191092,4,36,0.6890051364898682,4.199814796447754,22.91965034699137,22.422151032347443,93.48201800627216,78.96232293821504,0.0,0.1093086898326873,0,0,0
7432,309859.98232018866,2011-01-22 03:22:26,39.53055356272556,4,36,0.6389763951301575,4.199814796447754,22.921793370576165,22.422151032347443,93.49101842765889,78.96232293821504,-3.24249267578125e-05,0.1093086898326873,0,0,0
7433,309877.1695363246,2011-01-22 03:22:43,56.71776970372313,4,36,0.588947594165802,4.199814796447754,22.92471652850133,22.422151032347443,93.50329534721074,78.96232293821504,-3.24249267578125e-05,0.1093086898326873,0,0,0
7434,309905.8096780602,2011-01-22 03:23:12,85.35791143426697,4,36,0.5389188528060913,4.199814796447754,22.9291838333854,22.422151032347443,93.52205745534036,78.96232293821504,0.0,0.1093086898326873,0,0,0
7435,309961.4962212401,2011-01-22 03:24:07,141.0444546192048,4,36,0.4888900816440582,4.199653148651123,22.93709055528113,22.422151032347443,93.55526471002533,78.96232293821504,-6.47544875391759e-05,0.1093086898326873,0,0,0
7436,310064.3694436888,2011-01-22 03:25:50,243.91767705280856,4,36,0.4388613104820251,4.199814796447754,22.95029941725131,22.422151032347443,93.6107403179234,78.96232293821504,-3.24249267578125e-05,0.1093086898326873,0,0,0
7437,310206.1638722939,2011-01-22 03:28:12,385.7121056729849,4,36,0.388832539319992,4.199653148651123,22.96657226547739,22.422151032347443,93.67908428472543,78.96232293821504,-3.23295607813634e-05,0.1093086898326873,0,0,0
7438,310378.0672934328,2011-01-22 03:31:04,557.6155267967858,4,36,0.338803768157959,4.199814796447754,22.98392133002292,22.422151032347443,93.75194829630628,78.96232293821504,0.0,0.1093086898326873,0,0,0
7439,310585.1104715382,2011-01-22 03:34:31,764.6587049172554,4,36,0.2887749969959259,4.199814796447754,23.0019415891247,22.422151032347443,93.82763078471116,78.96232293821504,3.23295607813634e-05,0.1093086898326873,0,0,0
7440,310839.12175819185,2011-01-22 03:38:45,1018.66999166114,4,36,0.2387462258338928,4.199814796447754,23.020520967062893,22.422151032347443,93.9056614342162,78.96232293821504,0.0,0.1093086898326873,0,0,0
7441,311160.0536750118,2011-01-22 03:44:06,1339.6019083909127,4,36,0.1887174546718597,4.199814796447754,23.03951920701973,22.422151032347443,93.98545192445704,78.96232293821504,-3.24249267578125e-05,0.1093086898326873,0,0,0
7442,311588.09319266427,2011-01-22 03:51:14,1767.6414260383572,4,36,0.1386886835098266,4.199976921081543,23.05887212567323,22.422151032347443,94.0667321214174,78.96232293821504,3.24249267578125e-05,0.1093086898326873,0,0,0
7443,312247.675584428,2011-01-22 04:02:14,2427.2238178070734,4,36,0.0886599123477935,4.199653148651123,23.07936415754901,22.422151032347443,94.1527960886143,78.96232293821504,-9.70840483205393e-05,0.1093086898326873,0,0,0
7444,313203.9560372917,2011-01-22 04:18:10,3383.5042706757613,4,36,0.0498289167881011,4.199814796447754,23.097229385252227,22.422151032347443,94.2278279418876,78.96232293821504,-3.24249267578125e-05,0.1093086898326873,0,0,0
7445,313233.96512654086,2011-01-22 04:18:40,30.015125939264017,5,36,0.0,4.189454555511475,23.097229385252227,22.422151032347443,94.2278279418876,78.96232293821504,-6.47544875391759e-05,0.1093086898326873,0,0,0
7446,313263.96470139705,2011-01-22 04:19:10,60.01470080546902,5,36,0.0,4.187673568725586,23.097229385252227,22.422151032347443,94.2278279418876,78.96232293821504,-3.24249267578125e-05,0.1093086898326873,0,0,0
7447,313264.1470787845,2011-01-22 04:19:10,0.187498143064252,6,36,0.0001613661734154,4.187835693359375,23.09722939365663,22.422151032347443,94.22782797708386,78.96232293821504,0.0,0.1135623306035995,0,0,0
7448,313268.9751166053,2011-01-22 04:19:15,5.015535963863784,6,36,0.0007031940040178,4.187349796295166,23.097230572245603,22.422151032347443,94.22783291278832,78.96232293821504,-6.47544875391759e-05,0.1135623306035995,0,0,0
7449,313281.1106087122,2011-01-22 04:19:27,12.140405751642554,7,36,-1.0993878841400146,3.987259149551392,23.097230572245603,22.42585855692856,94.22783291278832,78.97716900478214,-0.0019749640487134,0.1135623306035995,0,0,0
7450,313311.12572272174,2011-01-22 04:19:57,42.155519761174,7,36,-1.0993878841400146,3.926875591278076,23.097230572245603,22.43502471099582,94.22783291278832,79.01343040039897,-0.0015541076427325,0.1135623306035995,0,0,0
7451,313341.14084143296,2011-01-22 04:20:27,72.17063847743606,7,36,-1.0992072820663452,3.877824306488037,23.097230572245603,22.44419085289984,94.22783291278832,79.04919398192726,-0.0011655807029455,0.1135623306035995,0,0,0
7452,313371.15594447515,2011-01-22 04:20:57,102.18574151963357,7,36,-1.0993878841400146,3.8381621837615967,23.097230572245603,22.453357028203275,94.22783291278832,79.08454986437816,-0.0009713172912597,0.1135623306035995,0,0,0
7453,313401.1710524848,2011-01-22 04:21:27,132.20084953422375,7,36,-1.0993878841400146,3.8065946102142334,23.097230572245603,22.46252315751296,94.22783291278832,79.11958192568316,-0.0007770538213662,0.1135623306035995,0,0,0
7454,313431.18634760065,2011-01-22 04:21:57,162.21614467017798,7,36,-1.0993878841400146,3.7816641330718994,23.097230572245603,22.47168940372991,94.22783291278832,79.15435646769119,-0.0006151676061563,0.1135623306035995,0,0,0
7455,313461.1879019554,2011-01-22 04:22:27,192.21769899981493,7,36,-1.0992072820663452,3.7607808113098153,23.097230572245603,22.48085138919147,94.22783291278832,79.18890531746507,-0.0005180359003134,0.1135623306035995,0,0,0
7456,313491.2008038466,2011-01-22 04:22:57,222.23060105647923,7,36,-1.0992072820663452,3.742649793624878,23.097230572245603,22.490016881625603,94.22783291278832,79.22328935880036,-0.0004532813909463,0.1135623306035995,0,0,0
7457,313521.2158778564,2011-01-22 04:23:27,252.2456749009069,7,36,-1.0993878841400146,3.726461172103882,23.097230572245603,22.499183018821288,94.22783291278832,79.25751934184717,-0.0004532813909463,0.1135623306035995,0,0,0
7458,313551.2309611344,2011-01-22 04:23:57,282.2607581688208,7,36,-1.0993878841400146,3.711891412734986,23.097230572245603,22.5083491233251,94.22783291278832,79.29160891795435,-0.0003237724304199,0.1135623306035995,0,0,0
7459,313581.24606417154,2011-01-22 04:24:27,312.2758612210432,7,36,-1.0993878841400146,3.6979691982269287,23.097230572245603,22.517515289400368,94.22783291278832,79.3255675124924,-0.0003885269106831,0.1135623306035995,0,0,0
7460,313611.2613038844,2011-01-22 04:24:57,342.29110092885344,7,36,-1.0993878841400146,3.685018301010132,23.097230572245603,22.526681504666875,94.22783291278832,79.35940372815092,-0.0003237724304199,0.1135623306035995,0,0,0
7461,313641.27631033084,2011-01-22 04:25:28,372.3061073652796,7,36,-1.0992072820663452,3.6728768348693848,23.097230572245603,22.535847620791483,94.22783291278832,79.39312410119727,-0.0002590179501567,0.1135623306035995,0,0,0
7462,313671.2913967165,2011-01-22 04:25:58,402.3211937359264,7,36,-1.0993878841400146,3.6613831520080566,23.097230572245603,22.54501375949785,94.22783291278832,79.42673525668371,-0.0002590179501567,0.1135623306035995,0,0,0
7463,313701.3065200994,2011-01-22 04:26:28,432.3363171288442,7,36,-1.0992072820663452,3.649889230728149,23.097230572245603,22.55417991784633,94.22783291278832,79.46024134303813,-0.0002913951757363,0.1135623306035995,0,0,0
7464,313731.3216188108,2011-01-22 04:26:58,462.351415860298,7,36,-1.0993878841400146,3.638880968093872,23.097230572245603,22.563346016386166,94.22783291278832,79.49364549798287,-0.0002590179501567,0.1135623306035995,0,0,0
7465,313761.33673590305,2011-01-22 04:27:28,492.36653294749993,7,36,-1.0992072820663452,3.628196477890015,23.097230572245603,22.57251214505533,94.22783291278832,79.52695065339465,-0.0002913951757363,0.1135623306035995,0,0,0
7466,313791.3518286045,2011-01-22 04:27:58,522.3816256539375,7,36,-1.0993878841400146,3.617997646331787,23.097230572245603,22.58167832063835,94.22783291278832,79.56015996592582,-0.0002590179501567,0.1135623306035995,0,0,0
7467,313821.3669343284,2011-01-22 04:28:28,552.3967313728061,7,36,-1.0993878841400146,3.60812258720398,23.097230572245603,22.590844423905427,94.22783291278832,79.5932765345451,-0.0002590179501567,0.1135623306035995,0,0,0
7468,313851.3820481925,2011-01-22 04:28:58,582.4118452369752,7,36,-1.0993878841400146,3.598247528076172,23.097230572245603,22.600010472903698,94.22783291278832,79.6263030615247,-0.0002590179501567,0.1135623306035995,0,0,0
7469,313881.3971646882,2011-01-22 04:29:28,612.4269617377155,7,36,-1.0993878841400146,3.589020252227783,23.097230572245603,22.609176588285003,94.22783291278832,79.65924256581334,-0.0002266406954731,0.1135623306035995,0,0,0
7470,313911.4124522804,2011-01-22 04:29:58,642.4422493048057,7,36,-1.0993878841400146,3.579630851745605,23.097230572245603,22.618342815382583,94.22783291278832,79.69209701135597,-0.0002590179501567,0.1135623306035995,0,0,0
7471,313941.42736970494,2011-01-22 04:30:28,672.4571667494371,7,36,-1.0992072820663452,3.5707271099090576,23.097230572245603,22.62750893098675,94.22783291278832,79.7248671662519,-0.0001942634553415,0.1135623306035995,0,0,0
7472,313971.44247655163,2011-01-22 04:30:58,702.4722735961165,7,36,-1.0993878841400146,3.56198525428772,23.097230572245603,22.636675044790582,94.22783291278832,79.7575560444094,-0.0002266406954731,0.1135623306035995,0,0,0
7473,314001.45760519267,2011-01-22 04:31:28,732.487402237114,7,36,-1.099568486213684,3.5535671710968018,23.097230572245603,22.64584117549131,94.22783291278832,79.79016796941112,-0.0002590179501567,0.1135623306035995,0,0,0
7474,314031.4728336775,2011-01-22 04:31:58,762.5026307069156,7,36,-1.0993878841400146,3.5456347465515137,23.097230572245603,22.65500735536773,94.22783291278832,79.82270494461031,-0.0001942634553415,0.1135623306035995,0,0,0
7475,314061.4878121743,2011-01-22 04:32:28,792.5176092187451,7,36,-1.0992072820663452,3.537540435791016,23.097230572245603,22.66417347612984,94.22783291278832,79.85516721839413,-0.0001942634553415,0.1135623306035995,0,0,0
7476,314091.5030422782,2011-01-22 04:32:58,822.532839317607,7,36,-1.0993878841400146,3.5299317836761475,23.097230572245603,22.673339738422328,94.22783291278832,79.88755813449777,-0.0001942634553415,0.1135623306035995,0,0,0
7477,314121.5182534198,2011-01-22 04:33:28,852.5480504692465,7,36,-1.099568486213684,3.5223231315612797,23.097230572245603,22.682506049901903,94.22783291278832,79.91987910664274,-0.0001942634553415,0.1135623306035995,0,0,0
7478,314151.533120158,2011-01-22 04:33:58,882.5629172075019,7,36,-1.099568486213684,3.515038251876831,23.097230572245603,22.69167216059504,94.22783291278832,79.95213145885288,-0.0001942634553415,0.1135623306035995,0,0,0
7479,314181.5482151502,2011-01-22 04:34:28,912.5780121946236,7,36,-1.0993878841400146,3.508077383041382,23.097230572245603,22.700838327441915,94.22783291278832,79.98431903910756,-0.0001618862152099,0.1135623306035995,0,0,0
7480,314211.5633298164,2011-01-22 04:34:58,942.593126835729,7,36,-1.0992072820663452,3.5012781620025635,23.097230572245603,22.710004566669497,94.22783291278832,80.01644369499743,-0.0001942634553415,0.1135623306035995,0,0,0
7481,314241.57845087344,2011-01-22 04:35:28,972.6082479229002,7,36,-1.0993878841400146,3.494640827178955,23.097230572245603,22.71917068164177,94.22783291278832,80.04850686285221,-0.0001942634553415,0.1135623306035995,0,0,0
7482,314271.593557665,2011-01-22 04:35:58,1002.6233546994048,7,36,-1.0992072820663452,3.4883272647857666,23.097230572245603,22.72833679911351,94.22783291278832,80.080509741261,-0.0001295089750783,0.1135623306035995,0,0,0
7483,314301.6086510632,2011-01-22 04:36:28,1032.638448107591,7,36,-1.0993878841400146,3.481851816177368,23.097230572245603,22.737502961386948,94.22783291278832,80.1124541999519,-0.0001618862152099,0.1135623306035995,0,0,0
7484,314331.6237817944,2011-01-22 04:36:58,1062.6535788438107,7,36,-1.0993878841400146,3.4753763675689697,23.097230572245603,22.74666903136347,94.22783291278832,80.14433946399618,-0.0001618862152099,0.1135623306035995,0,0,0
7485,314361.638909092,2011-01-22 04:37:28,1092.6687061264229,7,36,-1.0992072820663452,3.469062805175781,23.097230572245603,22.75583514538927,94.22783291278832,80.17616649938472,-0.0001942634553415,0.1135623306035995,0,0,0
7486,314391.6541082988,2011-01-22 04:37:58,1122.6839053383046,7,36,-1.0993878841400146,3.4629111289978027,23.097230572245603,22.76500133612989,94.22783291278832,80.20793664207514,-0.0001942634553415,0.1135623306035995,0,0,0
7487,314421.6692370802,2011-01-22 04:38:28,1152.6990341046146,7,36,-1.0993878841400146,3.456759452819824,23.097230572245603,22.77416744077933,94.22783291278832,80.23964984597613,-0.0001618862152099,0.1135623306035995,0,0,0
7488,314451.6841957075,2011-01-22 04:38:58,1182.713992736898,7,36,-1.0992072820663452,3.450445890426636,23.097230572245603,22.78333353922194,94.22783291278832,80.27130571984809,-0.0001942634553415,0.1135623306035995,0,0,0
7489,314481.6993216718,2011-01-22 04:39:28,1212.729118716262,7,36,-1.099568486213684,3.4439704418182373,23.097230572245603,22.79249967271931,94.22783291278832,80.30290403605213,-0.0002266406954731,0.1135623306035995,0,0,0
7490,314511.7144198268,2011-01-22 04:39:58,1242.7442168662667,7,36,-1.0993878841400146,3.437494993209839,23.097230572245603,22.801665737209447,94.22783291278832,80.33444268163295,-0.0002266406954731,0.1135623306035995,0,0,0
7491,314541.7296726473,2011-01-22 04:40:28,1272.7594697619452,7,36,-1.0993878841400146,3.4310197830200195,23.097230572245603,22.810831968535982,94.22783291278832,80.36592294283061,-0.0001942157687153,0.1135623306035995,0,0,0
7492,314571.744763033,2011-01-22 04:40:58,1302.7745600623864,7,36,-1.0992072820663452,3.424544334411621,23.097230572245603,22.81999813630998,94.22783291278832,80.39734347084321,-0.0002266406954731,0.1135623306035995,0,0,0
7493,314601.7597621261,2011-01-22 04:41:28,1332.7895591755607,7,36,-1.0993878841400146,3.4175832271575928,23.097230572245603,22.8291642522072,94.22783291278832,80.42870123315092,-0.0001618862152099,0.1135623306035995,0,0,0
7494,314631.7751035424,2011-01-22 04:41:58,1362.8049005667972,7,36,-1.0993878841400146,3.4101364612579346,23.097230572245603,22.83833047184698,94.22783291278832,80.45999367940703,-0.0001942634553415,0.1135623306035995,0,0,0
7495,314661.7899729122,2011-01-22 04:42:28,1392.819769956661,7,36,-1.099568486213684,3.4025278091430664,23.097230572245603,22.84749657323986,94.22783291278832,80.4912168977803,-0.0002266406954731,0.1135623306035995,0,0,0
7496,314691.80509270617,2011-01-22 04:42:58,1422.8348897255469,7,36,-1.0992072820663452,3.3945953845977783,23.097230572245603,22.85666270473105,94.22783291278832,80.52236926894459,-0.0002590179501567,0.1135623306035995,0,0,0
7497,314721.8202043498,2011-01-22 04:43:28,1452.8500013892317,7,36,-1.0993878841400146,3.3863391876220703,23.097230572245603,22.86582878033488,94.22783291278832,80.55344703765536,-0.0001942634553415,0.1135623306035995,0,0,0
7498,314751.8356020564,2011-01-22 04:43:58,1482.8653991760234,7,36,-1.0992072820663452,3.3777592182159424,23.097230572245603,22.87499505156376,94.22783291278832,80.58444811295813,-0.0002590179501567,0.1135623306035995,0,0,0
7499,314781.8504019029,2011-01-22 04:44:28,1512.880198932339,7,36,-1.0992072820663452,3.3680460453033447,23.097230572245603,22.884161094448384,94.22783291278832,80.61536419481757,-0.0002590179501567,0.1135623306035995,0,0,0
7500,314811.86563006195,2011-01-22 04:44:58,1542.8954271064038,7,36,-1.0992072820663452,3.3575234413146973,23.097230572245603,22.893327320035542,94.22783291278832,80.64618838745845,-0.0002913951757363,0.1135623306035995,0,0,0
7501,314841.88072363555,2011-01-22 04:45:28,1572.91052075519,7,36,-1.0992072820663452,3.346515417098999,23.097230572245603,22.90249343825227,94.22783291278832,80.67691345810356,-0.0003237724304199,0.1135623306035995,0,0,0
7502,314871.8958626223,2011-01-22 04:45:58,1602.9256596717971,7,36,-1.099568486213684,3.334050178527832,23.097230572245603,22.91165966815849,94.22783291278832,80.70753127560924,-0.0002913951757363,0.1135623306035995,0,0,0
7503,314901.9108298009,2011-01-22 04:46:28,1632.940626850381,7,36,-1.0993878841400146,3.3198041915893555,23.097230572245603,22.92082578639632,94.22783291278832,80.73802715694136,-0.0004209041653666,0.1135623306035995,0,0,0
7504,314931.9259369885,2011-01-22 04:46:58,1662.9557340228723,7,36,-1.099568486213684,3.3039393424987797,23.097230572245603,22.92999186613821,94.22783291278832,80.76838563421697,-0.0004532813909463,0.1135623306035995,0,0,0
7505,314961.9410745065,2011-01-22 04:47:28,1692.970871535982,7,36,-1.0993878841400146,3.2859699726104736,23.097230572245603,22.939157909658363,94.22783291278832,80.7985889602513,-0.0005180359003134,0.1135623306035995,0,0,0
7506,314991.9561611529,2011-01-22 04:47:58,1722.9859581973535,7,36,-1.0993878841400146,3.264601230621338,23.097230572245603,22.94832395266277,94.22783291278832,80.82861199922094,-0.0006151676061563,0.1135623306035995,0,0,0
7507,315021.9712734983,2011-01-22 04:48:28,1753.0010705327124,7,36,-1.0993878841400146,3.239023208618164,23.097230572245603,22.95749009697307,94.22783291278832,80.85842277895307,-0.0007446765666827,0.1135623306035995,0,0,0
7508,315051.98637227487,2011-01-22 04:48:58,1783.016169324316,7,36,-1.0993878841400146,3.2071316242218018,23.097230572245603,22.966656228335108,94.22783291278832,80.88797180484542,-0.0009065627818927,0.1135623306035995,0,0,0
7509,315082.00385473226,2011-01-22 04:49:28,1813.033651776736,7,36,-1.099568486213684,3.1663365364074707,23.097230572245603,22.97582316528785,94.22783291278832,80.91719193594953,-0.0011979580158367,0.1135623306035995,0,0,0
7510,315112.01663513575,2011-01-22 04:49:58,1843.0464321802035,7,36,-1.0993878841400146,3.112266540527344,23.097230572245603,22.98498859547849,94.22783291278832,80.94597682531314,-0.0016188621520996,0.1135623306035995,0,0,0
7511,315142.03170044895,2011-01-22 04:50:28,1873.0614974983805,7,36,-1.0993878841400146,3.037475347518921,23.097230572245603,22.99415479119973,94.22783291278832,80.97418019153207,-0.0022664070129394,0.1135623306035995,0,0,0
7512,315172.04693107406,2011-01-22 04:50:58,1903.0767281085168,7,36,-1.0993878841400146,2.930954694747925,23.097230572245603,23.00332088213311,94.22783291278832,81.00156370598026,-0.0033024786971509,0.1135623306035995,0,0,0
7513,315202.0619093453,2011-01-22 04:51:28,1933.091706389772,7,36,-1.099568486213684,2.77748703956604,23.097230572245603,23.01248705511391,94.22783291278832,81.02776363965464,-0.004662275314331,0.1135623306035995,0,0,0
7514,315214.6867862732,2011-01-22 04:51:41,1945.7165834028656,7,36,-1.0993878841400146,2.699943780899048,23.097230572245603,23.016342489064105,94.22783291278832,81.0383248511364,-0.0050508021377027,0.1135623306035995,0,0,0
7515,315274.7143811884,2011-01-22 04:52:41,60.01472259477468,8,36,0.0,3.6291677951812735,23.097230572245603,23.016342489064105,94.22783291278832,81.0383248511364,0.0012627125252038,0.1135623306035995,0,0,0
7516,315274.8976350483,2011-01-22 04:52:41,0.185008848977451,9,36,-1.9243103452026844e-05,3.629329681396485,23.097230572245603,23.01634249005303,94.22783291278832,81.03832485472556,0.0,0.1116369217634201,0,0,0
7517,315279.72557506536,2011-01-22 04:52:46,5.012948855994941,9,36,0.0010644125286489,3.636776447296143,23.09723172936648,23.016342490136644,94.22783711718252,81.038324855029,0.0011008263099938,0.1116369217634201,0,0,0
