Data_Point,Test_Time(s),Date_Time,Step_Time(s),Step_Index,Cycle_Index,Current(A),Voltage(V),Charge_Capacity(Ah),Discharge_Capacity(Ah),Charge_Energy(Wh),Discharge_Energy(Wh),dV/dt(V/s),Internal_Resistance(Ohm),Is_FC_Data,AC_Impedance(Ohm),ACI_Phase_Angle(Deg)
5743,238876.91796853344,2011-01-21 07:39:13,30.01512297186835,1,28,0.0,3.656526565551758,17.61211666203019,17.553419959901163,71.80159633043269,61.89546390182897,0.0005827903514727,0.1075921058654785,0,0,0
5744,238906.93304803697,2011-01-21 07:39:43,60.030202485425214,1,28,0.0,3.675628900527954,17.61211666203019,17.553419959901163,71.80159633043269,61.89546390182897,0.0004209041653666,0.1075921058654785,0,0,0
5745,238936.94816054776,2011-01-21 07:40:13,90.04531497617137,1,28,0.0,3.689065456390381,17.61211666203019,17.553419959901163,71.80159633043269,61.89546390182897,0.0003237724304199,0.1075921058654785,0,0,0
5746,238966.91639950025,2011-01-21 07:40:43,120.01355394868747,1,28,0.0,3.6991024017333984,17.61211666203019,17.553419959901163,71.80159633043269,61.89546390182897,0.0002913951757363,0.1075921058654785,0,0,0
5747,238996.93576683503,2011-01-21 07:41:13,30.015126630988,2,28,0.5499359965324402,3.8185741901397705,17.616703826287665,17.553419959901163,71.81902985436497,61.89546390182897,0.0007122993702068,0.1075921058654785,0,0,0
5748,239026.95085868431,2011-01-21 07:41:43,60.03021850033931,2,28,0.550297200679779,3.8389716148376474,17.62129087937712,17.553419959901163,71.83659686444365,61.89546390182897,0.0004209041653666,0.1075921058654785,0,0,0
5749,239056.96597221767,2011-01-21 07:42:13,90.04533202867145,2,28,0.550297200679779,3.853055715560913,17.625877980840944,17.553419959901163,71.85424013792496,61.89546390182897,0.0003561496851034,0.1075921058654785,0,0,0
5750,239086.98128626577,2011-01-21 07:42:43,120.06064607676056,2,28,0.5501165986061096,3.8640639781951904,17.630465078453984,17.553419959901163,71.8719402618604,61.89546390182897,0.0002590179501567,0.1075921058654785,0,0,0
5751,239116.99641118248,2011-01-21 07:43:13,150.07577099347603,2,28,0.550297200679779,3.873939037322998,17.63505221636259,17.553419959901163,71.88968800750037,61.89546390182897,0.0002590179501567,0.1075921058654785,0,0,0
5752,239147.01129334417,2011-01-21 07:43:43,180.09065315517134,2,28,0.5501165986061096,3.882357120513916,17.63963916876121,17.553419959901163,71.90747687088839,61.89546390182897,0.0002266406954731,0.1075921058654785,0,0,0
5753,239177.0265258641,2011-01-21 07:44:13,210.10588567506707,2,28,0.5499359965324402,3.890127658843994,17.64422622560652,17.553419959901163,71.92530390038011,61.89546390182897,0.0001618862152099,0.1075921058654785,0,0,0
5754,239207.04153866132,2011-01-21 07:44:43,240.1208984773589,2,28,0.5501165986061096,3.897574424743652,17.648813319218796,17.553419959901163,71.9431656133198,61.89546390182897,0.0001942634553415,0.1075921058654785,0,0,0
5755,239237.05673057,2011-01-21 07:45:13,270.1360903559641,2,28,0.5501165986061096,3.9042117595672607,17.653400340924346,17.553419959901163,71.96105886244224,61.89546390182897,0.0001942634553415,0.1075921058654785,0,0,0
5756,239267.07171081612,2011-01-21 07:45:43,300.1510706271785,2,28,0.550297200679779,3.910525321960449,17.65798733640121,17.553419959901163,71.97898196780284,61.89546390182897,0.0001295089750783,0.1075921058654785,0,0,0
5757,239297.08696750636,2011-01-21 07:46:13,330.1663273173139,2,28,0.5501165986061096,3.9166767597198486,17.66257442370757,17.553419959901163,71.99693399915861,61.89546390182897,0.0001618862152099,0.1075921058654785,0,0,0
5758,239327.1019909652,2011-01-21 07:46:43,360.1813507811777,2,28,0.5501165986061096,3.9221808910369873,17.667161429990024,17.553419959901163,72.01491290421798,61.89546390182897,9.713172767078504e-05,0.1075921058654785,0,0,0
5759,239357.1170937868,2011-01-21 07:47:13,390.19645359781305,2,28,0.5501165986061096,3.927846908569336,17.671748498249663,17.553419959901163,72.03291787432572,61.89546390182897,0.0001295089750783,0.1075921058654785,0,0,0
5760,239387.1322075808,2011-01-21 07:47:43,420.2115673918073,2,28,0.5501165986061096,3.9331891536712646,17.676335562525132,17.553419959901163,72.05094762371314,61.89546390182897,0.0001618862152099,0.1075921058654785,0,0,0
5761,239417.14733181585,2011-01-21 07:48:13,450.2266916117863,2,28,0.5501165986061096,3.938207626342773,17.68092264858985,17.553419959901163,72.06900120157724,61.89546390182897,0.0001295089750783,0.1075921058654785,0,0,0
5762,239447.1624671585,2011-01-21 07:48:43,480.2418269444616,2,28,0.550297200679779,3.943064212799072,17.685509786530737,17.553419959901163,72.08707786889897,61.89546390182897,6.47544875391759e-05,0.1075921058654785,0,0,0
5763,239477.17754430612,2011-01-21 07:49:13,510.2569041171843,2,28,0.5501165986061096,3.947758913040161,17.690096971379063,17.553419959901163,72.10517651465634,61.89546390182897,9.713172767078504e-05,0.1075921058654785,0,0,0
5764,239507.1926468321,2011-01-21 07:49:43,540.2720066430951,2,28,0.550297200679779,3.95212984085083,17.694683995642446,17.553419959901163,72.12329535958077,61.89546390182897,0.0001295089750783,0.1075921058654785,0,0,0
5765,239537.20777276132,2011-01-21 07:50:13,570.2871325723341,2,28,0.5501165986061096,3.956500768661499,17.69927107107019,17.553419959901163,72.14143447955604,61.89546390182897,0.0001295089750783,0.1075921058654785,0,0,0
5766,239567.22300609827,2011-01-21 07:50:43,600.3023659042536,2,28,0.5501165986061096,3.960547924041748,17.703858152830353,17.553419959901163,72.15959272253208,61.89546390182897,9.713172767078504e-05,0.1075921058654785,0,0,0
5767,239597.23810689987,2011-01-21 07:51:13,630.3174667108794,2,28,0.5504778623580933,3.964756965637207,17.70844523256461,17.553419959901163,72.17776942847199,61.89546390182897,0.0001618862152099,0.1075921058654785,0,0,0
5768,239627.2532425233,2011-01-21 07:51:43,660.3326023342794,2,28,0.550297200679779,3.968318462371826,17.713032311504982,17.553419959901163,72.19596391184697,61.89546390182897,0.0001295089750783,0.1075921058654785,0,0,0
5769,239657.2681854264,2011-01-21 07:52:13,690.3475452423733,2,28,0.5501165986061096,3.971879959106445,17.717619404671154,17.553419959901163,72.21417568766584,61.89546390182897,6.47544875391759e-05,0.1075921058654785,0,0,0
5770,239687.2834344825,2011-01-21 07:52:43,720.3627942934698,2,28,0.5501165986061096,3.975765228271485,17.722206644035513,17.553419959901163,72.23240483448073,61.89546390182897,9.713172767078504e-05,0.1075921058654785,0,0,0
5771,239717.2986259952,2011-01-21 07:53:13,750.3779858713254,2,28,0.5501165986061096,3.9791648387908936,17.726793843445748,17.553419959901163,72.25064993316929,61.89546390182897,9.713172767078504e-05,0.1075921058654785,0,0,0
5772,239747.3135190941,2011-01-21 07:53:43,780.39287889008,2,28,0.5501165986061096,3.9827263355255127,17.731380882883403,17.553419959901163,72.26891076113579,61.89546390182897,6.47544875391759e-05,0.1075921058654785,0,0,0
5773,239777.3286263268,2011-01-21 07:54:13,810.4079861377587,2,28,0.5501165986061096,3.986125946044922,17.73596795992338,17.553419959901163,72.28718745846992,61.89546390182897,9.713172767078504e-05,0.1075921058654785,0,0,0
5774,239807.34391672089,2011-01-21 07:54:43,840.4232765970572,2,28,0.550297200679779,3.989525556564331,17.740555081938748,17.553419959901163,72.30547979139055,61.89546390182897,0.0001295089750783,0.1075921058654785,0,0,0
5775,239837.3589927508,2011-01-21 07:55:13,870.4383525617693,2,28,0.5501165986061096,3.9927632808685294,17.745142152925567,17.553419959901163,72.32378715070297,61.89546390182897,6.47544875391759e-05,0.1075921058654785,0,0,0
5776,239867.3741102189,2011-01-21 07:55:43,900.4534700950832,2,28,0.550297200679779,3.9960007667541504,17.749729188390937,17.553419959901163,72.34210945750438,61.89546390182897,9.713172767078504e-05,0.1075921058654785,0,0,0
5777,239897.38906702667,2011-01-21 07:56:13,930.4684268376568,2,28,0.5501165986061096,3.99907660484314,17.754316336322695,17.553419959901163,72.36044705061936,61.89546390182897,6.47544875391759e-05,0.1075921058654785,0,0,0
5778,239927.40419015897,2011-01-21 07:56:43,960.4835499749375,2,28,0.550297200679779,4.002314567565918,17.7589033632678,17.553419959901163,72.3787986720827,61.89546390182897,6.47544875391759e-05,0.1075921058654785,0,0,0
5779,239957.4192873766,2011-01-21 07:57:13,990.4986471926186,2,28,0.550297200679779,4.005390167236328,17.76349033608487,17.553419959901163,72.39716440449402,61.89546390182897,9.70840483205393e-05,0.1075921058654785,0,0,0
5780,239987.4345266333,2011-01-21 07:57:43,1020.513886444292,2,28,0.550297200679779,4.008627891540527,17.768077396867536,17.553419959901163,72.41554478958777,61.89546390182897,0.0001295089750783,0.1075921058654785,0,0,0
5781,240017.44950591703,2011-01-21 07:58:13,1050.5288657280453,2,28,0.550297200679779,4.011703968048096,17.77266440909047,17.553419959901163,72.4339388556007,61.89546390182897,0.0001295089750783,0.1075921058654785,0,0,0
5782,240047.46721120988,2011-01-21 07:58:43,1080.546571096039,2,28,0.550297200679779,4.014617919921875,17.777251818755037,17.553419959901163,72.45234844939704,61.89546390182897,9.71794142969884e-05,0.1075921058654785,0,0,0
5783,240077.4797491791,2011-01-21 07:59:13,1110.5591089800737,2,28,0.550297200679779,4.017693519592285,17.78183849303847,17.553419959901163,72.47076891915977,61.89546390182897,9.70840483205393e-05,0.1075921058654785,0,0,0
5784,240107.4948521411,2011-01-21 07:59:43,1140.574211952096,2,28,0.5501165986061096,4.020445823669434,17.786425608905923,17.553419959901163,72.48920475941236,61.89546390182897,6.47544875391759e-05,0.1075921058654785,0,0,0
5785,240137.5099740804,2011-01-21 08:00:13,1170.5893338913909,2,28,0.550297200679779,4.023683547973633,17.791012720983655,17.553419959901163,72.5076542382699,61.89546390182897,6.47544875391759e-05,0.1075921058654785,0,0,0
5786,240167.5250822704,2011-01-21 08:00:43,1200.6044420814185,2,28,0.550297200679779,4.026435375213623,17.79559981243303,17.553419959901163,72.52611706181834,61.89546390182897,6.47544875391759e-05,0.1075921058654785,0,0,0
5787,240197.5403036325,2011-01-21 08:01:13,1230.619663428468,2,28,0.550297200679779,4.029349327087402,17.800186893673033,17.553419959901163,72.54459319144235,61.89546390182897,6.47544875391759e-05,0.1075921058654785,0,0,0
5788,240227.5552951317,2011-01-21 08:01:43,1260.6346549477155,2,28,0.5501165986061096,4.032101631164551,17.80477393765306,17.553419959901163,72.56308230883393,61.89546390182897,6.47544875391759e-05,0.1075921058654785,0,0,0
5789,240257.5705486289,2011-01-21 08:02:13,1290.6499084248435,2,28,0.5501165986061096,4.034853458404541,17.809360998673007,17.553419959901163,72.5815846635634,61.89546390182897,3.24249267578125e-05,0.1075921058654785,0,0,0
5790,240287.5855236971,2011-01-21 08:02:43,1320.6648835081278,2,28,0.550297200679779,4.037929058074951,17.8139480277603,17.553419959901163,72.60009999457858,61.89546390182897,6.47544875391759e-05,0.1075921058654785,0,0,0
5791,240317.6007475053,2011-01-21 08:03:13,1350.6801073112988,2,28,0.550297200679779,4.0406813621521,17.81853522614651,17.553419959901163,72.61862899329141,61.89546390182897,9.71794142969884e-05,0.1075921058654785,0,0,0
5792,240347.6162779527,2011-01-21 08:03:43,1380.695637763734,2,28,0.5501165986061096,4.043595314025879,17.823122364742826,17.553419959901163,72.637170653871,61.89546390182897,9.71794142969884e-05,0.1075921058654785,0,0,0
5793,240377.63088261784,2011-01-21 08:04:13,1410.7102425090227,2,28,0.5501165986061096,4.046185493469238,17.82770933744676,17.553419959901163,72.65572454735909,61.89546390182897,6.47544875391759e-05,0.1075921058654785,0,0,0
5794,240407.64597464257,2011-01-21 08:04:43,1440.7253344535611,2,28,0.550297200679779,4.049261093139648,17.83229646488613,17.553419959901163,72.67429203898912,61.89546390182897,0.0001295089750783,0.1075921058654785,0,0,0
5795,240437.6611958944,2011-01-21 08:05:13,1470.740555690336,2,28,0.5501165986061096,4.052013397216797,17.83688357619767,17.553419959901163,72.69287243946145,61.89546390182897,6.47544875391759e-05,0.1075921058654785,0,0,0
5796,240467.6762169673,2011-01-21 08:05:43,1500.7555767682531,2,28,0.5501165986061096,4.054765224456787,17.841470681056062,17.553419959901163,72.71146577608235,61.89546390182897,6.47544875391759e-05,0.1075921058654785,0,0,0
5797,240497.69141923176,2011-01-21 08:06:13,1530.770779042768,2,28,0.550297200679779,4.057679176330566,17.84605781847525,17.553419959901163,72.73007213104657,61.89546390182897,9.70840483205393e-05,0.1075921058654785,0,0,0
5798,240527.706425994,2011-01-21 08:06:44,1560.785785810019,2,28,0.5501165986061096,4.060431480407715,17.850644919373973,17.553419959901163,72.74869134302084,61.89546390182897,9.71794142969884e-05,0.1075921058654785,0,0,0
5799,240557.72164219324,2011-01-21 08:07:14,1590.801002004226,2,28,0.5499359965324402,4.063021659851074,17.855232019043164,17.553419959901163,72.76732299694928,61.89546390182897,6.47544875391759e-05,0.1075921058654785,0,0,0
5800,240587.7366200284,2011-01-21 08:07:44,1620.815979829344,2,28,0.550297200679779,4.0657734870910645,17.859819075998185,17.553419959901163,72.78596761496753,61.89546390182897,0.0,0.1075921058654785,0,0,0
5801,240617.7517518573,2011-01-21 08:08:14,1650.8311116733244,2,28,0.550297200679779,4.069011211395264,17.864406154060482,17.553419959901163,72.80462541858257,61.89546390182897,9.70840483205393e-05,0.1075921058654785,0,0,0
5802,240647.76688471885,2011-01-21 08:08:44,1680.8462446451151,2,28,0.5501165986061096,4.071763515472412,17.86899321369187,17.553419959901163,72.82329623629975,61.89546390182897,0.0001295089750783,0.1075921058654785,0,0,0
5803,240677.7819775857,2011-01-21 08:09:14,1710.8613373966657,2,28,0.5501165986061096,4.074515342712402,17.87358027342843,17.553419959901163,72.8419801878329,61.89546390182897,0.0,0.1075921058654785,0,0,0
5804,240707.79707364543,2011-01-21 08:09:44,1740.8764334364107,2,28,0.5501165986061096,4.077429294586182,17.87816731670168,17.553419959901163,72.86067733477802,61.89546390182897,3.23295607813634e-05,0.1075921058654785,0,0,0
5805,240737.8123766661,2011-01-21 08:10:14,1770.8917364319534,2,28,0.5501165986061096,4.08050537109375,17.882754402058723,17.553419959901163,72.87938797889247,61.89546390182897,9.71794142969884e-05,0.1075921058654785,0,0,0
5806,240767.8273156644,2011-01-21 08:10:44,1800.906675465391,2,28,0.5501165986061096,4.08325719833374,17.88734145072772,17.553419959901163,72.89811175544621,61.89546390182897,6.47544875391759e-05,0.1075921058654785,0,0,0
5807,240797.84266249425,2011-01-21 08:11:14,1830.9220223152315,2,28,0.550297200679779,4.086333274841309,17.89192859209988,17.553419959901163,72.91684938394745,61.89546390182897,6.47544875391759e-05,0.1075921058654785,0,0,0
5808,240827.8575313828,2011-01-21 08:11:44,1860.936891183797,2,28,0.5499359965324402,4.089085102081299,17.89651564157468,17.553419959901163,72.9356001497044,61.89546390182897,3.23295607813634e-05,0.1075921058654785,0,0,0
5809,240857.8726474976,2011-01-21 08:12:14,1890.9520073136125,2,28,0.550297200679779,4.092322826385498,17.90110274961096,17.553419959901163,72.95436480200138,61.89546390182897,9.70840483205393e-05,0.1075921058654785,0,0,0
5810,240887.88777350704,2011-01-21 08:12:44,1920.9671333180388,2,28,0.5501165986061096,4.095075130462647,17.905689860396805,17.553419959901163,72.97314316049133,61.89546390182897,6.47544875391759e-05,0.1075921058654785,0,0,0
5811,240917.9029746688,2011-01-21 08:13:14,1950.9823344597305,2,28,0.5501165986061096,4.098150730133057,17.91027705787906,17.553419959901163,72.99193574262434,61.89546390182897,9.70840483205393e-05,0.1075921058654785,0,0,0
5812,240947.9179796215,2011-01-21 08:13:44,1980.9973394375213,2,28,0.550297200679779,4.101388454437256,17.914864221003135,17.553419959901163,73.0107421518952,61.89546390182897,6.47544875391759e-05,0.1075921058654785,0,0,0
5813,240977.93319386587,2011-01-21 08:14:14,2011.012553676856,2,28,0.550297200679779,4.104464530944824,17.91945135369662,17.553419959901163,73.0295624536976,61.89546390182897,9.71794142969884e-05,0.1075921058654785,0,0,0
5814,241007.94819382613,2011-01-21 08:14:44,2041.027553637142,2,28,0.5501165986061096,4.107540130615234,17.924038455989233,17.553419959901163,73.04839690997095,61.89546390182897,6.47544875391759e-05,0.1075921058654785,0,0,0
5815,241037.9633002468,2011-01-21 08:15:14,2071.04266005776,2,28,0.550297200679779,4.110616207122803,17.928625315143606,17.553419959901163,73.06724456986076,61.89546390182897,9.71794142969884e-05,0.1075921058654785,0,0,0
5816,241067.97840020127,2011-01-21 08:15:44,2101.057760012261,2,28,0.5501165986061096,4.113691806793213,17.93321169024545,17.553419959901163,73.08610451324849,61.89546390182897,6.47544875391759e-05,0.1075921058654785,0,0,0
5817,241097.9936847007,2011-01-21 08:16:14,2131.073044506694,2,28,0.550297200679779,4.117091178894043,17.93779836636899,17.553419959901163,73.10498031550668,61.89546390182897,9.70840483205393e-05,0.1075921058654785,0,0,0
5818,241128.00865700707,2011-01-21 08:16:44,2161.0880168230824,2,28,0.5501165986061096,4.120167255401611,17.942385525126042,17.553419959901163,73.12387283189001,61.89546390182897,9.71794142969884e-05,0.1075921058654785,0,0,0
5819,241158.02376027484,2011-01-21 08:17:14,2191.103120090842,2,28,0.5501165986061096,4.1232428550720215,17.946972720938618,17.553419959901163,73.14278027471993,61.89546390182897,6.47544875391759e-05,0.1075921058654785,0,0,0
5820,241188.0388728207,2011-01-21 08:17:44,2221.1182326317125,2,28,0.5501165986061096,4.12664270401001,17.951559791972237,17.553419959901163,73.16170205447553,61.89546390182897,6.47544875391759e-05,0.1075921058654785,0,0,0
5821,241218.0539800484,2011-01-21 08:18:14,2251.133339864354,2,28,0.5501165986061096,4.129880428314209,17.956146893649198,17.553419959901163,73.18063903419652,61.89546390182897,3.24249267578125e-05,0.1075921058654785,0,0,0
5822,241248.0691032608,2011-01-21 08:18:44,2281.1484630718096,2,28,0.5501165986061096,4.133279800415039,17.960734072586863,17.553419959901163,73.19959149330633,61.89546390182897,9.70840483205393e-05,0.1075921058654785,0,0,0
5823,241278.0842428892,2011-01-21 08:19:14,2311.1636026901665,2,28,0.5501165986061096,4.136517524719238,17.965321224429527,17.553419959901163,73.21855900664919,61.89546390182897,9.70840483205393e-05,0.1075921058654785,0,0,0
5824,241308.09935702904,2011-01-21 08:19:44,2341.1787168400474,2,28,0.550297200679779,4.140079021453857,17.969908441248,17.553419959901163,73.23754222031414,61.89546390182897,6.47544875391759e-05,0.1075921058654785,0,0,0
5825,241338.11443887843,2011-01-21 08:20:14,2371.193798689426,2,28,0.5501165986061096,4.143316745758057,17.974495644511457,17.553419959901163,73.25654086760544,61.89546390182897,9.70840483205393e-05,0.1075921058654785,0,0,0
5826,241368.12955087292,2011-01-21 08:20:44,2401.2089106839358,2,28,0.5499359965324402,4.146716594696045,17.979082726168546,17.553419959901163,73.27555466632535,61.89546390182897,9.71794142969884e-05,0.1075921058654785,0,0,0
5827,241398.1446465568,2011-01-21 08:21:14,2431.2240063677937,2,28,0.5501165986061096,4.150278091430664,17.98366983647682,17.553419959901163,73.29458442776277,61.89546390182897,0.0001295089750783,0.1075921058654785,0,0,0
5828,241428.1597598796,2011-01-21 08:21:44,2461.2391196705635,2,28,0.5501165986061096,4.153515815734863,17.988256964061502,17.553419959901163,73.31363006373633,61.89546390182897,3.24249267578125e-05,0.1075921058654785,0,0,0
5829,241458.17488747803,2011-01-21 08:22:14,2491.254247268963,2,28,0.5501165986061096,4.157077312469482,17.99284405328716,17.553419959901163,73.33269138560638,61.89546390182897,6.47544875391759e-05,0.1075921058654785,0,0,0
5830,241488.1899999136,2011-01-21 08:22:44,2521.2693597145967,2,28,0.5499359965324402,4.160638809204102,17.9974311504722,17.553419959901163,73.35176881228345,61.89546390182897,9.71794142969884e-05,0.1075921058654785,0,0,0
5831,241518.2053740214,2011-01-21 08:23:14,2551.2847338173606,2,28,0.550297200679779,4.164200305938721,18.002018310277144,17.553419959901163,73.3708627118025,61.89546390182897,9.71794142969884e-05,0.1075921058654785,0,0,0
5832,241548.22020464463,2011-01-21 08:23:44,2581.299564455643,2,28,0.550297200679779,4.16776180267334,18.006605355218024,17.553419959901163,73.3899723312403,61.89546390182897,0.0001295089750783,0.1075921058654785,0,0,0
5833,241578.235323,2011-01-21 08:24:14,2611.3146828110066,2,28,0.5501165986061096,4.17148494720459,18.011192409732406,17.553419959901163,73.40909858669679,61.89546390182897,9.70840483205393e-05,0.1075921058654785,0,0,0
5834,241608.25056006623,2011-01-21 08:24:44,2641.329919857182,2,28,0.5499359965324402,4.175046443939209,18.0157795679476,17.553419959901163,73.42824195483986,61.89546390182897,9.70840483205393e-05,0.1075921058654785,0,0,0
5835,241638.2658894726,2011-01-21 08:25:14,2671.3452493587865,2,28,0.5499359965324402,4.178446292877197,18.020366706060624,17.553419959901163,73.44740201489219,61.89546390182897,3.24249267578125e-05,0.1075921058654785,0,0,0
5836,241668.28064794603,2011-01-21 08:25:44,2701.3600077570254,2,28,0.5501165986061096,4.182331562042236,18.02495383128637,17.553419959901163,73.4665788772889,61.89546390182897,9.71794142969884e-05,0.1075921058654785,0,0,0
5837,241698.29576231143,2011-01-21 08:26:14,2731.3751221124185,2,28,0.550297200679779,4.186216831207275,18.029540955049363,17.553419959901163,73.48577263138131,61.89546390182897,9.71794142969884e-05,0.1075921058654785,0,0,0
5838,241728.31092593464,2011-01-21 08:26:44,2761.39028575064,2,28,0.5499359965324402,4.189778327941895,18.034128091223508,17.553419959901163,73.50498365370939,61.89546390182897,9.71794142969884e-05,0.1075921058654785,0,0,0
5839,241758.3261362893,2011-01-21 08:27:14,2791.405496080231,2,28,0.5501165986061096,4.193663597106934,18.03871528322505,17.553419959901163,73.52421217087472,61.89546390182897,9.71794142969884e-05,0.1075921058654785,0,0,0
5840,241788.34108472115,2011-01-21 08:27:44,2821.4204445321416,2,28,0.5499359965324402,4.197386741638184,18.043302366491336,17.553419959901163,73.54345760106816,61.89546390182897,9.71794142969884e-05,0.1075921058654785,0,0,0
5841,241807.5438922812,2011-01-21 08:28:03,2840.6232520921376,2,28,0.550297200679779,4.200138568878174,18.046237060781905,17.553419959901163,73.55577949996419,61.89546390182897,0.0001295089750783,0.1075921058654785,0,0,0
5842,241837.5649958507,2011-01-21 08:28:33,30.01510697199173,3,28,0.0,4.090542316436768,18.046237060781905,17.553419959901163,73.55577949996419,61.89546390182897,-0.0005180359003134,0.1075921058654785,0,0,0
5843,241867.5801345468,2011-01-21 08:29:04,60.03024564298714,3,28,0.0,4.076620101928711,18.046237060781905,17.553419959901163,73.55577949996419,61.89546390182897,-0.0002590179501567,0.1075921058654785,0,0,0
5844,241897.59523208527,2011-01-21 08:29:34,90.04534320653012,3,28,0.0,4.067716121673584,18.046237060781905,17.553419959901163,73.55577949996419,61.89546390182897,-0.0001619339018361,0.1075921058654785,0,0,0
5845,241927.56345058177,2011-01-21 08:30:03,120.01356170301366,3,28,0.0,4.0615644454956055,18.046237060781905,17.553419959901163,73.55577949996419,61.89546390182897,-0.0001295089750783,0.1075921058654785,0,0,0
5846,241927.57151379436,2011-01-21 08:30:04,2.606496191e-06,4,28,1.0296342372894287,4.199976921081543,18.046237061527385,17.553419959901163,73.5557795030952,61.89546390182897,0.0,0.1075921058654785,0,0,0
5847,241928.1183742789,2011-01-21 08:30:04,0.546863146225979,4,28,0.9788830280303956,4.199653148651123,18.04638822589019,17.553419959901163,73.55641437099356,61.89546390182897,-6.47544875391759e-05,0.1075921058654785,0,0,0
5848,241929.8995936456,2011-01-21 08:30:06,2.328082512955366,4,28,0.9283124208450316,4.199814796447754,18.04685890009607,17.553419959901163,73.55839113456443,61.89546390182897,-3.24249267578125e-05,0.1075921058654785,0,0,0
5849,241932.7276833604,2011-01-21 08:30:09,5.156172227705976,4,28,0.878283679485321,4.199814796447754,18.04756745421872,17.553419959901163,73.56136696730809,61.89546390182897,-3.24249267578125e-05,0.1075921058654785,0,0,0
5850,241936.64960180796,2011-01-21 08:30:13,9.078090640133873,4,28,0.8282548785209656,4.199814796447754,18.04849570777837,17.553419959901163,73.56526551008776,61.89546390182897,0.0,0.1075921058654785,0,0,0
5851,241941.8683061248,2011-01-21 08:30:18,14.296794977096765,4,28,0.7780455350875854,4.199976921081543,18.049658427239702,17.553419959901163,73.57014878764717,61.89546390182897,3.24249267578125e-05,0.1075921058654785,0,0,0
5852,241948.64945030265,2011-01-21 08:30:25,21.07793913985626,4,28,0.72801673412323,4.199814796447754,18.051074920671223,17.553419959901163,73.57609788257646,61.89546390182897,-3.24249267578125e-05,0.1075921058654785,0,0,0
5853,241957.6180395165,2011-01-21 08:30:34,30.04652836376816,4,28,0.6779879927635193,4.199814796447754,18.052823587160848,17.553419959901163,73.58344209031675,61.89546390182897,0.0,0.1075921058654785,0,0,0
5854,241969.99288208684,2011-01-21 08:30:46,42.42137093409728,4,28,0.6279591917991638,4.199653148651123,18.055063773520462,17.553419959901163,73.59285061665707,61.89546390182897,-3.23295607813634e-05,0.1075921058654785,0,0,0
5855,241988.58609589664,2011-01-21 08:31:05,61.014584789012616,4,28,0.5779304504394531,4.199976921081543,18.05816936045809,17.553419959901163,73.6058937196412,61.89546390182897,0.0,0.1075921058654785,0,0,0
5856,242020.91371322097,2011-01-21 08:31:37,93.3422020632191,4,28,0.5279016494750977,4.199814796447754,18.063112482863144,17.553419959901163,73.62665425970614,61.89546390182897,0.0,0.1075921058654785,0,0,0
5857,242084.7563181714,2011-01-21 08:32:41,157.18480703869645,4,28,0.4778729081153869,4.199814796447754,18.071984229655296,17.553419959901163,73.66391455273097,61.89546390182897,-3.24249267578125e-05,0.1075921058654785,0,0,0
5858,242196.02001314927,2011-01-21 08:34:32,268.4485020065394,4,28,0.4278441369533539,4.199814796447754,18.085940335102624,17.553419959901163,73.7225286515249,61.89546390182897,0.0,0.1075921058654785,0,0,0
5859,242342.16052758752,2011-01-21 08:36:58,414.58901657515656,4,28,0.3778153657913208,4.199814796447754,18.1022695360756,17.553419959901163,73.79110945824361,61.89546390182897,0.0,0.1075921058654785,0,0,0
5860,242518.3269998565,2011-01-21 08:39:54,590.7554887238193,4,28,0.3277865946292877,4.199653148651123,18.11950853188073,17.553419959901163,73.86351133617687,61.89546390182897,-6.47544875391759e-05,0.1075921058654785,0,0,0
5861,242730.80773398967,2011-01-21 08:43:27,803.2362228369167,4,28,0.2777578234672546,4.199976921081543,18.13735114325429,17.553419959901163,73.93844830194858,61.89546390182897,3.24249267578125e-05,0.1075921058654785,0,0,0
5862,242994.80322736356,2011-01-21 08:47:51,1067.2317162258244,4,28,0.2277290523052215,4.199814796447754,18.15583570049707,17.553419959901163,74.01608137972369,61.89546390182897,0.0,0.1075921058654785,0,0,0
5863,243329.84432975025,2011-01-21 08:53:26,1402.2728186175543,4,28,0.1777002811431884,4.199814796447754,18.174630272856284,17.553419959901163,74.09501637218054,61.89546390182897,-3.24249267578125e-05,0.1075921058654785,0,0,0
5864,243791.35209070792,2011-01-21 09:01:07,1863.7805795702368,4,28,0.1273102909326553,4.199653148651123,18.194058062193275,17.553419959901163,74.17661074692815,61.89546390182897,-3.23295607813634e-05,0.1075921058654785,0,0,0
5865,244537.8081791341,2011-01-21 09:13:34,2610.236667996391,4,28,0.0772815272212028,4.199976921081543,18.21483213411745,17.553419959901163,74.26385915038429,61.89546390182897,0.0,0.1075921058654785,0,0,0
5866,245276.57679782528,2011-01-21 09:25:53,3349.005286672553,4,28,0.0498289167881011,4.199814796447754,18.22769173699627,17.553419959901163,74.31786802597067,61.89546390182897,-6.47544875391759e-05,0.1075921058654785,0,0,0
5867,245306.59467704297,2011-01-21 09:26:23,30.01510565370616,5,28,0.0,4.1896162033081055,18.22769173699627,17.553419959901163,74.31786802597067,61.89546390182897,-9.71794142969884e-05,0.1075921058654785,0,0,0
5868,245336.59430971823,2011-01-21 09:26:53,60.01473831896418,5,28,0.0,4.187835693359375,18.22769173699627,17.553419959901163,74.31786802597067,61.89546390182897,-6.47544875391759e-05,0.1075921058654785,0,0,0
5869,245336.78564257792,2011-01-21 09:26:53,0.187526924797187,6,28,-1.9243103452026844e-05,4.187835693359375,18.22769173699627,17.55341996090355,74.31786802597067,61.895463906026805,0.0,0.1124458834528923,0,0,0
5870,245341.6136606495,2011-01-21 09:26:58,5.015545001388075,6,28,0.0008838032954372,4.187835693359375,18.22769291700413,17.55341996098722,74.31787296792571,61.89546390637721,-6.47544875391759e-05,0.1124458834528923,0,0,0
5871,245355.42966805256,2011-01-21 09:27:12,13.811988916221967,7,28,-1.0993878841400146,3.9877448081970215,18.22769291700413,17.557637977667095,74.31787296792571,61.91236178468639,-0.0019425868522375,0.1124458834528923,0,0,0
5872,245385.4447768942,2011-01-21 09:27:42,43.82709775286098,7,28,-1.0993878841400146,3.9304370880126953,18.22769291700413,17.566804303638232,74.31787296792571,61.948640995951926,-0.0013598442310467,0.1124458834528923,0,0,0
5873,245415.4599019563,2011-01-21 09:28:12,73.84222281493876,7,28,-1.0992072820663452,3.8844616413116455,18.22769291700413,17.575971265186386,74.31787296792571,61.98445386301571,-0.0011332035064697,0.1124458834528923,0,0,0
5874,245445.4750237653,2011-01-21 09:28:42,103.85734462892133,7,28,-1.099568486213684,3.8478753566741934,18.22769291700413,17.585138176705602,74.31787296792571,62.01988886651014,-0.0008741855854168,0.1124458834528923,0,0,0
5875,245475.49013107808,2011-01-21 09:29:12,133.87245193173757,7,28,-1.099568486213684,3.8185741901397705,18.22769291700413,17.594305113249852,74.31787296792571,62.05502310628242,-0.0007446765666827,0.1124458834528923,0,0,0
5876,245505.50523218547,2011-01-21 09:29:42,163.88755303410036,7,28,-1.0992072820663452,3.795100688934326,18.22769291700413,17.60347181949254,74.31787296792571,62.08991584718744,-0.0005504131549969,0.1124458834528923,0,0,0
5877,245535.52040512688,2011-01-21 09:30:12,193.9027260707456,7,28,-1.099568486213684,3.775350570678711,18.22769291700413,17.612638000185388,74.31787296792571,62.12460907744431,-0.0004532813909463,0.1124458834528923,0,0,0
5878,245565.53547698635,2011-01-21 09:30:42,223.91779784501367,7,28,-1.0993878841400146,3.757866859436035,18.22769291700413,17.621804094751912,74.31787296792571,62.15913188875479,-0.0004532813909463,0.1124458834528923,0,0,0
5879,245595.5508138012,2011-01-21 09:31:12,253.93313464480704,7,28,-1.0992072820663452,3.742326021194458,18.22769291700413,17.630970340401706,74.31787296792571,62.19350420937312,-0.0003561496851034,0.1124458834528923,0,0,0
5880,245625.56571590257,2011-01-21 09:31:42,283.9480367411857,7,28,-1.099568486213684,3.7277562618255615,18.22769291700413,17.640136449174893,74.31787296792571,62.22773868702694,-0.0003237724304199,0.1124458834528923,0,0,0
5881,245655.58080494488,2011-01-21 09:32:12,313.9631258035412,7,28,-1.0993878841400146,3.7146434783935542,18.22769291700413,17.64930262026862,74.31787296792571,62.26184703513339,-0.0002913951757363,0.1124458834528923,0,0,0
5882,245685.59591930028,2011-01-21 09:32:42,343.9782401438971,7,28,-1.0993878841400146,3.701692581176758,18.22769291700413,17.658468837520353,74.31787296792571,62.29583614730822,-0.0003237724304199,0.1124458834528923,0,0,0
5883,245715.61136161804,2011-01-21 09:33:12,373.9936824566612,7,28,-1.0993878841400146,3.689874887466431,18.22769291700413,17.6676351580957,74.31787296792571,62.32971217918964,-0.0002913951757363,0.1124458834528923,0,0,0
5884,245745.62612193607,2011-01-21 09:33:42,404.00844279473455,7,28,-1.0992072820663452,3.678380966186523,18.22769291700413,17.676801253380653,74.31787296792571,62.36347979930365,-0.0002590179501567,0.1124458834528923,0,0,0
5885,245775.6412345672,2011-01-21 09:34:12,434.0235554258306,7,28,-1.099568486213684,3.667372941970825,18.22769291700413,17.685967505457114,74.31787296792571,62.3971461386148,-0.0003237724304199,0.1124458834528923,0,0,0
5886,245805.6563907267,2011-01-21 09:34:42,464.0387115854128,7,28,-1.099568486213684,3.6568503379821777,18.22769291700413,17.69513380499728,74.31787296792571,62.43071405982963,-0.0002590179501567,0.1124458834528923,0,0,0
5887,245835.67159840476,2011-01-21 09:35:12,494.0539192633949,7,28,-1.0993878841400146,3.6463277339935294,18.22769291700413,17.704300042473577,74.31787296792571,62.46418619738103,-0.0003561496851034,0.1124458834528923,0,0,0
5888,245865.68657143792,2011-01-21 09:35:42,524.0688922815325,7,28,-1.0993878841400146,3.6366145610809326,18.22769291700413,17.713466186774934,74.31787296792571,62.49756524198916,-0.0002913951757363,0.1124458834528923,0,0,0
5889,245895.70168613413,2011-01-21 09:36:12,554.0840069878003,7,28,-1.0993878841400146,3.626901388168335,18.22769291700413,17.72263233089568,74.31787296792571,62.530854536166174,-0.0002266406954731,0.1124458834528923,0,0,0
5890,245925.71683585268,2011-01-21 09:36:42,584.0991567063297,7,28,-1.099568486213684,3.617188215255737,18.22769291700413,17.7317985487201,74.31787296792571,62.56405609745349,-0.0003237724304199,0.1124458834528923,0,0,0
5891,245955.731902825,2011-01-21 09:37:12,614.1142236836423,7,28,-1.0993878841400146,3.60812258720398,18.22769291700413,17.74096474555276,74.31787296792571,62.59717160472674,-0.0002266406954731,0.1124458834528923,0,0,0
5892,245985.7470129298,2011-01-21 09:37:42,644.129333788442,7,28,-1.0993878841400146,3.599218845367432,18.22769291700413,17.750131024151614,74.31787296792571,62.63020385983636,-0.0002266406954731,0.1124458834528923,0,0,0
5893,246015.7621025385,2011-01-21 09:38:12,674.1444233971591,7,28,-1.099568486213684,3.590639114379883,18.22769291700413,17.75929727021662,74.31787296792571,62.66315513573993,-0.0001942634553415,0.1124458834528923,0,0,0
5894,246045.7796185496,2011-01-21 09:38:42,704.1619394834047,7,28,-1.0993878841400146,3.581897258758545,18.22769291700413,17.768464118887454,74.31787296792571,62.69602940851557,-0.0002590179501567,0.1124458834528923,0,0,0
5895,246075.7924717043,2011-01-21 09:39:12,734.1747925479658,7,28,-1.0993878841400146,3.573641061782837,18.22769291700413,17.777629446643292,74.31787296792571,62.728820585630885,-0.0002266406954731,0.1124458834528923,0,0,0
5896,246105.80743540928,2011-01-21 09:39:42,764.1897562679293,7,28,-1.099568486213684,3.565546751022339,18.22769291700413,17.786795448947306,74.31787296792571,62.761539196775296,-0.0001942634553415,0.1124458834528923,0,0,0
5897,246135.82255537863,2011-01-21 09:40:12,794.2048762373146,7,28,-1.099568486213684,3.5577762126922607,18.22769291700413,17.79596154650897,74.31787296792571,62.79418560177452,-0.0002590179501567,0.1124458834528923,0,0,0
5898,246165.83768794945,2011-01-21 09:40:42,824.220008803094,7,28,-1.099568486213684,3.5498437881469727,18.22769291700413,17.805127807378362,74.31787296792571,62.82676137867136,-0.0002266406954731,0.1124458834528923,0,0,0
5899,246195.8529013467,2011-01-21 09:41:12,854.235222210355,7,28,-1.0993878841400146,3.5425589084625244,18.22769291700413,17.814294044743406,74.31787296792571,62.85926669895738,-0.0001942634553415,0.1124458834528923,0,0,0
5900,246225.8678906905,2011-01-21 09:41:42,884.2502115491689,7,28,-1.0993878841400146,3.535274028778076,18.22769291700413,17.823460216676747,74.31787296792571,62.89170523619211,-0.0001618862152099,0.1124458834528923,0,0,0
5901,246255.88302479516,2011-01-21 09:42:12,914.2653456537832,7,28,-1.0992072820663452,3.528474807739258,18.22769291700413,17.83262649392262,74.31787296792571,62.92407910644031,-0.0001618862152099,0.1124458834528923,0,0,0
5902,246285.89812775716,2011-01-21 09:42:42,944.2804486157808,7,28,-1.0993878841400146,3.5216755867004395,18.22769291700413,17.841792753718888,74.31787296792571,62.95638983703021,-0.0001295089750783,0.1124458834528923,0,0,0
5903,246315.9132345587,2011-01-21 09:43:12,974.2955554273728,7,28,-1.0993878841400146,3.515038251876831,18.22769291700413,17.85095902253918,74.31787296792571,62.9886398284138,-0.0001942634553415,0.1124458834528923,0,0,0
5904,246345.93055545344,2011-01-21 09:43:42,1004.3128763171288,7,28,-1.0993878841400146,3.5087249279022217,18.22769291700413,17.860125954596896,74.31787296792571,63.02083286446385,-0.0001942634553415,0.1124458834528923,0,0,0
5905,246375.94387412345,2011-01-21 09:44:12,1034.3261949821092,7,28,-1.0993878841400146,3.502573251724243,18.22769291700413,17.8692916968677,74.31787296792571,63.05296450928458,-0.0001618862152099,0.1124458834528923,0,0,0
5906,246405.95857589057,2011-01-21 09:44:42,1064.3408967492055,7,28,-1.099568486213684,3.4964215755462646,18.22769291700413,17.87845788109243,74.31787296792571,63.08504115358264,-0.0001618862152099,0.1124458834528923,0,0,0
5907,246435.97373534835,2011-01-21 09:45:12,1094.3560562972332,7,28,-1.099568486213684,3.490269899368286,18.22769291700413,17.887624182494346,74.31787296792571,63.11706255633933,-0.0001942634553415,0.1124458834528923,0,0,0
5908,246465.9888286513,2011-01-21 09:45:42,1124.3711495099324,7,28,-1.0993878841400146,3.4847657680511475,18.22769291700413,17.896790427788506,74.31787296792571,63.14903041140035,-0.0001295089750783,0.1124458834528923,0,0,0
5909,246496.00389464112,2011-01-21 09:46:12,1154.3862154997842,7,28,-1.0993878841400146,3.479099750518799,18.22769291700413,17.905956678483445,74.31787296792571,63.1809468002368,-0.0001618862152099,0.1124458834528923,0,0,0
5910,246526.01914194788,2011-01-21 09:46:43,1184.401462816558,7,28,-1.0993878841400146,3.47375750541687,18.22769291700413,17.915122857581384,74.31787296792571,63.21281209194088,-9.713172767078504e-05,0.1124458834528923,0,0,0
5911,246556.03411749733,2011-01-21 09:47:13,1214.4164383559796,7,28,-1.0993878841400146,3.4677677154541016,18.22769291700413,17.924288997906423,74.31787296792571,63.24462628844594,-0.0002266406954731,0.1124458834528923,0,0,0
5912,246586.04924585263,2011-01-21 09:47:43,1244.4315667062526,7,28,-1.0993878841400146,3.462263584136963,18.22769291700413,17.933455230475612,74.31787296792571,63.27638954249888,-0.0001618862152099,0.1124458834528923,0,0,0
5913,246616.06434800252,2011-01-21 09:48:13,1274.4466688662517,7,28,-1.0993878841400146,3.456759452819824,18.22769291700413,17.942621375014415,74.31787296792571,63.30810015671308,-0.0001618862152099,0.1124458834528923,0,0,0
5914,246646.07946710484,2011-01-21 09:48:43,1304.4617879584505,7,28,-1.0992072820663452,3.451093435287476,18.22769291700413,17.951787649732104,74.31787296792571,63.33975807647216,-0.0001295089750783,0.1124458834528923,0,0,0
5915,246676.0945970741,2011-01-21 09:49:13,1334.476917917733,7,28,-1.0993878841400146,3.444941759109497,18.22769291700413,17.96095381528448,74.31787296792571,63.37136220249838,-0.0001942634553415,0.1124458834528923,0,0,0
5916,246706.10968572044,2011-01-21 09:49:43,1364.4920065790895,7,28,-1.099568486213684,3.4387900829315186,18.22769291700413,17.970119986659054,74.31787296792571,63.40291142558869,-0.0001942634553415,0.1124458834528923,0,0,0
5917,246736.1249118544,2011-01-21 09:50:13,1394.507232698032,7,28,-1.0993878841400146,3.43263840675354,18.22769291700413,17.979286261628932,74.31787296792571,63.43440496528446,-0.0001618862152099,0.1124458834528923,0,0,0
5918,246766.1399136543,2011-01-21 09:50:43,1424.52223451294,7,28,-1.0992072820663452,3.4261631965637207,18.22769291700413,17.988452473129076,74.31787296792571,63.46583972074615,-0.0001618862152099,0.1124458834528923,0,0,0
5919,246796.15508588392,2011-01-21 09:51:13,1454.5374067325488,7,28,-1.0993878841400146,3.4193639755249023,18.22769291700413,17.997618821091546,74.31787296792571,63.49721358472088,-0.0001618862152099,0.1124458834528923,0,0,0
5920,246826.1702132718,2011-01-21 09:51:43,1484.5525342056355,7,28,-1.0992072820663452,3.412240982055664,18.22769291700413,18.00678505146045,74.31787296792571,63.52852363871485,-0.0001618862152099,0.1124458834528923,0,0,0
5921,246856.18515410472,2011-01-21 09:52:13,1514.5674749633702,7,28,-1.0993878841400146,3.404632329940796,18.22769291700413,18.01595123915245,74.31787296792571,63.55976535422748,-0.0002590179501567,0.1124458834528923,0,0,0
5922,246886.2003846547,2011-01-21 09:52:43,1544.582705508344,7,28,-1.0992072820663452,3.397023677825928,18.22769291700413,18.02511750898436,74.31787296792571,63.59093796332403,-0.0001618862152099,0.1124458834528923,0,0,0
5923,246916.2154862934,2011-01-21 09:53:13,1574.5978071520558,7,28,-1.0993878841400146,3.3886055946350098,18.22769291700413,18.034283797861224,74.31787296792571,63.62203795473442,-0.0002266406954731,0.1124458834528923,0,0,0
5924,246946.2305940574,2011-01-21 09:53:43,1604.6129149160215,7,28,-1.0993878841400146,3.379378080368042,18.22769291700413,18.04345004824006,74.31787296792571,63.65305682698921,-0.0002913951757363,0.1124458834528923,0,0,0
5925,246976.24570118976,2011-01-21 09:54:13,1634.6280220333754,7,28,-1.0993878841400146,3.3698267936706543,18.22769291700413,18.05261625451097,74.31787296792571,63.68398989379046,-0.0002590179501567,0.1124458834528923,0,0,0
5926,247006.261081904,2011-01-21 09:54:43,1664.6434027476173,7,28,-1.0993878841400146,3.358818531036377,18.22769291700413,18.0617826374609,74.31787296792571,63.71482936920306,-0.0003237724304199,0.1124458834528923,0,0,0
5927,247036.27593358973,2011-01-21 09:55:13,1694.6582544584196,7,28,-1.099568486213684,3.346515417098999,18.22769291700413,18.07094885462075,74.31787296792571,63.7455618034351,-0.0003561496851034,0.1124458834528923,0,0,0
5928,247066.2910382209,2011-01-21 09:55:43,1724.6733590895772,7,28,-1.0993878841400146,3.3329169750213623,18.22769291700413,18.08011510503804,74.31787296792571,63.77617560149302,-0.0003561496851034,0.1124458834528923,0,0,0
5929,247096.30616868145,2011-01-21 09:56:13,1754.6884895400844,7,28,-1.099568486213684,3.3159189224243164,18.22769291700413,18.089281399222227,74.31787296792571,63.80664815394795,-0.0004532813909463,0.1124458834528923,0,0,0
5930,247126.3212734028,2011-01-21 09:56:43,1784.7035942614673,7,28,-1.0993878841400146,3.296654462814331,18.22769291700413,18.09844754621702,74.31787296792571,63.83695535363316,-0.0005180359003134,0.1124458834528923,0,0,0
5931,247156.33637831468,2011-01-21 09:57:13,1814.718699173324,7,28,-1.099568486213684,3.2733428478240967,18.22769291700413,18.1076137220723,74.31787296792571,63.86707085692159,-0.0007122993702068,0.1124458834528923,0,0,0
5932,247186.35148282556,2011-01-21 09:57:43,1844.733803684182,7,28,-1.099568486213684,3.2450129985809326,18.22769291700413,18.11677996172304,74.31787296792571,63.89695162794535,-0.0008741855854168,0.1124458834528923,0,0,0
5933,247216.3665939228,2011-01-21 09:58:13,1874.7489147814551,7,28,-1.099568486213684,3.2090742588043213,18.22769291700413,18.125946150170968,74.31787296792571,63.92653885172005,-0.0010684489971026,0.1124458834528923,0,0,0
5934,247246.38171842849,2011-01-21 09:58:43,1904.7640392871465,7,28,-1.0993878841400146,3.161479949951172,18.22769291700413,18.135112363540667,74.31787296792571,63.955746442116734,-0.0014245987404137,0.1124458834528923,0,0,0
5935,247276.3968558213,2011-01-21 09:59:13,1934.7791766599064,7,28,-1.0993878841400146,3.0965638160705566,18.22769291700413,18.144278658500184,74.31787296792571,63.98444374741808,-0.0019750117789953,0.1124458834528923,0,0,0
5936,247306.4119693045,2011-01-21 09:59:43,1964.7942902534007,7,28,-1.0993878841400146,3.0033175945281982,18.22769291700413,18.153444893412825,74.31787296792571,64.01242765089553,-0.0029139518737792,0.1124458834528923,0,0,0
5937,247336.42705563505,2011-01-21 10:00:13,1994.8093764887103,7,28,-1.0992072820663452,2.86409592628479,18.22769291700413,18.162611146240263,74.31787296792571,64.03936243733109,-0.0043708803132176,0.1124458834528923,0,0,0
5938,247362.37974481692,2011-01-21 10:00:39,2020.762065675607,7,28,-1.0993878841400146,2.699943780899048,18.22769291700413,18.17053678096344,74.31787296792571,64.0614359658883,-0.0054717063903808,0.1124458834528923,0,0,0
5939,247422.4018019054,2011-01-21 10:01:39,60.01473123129955,8,28,0.0,3.614598035812378,18.22769291700413,18.17053678096344,74.31787296792571,64.0614359658883,0.0012950897216796,0.1124458834528923,0,0,0
5940,247422.59739865572,2011-01-21 10:01:39,0.187365707995311,9,28,0.0001613661734154,3.614759922027588,18.2276929254026,18.17053678096344,74.31787299828416,64.0614359658883,0.0,0.1069762408733367,0,0,0
5941,247427.42543478732,2011-01-21 10:01:44,5.015401839584811,9,28,0.0008838032954372,3.622206687927246,18.227694074741176,18.17053678096344,74.3178771577994,64.0614359658883,0.0010360718006268,0.1069762408733367,0,0,0
