Data_Point,Test_Time(s),Date_Time,Step_Time(s),Step_Index,Cycle_Index,Current(A),Voltage(V),Charge_Capacity(Ah),Discharge_Capacity(Ah),Charge_Energy(Wh),Discharge_Energy(Wh),dV/dt(V/s),Internal_Resistance(Ohm),Is_FC_Data,AC_Impedance(Ohm),ACI_Phase_Angle(Deg)
3701,152321.4136558919,2011-01-20 07:36:25,30.01514295667664,1,18,0.0,3.6492416858673096,11.326499505732066,11.286986560342545,46.13252187498358,39.88343257455357,0.0006151676061563,0.1085970923304557,0,0,0
3702,152351.4289707921,2011-01-20 07:36:55,60.03045794711434,1,18,0.0,3.668829917907715,11.326499505732066,11.286986560342545,46.13252187498358,39.88343257455357,0.0004856586456298,0.1085970923304557,0,0,0
3703,152381.4438324928,2011-01-20 07:37:25,90.04531956260217,1,18,0.0,3.682104349136353,11.326499505732066,11.286986560342545,46.13252187498358,39.88343257455357,0.0003237724304199,0.1085970923304557,0,0,0
3704,152411.4120661671,2011-01-20 07:37:55,120.01355322187608,1,18,0.0,3.69197940826416,11.326499505732066,11.286986560342545,46.13252187498358,39.88343257455357,0.0002266406954731,0.1085970923304557,0,0,0
3705,152441.4225817094,2011-01-20 07:38:25,30.01510932786329,2,18,0.5501165986061096,3.8142032623291016,11.331085818397783,11.286986560342545,46.14992862894792,39.88343257455357,0.0007770538213662,0.1085970923304557,0,0,0
3706,152471.43770714238,2011-01-20 07:38:55,60.030234785928,2,18,0.5501165986061096,3.834762573242188,11.33567213621584,11.286986560342545,46.16747276725972,39.88343257455357,0.000453233718872,0.1085970923304557,0,0,0
3707,152501.45291858976,2011-01-20 07:39:25,90.04544622327957,2,18,0.550297200679779,3.848846673965454,11.340258448279894,11.286986560342545,46.18509376861554,39.88343257455357,0.0003237724304199,0.1085970923304557,0,0,0
3708,152531.4680468498,2011-01-20 07:39:55,120.0605744783152,2,18,0.5501165986061096,3.859854936599731,11.344844760087312,11.286986560342545,46.202771485529496,39.88343257455357,0.0002913951757363,0.1085970923304557,0,0,0
3709,152561.48301722133,2011-01-20 07:40:25,150.07554484484405,2,18,0.5501165986061096,3.869568109512329,11.349431082027422,11.286986560342545,46.22049630716708,39.88343257455357,0.0002590179501567,0.1085970923304557,0,0,0
3710,152591.49811728613,2011-01-20 07:40:55,180.0906449046084,2,18,0.5501165986061096,3.877824306488037,11.354016559901082,11.286986560342545,46.23825905663213,39.88343257455357,0.0001942634553415,0.1085970923304557,0,0,0
3711,152621.51324726545,2011-01-20 07:41:25,210.105774888954,2,18,0.5499359965324402,3.885756731033325,11.358602098405411,11.286986560342545,46.25605923559687,39.88343257455357,0.0002266406954731,0.1085970923304557,0,0,0
3712,152651.52835793165,2011-01-20 07:41:55,240.12088555014031,2,18,0.550297200679779,3.892879724502564,11.363188489708207,11.286986560342545,46.27389711234169,39.88343257455357,0.0001942634553415,0.1085970923304557,0,0,0
3713,152681.5434769587,2011-01-20 07:42:25,270.1360045721645,2,18,0.550297200679779,3.899517059326172,11.3677748353015,11.286986560342545,46.291766229111786,39.88343257455357,0.0001618862152099,0.1085970923304557,0,0,0
3714,152711.55870917783,2011-01-20 07:42:55,300.15123680133564,2,18,0.5499359965324402,3.9056687355041504,11.372361167430984,11.286986560342545,46.30966482373904,39.88343257455357,0.0001942634553415,0.1085970923304557,0,0,0
3715,152741.57371818565,2011-01-20 07:43:25,330.1662458191955,2,18,0.5501165986061096,3.911658525466919,11.376947426002204,11.286986560342545,46.3275912348765,39.88343257455357,0.0001618862152099,0.1085970923304557,0,0,0
3716,152771.58881371917,2011-01-20 07:43:55,360.181341332629,2,18,0.5501165986061096,3.917324304580689,11.381533746834684,11.286986560342545,46.345544601547296,39.88343257455357,0.0001295089750783,0.1085970923304557,0,0,0
3717,152801.60405340188,2011-01-20 07:44:25,390.19658102540177,2,18,0.550297200679779,3.922828435897827,11.386120068970415,11.286986560342545,46.363523559380994,39.88343257455357,0.0001295089750783,0.1085970923304557,0,0,0
3718,152831.60540651003,2011-01-20 07:44:55,420.1979341485703,2,18,0.5501165986061096,3.928008794784546,11.390704366143764,11.286986560342545,46.38151912201127,39.88343257455357,0.0001295089750783,0.1085970923304557,0,0,0
3719,152861.61879864312,2011-01-20 07:45:25,450.2113262766434,2,18,0.5501165986061096,3.933027267456055,11.395290384472126,11.286986560342545,46.39954494081934,39.88343257455357,9.713172767078504e-05,0.1085970923304557,0,0,0
3720,152891.6336810404,2011-01-20 07:45:55,480.2262086639008,2,18,0.5501165986061096,3.9378838539123535,11.399876726306712,11.286986560342545,46.41759450612059,39.88343257455357,0.0001295089750783,0.1085970923304557,0,0,0
3721,152921.648734499,2011-01-20 07:46:25,510.24126211750826,2,18,0.5499359965324402,3.9425785541534415,11.404463037370624,11.286986560342545,46.43566556147205,39.88343257455357,0.0001618862152099,0.1085970923304557,0,0,0
3722,152951.66386176657,2011-01-20 07:46:55,540.2563893850829,2,18,0.5501165986061096,3.946787595748901,11.40904937979025,11.286986560342545,46.45375733822286,39.88343257455357,6.47544875391759e-05,0.1085970923304557,0,0,0
3723,152981.67909888795,2011-01-20 07:47:25,570.2716265264968,2,18,0.5499359965324402,3.9511585235595694,11.413635714762572,11.286986560342545,46.471868656073525,39.88343257455357,0.0001295089750783,0.1085970923304557,0,0,0
3724,153011.69406670312,2011-01-20 07:47:55,600.286594341667,2,18,0.5499359965324402,3.9552056789398193,11.418221988327703,11.286986560342545,46.48999855290752,39.88343257455357,0.0001618862152099,0.1085970923304557,0,0,0
3725,153041.7091721814,2011-01-20 07:48:25,630.3016997948733,2,18,0.5501165986061096,3.958929061889648,11.422808307431843,11.286986560342545,46.508146587424655,39.88343257455357,0.0001295089750783,0.1085970923304557,0,0,0
3726,153071.724305474,2011-01-20 07:48:55,660.3168330924766,2,18,0.550297200679779,3.9626524448394775,11.427394616867806,11.286986560342545,46.52631188537908,39.88343257455357,9.713172767078504e-05,0.1085970923304557,0,0,0
3727,153101.7394241251,2011-01-20 07:49:25,690.3319517686388,2,18,0.5501165986061096,3.966375827789306,11.431980931372328,11.286986560342545,46.54449398685389,39.88343257455357,0.0001295089750783,0.1085970923304557,0,0,0
3728,153131.7545113228,2011-01-20 07:49:55,720.347038946297,2,18,0.5501165986061096,3.969775438308716,11.43656730570339,11.286986560342545,46.5626924748375,39.88343257455357,9.713172767078504e-05,0.1085970923304557,0,0,0
3729,153161.76961656546,2011-01-20 07:50:25,750.3621441889787,2,18,0.5501165986061096,3.973013162612915,11.441153653336864,11.286986560342545,46.58090636546216,39.88343257455357,9.713172767078504e-05,0.1085970923304557,0,0,0
3730,153191.787105885,2011-01-20 07:50:55,780.3796336388383,2,18,0.5499359965324402,3.976250886917114,11.445740459460424,11.286986560342545,46.59913729999097,39.88343257455357,0.0001295089750783,0.1085970923304557,0,0,0
3731,153221.79985091533,2011-01-20 07:51:25,810.3923785438324,2,18,0.5499359965324402,3.979650497436523,11.450326490295256,11.286986560342545,46.61737985157272,39.88343257455357,0.0001295089750783,0.1085970923304557,0,0,0
3732,153251.81495310538,2011-01-20 07:51:55,840.407480733906,2,18,0.5501165986061096,3.9827263355255127,11.45491282694988,11.286986560342545,46.63563868372128,39.88343257455357,9.713172767078504e-05,0.1085970923304557,0,0,0
3733,153281.8300847288,2011-01-20 07:52:25,870.4226123473119,2,18,0.5499359965324402,3.985802173614502,11.459499134665451,11.286986560342545,46.65391162330487,39.88343257455357,9.713172767078504e-05,0.1085970923304557,0,0,0
3734,153311.84529762983,2011-01-20 07:52:55,900.4378253736235,2,18,0.5501165986061096,3.988716125488281,11.464085489741285,11.286986560342545,46.67219883170476,39.88343257455357,3.237724376958795e-05,0.1085970923304557,0,0,0
3735,153341.86028812153,2011-01-20 07:53:25,930.4528157550355,2,18,0.5501165986061096,3.991953849792481,11.468671636369336,11.286986560342545,46.690499123299794,39.88343257455357,0.0001295089750783,0.1085970923304557,0,0,0
3736,153371.87539635162,2011-01-20 07:53:55,960.467923965113,2,18,0.5501165986061096,3.9948675632476807,11.473257831779447,11.286986560342545,46.70881343453044,39.88343257455357,9.713172767078504e-05,0.1085970923304557,0,0,0
3737,153401.89052636104,2011-01-20 07:54:25,990.4830539895586,2,18,0.5501165986061096,3.99761962890625,11.477844094988807,11.286986560342545,46.72714147814395,39.88343257455357,3.237724376958795e-05,0.1085970923304557,0,0,0
3738,153431.9074448078,2011-01-20 07:54:55,1020.4999724312904,2,18,0.5499359965324402,4.000533580780029,11.482430616608353,11.286986560342545,46.74548386904935,39.88343257455357,9.70840483205393e-05,0.1085970923304557,0,0,0
3739,153461.92086229404,2011-01-20 07:55:25,1050.513389952651,2,18,0.5499359965324402,4.003609657287598,11.487016643348232,11.286986560342545,46.76383768320286,39.88343257455357,6.47544875391759e-05,0.1085970923304557,0,0,0
3740,153491.9380994501,2011-01-20 07:55:55,1080.530627208967,2,18,0.5501165986061096,4.006361484527588,11.491603250682797,11.286986560342545,46.782207096449405,39.88343257455357,3.23295607813634e-05,0.1085970923304557,0,0,0
3741,153521.9509893866,2011-01-20 07:56:25,1110.5435170351493,2,18,0.5501165986061096,4.009437561035156,11.496189259618635,11.286986560342545,46.80058735292612,39.88343257455357,9.71794142969884e-05,0.1085970923304557,0,0,0
3742,153551.96608401783,2011-01-20 07:56:55,1140.558611636309,2,18,0.5499359965324402,4.012027740478516,11.500775480838636,11.286986560342545,46.8189814612475,39.88343257455357,9.71794142969884e-05,0.1085970923304557,0,0,0
3743,153581.98118634822,2011-01-20 07:57:25,1170.5737139717453,2,18,0.5501165986061096,4.014941692352295,11.50536171292064,11.286986560342545,46.83738859951859,39.88343257455357,6.47544875391759e-05,0.1085970923304557,0,0,0
3744,153611.99628314486,2011-01-20 07:57:55,1200.5888107583517,2,18,0.5501165986061096,4.017855644226074,11.509947984139895,11.286986560342545,46.85580869756917,39.88343257455357,9.71794142969884e-05,0.1085970923304557,0,0,0
3745,153642.0115195645,2011-01-20 07:58:25,1230.6040471879917,2,18,0.5501165986061096,4.020445823669434,11.514534295100091,11.286986560342545,46.8742416211093,39.88343257455357,6.47544875391759e-05,0.1085970923304557,0,0,0
3746,153672.02665717283,2011-01-20 07:58:56,1260.6191848163887,2,18,0.5499359965324402,4.023197650909424,11.519120532650398,11.286986560342545,46.89268702201479,39.88343257455357,3.23295607813634e-05,0.1085970923304557,0,0,0
3747,153702.04175175395,2011-01-20 07:59:26,1290.6342793774484,2,18,0.5499359965324402,4.025949954986572,11.523706750116354,11.286986560342545,46.91114497237045,39.88343257455357,6.47544875391759e-05,0.1085970923304557,0,0,0
3748,153732.05687400402,2011-01-20 07:59:56,1320.6494016275178,2,18,0.550297200679779,4.028863906860352,11.528292950798486,11.286986560342545,46.92961543914126,39.88343257455357,6.47544875391759e-05,0.1085970923304557,0,0,0
3749,153762.0718503254,2011-01-20 08:00:26,1350.6643779438757,2,18,0.5499359965324402,4.031615734100342,11.532879181214852,11.286986560342545,46.948098338375885,39.88343257455357,6.47544875391759e-05,0.1085970923304557,0,0,0
3750,153792.08696290635,2011-01-20 08:00:56,1380.6794905248466,2,18,0.5497553944587708,4.03404426574707,11.537465416440316,11.286986560342545,46.96659367595343,39.88343257455357,3.24249267578125e-05,0.1085970923304557,0,0,0
3751,153822.10206365786,2011-01-20 08:01:26,1410.6945912813474,2,18,0.5501165986061096,4.0367960929870605,11.54205165991679,11.286986560342545,46.98510139436866,39.88343257455357,9.71794142969884e-05,0.1085970923304557,0,0,0
3752,153852.11718630392,2011-01-20 08:01:56,1440.7097139173788,2,18,0.5501165986061096,4.03971004486084,11.546637904522353,11.286986560342545,47.003621437013,39.88343257455357,0.0001295089750783,0.1085970923304557,0,0,0
3753,153882.13228789243,2011-01-20 08:02:26,1470.724815510966,2,18,0.5499359965324402,4.04213809967041,11.551224133729075,11.286986560342545,47.02215365089557,39.88343257455357,6.47544875391759e-05,0.1085970923304557,0,0,0
3754,153912.147453265,2011-01-20 08:02:56,1500.7399808935347,2,18,0.5501165986061096,4.044890403747559,11.555810334909603,11.286986560342545,47.040698195624735,39.88343257455357,6.47544875391759e-05,0.1085970923304557,0,0,0
3755,153942.16266218107,2011-01-20 08:03:26,1530.7551898146148,2,18,0.5499359965324402,4.047642230987549,11.560396546137977,11.286986560342545,47.05925514807672,39.88343257455357,9.70840483205393e-05,0.1085970923304557,0,0,0
3756,153972.17762833711,2011-01-20 08:03:56,1560.7701559556124,2,18,0.5501165986061096,4.050232410430908,11.564982788445528,11.286986560342545,47.07782458909226,39.88343257455357,6.47544875391759e-05,0.1085970923304557,0,0,0
3757,154002.1928591177,2011-01-20 08:04:26,1590.7853867812858,2,18,0.5499359965324402,4.052984714508057,11.569568984545128,11.286986560342545,47.09640605834705,39.88343257455357,0.0001295089750783,0.1085970923304557,0,0,0
3758,154032.20787400517,2011-01-20 08:04:56,1620.8004016487243,2,18,0.5501165986061096,4.055574893951416,11.57415526722948,11.286986560342545,47.1150002968406,39.88343257455357,6.47544875391759e-05,0.1085970923304557,0,0,0
3759,154062.2091375651,2011-01-20 08:05:26,1650.8016651836117,2,18,0.550297200679779,4.058488845825195,11.578739392705288,11.286986560342545,47.133598155191805,39.88343257455357,9.71794142969884e-05,0.1085970923304557,0,0,0
3760,154092.22250078115,2011-01-20 08:05:56,1680.8150283996267,2,18,0.5501165986061096,4.060755252838135,11.583325442299078,11.286986560342545,47.15221616713209,39.88343257455357,0.0,0.1085970923304557,0,0,0
3761,154122.23772279487,2011-01-20 08:06:26,1710.8302504183505,2,18,0.550297200679779,4.063830852508545,11.587911645406452,11.286986560342545,47.17084693450717,39.88343257455357,9.70840483205393e-05,0.1085970923304557,0,0,0
3762,154152.25266462527,2011-01-20 08:06:56,1740.8451922487584,2,18,0.5501165986061096,4.066583156585693,11.592497835935989,11.286986560342545,47.1894902435615,39.88343257455357,6.47544875391759e-05,0.1085970923304557,0,0,0
3763,154182.2679916557,2011-01-20 08:07:26,1770.860519274191,2,18,0.5501165986061096,4.069334983825684,11.5970840973362,11.286986560342545,47.208146421755934,39.88343257455357,9.70840483205393e-05,0.1085970923304557,0,0,0
3764,154212.28288883483,2011-01-20 08:07:56,1800.8754164533143,2,18,0.5499359965324402,4.071925163269043,11.601670252110583,11.286986560342545,47.22681482647823,39.88343257455357,3.23295607813634e-05,0.1085970923304557,0,0,0
3765,154242.297991065,2011-01-20 08:08:26,1830.890518678476,2,18,0.5499359965324402,4.074677467346191,11.606256421911777,11.286986560342545,47.2454959761361,39.88343257455357,6.47544875391759e-05,0.1085970923304557,0,0,0
3766,154272.31310654318,2011-01-20 08:08:56,1860.905634156668,2,18,0.5501165986061096,4.077429294586182,11.610842606963708,11.286986560342545,47.26418999143649,39.88343257455357,6.47544875391759e-05,0.1085970923304557,0,0,0
3767,154302.32823668793,2011-01-20 08:09:26,1890.920764321463,2,18,0.5499359965324402,4.080343246459961,11.615428810331055,11.286986560342545,47.28289702899949,39.88343257455357,6.47544875391759e-05,0.1085970923304557,0,0,0
3768,154332.34332730414,2011-01-20 08:09:56,1920.935854922653,2,18,0.5501165986061096,4.08325719833374,11.620014995247445,11.286986560342545,47.30161688992899,39.88343257455357,6.47544875391759e-05,0.1085970923304557,0,0,0
3769,154362.35843082756,2011-01-20 08:10:26,1950.9509584711127,2,18,0.5501165986061096,4.086333274841309,11.624601214163574,11.286986560342545,47.32035001381984,39.88343257455357,0.0001295089750783,0.1085970923304557,0,0,0
3770,154392.3735460451,2011-01-20 08:10:56,1980.9660736635924,2,18,0.5501165986061096,4.088923454284668,11.629187452996986,11.286986560342545,47.33909633499759,39.88343257455357,9.71794142969884e-05,0.1085970923304557,0,0,0
3771,154422.38870029492,2011-01-20 08:11:26,2010.9812279184275,2,18,0.550297200679779,4.091837406158447,11.633773678670106,11.286986560342545,47.35785591984403,39.88343257455357,6.47544875391759e-05,0.1085970923304557,0,0,0
3772,154452.40380061034,2011-01-20 08:11:56,2040.9963282488663,2,18,0.5501165986061096,4.094751358032227,11.638359843290804,11.286986560342545,47.37662860927339,39.88343257455357,6.47544875391759e-05,0.1085970923304557,0,0,0
3773,154482.41887429435,2011-01-20 08:12:26,2071.011401907832,2,18,0.5499359965324402,4.097665309906006,11.64294607666287,11.286986560342545,47.39541521595346,39.88343257455357,6.47544875391759e-05,0.1085970923304557,0,0,0
3774,154512.4340092411,2011-01-20 08:12:56,2101.0265368595574,2,18,0.5499359965324402,4.100740909576416,11.647532277004313,11.286986560342545,47.41421536709895,39.88343257455357,9.70840483205393e-05,0.1085970923304557,0,0,0
3775,154542.44911842357,2011-01-20 08:13:26,2131.041646037046,2,18,0.5501165986061096,4.103816986083984,11.652118487416848,11.286986560342545,47.433029266550975,39.88343257455357,9.71794142969884e-05,0.1085970923304557,0,0,0
3776,154572.4642126137,2011-01-20 08:13:56,2161.0567402321944,2,18,0.5499359965324402,4.1068925857543945,11.65670470750734,11.286986560342545,47.451857095079056,39.88343257455357,9.70840483205393e-05,0.1085970923304557,0,0,0
3777,154602.4793280869,2011-01-20 08:14:26,2191.071855700361,2,18,0.5499359965324402,4.109806537628174,11.661290908071216,11.286986560342545,47.470698812339286,39.88343257455357,6.47544875391759e-05,0.1085970923304557,0,0,0
3778,154632.49456665685,2011-01-20 08:14:56,2221.0870942903853,2,18,0.5501165986061096,4.113044261932373,11.665877198018412,11.286986560342545,47.48955500364836,39.88343257455357,9.70840483205393e-05,0.1085970923304557,0,0,0
3779,154662.5113700719,2011-01-20 08:15:26,2251.1038977004223,2,18,0.5501165986061096,4.115958213806152,11.670463680485309,11.286986560342545,47.50842616319862,39.88343257455357,6.47544875391759e-05,0.1085970923304557,0,0,0
3780,154692.5248215379,2011-01-20 08:15:56,2281.1173491563586,2,18,0.5501165986061096,4.119195938110352,11.675049671711752,11.286986560342545,47.52730968689832,39.88343257455357,6.47544875391759e-05,0.1085970923304557,0,0,0
3781,154722.53979581918,2011-01-20 08:16:26,2311.132323462707,2,18,0.5501165986061096,4.122433662414551,11.679635895700692,11.286986560342545,47.5462087040767,39.88343257455357,9.71794142969884e-05,0.1085970923304557,0,0,0
3782,154752.55491530235,2011-01-20 08:16:56,2341.147442920818,2,18,0.5499359965324402,4.12567138671875,11.684222140348368,11.286986560342545,47.56512236923501,39.88343257455357,9.71794142969884e-05,0.1085970923304557,0,0,0
3783,154782.5700129962,2011-01-20 08:17:26,2371.162540609673,2,18,0.5501165986061096,4.12874698638916,11.688808435737942,11.286986560342545,47.58405111946907,39.88343257455357,3.23295607813634e-05,0.1085970923304557,0,0,0
3784,154812.58537506397,2011-01-20 08:17:56,2401.177902702505,2,18,0.5499359965324402,4.132146835327148,11.693394780142324,11.286986560342545,47.60299500486092,39.88343257455357,9.71794142969884e-05,0.1085970923304557,0,0,0
3785,154842.60021271973,2011-01-20 08:18:26,2431.192740353265,2,18,0.5499359965324402,4.135384559631348,11.697981054371274,11.286986560342545,47.621953645903474,39.88343257455357,6.47544875391759e-05,0.1085970923304557,0,0,0
3786,154872.61532047368,2011-01-20 08:18:56,2461.207848112218,2,18,0.5499359965324402,4.138783931732178,11.702567399082485,11.286986560342545,47.64092777352209,39.88343257455357,9.70840483205393e-05,0.1085970923304557,0,0,0
3787,154902.63044575127,2011-01-20 08:19:26,2491.222973379808,2,18,0.5501165986061096,4.142021656036377,11.70715370172496,11.286986560342545,47.659917114765925,39.88343257455357,6.47544875391759e-05,0.1085970923304557,0,0,0
3788,154932.64568900294,2011-01-20 08:19:56,2521.238216636463,2,18,0.5499359965324402,4.145421504974365,11.711740004169748,11.286986560342545,47.67892194859023,39.88343257455357,6.47544875391759e-05,0.1085970923304557,0,0,0
3789,154962.66063259775,2011-01-20 08:20:26,2551.2531602412937,2,18,0.5501165986061096,4.149144649505615,11.716326214253488,11.286986560342545,47.69794227199136,39.88343257455357,0.0001295089750783,0.1085970923304557,0,0,0
3790,154992.67573925894,2011-01-20 08:20:56,2581.268266897498,2,18,0.5499359965324402,4.152382373809815,11.720912393644436,11.286986560342545,47.71697819220518,39.88343257455357,9.70840483205393e-05,0.1085970923304557,0,0,0
3791,155022.6908624915,2011-01-20 08:21:26,2611.283390125004,2,18,0.5501165986061096,4.156105995178223,11.725498525673853,11.286986560342545,47.73602964639376,39.88343257455357,0.0001295089750783,0.1085970923304557,0,0,0
3792,155052.70596297728,2011-01-20 08:21:56,2641.2984906258675,2,18,0.5499359965324402,4.159181594848633,11.730084671173165,11.286986560342545,47.755097027616834,39.88343257455357,6.47544875391759e-05,0.1085970923304557,0,0,0
3793,155082.72107442547,2011-01-20 08:22:26,2671.313602038928,2,18,0.5499359965324402,4.162905216217041,11.734670830825836,11.286986560342545,47.77418046951436,39.88343257455357,9.71794142969884e-05,0.1085970923304557,0,0,0
3794,155112.7363986188,2011-01-20 08:22:56,2701.3289262373146,2,18,0.5501165986061096,4.16646671295166,11.739257094306248,11.286986560342545,47.79328044568581,39.88343257455357,9.71794142969884e-05,0.1085970923304557,0,0,0
3795,155142.75347988636,2011-01-20 08:23:26,2731.346007504858,2,18,0.5501165986061096,4.16986608505249,11.743843591343945,11.286986560342545,47.81239767694104,39.88343257455357,6.47544875391759e-05,0.1085970923304557,0,0,0
3796,155172.76643257422,2011-01-20 08:23:56,2761.358960212761,2,18,0.5499359965324402,4.173589706420898,11.748429481090549,11.286986560342545,47.83152891770037,39.88343257455357,9.71794142969884e-05,0.1085970923304557,0,0,0
3797,155202.78152024813,2011-01-20 08:24:26,2791.374047876631,2,18,0.5499359965324402,4.177151203155518,11.753015689395657,11.286986560342545,47.850678112593975,39.88343257455357,9.71794142969884e-05,0.1085970923304557,0,0,0
3798,155232.79664360595,2011-01-20 08:24:56,2821.389171239474,2,18,0.5497553944587708,4.180712699890137,11.75760196542512,11.286986560342545,47.86984444347065,39.88343257455357,6.47544875391759e-05,0.1085970923304557,0,0,0
3799,155262.81353739122,2011-01-20 08:25:26,2851.406065014729,2,18,0.5501165986061096,4.184597969055176,11.762188567066213,11.286986560342545,47.88902904489509,39.88343257455357,6.47544875391759e-05,0.1085970923304557,0,0,0
3800,155292.8268633895,2011-01-20 08:25:56,2881.419391002961,2,18,0.5501165986061096,4.188321113586426,11.766774530716692,11.286986560342545,47.90822785783232,39.88343257455357,9.70840483205393e-05,0.1085970923304557,0,0,0
3801,155322.84196151944,2011-01-20 08:26:26,2911.434489142941,2,18,0.5501165986061096,4.192044734954834,11.771360734690216,11.286986560342545,47.92744486320745,39.88343257455357,9.71794142969884e-05,0.1085970923304557,0,0,0
3802,155352.85722705664,2011-01-20 08:26:56,2941.4497546901507,2,18,0.5501165986061096,4.195767879486084,11.775947071889162,11.286986560342545,47.94667964377367,39.88343257455357,9.71794142969884e-05,0.1085970923304557,0,0,0
3803,155382.8721996537,2011-01-20 08:27:26,2971.464727277214,2,18,0.5501165986061096,4.199653148651123,11.780533234819394,11.286986560342545,47.965931101488,39.88343257455357,9.71794142969884e-05,0.1085970923304557,0,0,0
3804,155384.96590992896,2011-01-20 08:27:28,2973.5584375524386,2,18,0.5501165986061096,4.200138568878174,11.780853158644373,11.286986560342545,47.9672747097299,39.88343257455357,0.0001618385285837,0.1085970923304557,0,0,0
3805,155414.98045419942,2011-01-20 08:27:59,30.015094716447145,3,18,0.0,4.091351509094238,11.780853158644373,11.286986560342545,47.9672747097299,39.88343257455357,-0.0004532813909463,0.1085970923304557,0,0,0
3806,155444.99555763762,2011-01-20 08:28:29,60.03019814460656,3,18,0.0,4.077429294586182,11.780853158644373,11.286986560342545,47.9672747097299,39.88343257455357,-0.0002590179501567,0.1085970923304557,0,0,0
3807,155475.01062426908,2011-01-20 08:28:59,90.04526479109472,3,18,0.0,4.068687438964844,11.780853158644373,11.286986560342545,47.9672747097299,39.88343257455357,-0.0001619339018361,0.1085970923304557,0,0,0
3808,155504.9788664546,2011-01-20 08:29:29,120.01350699165612,3,18,0.0,4.062697887420654,11.780853158644373,11.286986560342545,47.9672747097299,39.88343257455357,-0.0001295089750783,0.1085970923304557,0,0,0
3809,155504.98042762754,2011-01-20 08:29:29,2.596471205e-06,4,18,1.021326184272766,4.199653148651123,11.780853159380996,11.286986560342545,47.96727471282346,39.88343257455357,0.0,0.1085970923304557,0,0,0
3810,155505.65207351075,2011-01-20 08:29:29,0.671648524784848,4,18,0.9712974429130554,4.199814796447754,11.781037783876677,11.286986560342545,47.96805010675544,39.88343257455357,3.23295607813634e-05,0.1085970923304557,0,0,0
3811,155507.57393096588,2011-01-20 08:29:31,2.593505954841297,4,18,0.9207268357276917,4.199814796447754,11.781541754245314,11.286986560342545,47.97016669434104,39.88343257455357,3.23295607813634e-05,0.1085970923304557,0,0,0
3812,155510.5270011504,2011-01-20 08:29:34,5.546576139378142,4,18,0.8705174922943115,4.199814796447754,11.782275365024796,11.286986560342545,47.97324771622221,39.88343257455357,0.0,0.1085970923304557,0,0,0
3813,155514.62065992766,2011-01-20 08:29:38,9.640234916638391,4,18,0.8201274871826172,4.199814796447754,11.783235394701595,11.286986560342545,47.97727967628593,39.88343257455357,0.0,0.1085970923304557,0,0,0
3814,155520.0443096165,2011-01-20 08:29:44,15.063884635553224,4,18,0.7699180841445923,4.199976921081543,11.784431612141706,11.286986560342545,47.982303583479,39.88343257455357,3.24249267578125e-05,0.1085970923304557,0,0,0
3815,155527.04242866745,2011-01-20 08:29:51,22.0620036664456,4,18,0.7198893427848816,4.199814796447754,11.785877509174403,11.286986560342545,47.98837611455413,39.88343257455357,0.0,0.1085970923304557,0,0,0
3816,155536.3547651202,2011-01-20 08:30:00,31.374340114207715,4,18,0.6698605418205261,4.199653148651123,11.787672284058171,11.286986560342545,47.995913896645874,39.88343257455357,0.0,0.1085970923304557,0,0,0
3817,155549.44827456452,2011-01-20 08:30:13,44.46784955851507,4,18,0.6198318004608154,4.199814796447754,11.79001257876155,11.286986560342545,48.00574277892815,39.88343257455357,0.0,0.1085970923304557,0,0,0
3818,155569.22924739527,2011-01-20 08:30:33,64.24882238926247,4,18,0.56980299949646,4.199653148651123,11.793270322978367,11.286986560342545,48.01942479056762,39.88343257455357,-3.23295607813634e-05,0.1085970923304557,0,0,0
3819,155604.49434536524,2011-01-20 08:31:08,99.51392037424044,4,18,0.5197742581367493,4.199814796447754,11.79858160650066,11.286986560342545,48.04173136693996,39.88343257455357,3.23295607813634e-05,0.1085970923304557,0,0,0
3820,155673.9617275061,2011-01-20 08:32:18,168.98130249506465,4,18,0.4697454869747162,4.199814796447754,11.808077893582803,11.286986560342545,48.08161378986769,39.88343257455357,-3.24249267578125e-05,0.1085970923304557,0,0,0
3821,155790.63383273644,2011-01-20 08:34:14,285.653407725408,4,18,0.4197167158126831,4.199814796447754,11.822452053861028,11.286986560342545,48.141982263542936,39.88343257455357,0.0,0.1085970923304557,0,0,0
3822,155939.59785200754,2011-01-20 08:36:43,434.6174270165643,4,18,0.36968794465065,4.199653148651123,11.838776297181903,11.286986560342545,48.21054175128842,39.88343257455357,-3.23295607813634e-05,0.1085970923304557,0,0,0
3823,156121.06359382678,2011-01-20 08:39:45,616.0831688357907,4,18,0.3196591734886169,4.199976921081543,11.856132357275731,11.286986560342545,48.28343477824952,39.88343257455357,6.47544875391759e-05,0.1085970923304557,0,0,0
3824,156339.37222489226,2011-01-20 08:43:23,834.3917998762299,4,18,0.269269198179245,4.199653148651123,11.873963730403624,11.286986560342545,48.35832405885319,39.88343257455357,-6.47544875391759e-05,0.1085970923304557,0,0,0
3825,156610.75822268715,2011-01-20 08:47:55,1105.7777976711188,4,18,0.2192404121160507,4.199814796447754,11.892344905274324,11.286986560342545,48.43552247859266,39.88343257455357,0.0,0.1085970923304557,0,0,0
3826,156960.2992166101,2011-01-20 08:53:44,1455.3187916040747,4,18,0.1692116558551788,4.199653148651123,11.91112941171848,11.286986560342545,48.51441483376013,39.88343257455357,-3.23295607813634e-05,0.1085970923304557,0,0,0
3827,157442.8847205237,2011-01-20 09:01:47,1937.9042955026373,4,18,0.1191828772425651,4.199814796447754,11.930311942498532,11.286986560342545,48.59497853671993,39.88343257455357,0.0,0.1085970923304557,0,0,0
3828,158260.94867805784,2011-01-20 09:15:25,2755.9682530668747,4,18,0.0691541135311126,4.199814796447754,11.951200035698353,11.286986560342545,48.6827055559348,39.88343257455357,0.0,0.1085970923304557,0,0,0
3829,158816.31440339715,2011-01-20 09:24:40,3311.3339783861315,4,18,0.0498289167881011,4.199653148651123,11.960337208928998,11.286986560342545,48.72108033525406,39.88343257455357,-3.23295607813634e-05,0.1085970923304557,0,0,0
3830,158846.3225842252,2011-01-20 09:25:10,30.01269626376508,5,18,0.0,4.1896162033081055,11.960337208928998,11.286986560342545,48.72108033525406,39.88343257455357,-6.47544875391759e-05,0.1085970923304557,0,0,0
3831,158876.32207159835,2011-01-20 09:25:40,60.01218363691046,5,18,0.0,4.188159465789795,11.960337208928998,11.286986560342545,48.72108033525406,39.88343257455357,0.0,0.1085970923304557,0,0,0
3832,158876.50507035598,2011-01-20 09:25:41,0.186248959714982,6,18,-1.9243103452026844e-05,4.187997341156006,11.960337208928998,11.2869865613381,48.72108033525406,39.88343257872296,0.0,0.1102179437875747,0,0,0
3833,158881.3195506222,2011-01-20 09:25:45,5.000729185816959,6,18,0.0005225847125984,4.187997341156006,11.960338185370468,11.286986561421154,48.7210844246716,39.88343257907079,-3.24249267578125e-05,0.1102179437875747,0,0,0
3834,158895.53270201563,2011-01-20 09:26:00,14.21849818239304,7,18,-1.0997490882873535,3.9877448081970215,11.960338185370468,11.291329160645931,48.7210844246716,39.9008309890489,-0.0019102096557617,0.1102179437875747,0,0,0
3835,158925.5478398045,2011-01-20 09:26:30,44.23363597620222,7,18,-1.099568486213684,3.932055950164795,11.960338185370468,11.300496298568913,48.7210844246716,39.93712250822921,-0.0013598442310467,0.1102179437875747,0,0,0
3836,158955.5629163406,2011-01-20 09:27:00,74.2487125374009,7,18,-1.099568486213684,3.8885087966918954,11.960338185370468,11.309663379524869,48.7210844246716,39.97295941468729,-0.0010684489971026,0.1102179437875747,0,0,0
3837,158985.58008898588,2011-01-20 09:27:30,104.26588518268608,7,18,-1.099568486213684,3.853379487991333,11.960338185370468,11.318831135392212,48.7210844246716,40.008441618232105,-0.0008418083307333,0.1102179437875747,0,0,0
3838,159015.59320727646,2011-01-20 09:28:00,134.27900344820938,7,18,-1.099568486213684,3.825535297393799,11.960338185370468,11.327997602969178,48.7210844246716,40.04363213888158,-0.0006799221155233,0.1102179437875747,0,0,0
3839,159045.6082862186,2011-01-20 09:28:30,164.29408238532957,7,18,-1.099929690361023,3.802871227264404,11.960338185370468,11.337164674070037,48.7210844246716,40.07859498124777,-0.0005504131549969,0.1102179437875747,0,0,0
3840,159075.62339041868,2011-01-20 09:29:00,194.30918661548785,7,18,-1.099568486213684,3.783606767654419,11.960338185370468,11.346331832233489,48.7210844246716,40.11336622208293,-0.0004532813909463,0.1102179437875747,0,0,0
3841,159105.63865551478,2011-01-20 09:29:30,224.324451696536,7,18,-1.0993878841400146,3.766608715057373,11.960338185370468,11.355498946434924,48.7210844246716,40.14797127862759,-0.0004532813909463,0.1102179437875747,0,0,0
3842,159135.6537438102,2011-01-20 09:30:00,254.33953999198,7,18,-1.0997490882873535,3.751067876815796,11.960338185370468,11.364666018952242,48.7210844246716,40.182428737535005,-0.000453233718872,0.1102179437875747,0,0,0
3843,159165.66872795107,2011-01-20 09:30:30,284.3545241178013,7,18,-1.099568486213684,3.7371456623077393,11.960338185370468,11.373833105202918,48.7210844246716,40.21675093547288,-0.0003561496851034,0.1102179437875747,0,0,0
3844,159195.68384265734,2011-01-20 09:31:00,314.3696388240692,7,18,-1.099568486213684,3.7238709926605225,11.960338185370468,11.383000207090088,48.7210844246716,40.25094780107179,-0.0003561496851034,0.1102179437875747,0,0,0
3845,159225.6989749274,2011-01-20 09:31:30,344.384771119174,7,18,-1.099568486213684,3.711567640304565,11.960338185370468,11.392167347672222,48.7210844246716,40.28502799732676,-0.0003237724304199,0.1102179437875747,0,0,0
3846,159255.71409777395,2011-01-20 09:32:00,374.39989394066754,7,18,-1.0992072820663452,3.699588060379028,11.960338185370468,11.401334463031512,48.7210844246716,40.31899633586825,-0.0002913951757363,0.1102179437875747,0,0,0
3847,159285.7291700996,2011-01-20 09:32:30,404.4149663013974,7,18,-1.0993878841400146,3.688256025314331,11.960338185370468,11.410501570386725,48.7210844246716,40.3528581861334,-0.0003237724304199,0.1102179437875747,0,0,0
3848,159315.7442850264,2011-01-20 09:33:00,434.43008120816506,7,18,-1.0993878841400146,3.6772477626800537,11.960338185370468,11.41966872615678,48.7210844246716,40.38661880854328,-0.0003237724304199,0.1102179437875747,0,0,0
3849,159345.75953893963,2011-01-20 09:33:30,464.445335106342,7,18,-1.0993878841400146,3.6668872833251953,11.960338185370468,11.428835900281255,48.7210844246716,40.42028219627248,-0.0002913951757363,0.1102179437875747,0,0,0
3850,159375.77448486522,2011-01-20 09:34:00,494.460281057019,7,18,-1.0993878841400146,3.6568503379821777,11.960338185370468,11.438002985224175,48.7210844246716,40.453851126508624,-0.0002590179501567,0.1102179437875747,0,0,0
3851,159405.7895952808,2011-01-20 09:34:30,524.4753914776056,7,18,-1.099568486213684,3.64697527885437,11.960338185370468,11.447170119067485,48.7210844246716,40.48732910014515,-0.0003237724304199,0.1102179437875747,0,0,0
3852,159435.80480123448,2011-01-20 09:35:00,554.4905974363028,7,18,-1.0997490882873535,3.6371002197265625,11.960338185370468,11.456337206451552,48.7210844246716,40.52071645986638,-0.0002913951757363,0.1102179437875747,0,0,0
3853,159465.81988174553,2011-01-20 09:35:30,584.5056779072457,7,18,-1.0993878841400146,3.6278727054595943,11.960338185370468,11.465504247867564,48.7210844246716,40.55401611871071,-0.0001942634553415,0.1102179437875747,0,0,0
3854,159495.83510292214,2011-01-20 09:36:00,614.5208990888831,7,18,-1.0993878841400146,3.618483304977417,11.960338185370468,11.474671378002638,48.7210844246716,40.58722994529553,-0.0002266406954731,0.1102179437875747,0,0,0
3855,159525.85009373966,2011-01-20 09:36:30,644.5358899013696,7,18,-1.0993878841400146,3.609417676925659,11.960338185370468,11.483838477183292,48.7210844246716,40.62035907251546,-0.0002266406954731,0.1102179437875747,0,0,0
3856,159555.86522304232,2011-01-20 09:37:00,674.5510192090287,7,18,-1.099568486213684,3.6005139350891118,11.960338185370468,11.493005566914633,48.7210844246716,40.65340592916627,-0.0002266406954731,0.1102179437875747,0,0,0
3857,159585.88214922833,2011-01-20 09:37:30,704.567945410099,7,18,-1.0993878841400146,3.5919342041015625,11.960338185370468,11.502173198531512,48.7210844246716,40.68637452185478,-0.0002265930233988,0.1102179437875747,0,0,0
3858,159615.89569983137,2011-01-20 09:38:00,734.5814959930904,7,18,-1.0993878841400146,3.5833542346954346,11.960338185370468,11.511339839692225,48.7210844246716,40.719261061974045,-0.0002590179501567,0.1102179437875747,0,0,0
3859,159645.91056247943,2011-01-20 09:38:30,764.5963586762392,7,18,-1.0997490882873535,3.5750980377197266,11.960338185370468,11.520506899948437,48.7210844246716,40.75207180978568,-0.0002266406954731,0.1102179437875747,0,0,0
3860,159675.9256428802,2011-01-20 09:39:00,794.6114390419199,7,18,-1.0997490882873535,3.5671656131744385,11.960338185370468,11.529674073138164,48.7210844246716,40.78480939400488,-0.0001942634553415,0.1102179437875747,0,0,0
3861,159705.94076861898,2011-01-20 09:39:30,824.6265647806841,7,18,-1.099568486213684,3.5593950748443604,11.960338185370468,11.538841240094674,48.7210844246716,40.817475040391805,-0.0002266406954731,0.1102179437875747,0,0,0
3862,159735.95605276254,2011-01-20 09:40:00,854.6418490395292,7,18,-1.0997490882873535,3.5516245365142822,11.960338185370468,11.54800845918452,48.7210844246716,40.8500700181999,-0.0002266406954731,0.1102179437875747,0,0,0
3863,159765.9711056447,2011-01-20 09:40:30,884.6569018365002,7,18,-1.099568486213684,3.544501543045044,11.960338185370468,11.557175617075998,48.7210844246716,40.882595825433405,-0.0001618862152099,0.1102179437875747,0,0,0
3864,159795.98607914403,2011-01-20 09:41:00,914.6718753207996,7,18,-1.0993878841400146,3.537216663360596,11.960338185370468,11.56634271917724,48.7210844246716,40.91505445160086,-0.0001942634553415,0.1102179437875747,0,0,0
3865,159826.0012137048,2011-01-20 09:41:30,944.6870098615008,7,18,-1.0993878841400146,3.5299317836761475,11.960338185370468,11.57550989615717,48.7210844246716,40.94744712707527,-0.0001942634553415,0.1102179437875747,0,0,0
3866,159856.01634019543,2011-01-20 09:42:00,974.7021363621642,7,18,-1.099568486213684,3.523456335067749,11.960338185370468,11.58467713058357,48.7210844246716,40.97977722010988,-0.0001942634553415,0.1102179437875747,0,0,0
3867,159886.03141818522,2011-01-20 09:42:30,1004.7172143569358,7,18,-1.0997490882873535,3.5168190002441406,11.960338185370468,11.593844211823471,48.7210844246716,41.01204700987613,-0.0001942634553415,0.1102179437875747,0,0,0
3868,159916.04653207443,2011-01-20 09:43:00,1034.7323282411548,7,18,-1.0993878841400146,3.510667562484741,11.960338185370468,11.603011393128732,48.7210844246716,41.044258736774886,-0.0001618862152099,0.1102179437875747,0,0,0
3869,159946.06405263682,2011-01-20 09:43:30,1064.7498489088189,7,18,-1.099568486213684,3.5043540000915527,11.960338185370468,11.612179296443957,48.7210844246716,41.07641549839376,-0.0001942634553415,0.1102179437875747,0,0,0
3870,159976.07676522128,2011-01-20 09:44:00,1094.7625614080478,7,18,-1.0993878841400146,3.498364210128784,11.960338185370468,11.621345755579616,48.7210844246716,41.10850984455831,-0.0001618862152099,0.1102179437875747,0,0,0
3871,160006.09186450407,2011-01-20 09:44:30,1124.7776606758384,7,18,-1.0993878841400146,3.4922125339508057,11.960338185370468,11.630512961888702,48.7210844246716,41.14055156559441,-0.0001942634553415,0.1102179437875747,0,0,0
3872,160036.1070457512,2011-01-20 09:45:00,1154.7928420231965,7,18,-1.099568486213684,3.486384630203247,11.960338185370468,11.639680196061692,48.7210844246716,41.17253875911877,-0.0001618862152099,0.1102179437875747,0,0,0
3873,160066.12224880766,2011-01-20 09:45:30,1184.8080449894353,7,18,-1.099568486213684,3.4803948402404785,11.960338185370468,11.648847390068084,48.7210844246716,41.20447178429298,-0.0001942634553415,0.1102179437875747,0,0,0
3874,160096.13720760535,2011-01-20 09:46:00,1214.8230037720934,7,18,-1.099568486213684,3.47505259513855,11.960338185370468,11.658014444053322,48.7210844246716,41.23635164284633,-9.713172767078504e-05,0.1102179437875747,0,0,0
3875,160126.1523046476,2011-01-20 09:46:30,1244.8381008043125,7,18,-1.099568486213684,3.469386577606201,11.960338185370468,11.667181526787898,48.7210844246716,41.26818072063829,-0.0001295089750783,0.1102179437875747,0,0,0
3876,160156.16755523754,2011-01-20 09:47:00,1274.853351414294,7,18,-1.099568486213684,3.4637205600738525,11.960338185370468,11.676348666769163,48.7210844246716,41.29995850920825,-9.713172767078504e-05,0.1102179437875747,0,0,0
3877,160186.18436645204,2011-01-20 09:47:30,1304.8701626287825,7,18,-1.0993878841400146,3.458054542541504,11.960338185370468,11.685516265874185,48.7210844246716,41.3316859210854,-0.0001295089750783,0.1102179437875747,0,0,0
3878,160216.19765266613,2011-01-20 09:48:00,1334.8834488328605,7,18,-1.0993878841400146,3.4522266387939453,11.960338185370468,11.694682821983422,48.7210844246716,41.36335761489343,-0.0001618862152099,0.1102179437875747,0,0,0
3879,160246.21388995022,2011-01-20 09:48:30,1364.8996861470123,7,18,-1.099568486213684,3.4465606212615967,11.960338185370468,11.703850281126885,48.7210844246716,41.394979605753,-0.0001618862152099,0.1102179437875747,0,0,0
3880,160276.22791674506,2011-01-20 09:49:00,1394.9137129518956,7,18,-1.0993878841400146,3.440894603729248,11.960338185370468,11.713017074591308,48.7210844246716,41.426546680402176,-9.713172767078504e-05,0.1102179437875747,0,0,0
3881,160306.2430073262,2011-01-20 09:49:30,1424.9288036082237,7,18,-1.0992072820663452,3.435066699981689,11.960338185370468,11.722184162280838,48.7210844246716,41.458061896729625,-0.0001295089750783,0.1102179437875747,0,0,0
3882,160336.2580999424,2011-01-20 09:50:00,1454.9438961041365,7,18,-1.0993878841400146,3.42875337600708,11.960338185370468,11.731351263325417,48.7210844246716,41.489522188817375,-0.0001295089750783,0.1102179437875747,0,0,0
3883,160366.27319825784,2011-01-20 09:50:30,1484.9589944245658,7,18,-1.099568486213684,3.422439813613892,11.960338185370468,11.740518420269748,48.7210844246716,41.52092520008358,-0.0001618862152099,0.1102179437875747,0,0,0
3884,160396.28820714034,2011-01-20 09:51:00,1514.9740033121009,7,18,-1.099568486213684,3.415640592575073,11.960338185370468,11.749685613251888,48.7210844246716,41.552268001303815,-0.0002266406954731,0.1102179437875747,0,0,0
3885,160426.30344361512,2011-01-20 09:51:31,1544.989239781841,7,18,-1.0993878841400146,3.408679485321045,11.960338185370468,11.758852734214662,48.7210844246716,41.58354736183543,-0.0001942634553415,0.1102179437875747,0,0,0
3886,160456.31851498334,2011-01-20 09:52:01,1575.0043111551097,7,18,-1.099568486213684,3.400908946990967,11.960338185370468,11.76801979074238,48.7210844246716,41.614760236673575,-0.0002266406954731,0.1102179437875747,0,0,0
3887,160486.33364301283,2011-01-20 09:52:31,1605.0194391996206,7,18,-1.0993878841400146,3.3936240673065186,11.960338185370468,11.777186813855282,48.7210844246716,41.64590291653142,-0.0001295089750783,0.1102179437875747,0,0,0
3888,160516.3487373333,2011-01-20 09:53:01,1635.0345335000309,7,18,-1.0993878841400146,3.38504409790039,11.960338185370468,11.786353795662718,48.7210844246716,41.67697174205696,-0.0001942634553415,0.1102179437875747,0,0,0
3889,160546.36398936182,2011-01-20 09:53:31,1665.0497855636354,7,18,-1.0993878841400146,3.3763022422790527,11.960338185370468,11.79552092507024,48.7210844246716,41.70796265607751,-0.0002266406954731,0.1102179437875747,0,0,0
3890,160576.3789563449,2011-01-20 09:54:01,1695.064752506632,7,18,-1.0993878841400146,3.366427183151245,11.960338185370468,11.80468804099766,48.7210844246716,41.738867747536375,-0.0002590179501567,0.1102179437875747,0,0,0
3891,160606.39428754072,2011-01-20 09:54:31,1725.080083822758,7,18,-1.0992072820663452,3.3555808067321777,11.960338185370468,11.813855254322482,48.7210844246716,41.76967819103896,-0.0002590179501567,0.1102179437875747,0,0,0
3892,160636.40930459864,2011-01-20 09:55:01,1755.095100775394,7,18,-1.0993878841400146,3.34311580657959,11.960338185370468,11.823022282049788,48.7210844246716,41.80038215670575,-0.0003561496851034,0.1102179437875747,0,0,0
3893,160666.42430276444,2011-01-20 09:55:31,1785.1100989311824,7,18,-1.099568486213684,3.3288698196411133,11.960338185370468,11.832189319713727,48.7210844246716,41.83096542977838,-0.0004209041653666,0.1102179437875747,0,0,0
3894,160696.4396701204,2011-01-20 09:56:01,1815.1254662871308,7,18,-1.0993878841400146,3.3125193119049072,11.960338185370468,11.841356490607234,48.7210844246716,41.86140968191325,-0.0004209041653666,0.1102179437875747,0,0,0
3895,160726.45451563576,2011-01-20 09:56:31,1845.1403118024923,7,18,-1.099568486213684,3.292283535003662,11.960338185370468,11.850523389840587,48.7210844246716,41.89168600603119,-0.0005827903514727,0.1102179437875747,0,0,0
3896,160756.46962655257,2011-01-20 09:57:01,1875.1554227143035,7,18,-1.0993878841400146,3.268162727355957,11.960338185370468,11.859690423922402,48.7210844246716,41.92175879250838,-0.0007122516399249,0.1102179437875747,0,0,0
3897,160786.48673927353,2011-01-20 09:57:31,1905.1725354603009,7,18,-1.099568486213684,3.2380518913269043,11.960338185370468,11.86885815119818,48.7210844246716,41.95158750667815,-0.0008741855854168,0.1102179437875747,0,0,0
3898,160816.49986058666,2011-01-20 09:58:01,1935.1856567583825,7,18,-1.099568486213684,3.199684858322144,11.960338185370468,11.878024576032118,48.7210844246716,41.98110169711368,-0.0011332035064697,0.1102179437875747,0,0,0
3899,160846.51497470643,2011-01-20 09:58:31,1965.200770868164,7,18,-1.0997490882873535,3.149176597595215,11.960338185370468,11.88719165668426,48.7210844246716,42.01021273827208,-0.0015541076427325,0.1102179437875747,0,0,0
3900,160876.53007340783,2011-01-20 09:59:01,1995.2158695695423,7,18,-1.0992072820663452,3.08183217048645,11.960338185370468,11.896358661050217,48.7210844246716,42.03878951813718,-0.0020397664047777,0.1102179437875747,0,0,0
3901,160906.54542150578,2011-01-20 09:59:31,2025.231217662482,7,18,-1.0997490882873535,2.9845387935638428,11.960338185370468,11.905525822919373,48.7210844246716,42.066623740656205,-0.0030434608925133,0.1102179437875747,0,0,0
3902,160936.56049116477,2011-01-20 10:00:01,2055.2462873465406,7,18,-1.0993878841400146,2.840136766433716,11.960338185370468,11.914692879132415,48.7210844246716,42.09336334013239,-0.0044680596329271,0.1102179437875747,0,0,0
3903,160958.6226592109,2011-01-20 10:00:23,2077.3084554578336,7,18,-1.099568486213684,2.699620008468628,11.960338185370468,11.921430986954531,48.7210844246716,42.11204195233548,-0.0054717063903808,0.1102179437875747,0,0,0
3904,161018.63815159767,2011-01-20 10:01:23,60.01460288642463,8,18,0.0,3.60779881477356,11.960338185370468,11.921430986954531,48.7210844246716,42.11204195233548,0.0012950897216796,0.1102179437875747,0,0,0
3905,161018.82791191663,2011-01-20 10:01:23,0.18763889385854,9,18,-1.9243103452026844e-05,3.6079607009887695,11.960338185370468,11.92143098795752,48.7210844246716,42.11204195595422,0.0,0.1069762408733367,0,0,0
3906,161023.65585185846,2011-01-20 10:01:28,5.015578855763595,9,18,0.0007031940040178,3.615407466888428,11.96033915653217,11.921430988040871,48.72108793278865,42.11204195625494,0.0010684489971026,0.1069762408733367,0,0,0
