Data_Point,Test_Time(s),Date_Time,Step_Time(s),Step_Index,Cycle_Index,Current(A),Voltage(V),Charge_Capacity(Ah),Discharge_Capacity(Ah),Charge_Energy(Wh),Discharge_Energy(Wh),dV/dt(V/s),Internal_Resistance(Ohm),Is_FC_Data,AC_Impedance(Ohm),ACI_Phase_Angle(Deg)
5141,213122.05116478857,2011-01-21 00:29:54,30.01537673933496,1,25,0.0,3.654745817184448,15.755673908677034,15.703200809675367,64.21451801382304,55.40765883563044,0.0006475448608398,0.108498990535736,0,0,0
5142,213152.0660277825,2011-01-21 00:30:24,60.03023973325828,1,25,0.0,3.673848152160645,15.755673908677034,15.703200809675367,64.21451801382304,55.40765883563044,0.0004208564641885,0.108498990535736,0,0,0
5143,213182.0812100772,2011-01-21 00:30:54,90.0454220430149,1,25,0.0,3.687122821807861,15.755673908677034,15.703200809675367,64.21451801382304,55.40765883563044,0.0003885269106831,0.108498990535736,0,0,0
5144,213212.0496530281,2011-01-21 00:31:24,120.01386498388293,1,25,0.0,3.696997880935669,15.755673908677034,15.703200809675367,64.21451801382304,55.40765883563044,0.0001942634553415,0.108498990535736,0,0,0
5145,213242.06544382867,2011-01-21 00:31:54,30.01524281555569,2,25,0.550297200679779,3.8177647590637207,15.76026116201149,15.703200809675367,64.23194626056186,55.40765883563044,0.0007770538213662,0.108498990535736,0,0,0
5146,213272.08041136316,2011-01-21 00:32:24,60.03021036005121,2,25,0.550297200679779,3.8381621837615967,15.76484835414236,15.703200809675367,64.24950960129986,55.40765883563044,0.0004532813909463,0.108498990535736,0,0,0
5147,213302.09557378836,2011-01-21 00:32:54,90.04537287547426,2,25,0.5501165986061096,3.852084398269653,15.769435557791494,15.703200809675367,64.26714954321076,55.40765883563044,0.0003237724304199,0.108498990535736,0,0,0
5148,213332.110656946,2011-01-21 00:33:24,120.06045594288842,2,25,0.550297200679779,3.863416433334351,15.774022758030332,15.703200809675367,64.2848464117513,55.40765883563044,0.0002913951757363,0.108498990535736,0,0,0
5149,213362.1257495371,2011-01-21 00:33:54,150.07554853905117,2,25,0.550297200679779,3.8729677200317374,15.778609981424404,15.703200809675367,64.30259067504394,55.40765883563044,0.0002590179501567,0.108498990535736,0,0,0
5150,213392.14085344647,2011-01-21 00:34:24,180.09065244840988,2,25,0.550297200679779,3.881547689437866,15.783197142654544,15.703200809675367,64.32037617340026,55.40765883563044,0.0002913951757363,0.108498990535736,0,0,0
5151,213422.1559691051,2011-01-21 00:34:54,210.1057681020389,2,25,0.5501165986061096,3.8891563415527344,15.787784330768933,15.703200809675367,64.33819935591322,55.40765883563044,0.0001618862152099,0.108498990535736,0,0,0
5152,213452.17344478564,2011-01-21 00:35:24,240.12324388283108,2,25,0.5501165986061096,3.896441221237183,15.792371914812158,15.703200809675367,64.35605827945793,55.40765883563044,0.0001942634553415,0.108498990535736,0,0,0
5153,213482.18620421187,2011-01-21 00:35:54,270.13600321377896,2,25,0.550297200679779,3.903240442276001,15.79695872378344,15.703200809675367,64.37394593736147,55.40765883563044,0.0002266406954731,0.108498990535736,0,0,0
5154,213512.2013221261,2011-01-21 00:36:24,300.15112112302967,2,25,0.550297200679779,3.9095540046691895,15.801545881496455,15.703200809675367,64.39186475067793,55.40765883563044,0.0001942634553415,0.108498990535736,0,0,0
5155,213542.21641340893,2011-01-21 00:36:54,330.1662124059194,2,25,0.550297200679779,3.915381669998169,15.806133012009107,15.703200809675367,64.4098117405954,55.40765883563044,0.0001618862152099,0.108498990535736,0,0,0
5156,213572.2315318496,2011-01-21 00:37:24,360.18133084649435,2,25,0.5501165986061096,3.9210476875305176,15.810720150477858,15.703200809675367,64.42778564193817,55.40765883563044,9.713172767078504e-05,0.108498990535736,0,0,0
5157,213602.24663340303,2011-01-21 00:37:54,390.196432404994,2,25,0.550297200679779,3.926875591278076,15.815307332812315,15.703200809675367,64.44578566503202,55.40765883563044,0.0001942634553415,0.108498990535736,0,0,0
5158,213632.2617532672,2011-01-21 00:38:24,420.2115522691169,2,25,0.5501165986061096,3.932055950164795,15.819894468507355,15.703200809675367,64.46380999133777,55.40765883563044,0.0001618862152099,0.108498990535736,0,0,0
5159,213662.27685580813,2011-01-21 00:38:54,450.2266548100651,2,25,0.550297200679779,3.937074422836304,15.824481636699945,15.703200809675367,64.48185785966163,55.40765883563044,0.0001942634553415,0.108498990535736,0,0,0
5160,213692.292060639,2011-01-21 00:39:24,480.2418596359388,2,25,0.5499359965324402,3.941607236862183,15.829068722432828,15.703200809675367,64.49992788115803,55.40765883563044,0.0001295089750783,0.108498990535736,0,0,0
5161,213722.3072408786,2011-01-21 00:39:54,510.25703988556086,2,25,0.5501165986061096,3.946301937103272,15.833655957704028,15.703200809675367,64.51802010840497,55.40765883563044,9.713172767078504e-05,0.108498990535736,0,0,0
5162,213752.32440936856,2011-01-21 00:40:24,540.2742084857646,2,25,0.5501165986061096,3.950672864913941,15.838243365989802,15.703200809675367,64.53613358029284,55.40765883563044,9.713172767078504e-05,0.108498990535736,0,0,0
5163,213782.33744251195,2011-01-21 00:40:54,570.2872414988125,2,25,0.5504778623580933,3.95504379272461,15.842830227303232,15.703200809675367,64.55426458801362,55.40765883563044,0.0001295089750783,0.108498990535736,0,0,0
5164,213812.35243599105,2011-01-21 00:41:24,600.3022349729325,2,25,0.550297200679779,3.958929061889648,15.847417417931757,15.703200809675367,64.57241575488192,55.40765883563044,9.713172767078504e-05,0.108498990535736,0,0,0
5165,213842.3675276549,2011-01-21 00:41:54,630.3173266568217,2,25,0.550297200679779,3.962814331054688,15.852004599485484,15.703200809675367,64.59058512152933,55.40765883563044,9.713172767078504e-05,0.108498990535736,0,0,0
5166,213872.38269481188,2011-01-21 00:42:24,660.3324938789752,2,25,0.550297200679779,3.966699600219727,15.856591850361198,15.703200809675367,64.60877241613302,55.40765883563044,0.0001295089750783,0.108498990535736,0,0,0
5167,213902.3978091372,2011-01-21 00:42:54,690.3476082393812,2,25,0.550297200679779,3.9702610969543457,15.861178995159518,15.703200809675367,64.62697629030211,55.40765883563044,9.713172767078504e-05,0.108498990535736,0,0,0
5168,213932.4128669216,2011-01-21 00:43:25,720.3626659335574,2,25,0.5504778623580933,3.973984479904175,15.865766212371115,15.703200809675367,64.64519708791802,55.40765883563044,0.0001295089750783,0.108498990535736,0,0,0
5169,213962.4279929912,2011-01-21 00:43:55,750.3777919881088,2,25,0.550297200679779,3.977384090423584,15.870353456033351,15.703200809675367,64.6634341354238,55.40765883563044,9.713172767078504e-05,0.108498990535736,0,0,0
5170,213992.44311102075,2011-01-21 00:44:25,780.3929100276844,2,25,0.550297200679779,3.980783700942993,15.874940612959833,15.703200809675367,64.68168638766286,55.40765883563044,9.713172767078504e-05,0.108498990535736,0,0,0
5171,214022.45822217816,2011-01-21 00:44:55,810.40802119012,2,25,0.550297200679779,3.9841833114624015,15.879527721839397,15.703200809675367,64.69995429851743,55.40765883563044,6.47544875391759e-05,0.108498990535736,0,0,0
5172,214052.47333538067,2011-01-21 00:45:25,840.4231343876276,2,25,0.5501165986061096,3.9874210357666016,15.88411487316562,15.703200809675367,64.71823754653289,55.40765883563044,0.0001295089750783,0.108498990535736,0,0,0
5173,214082.488434463,2011-01-21 00:45:55,870.4382334699559,2,25,0.550297200679779,3.990658760070801,15.888702010477749,15.703200809675367,64.73653558819325,55.40765883563044,9.713172767078504e-05,0.108498990535736,0,0,0
5174,214112.5035659812,2011-01-21 00:46:25,900.4533649780992,2,25,0.5501165986061096,3.993896484375,15.893289147195365,15.703200809675367,64.75484838957796,55.40765883563044,6.47544875391759e-05,0.108498990535736,0,0,0
5175,214142.51867399577,2011-01-21 00:46:55,930.468472977652,2,25,0.5504778623580933,3.99697208404541,15.897876275497548,15.703200809675367,64.77317577059154,55.40765883563044,6.47544875391759e-05,0.108498990535736,0,0,0
5176,214172.5337815392,2011-01-21 00:47:25,960.4835805361053,2,25,0.5501165986061096,4.0000481605529785,15.902463420866606,15.703200809675367,64.79151743297412,55.40765883563044,6.480216688942164e-05,0.108498990535736,0,0,0
5177,214202.54901590868,2011-01-21 00:47:55,990.4988149106232,2,25,0.550297200679779,4.003123760223389,15.907050596822398,15.703200809675367,64.80987338534116,55.40765883563044,9.70840483205393e-05,0.108498990535736,0,0,0
5178,214232.5639854682,2011-01-21 00:48:25,1020.5137844450784,2,25,0.550297200679779,4.006199836730957,15.911637685845893,15.703200809675367,64.82824298904767,55.40765883563044,9.71794142969884e-05,0.108498990535736,0,0,0
5179,214262.5790822147,2011-01-21 00:48:55,1050.5288812266726,2,25,0.5501165986061096,4.009113788604736,15.916224873821768,15.703200809675367,64.84662685185658,55.40765883563044,9.71794142969884e-05,0.108498990535736,0,0,0
5180,214292.59419990843,2011-01-21 00:49:25,1080.5439989203862,2,25,0.550297200679779,4.012027740478516,15.920812062853644,15.703200809675367,64.8650244167129,55.40765883563044,9.71794142969884e-05,0.108498990535736,0,0,0
5181,214322.6093437874,2011-01-21 00:49:55,1110.5591427893364,2,25,0.5501165986061096,4.014941692352295,15.925399249960387,15.703200809675367,64.88343552201789,55.40765883563044,9.71794142969884e-05,0.108498990535736,0,0,0
5182,214352.6244808895,2011-01-21 00:50:25,1140.5742798813967,2,25,0.550297200679779,4.018017292022705,15.929986361084984,15.703200809675367,64.90185971228911,55.40765883563044,9.70840483205393e-05,0.108498990535736,0,0,0
5183,214382.63957124008,2011-01-21 00:50:55,1170.5893702369751,2,25,0.5501165986061096,4.0207695960998535,15.934573452734853,15.703200809675367,64.92029709970029,55.40765883563044,6.47544875391759e-05,0.108498990535736,0,0,0
5184,214412.65487930825,2011-01-21 00:51:25,1200.604678320198,2,25,0.550297200679779,4.023683547973633,15.939160572489472,15.703200809675367,64.93874787218087,55.40765883563044,6.47544875391759e-05,0.108498990535736,0,0,0
5185,214442.66979805112,2011-01-21 00:51:55,1230.6195970229649,2,25,0.5499359965324402,4.026435375213623,15.943747571156376,15.703200809675367,64.9572111881291,55.40765883563044,3.23295607813634e-05,0.108498990535736,0,0,0
5186,214472.6848979154,2011-01-21 00:52:25,1260.634696927342,2,25,0.550297200679779,4.029511451721191,15.94833470304854,15.703200809675367,64.97568804513897,55.40765883563044,0.0001295089750783,0.108498990535736,0,0,0
5187,214502.7000090929,2011-01-21 00:52:55,1290.6498080897777,2,25,0.550297200679779,4.032263278961182,15.952921769100634,15.703200809675367,64.99417743710269,55.40765883563044,9.70840483205393e-05,0.108498990535736,0,0,0
5188,214532.71512777905,2011-01-21 00:53:25,1320.664926780977,2,25,0.550297200679779,4.035015106201172,15.957508844932985,15.703200809675367,65.01267988443412,55.40765883563044,6.47544875391759e-05,0.108498990535736,0,0,0
5189,214562.7303301187,2011-01-21 00:53:55,1350.6801292158918,2,25,0.5501165986061096,4.03776741027832,15.962095941566632,15.703200809675367,65.03119529481566,55.40765883563044,9.71794142969884e-05,0.108498990535736,0,0,0
5190,214592.74534371297,2011-01-21 00:54:25,1380.695142709908,2,25,0.5501165986061096,4.040519237518311,15.966683003811472,15.703200809675367,65.04972332691752,55.40765883563044,9.70840483205393e-05,0.108498990535736,0,0,0
5191,214622.7604576323,2011-01-21 00:54:55,1410.710256639239,2,25,0.5499359965324402,4.043271541595459,15.971270048700664,15.703200809675367,65.06826395913302,55.40765883563044,6.47544875391759e-05,0.108498990535736,0,0,0
5192,214652.77557986235,2011-01-21 00:55:25,1440.7253788592338,2,25,0.5501165986061096,4.045861721038818,15.975857136647392,15.703200809675367,65.08681743560706,55.40765883563044,3.24249267578125e-05,0.108498990535736,0,0,0
5193,214682.7906796514,2011-01-21 00:55:55,1470.740478653336,2,25,0.550297200679779,4.0489373207092285,15.980444182496718,15.703200809675367,65.10538343692477,55.40765883563044,6.47544875391759e-05,0.108498990535736,0,0,0
5194,214712.80580511448,2011-01-21 00:56:25,1500.7556041114008,2,25,0.550297200679779,4.051689624786377,15.985031309008622,15.703200809675367,65.12396247332823,55.40765883563044,6.47544875391759e-05,0.108498990535736,0,0,0
5195,214742.8209043171,2011-01-21 00:56:55,1530.7707033290662,2,25,0.5501165986061096,4.054441452026367,15.98961844092818,15.703200809675367,65.14255418239786,55.40765883563044,9.70840483205393e-05,0.108498990535736,0,0,0
5196,214772.83612076697,2011-01-21 00:57:25,1560.7859197638732,2,25,0.5501165986061096,4.057193756103516,15.994205619957842,15.703200809675367,65.16115879922657,55.40765883563044,3.24249267578125e-05,0.108498990535736,0,0,0
5197,214802.85119283697,2011-01-21 00:57:55,1590.8009918489158,2,25,0.550297200679779,4.059945583343506,15.9987927796173,15.703200809675367,65.17977611383394,55.40765883563044,6.47544875391759e-05,0.108498990535736,0,0,0
5198,214832.86623347865,2011-01-21 00:58:25,1620.8160324755545,2,25,0.5501165986061096,4.062697887420654,16.003379795098585,15.703200809675367,65.19840520269841,55.40765883563044,6.47544875391759e-05,0.108498990535736,0,0,0
5199,214862.88151804823,2011-01-21 00:58:55,1650.8313170401616,2,25,0.550297200679779,4.065611839294434,16.007966820903842,15.703200809675367,65.21704728248905,55.40765883563044,9.71794142969884e-05,0.108498990535736,0,0,0
5200,214892.8958782792,2011-01-21 00:59:25,1680.845677256007,2,25,0.550297200679779,4.068363666534424,16.01254191545694,15.703200809675367,65.23565378755283,55.40765883563044,6.47544875391759e-05,0.108498990535736,0,0,0
5201,214922.89612222792,2011-01-21 00:59:55,1710.8459212398595,2,25,0.5499359965324402,4.071115970611572,16.017138625331032,15.703200809675367,65.2543611974271,55.40765883563044,6.47544875391759e-05,0.108498990535736,0,0,0
5202,214952.91119010744,2011-01-21 01:00:25,1740.8609891043832,2,25,0.550297200679779,4.074029922485352,16.021725689114728,15.703200809675367,65.2730423201475,55.40765883563044,9.71794142969884e-05,0.108498990535736,0,0,0
5203,214982.9261713812,2011-01-21 01:00:55,1770.8759703780963,2,25,0.5499359965324402,4.076620101928711,16.026312775753183,15.703200809675367,65.29173660182954,55.40765883563044,3.24249267578125e-05,0.108498990535736,0,0,0
5204,215012.9412896663,2011-01-21 01:01:25,1800.891088663284,2,25,0.550297200679779,4.079695701599121,16.030899870798788,15.703200809675367,65.31044403788091,55.40765883563044,6.47544875391759e-05,0.108498990535736,0,0,0
5205,215042.95641342012,2011-01-21 01:01:55,1830.906212417101,2,25,0.5501165986061096,4.0826096534729,16.035486961967134,15.703200809675367,65.32916453566094,55.40765883563044,6.47544875391759e-05,0.108498990535736,0,0,0
5206,215072.97189083043,2011-01-21 01:02:25,1860.9216898223265,2,25,0.5501165986061096,4.08552360534668,16.040074014503883,15.703200809675367,65.34789814154178,55.40765883563044,6.47544875391759e-05,0.108498990535736,0,0,0
5207,215102.9866089633,2011-01-21 01:02:55,1890.9364079652364,2,25,0.550297200679779,4.088437557220459,16.044661025522675,15.703200809675367,65.36664500313003,55.40765883563044,9.70840483205393e-05,0.108498990535736,0,0,0
5208,215133.0018700945,2011-01-21 01:03:25,1920.9516691014528,2,25,0.5501165986061096,4.091351509094238,16.04924814700946,15.703200809675367,65.38540585894805,55.40765883563044,3.23295607813634e-05,0.108498990535736,0,0,0
5209,215163.01687216503,2011-01-21 01:03:55,1950.966671151948,2,25,0.5501165986061096,4.094265460968018,16.05383527152204,15.703200809675367,65.40418020861911,55.40765883563044,6.47544875391759e-05,0.108498990535736,0,0,0
5210,215193.0320775924,2011-01-21 01:04:25,1980.9818765993707,2,25,0.550297200679779,4.097503185272217,16.058422424180137,15.703200809675367,65.42296842774253,55.40765883563044,0.0001295089750783,0.108498990535736,0,0,0
5211,215223.0470479339,2011-01-21 01:04:55,2010.9968469157748,2,25,0.5501165986061096,4.100255489349365,16.063009449621354,15.703200809675367,65.44176995464508,55.40765883563044,6.47544875391759e-05,0.108498990535736,0,0,0
5212,215253.0621663093,2011-01-21 01:05:25,2041.0119653062247,2,25,0.550297200679779,4.103331089019775,16.067596477289104,15.703200809675367,65.46058536710535,55.40765883563044,6.47544875391759e-05,0.108498990535736,0,0,0
5213,215283.07730038383,2011-01-21 01:05:55,2071.0270993807644,2,25,0.5501165986061096,4.106407165527344,16.072183584369245,15.703200809675367,65.47941521787435,55.40765883563044,6.47544875391759e-05,0.108498990535736,0,0,0
5214,215313.09251302417,2011-01-21 01:06:25,2101.0423120161017,2,25,0.5501165986061096,4.109644889831543,16.076770648868326,15.703200809675367,65.49825896560382,55.40765883563044,9.71794142969884e-05,0.108498990535736,0,0,0
5215,215343.10752574127,2011-01-21 01:06:55,2131.057324738194,2,25,0.550297200679779,4.112720489501953,16.081357732641997,15.703200809675367,65.51711703225025,55.40765883563044,9.70840483205393e-05,0.108498990535736,0,0,0
5216,215373.12273509844,2011-01-21 01:07:25,2161.072534105386,2,25,0.5501165986061096,4.115796089172363,16.085944887686246,15.703200809675367,65.53598971511046,55.40765883563044,0.0001295089750783,0.108498990535736,0,0,0
5217,215403.14010529107,2011-01-21 01:07:55,2191.089904272957,2,25,0.5501165986061096,4.118872165679932,16.090532303468397,15.703200809675367,65.55487787828625,55.40765883563044,6.47544875391759e-05,0.108498990535736,0,0,0
5218,215433.1530514226,2011-01-21 01:08:25,2221.102850509732,2,25,0.5499359965324402,4.122109889984131,16.095118556753906,15.703200809675367,65.57377574988458,55.40765883563044,9.71794142969884e-05,0.108498990535736,0,0,0
5219,215463.1679422208,2011-01-21 01:08:55,2251.117741217727,2,25,0.550297200679779,4.12534761428833,16.09970491343999,15.703200809675367,65.59268868548158,55.40765883563044,9.71794142969884e-05,0.108498990535736,0,0,0
5220,215493.18309419497,2011-01-21 01:09:25,2281.1328931918783,2,25,0.5501165986061096,4.128585338592529,16.104291809953995,15.703200809675367,65.61161877672087,55.40765883563044,9.71794142969884e-05,0.108498990535736,0,0,0
5221,215523.19821002404,2011-01-21 01:09:55,2311.1480090359823,2,25,0.550297200679779,4.131984710693359,16.10887887661975,15.703200809675367,65.63056460217175,55.40765883563044,6.47544875391759e-05,0.108498990535736,0,0,0
5222,215553.2133302892,2011-01-21 01:10:25,2341.1631292910797,2,25,0.5501165986061096,4.135222434997559,16.113466040169072,15.703200809675367,65.64952595663118,55.40765883563044,9.70840483205393e-05,0.108498990535736,0,0,0
5223,215583.228433602,2011-01-21 01:10:55,2371.178232694176,2,25,0.5501165986061096,4.138460159301758,16.118053140375558,15.703200809675367,65.66850230313437,55.40765883563044,6.47544875391759e-05,0.108498990535736,0,0,0
5224,215613.24351937612,2011-01-21 01:11:25,2401.1933183831243,2,25,0.550297200679779,4.142021656036377,16.12264026270835,15.703200809675367,65.68749415888783,55.40765883563044,0.0001295089750783,0.108498990535736,0,0,0
5225,215643.2587701516,2011-01-21 01:11:55,2431.208569158518,2,25,0.5501165986061096,4.145421504974365,16.127227387029524,15.703200809675367,65.70650142486384,55.40765883563044,9.71794142969884e-05,0.108498990535736,0,0,0
5226,215673.2737704577,2011-01-21 01:12:25,2461.2235694596534,2,25,0.550297200679779,4.1486592292785645,16.131814405459274,15.703200809675367,65.72552408950935,55.40765883563044,6.47544875391759e-05,0.108498990535736,0,0,0
5227,215703.29108941267,2011-01-21 01:12:55,2491.2408884897745,2,25,0.5501165986061096,4.152220726013184,16.136401853071234,15.703200809675367,65.7445642481912,55.40765883563044,6.47544875391759e-05,0.108498990535736,0,0,0
5228,215733.30399443672,2011-01-21 01:13:25,2521.253793438647,2,25,0.5501165986061096,4.155620098114014,16.140988524141473,15.703200809675367,65.76361708178564,55.40765883563044,6.47544875391759e-05,0.108498990535736,0,0,0
5229,215763.31912008024,2011-01-21 01:13:55,2551.268919082174,2,25,0.5501165986061096,4.159181594848633,16.145575599234853,15.703200809675367,65.78268765345427,55.40765883563044,6.47544875391759e-05,0.108498990535736,0,0,0
5230,215793.33419361888,2011-01-21 01:14:25,2581.283992615827,2,25,0.550297200679779,4.162743091583252,16.15016267646368,15.703200809675367,65.8017743879197,55.40765883563044,9.70840483205393e-05,0.108498990535736,0,0,0
5231,215823.34930209967,2011-01-21 01:14:55,2611.299101106604,2,25,0.550297200679779,4.16646671295166,16.154749644074734,15.703200809675367,65.82087694537468,55.40765883563044,9.71794142969884e-05,0.108498990535736,0,0,0
5232,215853.36440934232,2011-01-21 01:15:25,2641.3142083392454,2,25,0.550297200679779,4.170028209686279,16.159336677735425,15.703200809675367,65.83999618117763,55.40765883563044,0.0001295089750783,0.108498990535736,0,0,0
5233,215883.3795392064,2011-01-21 01:15:56,2671.329338203292,2,25,0.5501165986061096,4.173589706420898,16.16392371657834,15.703200809675367,65.85913200633892,55.40765883563044,9.71794142969884e-05,0.108498990535736,0,0,0
5234,215913.3946313815,2011-01-21 01:16:26,2701.3444303583547,2,25,0.5501165986061096,4.177151203155518,16.1685107422512,15.703200809675367,65.878284426128,55.40765883563044,9.71794142969884e-05,0.108498990535736,0,0,0
5235,215943.4099091592,2011-01-21 01:16:56,2731.3597081510843,2,25,0.550297200679779,4.180712699890137,16.173097785745917,15.703200809675367,65.89745368118163,55.40765883563044,6.47544875391759e-05,0.108498990535736,0,0,0
5236,215973.4248749744,2011-01-21 01:17:26,2761.3746739712824,2,25,0.5501165986061096,4.184597969055176,16.17768479736977,15.703200809675367,65.91663965153879,55.40765883563044,9.71794142969884e-05,0.108498990535736,0,0,0
5237,216003.43997464812,2011-01-21 01:17:56,2791.389773625034,2,25,0.5504778623580933,4.188483238220215,16.182271822600917,15.703200809675367,65.93584259329631,55.40765883563044,0.0001619339018361,0.108498990535736,0,0,0
5238,216033.45508349483,2011-01-21 01:18:26,2821.4048825067857,2,25,0.550297200679779,4.192044734954834,16.186858936617345,15.703200809675367,65.95506320334887,55.40765883563044,0.0001295089750783,0.108498990535736,0,0,0
5239,216063.470186136,2011-01-21 01:18:56,2851.419985117909,2,25,0.5501165986061096,4.195605754852295,16.191446002703767,15.703200809675367,65.97430084150798,55.40765883563044,6.47544875391759e-05,0.108498990535736,0,0,0
5240,216093.4854262248,2011-01-21 01:19:26,2881.4352252116814,2,25,0.5499359965324402,4.199491024017334,16.196033059504146,15.703200809675367,65.99355578422431,55.40765883563044,6.47544875391759e-05,0.108498990535736,0,0,0
5241,216095.57914253004,2011-01-21 01:19:28,2883.528941531972,2,25,0.550297200679779,4.200138568878174,16.196353030327696,15.703200809675367,65.99489957265673,55.40765883563044,0.0001295089750783,0.108498990535736,0,0,0
5242,216125.5975640054,2011-01-21 01:19:58,30.01523910631111,3,25,0.0,4.090866088867188,16.196353030327696,15.703200809675367,65.99489957265673,55.40765883563044,-0.0005180359003134,0.108498990535736,0,0,0
5243,216155.61254192577,2011-01-21 01:20:28,60.03021701664147,3,25,0.0,4.076781749725342,16.196353030327696,15.703200809675367,65.99489957265673,55.40765883563044,-0.0003237724304199,0.108498990535736,0,0,0
5244,216185.62772050625,2011-01-21 01:20:58,90.04539569234092,3,25,0.0,4.068039894104004,16.196353030327696,15.703200809675367,65.99489957265673,55.40765883563044,-0.0001942634553415,0.108498990535736,0,0,0
5245,216215.5959058701,2011-01-21 01:21:28,120.01358094597305,3,25,0.0,4.061888217926025,16.196353030327696,15.703200809675367,65.99489957265673,55.40765883563044,-0.0001295089750783,0.108498990535736,0,0,0
5246,216215.6012465549,2011-01-21 01:21:28,2.566396249e-06,4,25,1.0327045917510986,4.199976921081543,16.1963530310639,15.703200809675367,65.99489957574878,55.40765883563044,0.0,0.108498990535736,0,0,0
5247,216216.0700034463,2011-01-21 01:21:28,0.468759512939943,4,25,0.9823145866394044,4.199976921081543,16.196483028946233,15.703200809675367,65.99544554704562,55.40765883563044,0.0,0.108498990535736,0,0,0
5248,216217.8043249341,2011-01-21 01:21:30,2.203081005737376,4,25,0.9319246411323548,4.199814796447754,16.196942904804686,15.703200809675367,65.99737695836764,55.40765883563044,-3.24249267578125e-05,0.108498990535736,0,0,0
5249,216220.5544318317,2011-01-21 01:21:33,4.953187903312871,4,25,0.8818958401679993,4.199814796447754,16.197634477371462,15.703200809675367,66.00028146995598,55.40765883563044,0.0,0.108498990535736,0,0,0
5250,216224.3668323769,2011-01-21 01:21:37,8.765588433480367,4,25,0.8316864967346191,4.199814796447754,16.198540619841907,15.703200809675367,66.0040871296167,55.40765883563044,0.0,0.108498990535736,0,0,0
5251,216229.49179509087,2011-01-21 01:21:42,13.89055123268762,4,25,0.7816576957702637,4.199814796447754,16.19968761898386,15.703200809675367,66.00890438584726,55.40765883563044,0.0,0.108498990535736,0,0,0
5252,216236.10088299148,2011-01-21 01:21:49,20.4996390380641,4,25,0.731628954410553,4.199814796447754,16.20107501789299,15.703200809675367,66.01473130855251,55.40765883563044,0.0,0.108498990535736,0,0,0
5253,216244.91323629743,2011-01-21 01:21:57,29.311992359033283,4,25,0.6816001534461975,4.199814796447754,16.20280213678029,15.703200809675367,66.02198500126943,55.40765883563044,3.23295607813634e-05,0.108498990535736,0,0,0
5254,216256.94427393007,2011-01-21 01:22:09,41.343029986659054,4,25,0.6313908100128174,4.199814796447754,16.20499215831123,15.703200809675367,66.03118284019493,55.40765883563044,-3.24249267578125e-05,0.108498990535736,0,0,0
5255,216274.9909600848,2011-01-21 01:22:27,59.38971614138314,4,25,0.5813620090484619,4.199653148651123,16.208024278974587,15.703200809675367,66.04391738429621,55.40765883563044,-6.47544875391759e-05,0.108498990535736,0,0,0
5256,216305.8029516384,2011-01-21 01:22:58,90.20170778015978,4,25,0.5313332676887512,4.199976921081543,16.212766167684716,15.703200809675367,66.0638327732308,55.40765883563044,3.24249267578125e-05,0.108498990535736,0,0,0
5257,216366.3489037656,2011-01-21 01:23:59,150.7476598422221,4,25,0.4813044667243957,4.199976921081543,16.221238017396153,15.703200809675367,66.09941352311945,55.40765883563044,0.0,0.108498990535736,0,0,0
5258,216474.09684740435,2011-01-21 01:25:47,258.4956034659459,4,25,0.4312756955623626,4.199653148651123,16.23485501008272,15.703200809675367,66.15660328977707,55.40765883563044,-3.23295607813634e-05,0.108498990535736,0,0,0
5259,216617.76638166475,2011-01-21 01:28:10,402.1651377163084,4,25,0.381246954202652,4.199814796447754,16.251043415587937,15.703200809675367,66.22459275288205,55.40765883563044,0.0,0.108498990535736,0,0,0
5260,216791.06012663333,2011-01-21 01:31:03,575.4588826999599,4,25,0.3312181830406189,4.199814796447754,16.268167190585604,15.703200809675367,66.29651067683186,55.40765883563044,-3.24249267578125e-05,0.108498990535736,0,0,0
5261,217000.91585606209,2011-01-21 01:34:33,785.3146121136525,4,25,0.2811894118785858,4.199814796447754,16.285983576367467,15.703200809675367,66.37133741914977,55.40765883563044,0.0,0.108498990535736,0,0,0
5262,217256.8958695237,2011-01-21 01:38:49,1041.2946255903173,4,25,0.2311606258153915,4.199814796447754,16.304158595808058,15.703200809675367,66.4476704656113,55.40765883563044,-3.24249267578125e-05,0.108498990535736,0,0,0
5263,217584.73400993788,2011-01-21 01:44:17,1369.1327659744286,4,25,0.1811318546533584,4.199814796447754,16.322865091770964,15.703200809675367,66.52623565788244,55.40765883563044,0.0,0.108498990535736,0,0,0
5264,218029.4607763588,2011-01-21 01:51:42,1813.8595324204173,4,25,0.1311030983924865,4.199814796447754,16.342006533254228,15.703200809675367,66.60662759145481,55.40765883563044,0.0,0.108498990535736,0,0,0
5265,218728.0582625926,2011-01-21 02:03:21,2512.4570187494214,4,25,0.0810743197798729,4.199814796447754,16.36219998555194,15.703200809675367,66.69143762253617,55.40765883563044,0.0,0.108498990535736,0,0,0
5266,219533.8570057085,2011-01-21 02:16:46,3318.255761765092,4,25,0.0498289167881011,4.199814796447754,16.37660600614251,15.703200809675367,66.75194140314426,55.40765883563044,-3.24249267578125e-05,0.108498990535736,0,0,0
5267,219563.8718569909,2011-01-21 02:17:16,30.015264264011847,5,25,0.0,4.189778327941895,16.37660600614251,15.703200809675367,66.75194140314426,55.40765883563044,0.0,0.108498990535736,0,0,0
5268,219593.87132919623,2011-01-21 02:17:46,60.0147364693544,5,25,0.0,4.187997341156006,16.37660600614251,15.703200809675367,66.75194140314426,55.40765883563044,0.0,0.108498990535736,0,0,0
5269,219594.0593778862,2011-01-21 02:17:47,0.187430399225763,6,25,-1.9243103452026844e-05,4.187997341156006,16.37660600614251,15.703200810677242,66.75194140314426,55.40765883982629,0.0,0.1111288517713546,0,0,0
5270,219598.8874132509,2011-01-21 02:17:52,5.015465768916376,6,25,0.0007031940040178,4.187835693359375,16.37660721231173,15.703200810760997,66.75194645459304,55.40765884017706,-3.23295607813634e-05,0.1111288517713546,0,0,0
5271,219612.3411543494,2011-01-21 02:18:05,13.452898657808694,7,25,-1.0993878841400146,3.9877448081970215,16.37660721231173,15.707309149853,66.75194645459304,55.42411570207796,-0.0019102096557617,0.1111288517713546,0,0,0
5272,219642.35638206737,2011-01-21 02:18:35,43.46812638074894,7,25,-1.099568486213684,3.9301133155822754,16.37660721231173,15.71647537343174,66.75194645459304,55.46039456848781,-0.0014245987404137,0.1111288517713546,0,0,0
5273,219672.37139201752,2011-01-21 02:19:05,73.48313634596995,7,25,-1.0993878841400146,3.8844616413116455,16.37660721231173,15.725641594567112,66.75194645459304,55.49620331237354,-0.0011332035064697,0.1111288517713546,0,0,0
5274,219702.3864794408,2011-01-21 02:19:35,103.49822377425276,7,25,-1.0993878841400146,3.8475515842437744,16.37660721231173,15.734807778274368,66.75194645459304,55.53163299619179,-0.0008418083307333,0.1111288517713546,0,0,0
5275,219732.40173561967,2011-01-21 02:20:05,133.5134799481014,7,25,-1.0993878841400146,3.818412303924561,16.37660721231173,15.74397398195781,66.75194645459304,55.56676167327545,-0.0007122993702068,0.1111288517713546,0,0,0
5276,219762.41676258223,2011-01-21 02:20:35,163.52850700090997,7,25,-1.099568486213684,3.794776916503906,16.37660721231173,15.753140075200792,66.75194645459304,55.60164943354779,-0.0005827903514727,0.1111288517713546,0,0,0
5277,219792.43181134417,2011-01-21 02:21:05,193.54355566758693,7,25,-1.0993878841400146,3.774864912033081,16.37660721231173,15.762306224986464,66.75194645459304,55.6363384446318,-0.0004532813909463,0.1111288517713546,0,0,0
5278,219822.44693264185,2011-01-21 02:21:35,223.5586769753077,7,25,-1.0992072820663452,3.757381200790405,16.37660721231173,15.77147235545479,66.75194645459304,55.67085635406727,-0.0004209041653666,0.1111288517713546,0,0,0
5279,219852.4644196306,2011-01-21 02:22:05,253.57616405425836,7,25,-1.099568486213684,3.741516590118408,16.37660721231173,15.780639238611409,66.75194645459304,55.70522565649091,-0.0004209041653666,0.1111288517713546,0,0,0
5280,219882.47719818944,2011-01-21 02:22:35,283.58894251287825,7,25,-1.0993878841400146,3.727270603179932,16.37660721231173,15.789804697507597,66.75194645459304,55.739452079965496,-0.0003561496851034,0.1111288517713546,0,0,0
5281,219912.49225954773,2011-01-21 02:23:05,313.6040038812116,7,25,-1.0993878841400146,3.713672161102295,16.37660721231173,15.798971128613983,66.75194645459304,55.77355593009269,-0.0003885269106831,0.1111288517713546,0,0,0
5282,219942.5073669959,2011-01-21 02:23:35,343.61911132939014,7,25,-1.0993878841400146,3.701368808746338,16.37660721231173,15.808138108339046,66.75194645459304,55.80754310220794,-0.0002913951757363,0.1111288517713546,0,0,0
5283,219972.52249071968,2011-01-21 02:24:05,373.6342350531324,7,25,-1.0993878841400146,3.689389228820801,16.37660721231173,15.817305005934234,66.75194645459304,55.84141776531193,-0.0002913951757363,0.1111288517713546,0,0,0
5284,220002.53759557137,2011-01-21 02:24:35,403.6493399048397,7,25,-1.0993878841400146,3.678057193756104,16.37660721231173,15.826471966272868,66.75194645459304,55.875185869168654,-0.0002913951757363,0.1111288517713546,0,0,0
5285,220032.55287017612,2011-01-21 02:25:05,433.66461460987387,7,25,-1.0992072820663452,3.6668872833251953,16.37660721231173,15.835638659341788,66.75194645459304,55.90884957549319,-0.0002913951757363,0.1111288517713546,0,0,0
5286,220062.56781544007,2011-01-21 02:25:35,463.679559778602,7,25,-1.0993878841400146,3.656202793121338,16.37660721231173,15.844804768983815,66.75194645459304,55.94241199536934,-0.0002913951757363,0.1111288517713546,0,0,0
5287,220092.58294767007,2011-01-21 02:26:05,493.6946919784695,7,25,-1.0993878841400146,3.6460039615631104,16.37660721231173,15.853970923071133,66.75194645459304,55.97587932551027,-0.0002590179501567,0.1111288517713546,0,0,0
5288,220122.598044587,2011-01-21 02:26:35,523.7097888954008,7,25,-1.0993878841400146,3.636128902435303,16.37660721231173,15.863137075412148,66.75194645459304,56.00925358932882,-0.0002590179501567,0.1111288517713546,0,0,0
5289,220152.6153409757,2011-01-21 02:27:05,553.7270853993799,7,25,-1.0993878841400146,3.626415729522705,16.37660721231173,15.87230389461788,66.75194645459304,56.04253994428323,-0.0002266406954731,0.1111288517713546,0,0,0
5290,220182.62826763367,2011-01-21 02:27:35,583.7400119571085,7,25,-1.0993878841400146,3.6167025566101074,16.37660721231173,15.881469388024929,66.75194645459304,56.075733456656366,-0.0002590179501567,0.1111288517713546,0,0,0
5291,220212.6433888061,2011-01-21 02:28:05,613.7551331144545,7,25,-1.099568486213684,3.60747504234314,16.37660721231173,15.89063552884248,66.75194645459304,56.10884273449961,-0.0002266406954731,0.1111288517713546,0,0,0
5292,220242.6584879786,2011-01-21 02:28:35,643.7702322870076,7,25,-1.0993878841400146,3.598247528076172,16.37660721231173,15.899801703085476,66.75194645459304,56.14186703825672,-0.0002590179501567,0.1111288517713546,0,0,0
5293,220272.6736028453,2011-01-21 02:29:05,673.7853471586877,7,25,-1.0993878841400146,3.589182138442993,16.37660721231173,15.908967907460028,66.75194645459304,56.17480816551042,-0.0002590179501567,0.1111288517713546,0,0,0
5294,220302.6888494603,2011-01-21 02:29:35,703.800593783738,7,25,-1.0992072820663452,3.580602169036865,16.37660721231173,15.918134088724509,66.75194645459304,56.20766810428606,-0.0001942634553415,0.1111288517713546,0,0,0
5295,220332.703830744,2011-01-21 02:30:06,733.8155750524384,7,25,-1.0993878841400146,3.5720221996307373,16.37660721231173,15.927300196997246,66.75194645459304,56.24044948999228,-0.0002590179501567,0.1111288517713546,0,0,0
5296,220362.7191120455,2011-01-21 02:30:36,763.8308563739628,7,25,-1.0993878841400146,3.5639278888702397,16.37660721231173,15.936466424506447,66.75194645459304,56.27315518137781,-0.0002266406954731,0.1111288517713546,0,0,0
5297,220392.73416708809,2011-01-21 02:31:06,793.8459113964805,7,25,-1.0992072820663452,3.556319236755371,16.37660721231173,15.94563253131221,66.75194645459304,56.30578718603002,-0.0001618862152099,0.1111288517713546,0,0,0
5298,220422.7491542615,2011-01-21 02:31:36,823.8608985949597,7,25,-1.0993878841400146,3.548224925994873,16.37660721231173,15.95479867197638,66.75194645459304,56.338347126753376,-0.0002266406954731,0.1111288517713546,0,0,0
5299,220452.76427693263,2011-01-21 02:32:06,853.8760212710911,7,25,-1.0993878841400146,3.540778160095215,16.37660721231173,15.963964845058952,66.75194645459304,56.37083723850339,-0.0002266406954731,0.1111288517713546,0,0,0
5300,220482.77937148864,2011-01-21 02:32:36,883.8911158271384,7,25,-1.099568486213684,3.533655166625977,16.37660721231173,15.973131107365491,66.75194645459304,56.40326094284324,-0.0002266406954731,0.1111288517713546,0,0,0
5301,220512.7945072324,2011-01-21 02:33:06,913.9062515558004,7,25,-1.0993878841400146,3.526855945587158,16.37660721231173,15.982297383274808,66.75194645459304,56.43562018393601,-0.0001942634553415,0.1111288517713546,0,0,0
5302,220542.80959532232,2011-01-21 02:33:36,943.9213396457324,7,25,-1.0993878841400146,3.52021861076355,16.37660721231173,15.991463569363171,66.75194645459304,56.46791772016057,-0.0002266406954731,0.1111288517713546,0,0,0
5303,220572.82484319044,2011-01-21 02:34:06,973.936587503856,7,25,-1.0992072820663452,3.513743162155152,16.37660721231173,16.000629869947083,66.75194645459304,56.50015517053324,-0.0001618862152099,0.1111288517713546,0,0,0
5304,220602.83994629772,2011-01-21 02:34:36,1003.9516906212408,7,25,-1.0993878841400146,3.507267951965332,16.37660721231173,16.00979614566175,66.75194645459304,56.53233322500531,-0.0001618862152099,0.1111288517713546,0,0,0
5305,220632.85493256897,2011-01-21 02:35:06,1033.9666769024338,7,25,-1.0993878841400146,3.500954389572144,16.37660721231173,16.01896235578597,66.75194645459304,56.56445305503027,-0.0001942634553415,0.1111288517713546,0,0,0
5306,220662.8700404783,2011-01-21 02:35:36,1063.9817848017367,7,25,-1.099568486213684,3.494964599609375,16.37660721231173,16.02812855300264,66.75194645459304,56.596516467357766,-0.0001295089750783,0.1111288517713546,0,0,0
5307,220692.88517577088,2011-01-21 02:36:06,1093.9969200792746,7,25,-1.0993878841400146,3.4888129234313965,16.37660721231173,16.037294717717437,66.75194645459304,56.62852353944482,-0.0001618862152099,0.1111288517713546,0,0,0
5308,220722.9002835699,2011-01-21 02:36:36,1124.0120278883526,7,25,-1.0993878841400146,3.482661247253418,16.37660721231173,16.04646092153458,66.75194645459304,56.660474853608186,-0.0001942634553415,0.1111288517713546,0,0,0
5309,220752.9154067373,2011-01-21 02:37:06,1154.027151035658,7,25,-1.099568486213684,3.4765095710754395,16.37660721231173,16.055627101158485,66.75194645459304,56.69236980460992,-0.0002266406954731,0.1111288517713546,0,0,0
5310,220782.93061307693,2011-01-21 02:37:36,1184.0423574154047,7,25,-1.0993878841400146,3.470843553543091,16.37660721231173,16.064793389111607,66.75194645459304,56.72421170377973,-0.0001942634553415,0.1111288517713546,0,0,0
5311,220812.94582649425,2011-01-21 02:38:06,1214.0575707925907,7,25,-1.0993878841400146,3.465339422225952,16.37660721231173,16.073959702554014,66.75194645459304,56.75600096833588,-0.0001295089750783,0.1111288517713546,0,0,0
5312,220842.9607202548,2011-01-21 02:38:36,1244.072464563219,7,25,-1.0993878841400146,3.4595115184783936,16.37660721231173,16.08312587842408,66.75194645459304,56.78773821534008,-0.0001618862152099,0.1111288517713546,0,0,0
5313,220872.9758295376,2011-01-21 02:39:06,1274.0875738760449,7,25,-1.0992072820663452,3.453845500946045,16.37660721231173,16.09229211018699,66.75194645459304,56.81942226434117,-0.0001295089750783,0.1111288517713546,0,0,0
5314,220902.99092807356,2011-01-21 02:39:36,1304.1026723819366,7,25,-1.0993878841400146,3.4478557109832764,16.37660721231173,16.101458318618615,66.75194645459304,56.85105217933498,-0.0001295089750783,0.1111288517713546,0,0,0
5315,220933.00611293464,2011-01-21 02:40:06,1334.117857243052,7,25,-1.099568486213684,3.441704034805298,16.37660721231173,16.11062457887219,66.75194645459304,56.8826281686799,-0.0001942634553415,0.1111288517713546,0,0,0
5316,220963.0211545638,2011-01-21 02:40:36,1364.1328988972516,7,25,-1.0992072820663452,3.4357142448425293,16.37660721231173,16.119790779895364,66.75194645459304,56.914148294404,-0.0001295089750783,0.1111288517713546,0,0,0
5317,220993.03626792168,2011-01-21 02:41:06,1394.1480122601715,7,25,-1.099568486213684,3.42940092086792,16.37660721231173,16.128957088269434,66.75194645459304,56.94561182112374,-0.0001618862152099,0.1111288517713546,0,0,0
5318,221023.05138602643,2011-01-21 02:41:36,1424.1631304200469,7,25,-1.0993878841400146,3.4226016998291016,16.37660721231173,16.13812338294707,66.75194645459304,56.977015573774814,-0.0002266406954731,0.1111288517713546,0,0,0
5319,221053.0665071537,2011-01-21 02:42:06,1454.178251477143,7,25,-1.0993878841400146,3.415640592575073,16.37660721231173,16.14728959417113,66.75194645459304,57.00835584854384,-0.0001618862152099,0.1111288517713546,0,0,0
5320,221083.08161189515,2011-01-21 02:42:36,1484.193356223588,7,25,-1.099568486213684,3.408355712890625,16.37660721231173,16.156455904041888,66.75194645459304,57.03963105382354,-0.0002266406954731,0.1111288517713546,0,0,0
5321,221113.0967119248,2011-01-21 02:43:06,1514.2084562332277,7,25,-1.0993878841400146,3.400908946990967,16.37660721231173,16.165622135443407,66.75194645459304,57.070839703055945,-0.0002266406954731,0.1111288517713546,0,0,0
5322,221143.11197114125,2011-01-21 02:43:36,1544.2237154546715,7,25,-1.0993878841400146,3.393300294876098,16.37660721231173,16.174788382549465,66.75194645459304,57.10197882733123,-0.0001942634553415,0.1111288517713546,0,0,0
5323,221173.12696217428,2011-01-21 02:44:06,1574.2387065027451,7,25,-1.0993878841400146,3.3847203254699707,16.37660721231173,16.183954589832805,66.75194645459304,57.133043066867096,-0.0001942634553415,0.1111288517713546,0,0,0
5324,221203.142048966,2011-01-21 02:44:36,1604.2537932944415,7,25,-1.0993878841400146,3.375492811203003,16.37660721231173,16.19312085738033,66.75194645459304,57.16402634701495,-0.0002590179501567,0.1111288517713546,0,0,0
5325,221233.15717020852,2011-01-21 02:45:06,1634.2689146272246,7,25,-1.0993878841400146,3.3654558658599854,16.37660721231173,16.202287107023004,66.75194645459304,57.19492233660412,-0.0002590179501567,0.1111288517713546,0,0,0
5326,221263.17285656955,2011-01-21 02:45:36,1664.2846009882323,7,25,-1.0993878841400146,3.354771375656128,16.37660721231173,16.211453552928226,66.75194645459304,57.22572332039971,-0.0002913951757363,0.1111288517713546,0,0,0
5327,221293.18739623768,2011-01-21 02:46:06,1694.2991405360283,7,25,-1.0993878841400146,3.34295392036438,16.37660721231173,16.220619626127164,66.75194645459304,57.25641901060152,-0.0003237724304199,0.1111288517713546,0,0,0
5328,221323.20263256703,2011-01-21 02:46:36,1724.3143768904813,7,25,-1.0992072820663452,3.329355478286743,16.37660721231173,16.229785904951395,66.75194645459304,57.2869991995537,-0.0003561496851034,0.1111288517713546,0,0,0
5329,221353.21777413023,2011-01-21 02:47:06,1754.329518468722,7,25,-1.099568486213684,3.313328742980957,16.37660721231173,16.238952162468195,66.75194645459304,57.31744527613824,-0.0004532813909463,0.1111288517713546,0,0,0
5330,221383.2327291385,2011-01-21 02:47:36,1784.3444734569234,7,25,-1.0993878841400146,3.294873714447021,16.37660721231173,16.24811830421905,66.75194645459304,57.34773414950504,-0.0005180359003134,0.1111288517713546,0,0,0
5331,221413.2479408415,2011-01-21 02:48:06,1814.3596851449,7,25,-1.0993878841400146,3.272533416748047,16.37660721231173,16.25728446497249,66.75194645459304,57.37783618839805,-0.0006151676061563,0.1111288517713546,0,0,0
5332,221443.2631360585,2011-01-21 02:48:36,1844.3748803718497,7,25,-1.0990266799926758,3.2448511123657227,16.37660721231173,16.266450558618306,66.75194645459304,57.4077099624505,-0.0008094310760498,0.1111288517713546,0,0,0
5333,221473.2781930258,2011-01-21 02:49:06,1874.389937354252,7,25,-1.0992072820663452,3.209883689880371,16.37660721231173,16.27561664678967,66.75194645459304,57.43729793981283,-0.0010360718006268,0.1111288517713546,0,0,0
5334,221503.29321242456,2011-01-21 02:49:36,1904.4049568381968,7,25,-1.0993878841400146,3.164555788040161,16.37660721231173,16.284782840684738,66.75194645459304,57.466522434019296,-0.0013598442310467,0.1111288517713546,0,0,0
5335,221533.30830037413,2011-01-21 02:50:06,1934.4200447025664,7,25,-1.0993878841400146,3.102715492248535,16.37660721231173,16.293949039337342,66.75194645459304,57.49526118904205,-0.0019102096557617,0.1111288517713546,0,0,0
5336,221563.3235484528,2011-01-21 02:50:36,1964.435292776227,7,25,-1.0992072820663452,3.016430377960205,16.37660721231173,16.303115240115073,66.75194645459304,57.52332935666302,-0.0028167725540697,0.1111288517713546,0,0,0
5337,221593.33864349005,2011-01-21 02:51:06,1994.4503878034488,7,25,-1.0993878841400146,2.8875691890716557,16.37660721231173,16.312281442103103,66.75194645459304,57.550425591192095,-0.0040147779509425,0.1111288517713546,0,0,0
5338,221623.3536215407,2011-01-21 02:51:36,2024.4653658541288,7,25,-1.0992072820663452,2.7062573432922363,16.37660721231173,16.321447626961998,66.75194645459304,57.57609974302204,-0.0053421976044774,0.1111288517713546,0,0,0
5339,221624.27561307733,2011-01-21 02:51:37,2025.3873574057648,7,25,-1.0997490882873535,2.699943780899048,16.37660721231173,16.32172918701651,66.75194645459304,57.57686082924963,-0.0053421976044774,0.1111288517713546,0,0,0
5340,221684.29430387897,2011-01-21 02:52:37,60.01457838536044,8,25,0.0,3.617188215255737,16.37660721231173,16.321729261151766,66.75194645459304,57.57686102941066,0.0012627125252038,0.1111288517713546,0,0,0
5341,221684.4871897653,2011-01-21 02:52:38,0.187655891221197,9,25,-1.9243103452026844e-05,3.6173501014709473,16.37660721231173,16.321729262154843,66.75194645459304,57.57686103303914,0.0,0.1077866628766059,0,0,0
5342,221689.31520674916,2011-01-21 02:52:42,5.015672865063697,9,25,0.0007031940040178,3.624958753585816,16.376608387990288,16.32172926223787,66.75195071256388,57.57686103333947,0.0011008263099938,0.1077866628766059,0,0,0
