Data_Point,Test_Time(s),Date_Time,Step_Time(s),Step_Index,Cycle_Index,Current(A),Voltage(V),Charge_Capacity(Ah),Discharge_Capacity(Ah),Charge_Energy(Wh),Discharge_Energy(Wh),dV/dt(V/s),Internal_Resistance(Ohm),Is_FC_Data,AC_Impedance(Ohm),ACI_Phase_Angle(Deg)
3495,143587.93492849547,2011-01-20 05:10:50,30.015252329266787,1,17,0.0,3.64794659614563,10.690535388634157,10.65323434943888,43.53560679036617,37.65843777354406,0.0006475448608398,0.1098207607865333,0,0,0
3496,143617.94992674649,2011-01-20 05:11:20,60.03025047503007,1,17,0.0,3.6672110557556152,10.690535388634157,10.65323434943888,43.53560679036617,37.65843777354406,0.0003885269106831,0.1098207607865333,0,0,0
3497,143647.9650530767,2011-01-20 05:11:50,90.04537682531848,1,17,0.0,3.680809259414673,10.690535388634157,10.65323434943888,43.53560679036617,37.65843777354406,0.0003237724304199,0.1098207607865333,0,0,0
3498,143677.93325341295,2011-01-20 05:12:20,120.0135771364786,1,17,0.0,3.6908462047576895,10.690535388634157,10.65323434943888,43.53560679036617,37.65843777354406,0.0002266406954731,0.1098207607865333,0,0,0
3499,143707.95059225362,2011-01-20 05:12:50,30.01522858508899,2,17,0.5501165986061096,3.813231945037842,10.695121581084743,10.65323434943888,43.553008614413045,37.65843777354406,0.0007770538213662,0.1098207607865333,0,0,0
3500,143737.9655519185,2011-01-20 05:13:20,60.03018822989605,2,17,0.5499359965324402,3.833791255950928,10.699707695286296,10.65323434943888,43.57054817637572,37.65843777354406,0.0004208564641885,0.1098207607865333,0,0,0
3501,143767.98076061902,2011-01-20 05:13:50,90.04539694546408,2,17,0.550297200679779,3.848037242889404,10.7042943276109,10.65323434943888,43.58816687537406,37.65843777354406,0.0003561496851034,0.1098207607865333,0,0,0
3502,143797.99571475008,2011-01-20 05:14:20,120.06035106149172,2,17,0.5501165986061096,3.8590455055236816,10.708881373094751,10.65323434943888,43.60584379107359,37.65843777354406,0.0003237724304199,0.1098207607865333,0,0,0
3503,143828.0109773299,2011-01-20 05:14:50,150.0756136563435,2,17,0.550297200679779,3.868596792221069,10.713468326870936,10.65323434943888,43.62356695509648,37.65843777354406,0.0002590179501567,0.1098207607865333,0,0,0
3504,143858.0259691449,2011-01-20 05:15:20,180.09060546130354,2,17,0.550297200679779,3.8770148754119873,10.71805538381606,10.65323434943888,43.641331565400606,37.65843777354406,0.0002590179501567,0.1098207607865333,0,0,0
3505,143888.04119777007,2011-01-20 05:15:50,210.105834091505,2,17,0.550297200679779,3.8847854137420654,10.722642524743758,10.65323434943888,43.65913358041113,37.65843777354406,0.0002266406954731,0.1098207607865333,0,0,0
3506,143918.0562147979,2011-01-20 05:16:20,240.12085111431568,2,17,0.5501165986061096,3.8917465209960938,10.727229608250775,10.65323434943888,43.676969281564055,37.65843777354406,0.0001618862152099,0.1098207607865333,0,0,0
3507,143948.0713001861,2011-01-20 05:16:50,270.1359365025139,2,17,0.5501165986061096,3.898383855819702,10.731816517740269,10.65323434943888,43.69483572168195,37.65843777354406,0.0001942634553415,0.1098207607865333,0,0,0
3508,143978.08888465777,2011-01-20 05:17:20,300.15352108447206,2,17,0.5501165986061096,3.9045355319976807,10.736403220052855,10.65323434943888,43.71273079898487,37.65843777354406,0.0001295089750783,0.1098207607865333,0,0,0
3509,144008.10152214003,2011-01-20 05:17:50,330.16615845144827,2,17,0.550297200679779,3.910687208175659,10.740989134466693,10.65323434943888,43.73065071446406,37.65843777354406,0.0002266406954731,0.1098207607865333,0,0,0
3510,144038.11660867106,2011-01-20 05:18:20,360.1812449774824,2,17,0.5501165986061096,3.9161911010742183,10.745575466801496,10.65323434943888,43.74859882410535,37.65843777354406,0.0001295089750783,0.1098207607865333,0,0,0
3511,144068.13171984855,2011-01-20 05:18:50,390.1963561599678,2,17,0.5501165986061096,3.921695232391357,10.750161786854695,10.65323434943888,43.76657234374921,37.65843777354406,0.0001618862152099,0.1098207607865333,0,0,0
3512,144098.14685957218,2011-01-20 05:19:20,420.2114958885993,2,17,0.5499359965324402,3.926713705062866,10.754748124187334,10.65323434943888,43.78457022984982,37.65843777354406,9.713172767078504e-05,0.1098207607865333,0,0,0
3513,144128.16196881482,2011-01-20 05:19:50,450.2266051513001,2,17,0.5495747923851013,3.931732177734375,10.759334529549824,10.65323434943888,43.802591877851775,37.65843777354406,0.0001295089750783,0.1098207607865333,0,0,0
3514,144158.17706050872,2011-01-20 05:20:20,480.2416968201518,2,17,0.5499359965324402,3.936588764190674,10.763920903769028,10.65323434943888,43.82063593237305,37.65843777354406,0.0001295089750783,0.1098207607865333,0,0,0
3515,144188.1921826385,2011-01-20 05:20:50,510.25681895493386,2,17,0.5501165986061096,3.9412834644317623,10.768507290563935,10.65323434943888,43.83870161879678,37.65843777354406,0.0001295089750783,0.1098207607865333,0,0,0
3516,144218.20908311545,2011-01-20 05:21:20,540.2737194268793,2,17,0.5499359965324402,3.945654392242432,10.773093919748032,10.65323434943888,43.85678880044532,37.65843777354406,0.0001295089750783,0.1098207607865333,0,0,0
3517,144248.22239826166,2011-01-20 05:21:50,570.2870345730898,2,17,0.5499359965324402,3.94986343383789,10.777680064402071,10.65323434943888,43.87489385879329,37.65843777354406,0.0001295089750783,0.1098207607865333,0,0,0
3518,144278.23863444803,2011-01-20 05:22:20,600.3032708646936,2,17,0.5499359965324402,3.9537487030029297,10.7822665844779,10.65323434943888,43.89301922594786,37.65843777354406,9.713172767078504e-05,0.1098207607865333,0,0,0
3519,144308.25267320767,2011-01-20 05:22:50,630.3173095191092,2,17,0.5501165986061096,3.9577958583831783,10.786852899463335,10.65323434943888,43.91116176825317,37.65843777354406,0.0001618862152099,0.1098207607865333,0,0,0
3520,144338.26777134766,2011-01-20 05:23:20,660.3324076841513,2,17,0.5497553944587708,3.961357355117798,10.791439313078977,10.65323434943888,43.92932204004317,37.65843777354406,9.713172767078504e-05,0.1098207607865333,0,0,0
3521,144368.28284321216,2011-01-20 05:23:50,690.3474795235818,2,17,0.5497553944587708,3.964918851852417,10.79602576759163,10.65323434943888,43.94749930058352,37.65843777354406,6.47544875391759e-05,0.1098207607865333,0,0,0
3522,144398.29794591854,2011-01-20 05:24:20,720.3625822299423,2,17,0.5501165986061096,3.968480348587036,10.800612204417693,10.65323434943888,43.96569272988364,37.65843777354406,6.47544875391759e-05,0.1098207607865333,0,0,0
3523,144428.31307456453,2011-01-20 05:24:50,750.3777108759524,2,17,0.5501165986061096,3.971879959106445,10.80519864210266,10.65323434943888,43.98390197122756,37.65843777354406,9.713172767078504e-05,0.1098207607865333,0,0,0
3524,144458.32816164696,2011-01-20 05:25:21,780.3927979583731,2,17,0.5501165986061096,3.9752795696258554,10.809785015018283,10.65323434943888,44.00212634004097,37.65843777354406,6.47544875391759e-05,0.1098207607865333,0,0,0
3525,144488.343277471,2011-01-20 05:25:51,810.4079138125019,2,17,0.550297200679779,3.978355407714844,10.814371480171111,10.65323434943888,44.02036595319921,37.65843777354406,0.0001295089750783,0.1098207607865333,0,0,0
3526,144518.35841416207,2011-01-20 05:26:21,840.4230504734878,2,17,0.550297200679779,3.981755018234253,10.818957862636976,10.65323434943888,44.03862025569281,37.65843777354406,6.47544875391759e-05,0.1098207607865333,0,0,0
3527,144548.37354846718,2011-01-20 05:26:51,870.4381847786021,2,17,0.5501165986061096,3.984830856323242,10.823544301030864,10.65323434943888,44.056889267131226,37.65843777354406,6.47544875391759e-05,0.1098207607865333,0,0,0
3528,144578.3886960153,2011-01-20 05:27:21,900.4533323317346,2,17,0.5501165986061096,3.987906694412232,10.828130602377682,10.65323434943888,44.07517210823601,37.65843777354406,6.47544875391759e-05,0.1098207607865333,0,0,0
3529,144608.4037498198,2011-01-20 05:27:51,930.468386131204,2,17,0.5501165986061096,3.9909825325012207,10.83271693873551,10.65323434943888,44.09346912784441,37.65843777354406,9.713172767078504e-05,0.1098207607865333,0,0,0
3530,144638.41887558863,2011-01-20 05:28:21,960.4835119251056,2,17,0.5501165986061096,3.994058132171631,10.837303266205195,10.65323434943888,44.11178005690483,37.65843777354406,6.470680091297254e-05,0.1098207607865333,0,0,0
3531,144668.43398091654,2011-01-20 05:28:51,990.49861723295,2,17,0.5501165986061096,3.99697208404541,10.84188955430208,10.65323434943888,44.130104626206425,37.65843777354406,6.47544875391759e-05,0.1098207607865333,0,0,0
3532,144698.4491060588,2011-01-20 05:29:21,1020.513742370215,2,17,0.5499359965324402,3.9998860359191895,10.846475913288216,10.65323434943888,44.1484430644011,37.65843777354406,6.47544875391759e-05,0.1098207607865333,0,0,0
3533,144728.46444131475,2011-01-20 05:29:51,1050.5290776361855,2,17,0.5501165986061096,4.002799987792969,10.851062268064627,10.65323434943888,44.16679488617149,37.65843777354406,9.70840483205393e-05,0.1098207607865333,0,0,0
3534,144758.47950351014,2011-01-20 05:30:21,1080.5441398215553,2,17,0.5499359965324402,4.005713939666748,10.855648595414918,10.65323434943888,44.18515980720318,37.65843777354406,6.47544875391759e-05,0.1098207607865333,0,0,0
3535,144788.49442020792,2011-01-20 05:30:51,1110.5590565193252,2,17,0.5501165986061096,4.0084662437438965,10.860234895254544,10.65323434943888,44.20353778607571,37.65843777354406,3.24249267578125e-05,0.1098207607865333,0,0,0
3536,144818.51131914102,2011-01-20 05:31:21,1140.5759554524352,2,17,0.5501165986061096,4.011380195617676,10.864821464997148,10.65323434943888,44.2219297642158,37.65843777354406,3.24249267578125e-05,0.1098207607865333,0,0,0
3537,144848.5247761859,2011-01-20 05:31:51,1170.5894125173509,2,17,0.550297200679779,4.014132022857666,10.869407602969009,10.65323434943888,44.24033292279239,37.65843777354406,6.47544875391759e-05,0.1098207607865333,0,0,0
3538,144878.5397654946,2011-01-20 05:32:21,1200.6044018110522,2,17,0.5499359965324402,4.016884326934815,10.87399398498912,10.65323434943888,44.25874981539082,37.65843777354406,6.47544875391759e-05,0.1098207607865333,0,0,0
3539,144908.55486990022,2011-01-20 05:32:51,1230.619506211635,2,17,0.5499359965324402,4.019474506378174,10.878580434810868,10.65323434943888,44.27717954343192,37.65843777354406,6.47544875391759e-05,0.1098207607865333,0,0,0
3540,144938.5701952665,2011-01-20 05:33:21,1260.6348315779328,2,17,0.5501165986061096,4.022388458251953,10.883166782058538,10.65323434943888,44.295621411391416,37.65843777354406,6.47544875391759e-05,0.1098207607865333,0,0,0
3541,144968.5852303744,2011-01-20 05:33:51,1290.6498667108797,2,17,0.5499359965324402,4.025140285491943,10.88775315564386,10.65323434943888,44.31407596512031,37.65843777354406,9.70840483205393e-05,0.1098207607865333,0,0,0
3542,144998.60020548274,2011-01-20 05:34:21,1320.6648417991762,2,17,0.5501165986061096,4.027892589569092,10.892339482229984,10.65323434943888,44.332542668162255,37.65843777354406,9.71794142969884e-05,0.1098207607865333,0,0,0
3543,145028.61543622322,2011-01-20 05:34:51,1350.6800725496623,2,17,0.5499359965324402,4.030482769012451,10.896925805957403,10.65323434943888,44.35102170135842,37.65843777354406,6.47544875391759e-05,0.1098207607865333,0,0,0
3544,145058.63043419857,2011-01-20 05:35:21,1380.695070514976,2,17,0.5501165986061096,4.033396720886231,10.901512114067833,10.65323434943888,44.369512896938126,37.65843777354406,9.71794142969884e-05,0.1098207607865333,0,0,0
3545,145088.64554264923,2011-01-20 05:35:51,1410.7101789756778,2,17,0.5499359965324402,4.035662651062012,10.906098444759015,10.65323434943888,44.388016440511066,37.65843777354406,0.0,0.1098207607865333,0,0,0
3546,145118.660676819,2011-01-20 05:36:21,1440.7253131354298,2,17,0.5501165986061096,4.03841495513916,10.910684810622726,10.65323434943888,44.40653229931564,37.65843777354406,6.47544875391759e-05,0.1098207607865333,0,0,0
3547,145148.67588330904,2011-01-20 05:36:51,1470.7405196404886,2,17,0.5501165986061096,4.04132890701294,10.915271191925294,10.65323434943888,44.42506036422335,37.65843777354406,0.0001295089750783,0.1098207607865333,0,0,0
3548,145178.69089026173,2011-01-20 05:37:21,1500.7555265731517,2,17,0.550297200679779,4.04375696182251,10.919857547964687,10.65323434943888,44.44360044514049,37.65843777354406,6.47544875391759e-05,0.1098207607865333,0,0,0
3549,145208.70601758445,2011-01-20 05:37:51,1530.7706539058886,2,17,0.5501165986061096,4.046509265899658,10.92444390034589,10.65323434943888,44.46215280907149,37.65843777354406,3.24249267578125e-05,0.1098207607865333,0,0,0
3550,145238.72109529353,2011-01-20 05:38:21,1560.7857316049233,2,17,0.5501165986061096,4.049099445343018,10.929030249736442,10.65323434943888,44.48071742624021,37.65843777354406,6.47544875391759e-05,0.1098207607865333,0,0,0
3551,145268.73620895715,2011-01-20 05:38:51,1590.8008452635802,2,17,0.5501165986061096,4.051689624786377,10.933616634098849,10.65323434943888,44.4992943358698,37.65843777354406,6.47544875391759e-05,0.1098207607865333,0,0,0
3552,145298.7513261246,2011-01-20 05:39:21,1620.8159624410068,2,17,0.5501165986061096,4.054603576660156,10.938203009442354,10.65323434943888,44.51788358272584,37.65843777354406,9.71794142969884e-05,0.1098207607865333,0,0,0
3553,145328.76642782844,2011-01-20 05:39:51,1650.8310641448686,2,17,0.5501165986061096,4.057031631469727,10.942789401353464,10.65323434943888,44.53648519988381,37.65843777354406,6.47544875391759e-05,0.1098207607865333,0,0,0
3554,145358.781537031,2011-01-20 05:40:21,1680.8461733474198,2,17,0.5501165986061096,4.059945583343506,10.947375807788314,10.65323434943888,44.55509923293218,37.65843777354406,6.47544875391759e-05,0.1098207607865333,0,0,0
3555,145388.79679121988,2011-01-20 05:40:51,1710.8614275513587,2,17,0.5499359965324402,4.062374114990234,10.951962171555676,10.65323434943888,44.57372509986025,37.65843777354406,6.47544875391759e-05,0.1098207607865333,0,0,0
3556,145418.8136630755,2011-01-20 05:41:21,1740.8782993969587,2,17,0.550297200679779,4.065288066864014,10.956548756348363,10.65323434943888,44.59236439384056,37.65843777354406,9.71794142969884e-05,0.1098207607865333,0,0,0
3557,145448.82713522302,2011-01-20 05:41:51,1770.8917715595023,2,17,0.5499359965324402,4.068039894104004,10.961134823227406,10.65323434943888,44.61101412218868,37.65843777354406,6.47544875391759e-05,0.1098207607865333,0,0,0
3558,145478.8419838311,2011-01-20 05:42:21,1800.9066201475216,2,17,0.5501165986061096,4.070953845977783,10.96572120110185,10.65323434943888,44.62967773557707,37.65843777354406,9.70840483205393e-05,0.1098207607865333,0,0,0
3559,145508.85710954477,2011-01-20 05:42:51,1830.9217458562107,2,17,0.5501165986061096,4.073544025421143,10.97030748169558,10.65323434943888,44.64835351446212,37.65843777354406,9.70840483205393e-05,0.1098207607865333,0,0,0
3560,145538.87221905813,2011-01-20 05:43:21,1860.9368553745487,2,17,0.5499359965324402,4.076134204864502,10.974893818171504,10.65323434943888,44.66704224249554,37.65843777354406,6.47544875391759e-05,0.1098207607865333,0,0,0
3561,145568.88754420888,2011-01-20 05:43:51,1890.952180525309,2,17,0.5499359965324402,4.079048156738281,10.979480222827702,10.65323434943888,44.68574406603064,37.65843777354406,6.47544875391759e-05,0.1098207607865333,0,0,0
3562,145598.9025953467,2011-01-20 05:44:21,1920.9672317583825,2,17,0.5501165986061096,4.08180046081543,10.984066590764408,10.65323434943888,44.70445867424074,37.65843777354406,6.47544875391759e-05,0.1098207607865333,0,0,0
3563,145628.9176739831,2011-01-20 05:44:51,1950.9823103145527,2,17,0.5499359965324402,4.084714412689209,10.988652892571778,10.65323434943888,44.72318606714364,37.65843777354406,6.47544875391759e-05,0.1098207607865333,0,0,0
3564,145658.9326699885,2011-01-20 05:45:21,1980.997306299932,2,17,0.5501165986061096,4.087628364562988,10.993239278525063,10.65323434943888,44.7419269937433,37.65843777354406,3.24249267578125e-05,0.1098207607865333,0,0,0
3565,145688.94789116012,2011-01-20 05:45:51,2011.012527466532,2,17,0.5501165986061096,4.0903801918029785,10.997825647959043,10.65323434943888,44.760681004311294,37.65843777354406,6.47544875391759e-05,0.1098207607865333,0,0,0
3566,145718.9628720529,2011-01-20 05:46:21,2041.0275083693205,2,17,0.5499359965324402,4.093456268310547,11.002412014710622,10.65323434943888,44.779448270133365,37.65843777354406,9.71794142969884e-05,0.1098207607865333,0,0,0
3567,145748.97802155587,2011-01-20 05:46:51,2071.0426578673,2,17,0.550297200679779,4.096531867980957,11.006998415549765,10.65323434943888,44.79822910504048,37.65843777354406,9.70840483205393e-05,0.1098207607865333,0,0,0
3568,145778.99311014707,2011-01-20 05:47:21,2101.057746463493,2,17,0.550297200679779,4.099445819854736,11.011584774153166,10.65323434943888,44.81702323172114,37.65843777354406,9.70840483205393e-05,0.1098207607865333,0,0,0
3569,145809.00835754903,2011-01-20 05:47:51,2131.07299390558,2,17,0.5501165986061096,4.102198123931885,11.016171104269816,10.65323434943888,44.835830883651006,37.65843777354406,6.47544875391759e-05,0.1098207607865333,0,0,0
3570,145839.02332001086,2011-01-20 05:48:21,2161.087956322296,2,17,0.5501165986061096,4.105435848236084,11.020757468861744,10.65323434943888,44.85465246395745,37.65843777354406,0.0001295089750783,0.1098207607865333,0,0,0
3571,145869.03851893704,2011-01-20 05:48:51,2191.103155283553,2,17,0.5501165986061096,4.108511447906494,11.025343915474528,10.65323434943888,44.87348840678759,37.65843777354406,9.70840483205393e-05,0.1098207607865333,0,0,0
3572,145899.0559435453,2011-01-20 05:49:21,2221.1205798817823,2,17,0.550297200679779,4.111425399780273,11.02993060338508,10.65323434943888,44.892339333399065,37.65843777354406,6.47544875391759e-05,0.1098207607865333,0,0,0
3573,145929.06867508197,2011-01-20 05:49:51,2251.1333113984083,2,17,0.5501165986061096,4.114663124084473,11.034516587830922,10.65323434943888,44.91120141888138,37.65843777354406,0.0001295089750783,0.1098207607865333,0,0,0
3574,145959.08376836486,2011-01-20 05:50:21,2281.1484046762703,2,17,0.5501165986061096,4.117577075958252,11.039102905567493,10.65323434943888,44.93007914368805,37.65843777354406,6.47544875391759e-05,0.1098207607865333,0,0,0
3575,145989.0990040326,2011-01-20 05:50:51,2311.1636403740863,2,17,0.5501165986061096,4.120814800262451,11.043689293423258,10.65323434943888,44.948971586008,37.65843777354406,9.71794142969884e-05,0.1098207607865333,0,0,0
3576,146019.1157841145,2011-01-20 05:51:21,2341.1804204459577,2,17,0.5501165986061096,4.12405252456665,11.048275897713792,10.65323434943888,44.96787942789192,37.65843777354406,9.71794142969884e-05,0.1098207607865333,0,0,0
3577,146049.12911021803,2011-01-20 05:51:51,2371.19374653444,2,17,0.5499359965324402,4.1271281242370605,11.052861936966227,10.65323434943888,44.98679972500469,37.65843777354406,3.23295607813634e-05,0.1098207607865333,0,0,0
3578,146079.14421547574,2011-01-20 05:52:21,2401.2088517871466,2,17,0.5499359965324402,4.13036584854126,11.05744827992928,10.65323434943888,45.00573613944783,37.65843777354406,9.70840483205393e-05,0.1098207607865333,0,0,0
3579,146109.15932310437,2011-01-20 05:52:51,2431.223959415775,2,17,0.5499359965324402,4.133603572845459,11.062034664744962,10.65323434943888,45.02468764689179,37.65843777354406,9.70840483205393e-05,0.1098207607865333,0,0,0
3580,146139.17459594473,2011-01-20 05:53:21,2461.239232366436,2,17,0.550297200679779,4.137165069580078,11.066621006380332,10.65323434943888,45.04365404540168,37.65843777354406,0.0001295089750783,0.1098207607865333,0,0,0
3581,146169.1896760197,2011-01-20 05:53:51,2491.254312351168,2,17,0.5501165986061096,4.140564918518066,11.071207374121588,10.65323434943888,45.06263578422755,37.65843777354406,0.0001619339018361,0.1098207607865333,0,0,0
3582,146199.20691648903,2011-01-20 05:54:21,2521.271552905704,2,17,0.5501165986061096,4.143640518188477,11.07579409598627,10.65323434943888,45.081634362397565,37.65843777354406,6.47544875391759e-05,0.1098207607865333,0,0,0
3583,146229.21980279143,2011-01-20 05:54:51,2551.284439127904,2,17,0.5501165986061096,4.147364139556885,11.080380097656484,10.65323434943888,45.10064578497363,37.65843777354406,0.0001295089750783,0.1098207607865333,0,0,0
3584,146259.2349144952,2011-01-20 05:55:21,2581.2995508066256,2,17,0.5499359965324402,4.150601863861084,11.084966396774172,10.65323434943888,45.119674181636654,37.65843777354406,6.47544875391759e-05,0.1098207607865333,0,0,0
3585,146289.24999098122,2011-01-20 05:55:51,2611.3146272926374,2,17,0.5501165986061096,4.154163360595703,11.089552749116915,10.65323434943888,45.13871856668782,37.65843777354406,0.0001295089750783,0.1098207607865333,0,0,0
3586,146319.26508031925,2011-01-20 05:56:21,2641.329716635692,2,17,0.5501165986061096,4.157724857330322,11.094139103011264,10.65323434943888,45.15777876271766,37.65843777354406,9.71794142969884e-05,0.1098207607865333,0,0,0
3587,146349.28019302557,2011-01-20 05:56:51,2671.3448293369624,2,17,0.5501165986061096,4.161124229431152,11.098725524169154,10.65323434943888,45.17685526628704,37.65843777354406,9.70840483205393e-05,0.1098207607865333,0,0,0
3588,146379.29536010735,2011-01-20 05:57:22,2701.359996423779,2,17,0.5501165986061096,4.164685726165772,11.10331190946606,10.65323434943888,45.19594770416048,37.65843777354406,9.70840483205393e-05,0.1098207607865333,0,0,0
3589,146409.31047003172,2011-01-20 05:57:52,2731.375106338104,2,17,0.550297200679779,4.16840934753418,11.107898184486713,10.65323434943888,45.21505590685436,37.65843777354406,0.0001295089750783,0.1098207607865333,0,0,0
3590,146439.32558826677,2011-01-20 05:58:22,2761.390224608255,2,17,0.5501165986061096,4.17180871963501,11.112484471743656,10.65323434943888,45.23418052848981,37.65843777354406,9.70840483205393e-05,0.1098207607865333,0,0,0
3591,146469.34089593394,2011-01-20 05:58:52,2791.405532260403,2,17,0.5501165986061096,4.175370216369629,11.117070814778156,10.65323434943888,45.25332189717034,37.65843777354406,0.0001295089750783,0.1098207607865333,0,0,0
3592,146499.35580726335,2011-01-20 05:59:22,2821.420443579768,2,17,0.5501165986061096,4.178931713104248,11.121656947396495,10.65323434943888,45.27247902957832,37.65843777354406,9.70840483205393e-05,0.1098207607865333,0,0,0
3593,146529.37091740323,2011-01-20 05:59:52,2851.435553714643,2,17,0.5501165986061096,4.182655334472656,11.126243210034035,10.65323434943888,45.29165359645604,37.65843777354406,9.71794142969884e-05,0.1098207607865333,0,0,0
3594,146559.3861222191,2011-01-20 06:00:22,2881.4507585405163,2,17,0.5501165986061096,4.186378479003906,11.130829463061618,10.65323434943888,45.3108449322045,37.65843777354406,0.0001295089750783,0.1098207607865333,0,0,0
3595,146589.40120903082,2011-01-20 06:00:52,2911.4658453622874,2,17,0.5501165986061096,4.1901021003723145,11.135415208745773,10.65323434943888,45.330051240790304,37.65843777354406,9.71794142969884e-05,0.1098207607865333,0,0,0
3596,146619.41814550752,2011-01-20 06:01:22,2941.4827818489925,2,17,0.5499359965324402,4.1938252449035645,11.140000992017326,10.65323434943888,45.34927488157324,37.65843777354406,6.47544875391759e-05,0.1098207607865333,0,0,0
3597,146649.4314786185,2011-01-20 06:01:52,2971.4961149649894,2,17,0.5499359965324402,4.197710514068604,11.144586362966448,10.65323434943888,45.36851410933475,37.65843777354406,0.0001295089750783,0.1098207607865333,0,0,0
3598,146666.89979253165,2011-01-20 06:02:09,2988.964428858077,2,17,0.5501165986061096,4.200138568878174,11.147255013173751,10.65323434943888,45.37971924977434,37.65843777354406,0.0001942634553415,0.1098207607865333,0,0,0
3599,146696.9214074406,2011-01-20 06:02:39,30.015229808137203,3,17,0.0,4.091513633728027,11.147255013173751,10.65323434943888,45.37971924977434,37.65843777354406,-0.0004532813909463,0.1098207607865333,0,0,0
3600,146726.93861642646,2011-01-20 06:03:09,60.03243876893181,3,17,0.0,4.077429294586182,11.147255013173751,10.65323434943888,45.37971924977434,37.65843777354406,-0.0003237724304199,0.1098207607865333,0,0,0
3601,146756.95167837664,2011-01-20 06:03:39,90.04550073914989,3,17,0.0,4.068525791168213,11.147255013173751,10.65323434943888,45.37971924977434,37.65843777354406,-0.0002265930233988,0.1098207607865333,0,0,0
3602,146786.91988618148,2011-01-20 06:04:09,120.0137086492489,3,17,0.0,4.062697887420654,11.147255013173751,10.65323434943888,45.37971924977434,37.65843777354406,-9.70840483205393e-05,0.1098207607865333,0,0,0
3603,146786.92652676313,2011-01-20 06:04:09,0.013898363999506,4,17,1.0162692070007324,4.199653148651123,11.147258974300035,10.65323434943888,45.37973588545009,37.65843777354406,-3.23295607813634e-05,0.1098207607865333,0,0,0
3604,146787.72585871432,2011-01-20 06:04:10,0.813230390357506,4,17,0.9660598039627076,4.199814796447754,11.147477601332746,10.65323434943888,45.3806540753344,37.65843777354406,0.0,0.1098207607865333,0,0,0
3605,146789.73895880414,2011-01-20 06:04:12,2.826330369921959,4,17,0.9156697988510132,4.199814796447754,11.148002634651323,10.65323434943888,45.38285913263346,37.65843777354406,0.0,0.1098207607865333,0,0,0
3606,146792.81701149856,2011-01-20 06:04:15,5.904383069342052,4,17,0.8652797937393188,4.199814796447754,11.148762886993254,10.65323434943888,45.38605205928756,37.65843777354406,0.0,0.1098207607865333,0,0,0
3607,146797.0044389211,2011-01-20 06:04:20,10.091810491918318,4,17,0.8148897886276245,4.199653148651123,11.14973890489488,10.65323434943888,45.39015116342407,37.65843777354406,-3.23295607813634e-05,0.1098207607865333,0,0,0
3608,146802.5824928779,2011-01-20 06:04:25,15.6698644637404,4,17,0.7646804451942444,4.199814796447754,11.150961293086622,10.65323434943888,45.39528501668013,37.65843777354406,-3.24249267578125e-05,0.1098207607865333,0,0,0
3609,146809.81672088502,2011-01-20 06:04:32,22.904092455812947,4,17,0.7146516442298889,4.199814796447754,11.15244548185114,10.65323434943888,45.4015184152236,37.65843777354406,0.0,0.1098207607865333,0,0,0
3610,146819.44158482747,2011-01-20 06:04:42,32.52895640827909,4,17,0.6644423007965088,4.199814796447754,11.154286009262638,10.65323434943888,45.40924836411278,37.65843777354406,-3.24249267578125e-05,0.1098207607865333,0,0,0
3611,146832.97260288283,2011-01-20 06:04:56,46.05997447870076,4,17,0.6144134998321533,4.199814796447754,11.1566844439528,10.65323434943888,45.41932145302567,37.65843777354406,0.0,0.1098207607865333,0,0,0
3612,146853.94097149422,2011-01-20 06:05:16,67.02834306502359,4,17,0.5643847584724426,4.199814796447754,11.160106147979404,10.65323434943888,45.43369217844501,37.65843777354406,-3.24249267578125e-05,0.1098207607865333,0,0,0
3613,146891.50282019368,2011-01-20 06:05:54,104.590191789537,4,17,0.5143559575080872,4.199814796447754,11.1657062722114,10.65323434943888,45.45721191686201,37.65843777354406,0.0,0.1098207607865333,0,0,0
3614,146966.4547901249,2011-01-20 06:07:09,179.54216171573768,4,17,0.4643272161483764,4.199814796447754,11.175844045156438,10.65323434943888,45.4997891567317,37.65843777354406,0.0,0.1098207607865333,0,0,0
3615,147086.82762150347,2011-01-20 06:09:09,299.9149930893149,4,17,0.4142984449863434,4.199814796447754,11.190501979404036,10.65323434943888,45.561350523634445,37.65843777354406,0.0,0.1098207607865333,0,0,0
3616,147239.45004848228,2011-01-20 06:11:42,452.5374201683426,4,17,0.3640890717506408,4.199653148651123,11.206987317356292,10.65323434943888,45.63058681032627,37.65843777354406,-6.47544875391759e-05,0.1098207607865333,0,0,0
3617,147424.0249416533,2011-01-20 06:14:47,637.1123132241124,4,17,0.3140603005886078,4.199814796447754,11.224355100938944,10.65323434943888,45.70352933767468,37.65843777354406,0.0,0.1098207607865333,0,0,0
3618,147648.47437423567,2011-01-20 06:18:31,861.561745811484,4,17,0.2640315294265747,4.199814796447754,11.242344130481971,10.65323434943888,45.77908096422358,37.65843777354406,-3.24249267578125e-05,0.1098207607865333,0,0,0
3619,147923.67265295263,2011-01-20 06:23:06,1136.76002452844,4,17,0.2140027433633804,4.199653148651123,11.260568871550523,10.65323434943888,45.85562248604737,37.65843777354406,-3.23295607813634e-05,0.1098207607865333,0,0,0
3620,148284.91654952487,2011-01-20 06:29:07,1498.0039211106912,4,17,0.1639739871025085,4.199814796447754,11.279464387156857,10.65323434943888,45.934981470808935,37.65843777354406,0.0,0.1098207607865333,0,0,0
3621,148794.61087659196,2011-01-20 06:37:37,2007.698248187791,4,17,0.1139452084898948,4.199653148651123,11.298941446894734,10.65323434943888,46.01678232918818,37.65843777354406,-3.23295607813634e-05,0.1098207607865333,0,0,0
3622,149667.92405127498,2011-01-20 06:52:11,2881.011422865835,4,17,0.0639164373278617,4.199814796447754,11.319876380137943,10.65323434943888,46.10470622709618,37.65843777354406,0.0,0.1098207607865333,0,0,0
3623,150086.23121596428,2011-01-20 06:59:09,3299.318587545112,4,17,0.0498289167881011,4.199814796447754,11.326497621405949,10.65323434943888,46.13251451479903,37.65843777354406,-3.24249267578125e-05,0.1098207607865333,0,0,0
3624,150116.24704979098,2011-01-20 06:59:39,30.01521275062463,5,17,0.0,4.1896162033081055,11.326497621405949,10.65323434943888,46.13251451479903,37.65843777354406,-6.47544875391759e-05,0.1098207607865333,0,0,0
3625,150146.24641360616,2011-01-20 07:00:09,60.014576545775626,5,17,0.0,4.187835693359375,11.326497621405949,10.65323434943888,46.13251451479903,37.65843777354406,-6.47544875391759e-05,0.1098207607865333,0,0,0
3626,150146.4372805095,2011-01-20 07:00:09,0.187363226811438,6,17,-1.9243103452026844e-05,4.187673568725586,11.326497621405949,10.653234350440394,46.13251451479903,37.65843777773807,0.0,0.11173777282238,0,0,0
3627,150151.26520378483,2011-01-20 07:00:14,5.015286482078411,6,17,0.0007031940040178,4.187835693359375,11.326498578179878,10.653234350523476,46.13251852179454,37.65843777808599,-9.70840483205393e-05,0.11173777282238,0,0,0
3628,150165.40918556903,2011-01-20 07:00:28,14.140411696844444,7,17,-1.0993878841400146,3.9877448081970215,11.326498578179878,10.65755307522341,46.13251852179454,37.675738944966,-0.0018454551463946,0.11173777282238,0,0,0
3629,150195.42424957396,2011-01-20 07:00:58,44.15547572681144,7,17,-1.099568486213684,3.931570291519165,11.326498578179878,10.666720112383096,46.13251852179454,37.71202683938724,-0.0013922214275225,0.11173777282238,0,0,0
3630,150225.43955979752,2011-01-20 07:01:28,74.17078591528116,7,17,-1.0993878841400146,3.8880231380462646,11.326498578179878,10.675887173157015,46.13251852179454,37.7478586737551,-0.0010036944877356,0.11173777282238,0,0,0
3631,150255.4544695129,2011-01-20 07:01:58,104.18569564568617,7,17,-1.0993878841400146,3.852731943130493,11.326498578179878,10.685054108974052,46.13251852179454,37.783331392203145,-0.0008418083307333,0.11173777282238,0,0,0
3632,150285.4697438169,2011-01-20 07:02:28,134.20096994470833,7,17,-1.0993878841400146,3.824887752532959,11.326498578179878,10.694221194248836,46.13251852179454,37.81851645305418,-0.0006151676061563,0.11173777282238,0,0,0
3633,150315.48483946067,2011-01-20 07:02:58,164.21606559849164,7,17,-1.0993878841400146,3.801899909973145,11.326498578179878,10.703388191326567,46.13251852179454,37.85347029966952,-0.0006151676061563,0.11173777282238,0,0,0
3634,150345.50212504243,2011-01-20 07:03:28,194.23335116521176,7,17,-1.0993878841400146,3.782635450363159,11.326498578179878,10.712555880369791,46.13251852179454,37.88823483822077,-0.0004532813909463,0.11173777282238,0,0,0
3635,150375.51490039832,2011-01-20 07:03:58,224.24612652109872,7,17,-1.0997490882873535,3.7654755115509033,11.326498578179878,10.72172217759726,46.13251852179454,37.92282847471076,-0.0004856586456298,0.11173777282238,0,0,0
3636,150405.53009983574,2011-01-20 07:04:28,254.2613259635553,7,17,-1.099568486213684,3.750096559524536,11.326498578179878,10.730889160270737,46.13251852179454,37.9572768452369,-0.0004209041653666,0.11173777282238,0,0,0
3637,150435.545112212,2011-01-20 07:04:58,284.2763383347728,7,17,-1.0993878841400146,3.73617434501648,11.326498578179878,10.740056121030984,46.13251852179454,37.99159001228686,-0.0003561496851034,0.11173777282238,0,0,0
3638,150465.560224001,2011-01-20 07:05:28,314.29145014883244,7,17,-1.0993878841400146,3.722899675369263,11.326498578179878,10.749223053223158,46.13251852179454,38.02577794149968,-0.0003885269106831,0.11173777282238,0,0,0
3639,150495.5754634231,2011-01-20 07:05:58,344.3066895609056,7,17,-1.0993878841400146,3.7105963230133057,11.326498578179878,10.758390083055335,46.13251852179454,38.05984905669055,-0.0002913951757363,0.11173777282238,0,0,0
3640,150525.5922083724,2011-01-20 07:06:29,374.3234345002159,7,17,-1.099568486213684,3.6987786293029785,11.326498578179878,10.767557588887584,46.13251852179454,38.09381111793533,-0.0003237724304199,0.11173777282238,0,0,0
3641,150555.60559691154,2011-01-20 07:06:59,404.3368230543817,7,17,-1.0993878841400146,3.687446594238281,11.326498578179878,10.77672400851392,46.13251852179454,38.12766266290104,-0.0002913951757363,0.11173777282238,0,0,0
3642,150585.6207182343,2011-01-20 07:07:29,434.35194437714,7,17,-1.0993878841400146,3.676600217819214,11.326498578179878,10.78589097243872,46.13251852179454,38.16141374087535,-0.0002590179501567,0.11173777282238,0,0,0
3643,150615.63591708028,2011-01-20 07:07:59,464.36714323313487,7,17,-1.0993878841400146,3.6660778522491455,11.326498578179878,10.795057984890732,46.13251852179454,38.19506736402555,-0.0002590179501567,0.11173777282238,0,0,0
3644,150645.65090310582,2011-01-20 07:08:29,494.38212924866593,7,17,-1.0997490882873535,3.655879020690918,11.326498578179878,10.804224981670163,46.13251852179454,38.22862694846975,-0.0002590179501567,0.11173777282238,0,0,0
3645,150675.66613213703,2011-01-20 07:08:59,524.3973582698418,7,17,-1.099568486213684,3.645842075347901,11.326498578179878,10.813392031368508,46.13251852179454,38.26209518644638,-0.0002913951757363,0.11173777282238,0,0,0
3646,150705.68124036718,2011-01-20 07:09:29,554.4124665049816,7,17,-1.0993878841400146,3.6362907886505127,11.326498578179878,10.822558994093594,46.13251852179454,38.2954725655427,-0.0002590179501567,0.11173777282238,0,0,0
3647,150735.6963573391,2011-01-20 07:09:59,584.4275834718837,7,17,-1.099568486213684,3.626739501953125,11.326498578179878,10.83172595960744,46.13251852179454,38.328761866039294,-0.0002590179501567,0.11173777282238,0,0,0
3648,150765.711360367,2011-01-20 07:10:29,614.4425865148523,7,17,-1.0993878841400146,3.6173501014709473,11.326498578179878,10.840892903458062,46.13251852179454,38.36196550352077,-0.0003237724304199,0.11173777282238,0,0,0
3649,150795.72669839987,2011-01-20 07:10:59,644.4579245477189,7,17,-1.0993878841400146,3.60860824584961,11.326498578179878,10.850059974834686,46.13251852179454,38.395084990567575,-0.0001942634553415,0.11173777282238,0,0,0
3650,150825.7415583763,2011-01-20 07:11:29,674.4727844940467,7,17,-1.0993878841400146,3.599704504013061,11.326498578179878,10.859226828622209,46.13251852179454,38.42812100858606,-0.0001942634553415,0.11173777282238,0,0,0
3651,150855.756668847,2011-01-20 07:11:59,704.4878949697708,7,17,-1.099568486213684,3.5908010005950928,11.326498578179878,10.868393799150269,46.13251852179454,38.46107757245342,-0.0002266406954731,0.11173777282238,0,0,0
3652,150885.7718098087,2011-01-20 07:12:29,734.5030359565378,7,17,-1.0993878841400146,3.5825448036193848,11.326498578179878,10.877560821790873,46.13251852179454,38.49395623137084,-0.0001942634553415,0.11173777282238,0,0,0
3653,150915.78689277085,2011-01-20 07:12:59,764.5181188936272,7,17,-1.099568486213684,3.573802947998047,11.326498578179878,10.886727833686637,46.13251852179454,38.52675805324769,-0.0002913951757363,0.11173777282238,0,0,0
3654,150945.80202657974,2011-01-20 07:13:29,794.5332526974921,7,17,-1.0993878841400146,3.565870523452759,11.326498578179878,10.89589486398032,46.13251852179454,38.55948455526716,-0.0002590179501567,0.11173777282238,0,0,0
3655,150975.817205481,2011-01-20 07:13:59,824.5484317190536,7,17,-1.0993878841400146,3.55826187133789,11.326498578179878,10.905061846443902,46.13251852179454,38.59213790163011,-0.0001618862152099,0.11173777282238,0,0,0
3656,151005.8324345924,2011-01-20 07:14:29,854.5636607502544,7,17,-1.099568486213684,3.5503294467926025,11.326498578179878,10.914228861618533,46.13251852179454,38.62472038714054,-0.0002266406954731,0.11173777282238,0,0,0
3657,151035.84737186143,2011-01-20 07:14:59,884.5785979992443,7,17,-1.099568486213684,3.5428826808929443,11.326498578179878,10.92339583390316,46.13251852179454,38.657232748464544,-0.0001942634553415,0.11173777282238,0,0,0
3658,151065.86244755544,2011-01-20 07:15:29,914.5936736732316,7,17,-1.099568486213684,3.535597801208496,11.326498578179878,10.932562795793446,46.13251852179454,38.68967794630685,-0.0002266406954731,0.11173777282238,0,0,0
3659,151095.8775627229,2011-01-20 07:15:59,944.6087888456616,7,17,-1.099568486213684,3.528636693954468,11.326498578179878,10.941729803827652,46.13251852179454,38.72205756153638,-0.0001942634553415,0.11173777282238,0,0,0
3660,151125.8944714103,2011-01-20 07:16:29,974.6256975380952,7,17,-1.0993878841400146,3.5218374729156494,11.326498578179878,10.950897336342912,46.13251852179454,38.75437499146225,-0.0001618862152099,0.11173777282238,0,0,0
3661,151155.9079153876,2011-01-20 07:16:59,1004.6391415204048,7,17,-1.099568486213684,3.515362024307251,11.326498578179878,10.960063817770854,46.13251852179454,38.78662711277572,-0.0001295089750783,0.11173777282238,0,0,0
3662,151185.92293780888,2011-01-20 07:17:29,1034.65416396172,7,17,-1.099568486213684,3.5090487003326416,11.326498578179878,10.969230811213883,46.13251852179454,38.81882277856013,-0.0001618862152099,0.11173777282238,0,0,0
3663,151215.93803265062,2011-01-20 07:17:59,1064.6692587734044,7,17,-1.0993878841400146,3.503058910369873,11.326498578179878,10.97839788782295,46.13251852179454,38.850962661546845,-0.0001295089750783,0.11173777282238,0,0,0
3664,151245.953130144,2011-01-20 07:18:29,1094.68435626176,7,17,-1.0992072820663452,3.4969072341918945,11.326498578179878,10.987564918096371,46.13251852179454,38.88304643921233,-0.0001295089750783,0.11173777282238,0,0,0
3665,151275.96833606763,2011-01-20 07:18:59,1124.6995621953947,7,17,-1.0993878841400146,3.490917444229126,11.326498578179878,10.996732044316284,46.13251852179454,38.915075462548856,-0.0001942634553415,0.11173777282238,0,0,0
3666,151305.98333115576,2011-01-20 07:19:29,1154.7145572785248,7,17,-1.099568486213684,3.4852514266967773,11.326498578179878,11.00589908808676,46.13251852179454,38.94705115019192,-0.0001618862152099,0.11173777282238,0,0,0
3667,151335.99837891015,2011-01-20 07:19:59,1184.7296050579907,7,17,-1.0993878841400146,3.4797472953796387,11.326498578179878,11.015066161997275,46.13251852179454,38.978974846408775,-0.0001295089750783,0.11173777282238,0,0,0
3668,151366.01356648302,2011-01-20 07:20:29,1214.744792625852,7,17,-1.099568486213684,3.47359561920166,11.326498578179878,11.024232825515895,46.13251852179454,39.01084369081226,-0.0001618862152099,0.11173777282238,0,0,0
3669,151396.02868356524,2011-01-20 07:20:59,1244.7599097030293,7,17,-1.0993878841400146,3.4679296016693115,11.326498578179878,11.033399426653425,46.13251852179454,39.04265979779274,-0.0001618862152099,0.11173777282238,0,0,0
3670,151426.04378554475,2011-01-20 07:21:29,1274.7750116875904,7,17,-1.099568486213684,3.462101697921753,11.326498578179878,11.042566142918778,46.13251852179454,39.074423507796986,-0.0001942634553415,0.11173777282238,0,0,0
3671,151456.05887263222,2011-01-20 07:21:59,1304.7900988552235,7,17,-1.0993878841400146,3.4565975666046143,11.326498578179878,11.051732848826166,46.13251852179454,39.106134003126456,-9.713172767078504e-05,0.11173777282238,0,0,0
3672,151486.07401257136,2011-01-20 07:22:29,1334.8052386891177,7,17,-1.099568486213684,3.4506077766418457,11.326498578179878,11.060899909468812,46.13251852179454,39.13779236562908,-0.0001618862152099,0.11173777282238,0,0,0
3673,151516.08923758252,2011-01-20 07:22:59,1364.8204637103242,7,17,-1.0993878841400146,3.444941759109497,11.326498578179878,11.07006691433207,46.13251852179454,39.16939700157207,-9.713172767078504e-05,0.11173777282238,0,0,0
3674,151546.10427976804,2011-01-20 07:23:29,1394.8355059810604,7,17,-1.099568486213684,3.4387900829315186,11.326498578179878,11.079233969037588,46.13251852179454,39.20094710444543,-0.0001295089750783,0.11173777282238,0,0,0
3675,151576.11934997342,2011-01-20 07:23:59,1424.850576101206,7,17,-1.0993878841400146,3.43263840675354,11.326498578179878,11.088400953183443,46.13251852179454,39.23244228854038,-0.0001618862152099,0.11173777282238,0,0,0
3676,151606.13446276993,2011-01-20 07:24:29,1454.8656889227768,7,17,-1.099568486213684,3.4261631965637207,11.326498578179878,11.097567983420184,46.13251852179454,39.26387994869832,-0.0001942634553415,0.11173777282238,0,0,0
3677,151636.14982679256,2011-01-20 07:24:59,1484.8810529203554,7,17,-1.099568486213684,3.4196877479553223,11.326498578179878,11.10673510417803,46.13251852179454,39.295258447875625,-0.0001618862152099,0.11173777282238,0,0,0
3678,151666.16466697463,2011-01-20 07:25:29,1514.8958931274867,7,17,-1.099568486213684,3.412726640701294,11.326498578179878,11.115902023444924,46.13251852179454,39.32657434099215,-0.0001295089750783,0.11173777282238,0,0,0
3679,151696.17978207188,2011-01-20 07:25:59,1544.9110081996669,7,17,-1.0993878841400146,3.405279874801636,11.326498578179878,11.12506905600836,46.13251852179454,39.35782477213515,-0.0001942634553415,0.11173777282238,0,0,0
3680,151726.19670803234,2011-01-20 07:26:29,1574.9279341701626,7,17,-1.0993878841400146,3.3975093364715576,11.326498578179878,11.134236625381154,46.13251852179454,39.38900711217869,-0.0001942634553415,0.11173777282238,0,0,0
3681,151756.2101509921,2011-01-20 07:26:59,1604.9413771299237,7,17,-1.099568486213684,3.38941502571106,11.326498578179878,11.143403089636069,46.13251852179454,39.420114094087296,-0.0002590179501567,0.11173777282238,0,0,0
3682,151786.22511317825,2011-01-20 07:27:29,1634.9563393060398,7,17,-1.0993878841400146,3.3809969425201416,11.326498578179878,11.152570056709225,46.13251852179454,39.45114607271115,-0.0001942634553415,0.11173777282238,0,0,0
3683,151816.2402618241,2011-01-20 07:27:59,1664.9714879719454,7,17,-1.0993878841400146,3.371607542037964,11.326498578179878,11.1617371347753,46.13251852179454,39.482095897186845,-0.0001942634553415,0.11173777282238,0,0,0
3684,151846.25535310197,2011-01-20 07:28:29,1694.9865792297726,7,17,-1.099568486213684,3.3612468242645264,11.326498578179878,11.170904179534856,46.13251852179454,39.51295632902142,-0.0003237724304199,0.11173777282238,0,0,0
3685,151876.27045879076,2011-01-20 07:28:59,1725.0016849185663,7,17,-1.0993878841400146,3.350076913833618,11.326498578179878,11.180071198893629,46.13251852179454,39.54371962238917,-0.0003237247583456,0.11173777282238,0,0,0
3686,151906.28555458493,2011-01-20 07:29:29,1755.0167807126993,7,17,-1.0993878841400146,3.337449789047241,11.326498578179878,11.189238195847274,46.13251852179454,39.57437246390809,-0.0003237724304199,0.11173777282238,0,0,0
3687,151936.30066854932,2011-01-20 07:29:59,1785.0318947021808,7,17,-1.0993878841400146,3.3230419158935547,11.326498578179878,11.198405165377416,46.13251852179454,39.60490156320561,-0.0003885269106831,0.11173777282238,0,0,0
3688,151966.318134661,2011-01-20 07:30:29,1815.0493607938245,7,17,-1.099568486213684,3.305881977081299,11.326498578179878,11.207572881753803,46.13251852179454,39.63528943851144,-0.0004856586456298,0.11173777282238,0,0,0
3689,151996.3309078064,2011-01-20 07:30:59,1845.0621339392023,7,17,-1.0993878841400146,3.2862937450408936,11.326498578179878,11.216739117675347,46.13251852179454,39.66550502908428,-0.0005504131549969,0.11173777282238,0,0,0
3690,152026.34602366554,2011-01-20 07:31:29,1875.077249783306,7,17,-1.099568486213684,3.261849164962769,11.326498578179878,11.22590609971286,46.13251852179454,39.6955223232097,-0.0006799221155233,0.11173777282238,0,0,0
3691,152056.3611088432,2011-01-20 07:31:59,1905.0923349609795,7,17,-1.0993878841400146,3.231414556503296,11.326498578179878,11.235073132804263,46.13251852179454,39.7252880932683,-0.0008418083307333,0.11173777282238,0,0,0
3692,152086.37624948414,2011-01-20 07:32:29,1935.1074757071467,7,17,-1.099568486213684,3.1920762062072754,11.326498578179878,11.244240178027615,46.13251852179454,39.75473733960818,-0.0011655807029455,0.11173777282238,0,0,0
3693,152116.39134995991,2011-01-20 07:32:59,1965.1225760776856,7,17,-1.099568486213684,3.140758514404297,11.326498578179878,11.253407280830151,46.13251852179454,39.78377588140793,-0.0015217304462566,0.11173777282238,0,0,0
3694,152146.40644446586,2011-01-20 07:33:29,1995.1376705836085,7,17,-1.0993878841400146,3.0714714527130127,11.326498578179878,11.262574326462303,46.13251852179454,39.81226756756931,-0.0021368979942053,0.11173777282238,0,0,0
3695,152176.42156784874,2011-01-20 07:33:59,2025.1527939815387,7,17,-1.0992072820663452,2.9725592136383057,11.326498578179878,11.271741172858388,46.13251852179454,39.83999838731148,-0.0030758380889892,0.11173777282238,0,0,0
3696,152206.43684362143,2011-01-20 07:34:29,2055.168069759246,7,17,-1.0993878841400146,2.827185869216919,11.326498578179878,11.28090752155237,46.13251852179454,39.86662285212162,-0.0045328140258789,0.11173777282238,0,0,0
3697,152226.34268665215,2011-01-20 07:34:49,2075.073912784941,7,17,-1.0992072820663452,2.699943780899048,11.326498578179878,11.286986559256574,46.13251852179454,39.88343257063245,-0.0054393289610743,0.11173777282238,0,0,0
3698,152286.36743465363,2011-01-20 07:35:49,60.016959058731,8,17,0.0,3.610712766647339,11.326498578179878,11.286986559256574,46.13251852179454,39.88343257063245,0.0012950897216796,0.11173777282238,0,0,0
3699,152286.5635019706,2011-01-20 07:35:50,0.189481706715198,9,17,-1.9243103452026844e-05,3.610712766647339,11.326498578179878,11.286986560269412,46.13251852179454,39.88343257428951,0.0,0.1085970923304557,0,0,0
3700,152291.38954246847,2011-01-20 07:35:55,5.015522174496438,9,17,0.0008838032954372,3.618321418762207,11.326499505732066,11.286986560342545,46.13252187498358,39.88343257455357,0.0011332035064697,0.1085970923304557,0,0,0
