Data_Point,Test_Time(s),Date_Time,Step_Time(s),Step_Index,Cycle_Index,Current(A),Voltage(V),Charge_Capacity(Ah),Discharge_Capacity(Ah),Charge_Energy(Wh),Discharge_Energy(Wh),dV/dt(V/s),Internal_Resistance(Ohm),Is_FC_Data,AC_Impedance(Ohm),ACI_Phase_Angle(Deg)
6939,290051.1254269641,2011-01-21 21:52:14,30.015330749714675,1,34,0.0,3.6625163555145264,21.299070754517352,21.227152581335705,86.8696153772216,74.78428857166762,0.0006799221155233,0.1085970923304557,0,0,0
6940,290081.1402689005,2011-01-21 21:52:44,60.03017269618125,1,34,0.0,3.6814568042755127,21.299070754517352,21.227152581335705,86.8696153772216,74.78428857166762,0.0004209041653666,0.1085970923304557,0,0,0
6941,290111.1553890353,2011-01-21 21:53:14,90.04529282095376,1,34,0.0,3.69456958770752,21.299070754517352,21.227152581335705,86.8696153772216,74.78428857166762,0.0003237724304199,0.1085970923304557,0,0,0
6942,290141.1237609291,2011-01-21 21:53:44,120.0136647197631,1,34,0.0,3.704444646835327,21.299070754517352,21.227152581335705,86.8696153772216,74.78428857166762,0.0002590179501567,0.1085970923304557,0,0,0
6943,290171.14260717324,2011-01-21 21:54:14,30.01513414471452,2,34,0.550297200679779,3.824078321456909,21.3036579643217,21.227152581335705,86.88707394516499,74.78428857166762,0.0007446765666827,0.1085970923304557,0,0,0
6944,290201.1577077192,2011-01-21 21:54:44,60.03023470572812,2,34,0.550297200679779,3.844313859939575,21.3082451428196,21.227152581335705,86.90466570354654,74.78428857166762,0.0004209041653666,0.1085970923304557,0,0,0
6945,290231.17280335794,2011-01-21 21:55:14,90.04533032943644,2,34,0.550297200679779,3.858559846878052,21.312832381282764,21.227152581335705,86.92233488125628,74.78428857166762,0.0003237724304199,0.1085970923304557,0,0,0
6946,290261.18791400414,2011-01-21 21:55:44,120.0604409805978,2,34,0.550297200679779,3.869891881942749,21.317419544319165,21.227152581335705,86.94006168476625,74.78428857166762,0.0002590179501567,0.1085970923304557,0,0,0
6947,290291.2031393612,2011-01-21 21:56:14,150.07566632761652,2,34,0.550297200679779,3.8796050548553462,21.322006725188825,21.227152581335705,86.95783643245261,74.78428857166762,0.0002590179501567,0.1085970923304557,0,0,0
6948,290321.21813915606,2011-01-21 21:56:44,180.09066613251488,2,34,0.5501165986061096,3.8881850242614746,21.32659388234561,21.227152581335705,86.97565288428585,74.78428857166762,0.0001942634553415,0.1085970923304557,0,0,0
6949,290351.2332399677,2011-01-21 21:57:14,210.10576693914064,2,34,0.5501165986061096,3.8959555625915527,21.33118105309392,21.227152581335705,86.993506904919,74.78428857166762,0.0002266406954731,0.1085970923304557,0,0,0
6950,290381.24837405724,2011-01-21 21:57:44,240.1209010186927,2,34,0.5501165986061096,3.903240442276001,21.335768146158458,21.227152581335705,87.01139490725005,74.78428857166762,0.0001942634553415,0.1085970923304557,0,0,0
6951,290411.25018336234,2011-01-21 21:58:14,270.122710343857,2,34,0.5501165986061096,3.90987777709961,21.34035322094539,21.227152581335705,87.02930732381641,74.78428857166762,0.0001295089750783,0.1085970923304557,0,0,0
6952,290441.2629677157,2011-01-21 21:58:44,300.13549468714336,2,34,0.550297200679779,3.916514873504639,21.34494003587703,21.227152581335705,87.04725671932822,74.78428857166762,0.0001942634553415,0.1085970923304557,0,0,0
6953,290471.27806565515,2011-01-21 21:59:14,330.1505926316358,2,34,0.5501165986061096,3.9225046634674072,21.34952715271595,21.227152581335705,87.06523594727051,74.78428857166762,0.0001618862152099,0.1085970923304557,0,0,0
6954,290501.2931769178,2011-01-21 21:59:44,360.1657038943212,2,34,0.5501165986061096,3.928170680999756,21.354114381545543,21.227152581335705,87.08324285204398,74.78428857166762,0.0001295089750783,0.1085970923304557,0,0,0
6955,290531.30829535844,2011-01-21 22:00:14,390.18082233489616,2,34,0.550297200679779,3.933836698532105,21.35870152365626,21.227152581335705,87.10127548845203,74.78428857166762,9.713172767078504e-05,0.1085970923304557,0,0,0
6956,290561.32338509744,2011-01-21 22:00:44,420.1959120839631,2,34,0.5501165986061096,3.939178943634033,21.363288730016677,21.227152581335705,87.11933335550677,74.78428857166762,0.0001295089750783,0.1085970923304557,0,0,0
6957,290591.33848047553,2011-01-21 22:01:15,450.2110074570468,2,34,0.550297200679779,3.944521188735962,21.36787585093695,21.227152581335705,87.13741487119974,74.78428857166762,0.0001618862152099,0.1085970923304557,0,0,0
6958,290621.3535839689,2011-01-21 22:01:45,480.2261109503687,2,34,0.550297200679779,3.9493777751922607,21.372462943227944,21.227152581335705,87.15551932408474,74.78428857166762,0.0001295089750783,0.1085970923304557,0,0,0
6959,290651.3687288152,2011-01-21 22:02:15,510.2412557917425,2,34,0.5501165986061096,3.9540724754333496,21.37705008036704,21.227152581335705,87.17364593853864,74.78428857166762,0.0001295089750783,0.1085970923304557,0,0,0
6960,290681.38397323486,2011-01-21 22:02:45,540.2565002062834,2,34,0.5501165986061096,3.9584434032440186,21.38163730139305,21.227152581335705,87.1917938159846,74.78428857166762,9.713172767078504e-05,0.1085970923304557,0,0,0
6961,290711.398963135,2011-01-21 22:03:15,570.2714901115087,2,34,0.550297200679779,3.9626524448394775,21.38622444747531,21.227152581335705,87.20996140715529,74.78428857166762,9.713172767078504e-05,0.1085970923304557,0,0,0
6962,290741.4140882121,2011-01-21 22:03:45,600.2866151735865,2,34,0.5501165986061096,3.966861486434937,21.390811634950115,21.227152581335705,87.22814854385224,74.78428857166762,9.713172767078504e-05,0.1085970923304557,0,0,0
6963,290771.4291734399,2011-01-21 22:04:15,630.3017004164225,2,34,0.5501165986061096,3.970746755599976,21.39539883226304,21.227152581335705,87.2463543167152,74.78428857166762,6.47544875391759e-05,0.1085970923304557,0,0,0
6964,290801.44428089814,2011-01-21 22:04:45,660.316807874626,2,34,0.550297200679779,3.9747939109802246,21.39998602205987,21.227152581335705,87.26457809339345,74.78428857166762,0.0001295089750783,0.1085970923304557,0,0,0
6965,290831.45940242644,2011-01-21 22:05:15,690.3319294028964,2,34,0.5501165986061096,3.978031635284424,21.40457327230457,21.227152581335705,87.28281933875624,74.78428857166762,3.237724376958795e-05,0.1085970923304557,0,0,0
6966,290861.4746328862,2011-01-21 22:05:45,720.3471598476202,2,34,0.550297200679779,3.982240676879883,21.409160397318928,21.227152581335705,87.3010773330652,74.78428857166762,0.0001295089750783,0.1085970923304557,0,0,0
6967,290891.48961106216,2011-01-21 22:06:15,750.3621380386502,2,34,0.5501165986061096,3.985640287399292,21.413747500921875,21.227152581335705,87.31935199077301,74.78428857166762,9.713172767078504e-05,0.1085970923304557,0,0,0
6968,290921.5047206908,2011-01-21 22:06:45,780.3772476672631,2,34,0.5501165986061096,3.989201784133911,21.41833460570337,21.227152581335705,87.33764305824677,74.78428857166762,9.713172767078504e-05,0.1085970923304557,0,0,0
6969,290951.5198588555,2011-01-21 22:07:15,810.3923858269842,2,34,0.5501165986061096,3.99260139465332,21.422921680532497,21.227152581335705,87.35595008791557,74.78428857166762,6.47544875391759e-05,0.1085970923304557,0,0,0
6970,290981.5349778575,2011-01-21 22:07:45,840.4075048339708,2,34,0.5499359965324402,3.995838880538941,21.42750872606326,21.227152581335705,87.37427274158898,74.78428857166762,3.237724376958795e-05,0.1085970923304557,0,0,0
6971,291011.5500600126,2011-01-21 22:08:15,870.422586974074,2,34,0.5501165986061096,3.99940037727356,21.432095837010063,21.227152581335705,87.39261110558375,74.78428857166762,9.713172767078504e-05,0.1085970923304557,0,0,0
6972,291041.5651587541,2011-01-21 22:08:45,900.4376857255778,2,34,0.550297200679779,4.002799987792969,21.436682858843493,21.227152581335705,87.41096426986252,74.78428857166762,9.70840483205393e-05,0.1085970923304557,0,0,0
6973,291071.5804967268,2011-01-21 22:09:15,930.453023698294,2,34,0.5501165986061096,4.006037712097168,21.44126997565641,21.227152581335705,87.42933284180069,74.78428857166762,9.70840483205393e-05,0.1085970923304557,0,0,0
6974,291101.59540095355,2011-01-21 22:09:45,960.4679279149572,2,34,0.5501165986061096,4.008951663970947,21.445857043349385,21.227152581335705,87.44771602227291,74.78428857166762,3.23295607813634e-05,0.1085970923304557,0,0,0
6975,291131.61048743944,2011-01-21 22:10:15,990.4830144008916,2,34,0.5499359965324402,4.0121893882751465,21.45044412362099,21.227152581335705,87.46611378235633,74.78428857166762,3.23295607813634e-05,0.1085970923304557,0,0,0
6976,291161.62565193983,2011-01-21 22:10:45,1020.4981789914864,2,34,0.5501165986061096,4.015589237213135,21.45503120511725,21.227152581335705,87.48452589943888,74.78428857166762,9.71794142969884e-05,0.1085970923304557,0,0,0
6977,291191.64072273666,2011-01-21 22:11:15,1050.5132497131312,2,34,0.550297200679779,4.018503189086914,21.459618226061625,21.227152581335705,87.50295203707562,74.78428857166762,9.71794142969884e-05,0.1085970923304557,0,0,0
6978,291221.6558267312,2011-01-21 22:11:45,1080.5283537077023,2,34,0.550297200679779,4.021740913391113,21.4642053432068,21.227152581335705,87.52139254281319,74.78428857166762,9.71794142969884e-05,0.1085970923304557,0,0,0
6979,291251.6709289313,2011-01-21 22:12:15,1110.5434559027883,2,34,0.550297200679779,4.024492740631104,21.46879243357419,21.227152581335705,87.53984690251946,74.78428857166762,6.47544875391759e-05,0.1085970923304557,0,0,0
6980,291281.6861802481,2011-01-21 22:12:45,1140.5587072095068,2,34,0.5501165986061096,4.027568817138672,21.47337957106692,21.227152581335705,87.5583151747902,74.78428857166762,9.71794142969884e-05,0.1085970923304557,0,0,0
6981,291311.70116366213,2011-01-21 22:13:15,1170.5736906335792,2,34,0.5501165986061096,4.030482769012451,21.47796667458737,21.227152581335705,87.5767969575328,74.78428857166762,9.71794142969884e-05,0.1085970923304557,0,0,0
6982,291341.7163398466,2011-01-21 22:13:45,1200.588866923332,2,34,0.550297200679779,4.033558368682861,21.48255374510929,21.227152581335705,87.59529219559502,74.78428857166762,6.47544875391759e-05,0.1085970923304557,0,0,0
6983,291371.73138240806,2011-01-21 22:14:15,1230.6039093845432,2,34,0.5501165986061096,4.036310195922852,21.487140870224856,21.227152581335705,87.61380122649781,74.78428857166762,3.23295607813634e-05,0.1085970923304557,0,0,0
6984,291401.7464810543,2011-01-21 22:14:45,1260.6190080157469,2,34,0.5501165986061096,4.039224147796631,21.491727996819225,21.227152581335705,87.63232379744234,74.78428857166762,6.47544875391759e-05,0.1085970923304557,0,0,0
6985,291431.7616200812,2011-01-21 22:15:15,1290.6341470526545,2,34,0.550297200679779,4.042300224304199,21.496315051135166,21.227152581335705,87.65085937308993,74.78428857166762,6.47544875391759e-05,0.1085970923304557,0,0,0
6986,291461.7766981712,2011-01-21 22:15:45,1320.6492251476757,2,34,0.550297200679779,4.0450520515441895,21.50090212603504,21.227152581335705,87.66940840241448,74.78428857166762,3.23295607813634e-05,0.1085970923304557,0,0,0
6987,291491.7918027021,2011-01-21 22:16:15,1350.6643296785835,2,34,0.5501165986061096,4.047966003417969,21.505489253029776,21.227152581335705,87.68797088550045,74.78428857166762,3.23295607813634e-05,0.1085970923304557,0,0,0
6988,291521.8069266815,2011-01-21 22:16:45,1380.6794536429254,2,34,0.5501165986061096,4.051042079925537,21.510076375923777,21.227152581335705,87.70654657934854,74.78428857166762,9.71794142969884e-05,0.1085970923304557,0,0,0
6989,291551.8220324304,2011-01-21 22:17:15,1410.694559401894,2,34,0.5501165986061096,4.053793907165527,21.514663463106164,21.227152581335705,87.7251354235893,74.78428857166762,6.47544875391759e-05,0.1085970923304557,0,0,0
6990,291581.8372743137,2011-01-21 22:17:45,1440.709801285126,2,34,0.550297200679779,4.056707859039307,21.51925060428197,21.227152581335705,87.74373775493804,74.78428857166762,9.70840483205393e-05,0.1085970923304557,0,0,0
6991,291611.85224536696,2011-01-21 22:18:15,1470.7247723433793,2,34,0.5501165986061096,4.059621810913086,21.52383777155054,21.227152581335705,87.76235344332133,74.78428857166762,6.47544875391759e-05,0.1085970923304557,0,0,0
6992,291641.86737282,2011-01-21 22:18:45,1500.7398997964156,2,34,0.550297200679779,4.062535762786865,21.52842495121945,21.227152581335705,87.78098205854155,74.78428857166762,0.0001295089750783,0.1085970923304557,0,0,0
6993,291671.88247846364,2011-01-21 22:19:15,1530.7550054400967,2,34,0.5501165986061096,4.0654497146606445,21.53301154336477,21.227152581335705,87.7996213344897,74.78428857166762,0.0001295089750783,0.1085970923304557,0,0,0
6994,291701.89792473125,2011-01-21 22:19:45,1560.770451702705,2,34,0.5499359965324402,4.068202018737793,21.53759800927488,21.227152581335705,87.81827326365725,74.78428857166762,9.71794142969884e-05,0.1085970923304557,0,0,0
6995,291731.91270722955,2011-01-21 22:20:15,1590.7852341859711,2,34,0.5501165986061096,4.070953845977783,21.5421848896186,21.227152581335705,87.83694036448372,74.78428857166762,3.23295607813634e-05,0.1085970923304557,0,0,0
6996,291761.92794026574,2011-01-21 22:20:45,1620.8004672422037,2,34,0.5501165986061096,4.074029922485352,21.546772040285138,21.227152581335705,87.8556219492839,74.78428857166762,6.47544875391759e-05,0.1085970923304557,0,0,0
6997,291791.9429519753,2011-01-21 22:21:15,1650.8154789317225,2,34,0.5501165986061096,4.076943874359131,21.551359076799844,21.227152581335705,87.8743164975099,74.78428857166762,6.47544875391759e-05,0.1085970923304557,0,0,0
6998,291821.95829643414,2011-01-21 22:21:45,1680.8308233906043,2,34,0.550297200679779,4.07985782623291,21.55594615308797,21.227152581335705,87.8930247497898,74.78428857166762,6.47544875391759e-05,0.1085970923304557,0,0,0
6999,291851.9731400147,2011-01-21 22:22:15,1710.8456669911936,2,34,0.550297200679779,4.083095550537109,21.560533213248892,21.227152581335705,87.91174650948636,74.78428857166762,9.71794142969884e-05,0.1085970923304557,0,0,0
7000,291881.98837800825,2011-01-21 22:22:45,1740.8609049696936,2,34,0.5501165986061096,4.086009502410889,21.565120300069363,21.227152581335705,87.93048207888681,74.78428857166762,0.0001295089750783,0.1085970923304557,0,0,0
7001,291912.0033687957,2011-01-21 22:23:15,1770.8758957721552,2,34,0.5501165986061096,4.088923454284668,21.569707390167224,21.227152581335705,87.94923147821241,74.78428857166762,3.24249267578125e-05,0.1085970923304557,0,0,0
7002,291942.01860495965,2011-01-21 22:23:45,1800.8911319210956,2,34,0.550297200679779,4.091837406158447,21.57429451404356,21.227152581335705,87.96799476173834,74.78428857166762,6.47544875391759e-05,0.1085970923304557,0,0,0
7003,291972.03357813315,2011-01-21 22:24:15,1830.9061051096576,2,34,0.550297200679779,4.094913005828857,21.578881591556907,21.227152581335705,87.98677168454958,74.78428857166762,6.47544875391759e-05,0.1085970923304557,0,0,0
7004,292002.04883285845,2011-01-21 22:24:45,1860.9213598198587,2,34,0.550297200679779,4.097826957702637,21.583468708336618,21.227152581335705,88.00556271817493,74.78428857166762,6.47544875391759e-05,0.1085970923304557,0,0,0
7005,292032.06618891587,2011-01-21 22:25:15,1890.9387158973136,2,34,0.5501165986061096,4.101064682006836,21.588056177001025,21.227152581335705,88.02436932638034,74.78428857166762,6.47544875391759e-05,0.1085970923304557,0,0,0
7006,292062.0790570279,2011-01-21 22:25:45,1920.9515840043648,2,34,0.550297200679779,4.104302406311035,21.592642941294528,21.227152581335705,88.04318709602104,74.78428857166762,9.70840483205393e-05,0.1085970923304557,0,0,0
7007,292092.0940294646,2011-01-21 22:26:15,1950.9665564410527,2,34,0.550297200679779,4.107216358184815,21.597230047886693,21.227152581335705,88.06202052483805,74.78428857166762,6.47544875391759e-05,0.1085970923304557,0,0,0
7008,292122.10913333885,2011-01-21 22:26:45,1980.9816603002869,2,34,0.5501165986061096,4.110454082489014,21.60181710742715,21.227152581335705,88.08086804593722,74.78428857166762,9.70840483205393e-05,0.1085970923304557,0,0,0
7009,292152.1242535889,2011-01-21 22:27:15,2010.996780550372,2,34,0.5501165986061096,4.113530158996582,21.60640417404687,21.227152581335705,88.09973002798112,74.78428857166762,6.47544875391759e-05,0.1085970923304557,0,0,0
7010,292182.13940467086,2011-01-21 22:27:45,2041.0119316473365,2,34,0.550297200679779,4.116929531097412,21.61099128665936,21.227152581335705,88.11860672577757,74.78428857166762,0.0001295089750783,0.1085970923304557,0,0,0
7011,292212.154485227,2011-01-21 22:28:15,2071.0270121984795,2,34,0.550297200679779,4.120005130767822,21.61557839804324,21.227152581335705,88.13749812993969,74.78428857166762,9.70840483205393e-05,0.1085970923304557,0,0,0
7012,292242.16957332694,2011-01-21 22:28:45,2101.042100303449,2,34,0.5501165986061096,4.1232428550720215,21.620165534381428,21.227152581335705,88.15640440578179,74.78428857166762,9.70840483205393e-05,0.1085970923304557,0,0,0
7013,292272.18468354206,2011-01-21 22:29:15,2131.0572105135107,2,34,0.550297200679779,4.12664270401001,21.624752597207458,21.227152581335705,88.17532533300619,74.78428857166762,0.0001295089750783,0.1085970923304557,0,0,0
7014,292302.1997898975,2011-01-21 22:29:45,2161.0723168739783,2,34,0.5501165986061096,4.12971830368042,21.629339717363965,21.227152581335705,88.19426155459692,74.78428857166762,9.70840483205393e-05,0.1085970923304557,0,0,0
7015,292332.21708076244,2011-01-21 22:30:15,2191.089607909328,2,34,0.5501165986061096,4.132956027984619,21.63392716305117,21.227152581335705,88.2132142454633,74.78428857166762,6.47544875391759e-05,0.1085970923304557,0,0,0
7016,292362.23000850814,2011-01-21 22:30:45,2221.102535469555,2,34,0.5499359965324402,4.136355876922607,21.63851391949448,21.227152581335705,88.2321793520232,74.78428857166762,6.47544875391759e-05,0.1085970923304557,0,0,0
7017,292392.2451439912,2011-01-21 22:31:15,2251.1176709676424,2,34,0.550297200679779,4.139917373657227,21.643101071704898,21.227152581335705,88.25116148502775,74.78428857166762,0.0001295089750783,0.1085970923304557,0,0,0
7018,292422.26035106264,2011-01-21 22:31:45,2281.1328781293378,2,34,0.5501165986061096,4.143316745758057,21.6476882689419,21.227152581335705,88.27015931163903,74.78428857166762,0.0001295089750783,0.1085970923304557,0,0,0
7019,292452.2753437799,2011-01-21 22:32:15,2311.147870741309,2,34,0.5501165986061096,4.146554470062256,21.652275286344803,21.227152581335705,88.28917208452457,74.78428857166762,6.47544875391759e-05,0.1085970923304557,0,0,0
7020,292482.29044196,2011-01-21 22:32:45,2341.1629689213887,2,34,0.5501165986061096,4.150115966796875,21.65686237757538,21.227152581335705,88.30820106503865,74.78428857166762,6.47544875391759e-05,0.1085970923304557,0,0,0
7021,292512.3055730871,2011-01-21 22:33:16,2371.1781000485826,2,34,0.5501165986061096,4.153353691101074,21.66144948334433,21.227152581335705,88.32724593616807,74.78428857166762,6.47544875391759e-05,0.1085970923304557,0,0,0
7022,292542.32066417456,2011-01-21 22:33:46,2401.1931911510223,2,34,0.5501165986061096,4.157077312469482,21.66603655078693,21.227152581335705,88.34630655721888,74.78428857166762,9.71794142969884e-05,0.1085970923304557,0,0,0
7023,292572.3357788207,2011-01-21 22:34:16,2431.2083057971404,2,34,0.5501165986061096,4.160638809204102,21.6706237001195,21.227152581335705,88.36538365866932,74.78428857166762,9.71794142969884e-05,0.1085970923304557,0,0,0
7024,292602.3508868202,2011-01-21 22:34:46,2461.2234137916807,2,34,0.5501165986061096,4.164038181304932,21.67521077848646,21.227152581335705,88.38447671934046,74.78428857166762,6.47544875391759e-05,0.1085970923304557,0,0,0
7025,292632.36614074843,2011-01-21 22:35:16,2491.238667724945,2,34,0.550297200679779,4.16776180267334,21.679797827325046,21.227152581335705,88.40358593004932,74.78428857166762,0.0001295089750783,0.1085970923304557,0,0,0
7026,292662.3811029747,2011-01-21 22:35:46,2521.253629951186,2,34,0.550297200679779,4.17148494720459,21.68438484246408,21.227152581335705,88.42271155331719,74.78428857166762,0.0001295089750783,0.1085970923304557,0,0,0
7027,292692.3962430592,2011-01-21 22:36:16,2551.2687701058794,2,34,0.550297200679779,4.175046443939209,21.68897194474636,21.227152581335705,88.44185414940715,74.78428857166762,0.0001295089750783,0.1085970923304557,0,0,0
7028,292722.41131591616,2011-01-21 22:36:46,2581.283842892671,2,34,0.5501165986061096,4.178607940673828,21.693559004020106,21.227152581335705,88.46101313335241,74.78428857166762,9.70840483205393e-05,0.1085970923304557,0,0,0
7029,292752.4264626473,2011-01-21 22:37:16,2611.2989896237546,2,34,0.5499359965324402,4.182169437408447,21.698146123778663,21.227152581335705,88.48018926233314,74.78428857166762,6.47544875391759e-05,0.1085970923304557,0,0,0
7030,292782.4416680697,2011-01-21 22:37:46,2641.314195031078,2,34,0.550297200679779,4.185893058776856,21.702733192680142,21.227152581335705,88.49938216530238,74.78428857166762,6.47544875391759e-05,0.1085970923304557,0,0,0
7031,292812.4566489574,2011-01-21 22:38:16,2671.329175933866,2,34,0.5501165986061096,4.189778327941895,21.707320219055088,21.227152581335705,88.51859205890601,74.78428857166762,0.0001295089750783,0.1085970923304557,0,0,0
7032,292842.4717698892,2011-01-21 22:38:46,2701.34429686565,2,34,0.550297200679779,4.193663597106934,21.7119072518946,21.227152581335705,88.53781921382735,74.78428857166762,0.0001619339018361,0.1085970923304557,0,0,0
7033,292872.48688033986,2011-01-21 22:39:16,2731.3594073163117,2,34,0.5501165986061096,4.1972246170043945,21.71649430178167,21.227152581335705,88.55706383067727,74.78428857166762,3.23295607813634e-05,0.1085970923304557,0,0,0
7034,292892.42403447744,2011-01-21 22:39:36,2751.2965614489185,2,34,0.550297200679779,4.200138568878174,21.71954119146909,21.227152581335705,88.56985645166824,74.78428857166762,0.0001295089750783,0.1085970923304557,0,0,0
7035,292922.44334400777,2011-01-21 22:40:06,30.015139648431475,3,34,0.0,4.090056419372559,21.71954119146909,21.227152581335705,88.56985645166824,74.78428857166762,-0.0004857063177041,0.1085970923304557,0,0,0
7036,292952.4585555654,2011-01-21 22:40:36,60.03035122613282,3,34,0.0,4.075810432434082,21.71954119146909,21.227152581335705,88.56985645166824,74.78428857166762,-0.0002914428769145,0.1085970923304557,0,0,0
7037,292982.4735503778,2011-01-21 22:41:06,90.045346023551,3,34,0.0,4.066583156585693,21.71954119146909,21.227152581335705,88.56985645166824,74.78428857166762,-0.0002590179501567,0.1085970923304557,0,0,0
7038,293012.44199977984,2011-01-21 22:41:36,120.01379543554704,3,34,0.0,4.060593128204346,21.71954119146909,21.227152581335705,88.56985645166824,74.78428857166762,-9.71794142969884e-05,0.1085970923304557,0,0,0
7039,293012.44801058684,2011-01-21 22:41:36,2.756870971e-06,4,34,1.0364973545074463,4.199653148651123,21.71954119226284,21.227152581335705,88.56985645500171,74.78428857166762,0.0,0.1085970923304557,0,0,0
7040,293012.8542133742,2011-01-21 22:41:36,0.406205594327401,4,34,0.985385000705719,4.199653148651123,21.719654015160696,21.227152581335705,88.57033029096023,74.78428857166762,0.0,0.1085970923304557,0,0,0
7041,293014.4953774651,2011-01-21 22:41:38,2.047369775440328,4,34,0.9353561997413636,4.199814796447754,21.720090562742676,21.227152581335705,88.57216370351536,74.78428857166762,3.23295607813634e-05,0.1085970923304557,0,0,0
7042,293017.18241297937,2011-01-21 22:41:41,4.734405204509701,4,34,0.8849661946296692,4.199976921081543,21.72076880298535,21.227152581335705,88.57501220566829,74.78428857166762,3.24249267578125e-05,0.1085970923304557,0,0,0
7043,293020.9790655056,2011-01-21 22:41:44,8.53105773080601,4,34,0.8345762491226196,4.199653148651123,21.721674435792263,21.227152581335705,88.57881572434988,74.78428857166762,-3.23295607813634e-05,0.1085970923304557,0,0,0
7044,293026.04156440054,2011-01-21 22:41:50,13.59355662073167,4,34,0.7845474481582642,4.199814796447754,21.72281157606375,21.227152581335705,88.58359154859677,74.78428857166762,0.0,0.1085970923304557,0,0,0
7045,293032.6351286865,2011-01-21 22:41:56,20.18712091173386,4,34,0.7345187067985535,4.199976921081543,21.72420073077564,21.227152581335705,88.58942577878517,74.78428857166762,3.24249267578125e-05,0.1085970923304557,0,0,0
7046,293041.33825054416,2011-01-21 22:42:05,28.89024275424905,4,34,0.6843093037605286,4.199814796447754,21.72591308570681,21.227152581335705,88.59661741232604,74.78428857166762,3.23295607813634e-05,0.1085970923304557,0,0,0
7047,293053.3380133553,2011-01-21 22:42:17,40.890005580446655,4,34,0.6342805624008179,4.199976921081543,21.72810630674688,21.227152581335705,88.605828668018,74.78428857166762,3.24249267578125e-05,0.1085970923304557,0,0,0
7048,293071.08776227105,2011-01-21 22:42:35,58.63975456638083,4,34,0.584071159362793,4.199814796447754,21.731101772483427,21.227152581335705,88.61840921649765,74.78428857166762,-6.47544875391759e-05,0.1085970923304557,0,0,0
7049,293101.4309314851,2011-01-21 22:43:05,88.98292371024708,4,34,0.5340424180030823,4.199814796447754,21.7357937137524,21.227152581335705,88.6381147346153,74.78428857166762,-3.24249267578125e-05,0.1085970923304557,0,0,0
7050,293161.0704203469,2011-01-21 22:44:05,148.62241257210275,4,34,0.4840136170387268,4.199814796447754,21.744180491085,21.227152581335705,88.67333807819473,74.78428857166762,-3.24249267578125e-05,0.1085970923304557,0,0,0
7051,293268.0532315402,2011-01-21 22:45:52,255.60522387064685,4,34,0.4339848458766937,4.199814796447754,21.757773921209825,21.227152581335705,88.7304287438677,74.78428857166762,0.0,0.1085970923304557,0,0,0
7052,293412.0192192338,2011-01-21 22:48:16,399.57121145393137,4,34,0.3839560747146606,4.199814796447754,21.774101928928573,21.227152581335705,88.79900408924125,74.78428857166762,0.0,0.1085970923304557,0,0,0
7053,293585.89119978336,2011-01-21 22:51:09,573.4431919935068,4,34,0.3339273035526275,4.199814796447754,21.79141272107928,21.227152581335705,88.8717070663965,74.78428857166762,0.0,0.1085970923304557,0,0,0
7054,293795.13778158376,2011-01-21 22:54:39,782.689773813967,4,34,0.2838985323905945,4.199814796447754,21.809337216050533,21.227152581335705,88.94698739624955,74.78428857166762,0.0,0.1085970923304557,0,0,0
7055,294052.64884301805,2011-01-21 22:58:56,1040.2008352482342,4,34,0.2338697761297226,4.199814796447754,21.827806551332017,21.227152581335705,89.02455596880463,74.78428857166762,-3.24249267578125e-05,0.1085970923304557,0,0,0
7056,294376.5807587334,2011-01-21 23:04:20,1364.1327509635555,4,34,0.1838410049676895,4.199814796447754,21.846523829405097,21.227152581335705,89.10316575741278,74.78428857166762,3.23295607813634e-05,0.1085970923304557,0,0,0
7057,294816.77631731017,2011-01-21 23:11:40,1804.328309535303,4,34,0.1338122338056564,4.199814796447754,21.86582543588587,21.227152581335705,89.18422951421977,74.78428857166762,3.23295607813634e-05,0.1085970923304557,0,0,0
7058,295507.7019471071,2011-01-21 23:23:11,2495.2539393372717,4,34,0.0837834626436233,4.199814796447754,21.886352926997688,21.227152581335705,89.27044225831773,74.78428857166762,0.0,0.1085970923304557,0,0,0
7059,296375.7048438386,2011-01-21 23:37:39,3363.256836143928,4,34,0.0498289167881011,4.199814796447754,21.902085684981277,21.227152581335705,89.33651764901985,74.78428857166762,-3.24249267578125e-05,0.1085970923304557,0,0,0
7060,296405.71930588974,2011-01-21 23:38:09,30.015098851753603,5,34,0.0,4.189454555511475,21.902085684981277,21.227152581335705,89.33651764901985,74.78428857166762,-6.47544875391759e-05,0.1085970923304557,0,0,0
7061,296435.7187866113,2011-01-21 23:38:39,60.014579578333695,5,34,0.0,4.187835693359375,21.902085684981277,21.227152581335705,89.33651764901985,74.78428857166762,0.0,0.1085970923304557,0,0,0
7062,296435.8932930655,2011-01-21 23:38:40,0.187523496252198,6,34,-1.9243103452026844e-05,4.187835693359375,21.902085684981277,21.22715258233807,89.33651764901985,74.78428857586538,0.0,0.1133571565151214,0,0,0
7063,296440.7214454869,2011-01-21 23:38:45,5.015675902634258,6,34,0.0010644125286489,4.187673568725586,21.90208686594964,21.227152582422672,89.33652259477056,74.78428857621967,-6.47544875391759e-05,0.1133571565151214,0,0,0
7064,296453.08315883524,2011-01-21 23:38:57,12.359159473225578,7,34,-1.099568486213684,3.987582921981812,21.90208686594964,21.230926884428385,89.33652259477056,74.79940419545643,-0.0020073414780199,0.1133571565151214,0,0,0
7065,296483.0982512459,2011-01-21 23:39:27,42.37425187390111,7,34,-1.0993878841400146,3.928008794784546,21.90208686594964,21.24009302860892,89.33652259477056,74.83567190292976,-0.0014245987404137,0.1133571565151214,0,0,0
7066,296513.1133466591,2011-01-21 23:39:57,72.38934728708473,7,34,-1.0993878841400146,3.8797669410705566,21.90208686594964,21.24925917003339,89.33652259477056,74.87144903114974,-0.0011979580158367,0.1133571565151214,0,0,0
7067,296543.1286239706,2011-01-21 23:40:27,102.40462459360252,7,34,-1.0992072820663452,3.840752363204956,21.90208686594964,21.258425356630973,89.33652259477056,74.90682518056637,-0.0009065627818927,0.1133571565151214,0,0,0
7068,296573.1436289133,2011-01-21 23:40:57,132.41962955134335,7,34,-1.0993878841400146,3.8098323345184326,21.90208686594964,21.26759147142749,89.33652259477056,74.94188299074189,-0.0007446765666827,0.1133571565151214,0,0,0
7069,296603.1589745151,2011-01-21 23:41:27,162.4349751480613,7,34,-1.0993878841400146,3.784901857376098,21.90208686594964,21.27675763475733,89.33652259477056,74.97668753969396,-0.0006475448608398,0.1133571565151214,0,0,0
7070,296633.17382304295,2011-01-21 23:41:57,192.4498236709183,7,34,-1.0993878841400146,3.7643423080444336,21.90208686594964,21.285923696300937,89.33652259477056,75.01128501761617,-0.0005504131549969,0.1133571565151214,0,0,0
7071,296663.18906851514,2011-01-21 23:42:27,222.4650691380826,7,34,-1.0993878841400146,3.746535062789917,21.90208686594964,21.2950898543766,89.33652259477056,75.04570689023495,-0.0004532813909463,0.1133571565151214,0,0,0
7072,296693.2040574078,2011-01-21 23:42:57,252.4800580307844,7,34,-1.0993878841400146,3.730346441268921,21.90208686594964,21.30425587443192,89.33652259477056,75.07997309614976,-0.0004209041653666,0.1133571565151214,0,0,0
7073,296723.2193748694,2011-01-21 23:43:27,282.495375482356,7,34,-1.0992072820663452,3.716100454330444,21.90208686594964,21.313422024921618,89.33652259477056,75.11410006433788,-0.0003561496851034,0.1133571565151214,0,0,0
7074,296753.23426567763,2011-01-21 23:43:57,312.5102663206761,7,34,-1.0993878841400146,3.7023401260375977,21.90208686594964,21.322588083914017,89.33652259477056,75.14809720137158,-0.0003237724304199,0.1133571565151214,0,0,0
7075,296783.24951543554,2011-01-21 23:44:27,342.52551605347173,7,34,-1.0992072820663452,3.689389228820801,21.90208686594964,21.331754265006715,89.33652259477056,75.18197332853003,-0.0003561496851034,0.1133571565151214,0,0,0
7076,296813.2644952656,2011-01-21 23:44:57,372.5404959036367,7,34,-1.0993878841400146,3.677085876464844,21.90208686594964,21.340920297546717,89.33652259477056,75.21573375184124,-0.0003237724304199,0.1133571565151214,0,0,0
7077,296843.27972518903,2011-01-21 23:45:27,402.5557258270613,7,34,-1.099568486213684,3.6654303073883057,21.90208686594964,21.350086488795608,89.33652259477056,75.24938520311417,-0.0002913951757363,0.1133571565151214,0,0,0
7078,296873.29480242694,2011-01-21 23:45:57,432.57080315517135,7,34,-1.0993878841400146,3.654098272323608,21.90208686594964,21.35925260633845,89.33652259477056,75.28293150912035,-0.0003237724304199,0.1133571565151214,0,0,0
7079,296903.30981259263,2011-01-21 23:46:27,462.5858132306672,7,34,-1.0992072820663452,3.643251895904541,21.90208686594964,21.368418695587927,89.33652259477056,75.31637544754604,-0.0002590179501567,0.1133571565151214,0,0,0
7080,296933.3249683312,2011-01-21 23:46:57,492.6009689742127,7,34,-1.0993878841400146,3.6327292919158936,21.90208686594964,21.37758479705514,89.33652259477056,75.34972053804036,-0.0002266406954731,0.1133571565151214,0,0,0
7081,296963.34014579386,2011-01-21 23:47:27,522.6161465170887,7,34,-1.0993878841400146,3.622530460357666,21.90208686594964,21.38675090374074,89.33652259477056,75.38297012488168,-0.0002266406954731,0.1133571565151214,0,0,0
7082,296993.3551533029,2011-01-21 23:47:57,552.631153940976,7,34,-1.0993878841400146,3.6123316287994394,21.90208686594964,21.39591696064567,89.33652259477056,75.41612686170156,-0.0002590179501567,0.1133571565151214,0,0,0
7083,297023.3704081184,2011-01-21 23:48:27,582.6464087313766,7,34,-1.0992072820663452,3.602780342102051,21.90208686594964,21.40508307124188,89.33652259477056,75.44919383124598,-0.0002266406954731,0.1133571565151214,0,0,0
7084,297053.3877032991,2011-01-21 23:48:57,612.6637039371202,7,34,-1.0992072820663452,3.593390941619873,21.90208686594964,21.41424984641252,89.33652259477056,75.4821753545497,-0.0002266406954731,0.1133571565151214,0,0,0
7085,297083.4006233808,2011-01-21 23:49:27,642.6766240036707,7,34,-1.0993878841400146,3.5840017795562744,21.90208686594964,21.42341533606957,89.33652259477056,75.51506742318313,-0.0002590179501567,0.1133571565151214,0,0,0
7086,297113.4155712411,2011-01-21 23:49:57,672.691571879145,7,34,-1.099568486213684,3.5750980377197266,21.90208686594964,21.432581399053536,89.33652259477056,75.54787832352747,-0.0002266406954731,0.1133571565151214,0,0,0
7087,297143.430762814,2011-01-21 23:50:27,702.7067635171504,7,34,-1.0992072820663452,3.566518068313598,21.90208686594964,21.441747550447342,89.33652259477056,75.58060828714149,-0.0002266406954731,0.1133571565151214,0,0,0
7088,297173.44593971525,2011-01-21 23:50:57,732.7219403382276,7,34,-1.0993878841400146,3.5580999851226807,21.90208686594964,21.45091372103993,89.33652259477056,75.61325965001264,-0.0001942634553415,0.1133571565151214,0,0,0
7089,297203.46092311427,2011-01-21 23:51:27,762.7369237572874,7,34,-1.099568486213684,3.5496819019317627,21.90208686594964,21.46007977336417,89.33652259477056,75.64583448882104,-0.0002590179501567,0.1133571565151214,0,0,0
7090,297233.4761541354,2011-01-21 23:51:57,792.7521547734353,7,34,-1.099568486213684,3.541911363601685,21.90208686594964,21.469245918673906,89.33652259477056,75.67833540632104,-0.0001618862152099,0.1133571565151214,0,0,0
7091,297263.4911253541,2011-01-21 23:52:27,822.767125992088,7,34,-1.0992072820663452,3.5341408252716064,21.90208686594964,21.47841207775718,89.33652259477056,75.7107647023574,-0.0001942634553415,0.1133571565151214,0,0,0
7092,297293.5063692223,2011-01-21 23:52:57,852.7823698602672,7,34,-1.0992072820663452,3.526694059371948,21.90208686594964,21.487578319682772,89.33652259477056,75.74312466569536,-0.0001942634553415,0.1133571565151214,0,0,0
7093,297323.52134199976,2011-01-21 23:53:27,882.7973426378052,7,34,-1.0993878841400146,3.5194091796875,21.90208686594964,21.49674445194966,89.33652259477056,75.77541655164109,-0.0001942634553415,0.1133571565151214,0,0,0
7094,297353.538852026,2011-01-21 23:53:57,912.814852754172,7,34,-1.0992072820663452,3.5122861862182617,21.90208686594964,21.505911328854893,89.33652259477056,75.80764560146504,-0.0001942634553415,0.1133571565151214,0,0,0
7095,297383.55156495125,2011-01-21 23:54:27,942.8275655892378,7,34,-1.0992072820663452,3.5056490898132324,21.90208686594964,21.515076780228316,89.33652259477056,75.83980586397773,-0.0001295089750783,0.1133571565151214,0,0,0
7096,297413.5666998278,2011-01-21 23:54:57,972.8427004657764,7,34,-1.0992072820663452,3.498849868774414,21.90208686594964,21.52424295224819,89.33652259477056,75.8719069875569,-0.0001618862152099,0.1133571565151214,0,0,0
7097,297443.5817941883,2011-01-21 23:55:27,1002.8577948163114,7,34,-1.0993878841400146,3.4922125339508057,21.90208686594964,21.53340911233884,89.33652259477056,75.90394733333552,-0.0002266406954731,0.1133571565151214,0,0,0
7098,297473.596886188,2011-01-21 23:55:57,1032.8728868260123,7,34,-1.0993878841400146,3.485898971557617,21.90208686594964,21.542575252726685,89.33652259477056,75.93592839991702,-0.0001618862152099,0.1133571565151214,0,0,0
7099,297503.61199899955,2011-01-21 23:56:27,1062.8879996325456,7,34,-1.0993878841400146,3.4797472953796387,21.90208686594964,21.55174142649767,89.33652259477056,75.96785173998637,-0.0001295089750783,0.1133571565151214,0,0,0
7100,297533.62712037744,2011-01-21 23:56:58,1092.903121015454,7,34,-1.0992072820663452,3.47359561920166,21.90208686594964,21.56090749958064,89.33652259477056,75.99971788726734,-0.0001295089750783,0.1133571565151214,0,0,0
7101,297563.64233826083,2011-01-21 23:57:28,1122.9183388988713,7,34,-1.099568486213684,3.4671201705932617,21.90208686594964,21.570073692196644,89.33652259477056,76.03152755970217,-0.0001942634553415,0.1133571565151214,0,0,0
7102,297593.6573204719,2011-01-21 23:57:58,1152.93332110992,7,34,-1.0992072820663452,3.461130380630493,21.90208686594964,21.57923982212408,89.33652259477056,76.06328031144695,-0.0001942634553415,0.1133571565151214,0,0,0
7103,297623.67245735344,2011-01-21 23:58:28,1182.9484579914556,7,34,-1.0992072820663452,3.454978704452514,21.90208686594964,21.588405974128555,89.33652259477056,76.09497627441552,-0.0001295089750783,0.1133571565151214,0,0,0
7104,297653.68755402474,2011-01-21 23:58:58,1212.9635546577624,7,34,-1.099568486213684,3.448503255844116,21.90208686594964,21.59757211759172,89.33652259477056,76.12661476415316,-0.0001942634553415,0.1133571565151214,0,0,0
7105,297683.7026555532,2011-01-21 23:59:28,1242.9786561811743,7,34,-1.099568486213684,3.442189693450928,21.90208686594964,21.60673826064881,89.33652259477056,76.15819567359999,-0.0001942634553415,0.1133571565151214,0,0,0
7106,297713.71775714675,2011-01-21 23:59:58,1272.9937577797743,7,34,-1.0993878841400146,3.4358761310577397,21.90208686594964,21.61590445515359,89.33652259477056,76.18971874313502,-0.0001618862152099,0.1133571565151214,0,0,0
7107,297743.73299071426,2011-01-22 00:00:28,1303.008991332243,7,34,-1.0992072820663452,3.42940092086792,21.90208686594964,21.62507067191765,89.33652259477056,76.2211837224228,-0.0001942634553415,0.1133571565151214,0,0,0
7108,297773.7479909302,2011-01-22 00:00:58,1333.0239915632037,7,34,-1.099568486213684,3.4226016998291016,21.90208686594964,21.634236816047405,89.33652259477056,76.25258731346005,-0.0001618862152099,0.1133571565151214,0,0,0
7109,297803.7632252746,2011-01-22 00:01:28,1363.0392258926092,7,34,-1.099568486213684,3.4154787063598637,21.90208686594964,21.64340300965561,89.33652259477056,76.28392709047594,-0.0001942634553415,0.1133571565151214,0,0,0
7110,297833.7782103428,2011-01-22 00:01:58,1393.0542109758169,7,34,-1.0993878841400146,3.408031940460205,21.90208686594964,21.652569131606526,89.33652259477056,76.3152001505292,-0.0002266406954731,0.1133571565151214,0,0,0
7111,297863.79331135494,2011-01-22 00:02:28,1423.0693119879547,7,34,-1.0993878841400146,3.400099515914917,21.90208686594964,21.661735287248387,89.33652259477056,76.34640392567142,-0.0002590179501567,0.1133571565151214,0,0,0
7112,297893.80843055743,2011-01-22 00:02:58,1453.084431175391,7,34,-1.0992072820663452,3.392167091369629,21.90208686594964,21.670901470481148,89.33652259477056,76.37753402505042,-0.0001942634553415,0.1133571565151214,0,0,0
7113,297923.82352642174,2011-01-22 00:03:28,1483.0995270547364,7,34,-1.099568486213684,3.383425235748291,21.90208686594964,21.68006765152649,89.33652259477056,76.40858691055965,-0.0002266406954731,0.1133571565151214,0,0,0
7114,297953.8386558046,2011-01-22 00:03:58,1513.1146564375829,7,34,-1.099568486213684,3.3741977214813232,21.90208686594964,21.68923382771784,89.33652259477056,76.43955804109902,-0.0002590179501567,0.1133571565151214,0,0,0
7115,297983.85374407494,2011-01-22 00:04:28,1543.1297447079644,7,34,-1.099568486213684,3.3646464347839355,21.90208686594964,21.698399989712904,89.33652259477056,76.47044291503052,-0.0002266406954731,0.1133571565151214,0,0,0
7116,298013.86907665426,2011-01-22 00:04:58,1573.1450772822263,7,34,-1.0993878841400146,3.353800058364868,21.90208686594964,21.7075663044518,89.33652259477056,76.50123558664232,-0.0003237724304199,0.1133571565151214,0,0,0
7117,298043.88396694115,2011-01-22 00:05:28,1603.1599675591474,7,34,-1.099568486213684,3.34214448928833,21.90208686594964,21.71673237907233,89.33652259477056,76.53192565165766,-0.0003561496851034,0.1133571565151214,0,0,0
7118,298073.8990574622,2011-01-22 00:05:58,1633.1750580951757,7,34,-1.0993878841400146,3.329679250717163,21.90208686594964,21.725898478491484,89.33652259477056,76.56250481462023,-0.0003561496851034,0.1133571565151214,0,0,0
7119,298103.9141514869,2011-01-22 00:06:28,1663.1901521148864,7,34,-1.0993878841400146,3.3147857189178467,21.90208686594964,21.735064526349863,89.33652259477056,76.59295996790594,-0.0004856586456298,0.1133571565151214,0,0,0
7120,298133.929339556,2011-01-22 00:06:58,1693.2053401890091,7,34,-1.099568486213684,3.2979495525360107,21.90208686594964,21.7442305817312,89.33652259477056,76.6232703217562,-0.0005180359003134,0.1133571565151214,0,0,0
7121,298163.9444252049,2011-01-22 00:07:28,1723.2204258378574,7,34,-1.0993878841400146,3.2785232067108154,21.90208686594964,21.753396692975905,89.33652259477056,76.65341472326362,-0.0005827903514727,0.1133571565151214,0,0,0
7122,298193.9596653788,2011-01-22 00:07:58,1753.2356659917791,7,34,-1.0993878841400146,3.25504994392395,21.90208686594964,21.7625629042518,89.33652259477056,76.68336265075175,-0.0007122993702068,0.1133571565151214,0,0,0
7123,298223.9746434094,2011-01-22 00:08:28,1783.250644127672,7,34,-1.0992072820663452,3.226557970046997,21.90208686594964,21.77172901017397,89.33652259477056,76.71307188277747,-0.0008094310760498,0.1133571565151214,0,0,0
7124,298253.9897849276,2011-01-22 00:08:58,1813.2657856457631,7,34,-1.099568486213684,3.190295457839966,21.90208686594964,21.780895219109755,89.33652259477056,76.74248826764446,-0.0010684489971026,0.1133571565151214,0,0,0
7125,298284.0048592332,2011-01-22 00:09:28,1843.280859866128,7,34,-1.099568486213684,3.1431868076324463,21.90208686594964,21.79006137921872,89.33652259477056,76.77152704660905,-0.0014569759368896,0.1133571565151214,0,0,0
7126,298314.01996778906,2011-01-22 00:09:58,1873.2959684220675,7,34,-1.0993878841400146,3.0802133083343506,21.90208686594964,21.799227584169422,89.33652259477056,76.80006404709198,-0.0018778800731524,0.1133571565151214,0,0,0
7127,298344.035114475,2011-01-22 00:10:28,1903.311115103026,7,34,-1.0993878841400146,2.9902048110961914,21.90208686594964,21.80839376397736,89.33652259477056,76.8279112170087,-0.002816820051521,0.1133571565151214,0,0,0
7128,298374.050199773,2011-01-22 00:10:58,1933.326200426062,7,34,-1.0993878841400146,2.859077453613281,21.90208686594964,21.81755992819653,89.33652259477056,76.85475733362257,-0.0041118622757494,0.1133571565151214,0,0,0
7129,298400.7372368157,2011-01-22 00:11:25,1960.0132374487184,7,34,-1.099568486213684,2.699943780899048,21.90208686594964,21.825709826243298,89.33652259477056,76.87743400067893,-0.0051479339599609,0.1133571565151214,0,0,0
7130,298460.7571209435,2011-01-22 00:12:25,60.014817080261565,8,34,0.0,3.627387046813965,21.90208686594964,21.825709826243298,89.33652259477056,76.87743400067893,0.0012303352123126,0.1133571565151214,0,0,0
7131,298460.9508464863,2011-01-22 00:12:25,0.18783942865295,9,34,-1.9243103452026844e-05,3.6277108192443848,21.90208686594964,21.825709827247355,89.33652259477056,76.87743400432137,0.0,0.1100189909338951,0,0,0
7132,298465.77865648933,2011-01-22 00:12:30,5.015649451710416,9,34,0.0010644125286489,3.634995698928833,21.902088058696407,21.8257098273292,89.33652692663622,76.87743400461828,0.0010684489971026,0.1100189909338951,0,0,0
