Data_Point,Test_Time(s),Date_Time,Step_Time(s),Step_Index,Cycle_Index,Current(A),Voltage(V),Charge_Capacity(Ah),Discharge_Capacity(Ah),Charge_Energy(Wh),Discharge_Energy(Wh),dV/dt(V/s),Internal_Resistance(Ohm),Is_FC_Data,AC_Impedance(Ohm),ACI_Phase_Angle(Deg)
6345,264565.8992922575,2011-01-21 14:47:25,30.015115347866992,1,31,0.0,3.6536126136779785,19.46482787512529,19.405725862108124,79.37176149646096,68.40168582004009,0.0006151676061563,0.1084010675549507,0,0,0
6346,264595.9144111442,2011-01-21 14:47:55,60.03023424457879,1,31,0.0,3.6732006072998047,19.46482787512529,19.405725862108124,79.37176149646096,68.40168582004009,0.0004208564641885,0.1084010675549507,0,0,0
6347,264625.9296351178,2011-01-21 14:48:25,90.04545822819951,1,31,0.0,3.6869609355926514,19.46482787512529,19.405725862108124,79.37176149646096,68.40168582004009,0.0003237724304199,0.1084010675549507,0,0,0
6348,264655.89776187064,2011-01-21 14:48:55,120.01358498102964,1,31,0.0,3.697159767150879,19.46482787512529,19.405725862108124,79.37176149646096,68.40168582004009,0.0002590179501567,0.1084010675549507,0,0,0
6349,264685.90276656003,2011-01-21 14:49:25,30.01527583284494,2,31,0.550297200679779,3.817117214202881,19.469415183621017,19.405725862108124,79.38918723382098,68.40168582004009,0.0007122993702068,0.1084010675549507,0,0,0
6350,264715.9177127613,2011-01-21 14:49:55,60.030222039159135,2,31,0.550297200679779,3.837676525115967,19.47400239263656,19.405725862108124,79.40674803313607,68.40168582004009,0.0004532813909463,0.1084010675549507,0,0,0
6351,264745.9328491968,2011-01-21 14:50:25,90.0453584795953,2,31,0.550297200679779,3.851598739624024,19.47858958539668,19.405725862108124,79.42438552053765,68.40168582004009,0.0003237724304199,0.1084010675549507,0,0,0
6352,264775.9480813408,2011-01-21 14:50:55,120.06059060350412,2,31,0.550297200679779,3.862768888473511,19.48317675633482,19.405725862108124,79.44207993681128,68.40168582004009,0.0002590179501567,0.1084010675549507,0,0,0
6353,264805.9653195293,2011-01-21 14:51:25,150.07782898763074,2,31,0.5499359965324402,3.872158288955689,19.487764207267787,19.405725862108124,79.45982262733662,68.40168582004009,0.0002266406954731,0.1084010675549507,0,0,0
6354,264835.97829606663,2011-01-21 14:51:55,180.09080532442394,2,31,0.550297200679779,3.8809001445770255,19.492351055880476,19.405725862108124,79.47760422418116,68.40168582004009,0.0002266406954731,0.1084010675549507,0,0,0
6355,264865.9933006785,2011-01-21 14:52:25,210.1058099363028,2,31,0.5501165986061096,3.888670682907105,19.496938177632927,19.405725862108124,79.49542422967315,68.40168582004009,0.0001942634553415,0.1084010675549507,0,0,0
6356,264896.00839366566,2011-01-21 14:52:55,240.12090293847743,2,31,0.550297200679779,3.895793676376343,19.50152541416785,19.405725862108124,79.51327893252541,68.40168582004009,0.0001942634553415,0.1084010675549507,0,0,0
6357,264926.0235008131,2011-01-21 14:53:25,270.13601008590643,2,31,0.5501165986061096,3.902431011199951,19.50611263834218,19.405725862108124,79.53116511874349,68.40168582004009,0.0001942634553415,0.1084010675549507,0,0,0
6358,264956.03863457683,2011-01-21 14:53:55,300.1511438496715,2,31,0.5501165986061096,3.90874457359314,19.51069980615006,19.405725862108124,79.54908089947521,68.40168582004009,0.0001618862152099,0.1084010675549507,0,0,0
6359,264986.053736391,2011-01-21 14:54:26,330.16624566380824,2,31,0.550297200679779,3.914734125137329,19.51528697016601,19.405725862108124,79.56702499794852,68.40168582004009,0.0001618862152099,0.1084010675549507,0,0,0
6360,265016.06883595453,2011-01-21 14:54:56,360.18134522733584,2,31,0.5501165986061096,3.920562028884888,19.51987414254705,19.405725862108124,79.58499614340084,68.40168582004009,0.0001618862152099,0.1084010675549507,0,0,0
6361,265046.0840740483,2011-01-21 14:55:26,390.19658332112346,2,31,0.5501165986061096,3.925904273986816,19.524461394863057,19.405725862108124,79.6029933497533,68.40168582004009,0.0001295089750783,0.1084010675549507,0,0,0
6362,265076.09906790336,2011-01-21 14:55:56,420.21157717118047,2,31,0.550297200679779,3.931246519088745,19.52904858839016,19.405725862108124,79.62101487554449,68.40168582004009,0.0001618862152099,0.1084010675549507,0,0,0
6363,265106.1141675672,2011-01-21 14:56:26,450.2266768399704,2,31,0.5501165986061096,3.936103105545044,19.53363581162139,19.405725862108124,79.63906029840129,68.40168582004009,0.0001295089750783,0.1084010675549507,0,0,0
6364,265136.129284499,2011-01-21 14:56:56,480.241793771785,2,31,0.550297200679779,3.940959692001343,19.53822304137872,19.405725862108124,79.65712820894265,68.40168582004009,9.713172767078504e-05,0.1084010675549507,0,0,0
6365,265166.14440807234,2011-01-21 14:57:26,510.256917330115,2,31,0.550297200679779,3.9458162784576416,19.542810219048068,19.405725862108124,79.6752173752897,68.40168582004009,0.0001295089750783,0.1084010675549507,0,0,0
6366,265196.1595005332,2011-01-21 14:57:56,540.272009805978,2,31,0.5501165986061096,3.9500253200531006,19.547397448563952,19.405725862108124,79.6933273982101,68.40168582004009,0.0001295089750783,0.1084010675549507,0,0,0
6367,265226.1745914251,2011-01-21 14:58:26,570.2871006828557,2,31,0.5501165986061096,3.9543962478637695,19.551984624650544,19.405725862108124,79.71145712875321,68.40168582004009,0.0001295089750783,0.1084010675549507,0,0,0
6368,265256.1899381296,2011-01-21 14:58:56,600.3024473873345,2,31,0.550297200679779,3.9584434032440186,19.556571873976942,19.405725862108124,79.72960635956959,68.40168582004009,9.713172767078504e-05,0.1084010675549507,0,0,0
6369,265286.2048477697,2011-01-21 14:59:26,630.3173570275147,2,31,0.5501165986061096,3.9623286724090576,19.56115898686335,19.405725862108124,79.74777333634113,68.40168582004009,9.713172767078504e-05,0.1084010675549507,0,0,0
6370,265316.2200863999,2011-01-21 14:59:56,660.3325956726766,2,31,0.5501165986061096,3.9662139415740967,19.565746209611824,19.405725862108124,79.76595843499031,68.40168582004009,0.0001295089750783,0.1084010675549507,0,0,0
6371,265346.2352249055,2011-01-21 15:00:26,690.3477341782597,2,31,0.5501165986061096,3.969775438308716,19.570333446196948,19.405725862108124,79.78416072168216,68.40168582004009,6.47544875391759e-05,0.1084010675549507,0,0,0
6372,265376.2502019336,2011-01-21 15:00:56,720.3627111863414,2,31,0.5501165986061096,3.973336935043335,19.57492069327048,19.405725862108124,79.8023797483181,68.40168582004009,9.713172767078504e-05,0.1084010675549507,0,0,0
6373,265406.2654647489,2011-01-21 15:01:26,750.3779740067552,2,31,0.5501165986061096,3.976898431777954,19.579507944815465,19.405725862108124,79.82061499963642,68.40168582004009,9.713172767078504e-05,0.1084010675549507,0,0,0
6374,265436.2804085493,2011-01-21 15:01:56,780.3929178221103,2,31,0.5501165986061096,3.9802980422973633,19.58409512722149,19.405725862108124,79.8388655177351,68.40168582004009,9.713172767078504e-05,0.1084010675549507,0,0,0
6375,265466.2957300008,2011-01-21 15:02:26,810.4082392686387,2,31,0.5501165986061096,3.983697652816773,19.588682366028788,19.405725862108124,79.85713193292554,68.40168582004009,9.713172767078504e-05,0.1084010675549507,0,0,0
6376,265496.3106407237,2011-01-21 15:02:56,840.4231499965298,2,31,0.5501165986061096,3.986935377120972,19.593269467936867,19.405725862108124,79.8754131370261,68.40168582004009,6.47544875391759e-05,0.1084010675549507,0,0,0
6377,265526.3257564175,2011-01-21 15:03:26,870.4382656902588,2,31,0.5501165986061096,3.990334987640381,19.597856594966185,19.405725862108124,79.8937094970641,68.40168582004009,9.713172767078504e-05,0.1084010675549507,0,0,0
6378,265556.3408760911,2011-01-21 15:03:56,900.4533854541319,2,31,0.550297200679779,3.99357271194458,19.60244373780361,19.405725862108124,79.91202087582947,68.40168582004009,9.713172767078504e-05,0.1084010675549507,0,0,0
6379,265586.3560121405,2011-01-21 15:04:26,930.4685214133688,2,31,0.5501165986061096,3.9966483116149902,19.607030838649404,19.405725862108124,79.93034681693733,68.40168582004009,6.47544875391759e-05,0.1084010675549507,0,0,0
6380,265616.37109550374,2011-01-21 15:04:56,960.48360477652,2,31,0.5501165986061096,3.99972414970398,19.61161797563837,19.405725862108124,79.9486872434448,68.40168582004009,6.47544875391759e-05,0.1084010675549507,0,0,0
6381,265646.3861997389,2011-01-21 15:05:26,990.4987090116908,2,31,0.5501165986061096,4.002799987792969,19.6162050391755,19.405725862108124,79.96704159424412,68.40168582004009,6.47544875391759e-05,0.1084010675549507,0,0,0
6382,265676.4013401091,2011-01-21 15:05:56,1020.5138493819212,2,31,0.5501165986061096,4.005876064300537,19.620792265471188,19.405725862108124,79.98541062476487,68.40168582004009,6.47544875391759e-05,0.1084010675549507,0,0,0
6383,265706.4164339384,2011-01-21 15:06:26,1050.5289432111572,2,31,0.550297200679779,4.008790016174316,19.625379422684524,19.405725862108124,80.00379314289346,68.40168582004009,6.47544875391759e-05,0.1084010675549507,0,0,0
6384,265736.4315430607,2011-01-21 15:06:56,1080.5440523335085,2,31,0.550297200679779,4.011865615844727,19.629966533909823,19.405725862108124,80.02218909172338,68.40168582004009,6.47544875391759e-05,0.1084010675549507,0,0,0
6385,265766.44664873945,2011-01-21 15:07:26,1110.5591580122768,2,31,0.550297200679779,4.014779567718506,19.63455369295543,19.405725862108124,80.04059886907288,68.40168582004009,6.47544875391759e-05,0.1084010675549507,0,0,0
6386,265796.46178307466,2011-01-21 15:07:56,1140.574292347466,2,31,0.550297200679779,4.017855644226074,19.63914082826333,19.405725862108124,80.05902192083408,68.40168582004009,9.71794142969884e-05,0.1084010675549507,0,0,0
6387,265826.4768976356,2011-01-21 15:08:26,1170.5894069083718,2,31,0.5501165986061096,4.0206074714660645,19.64372802351537,19.405725862108124,80.0774584558854,68.40168582004009,6.47544875391759e-05,0.1084010675549507,0,0,0
6388,265856.49199617654,2011-01-21 15:08:56,1200.6045054493509,2,31,0.5501165986061096,4.023521423339844,19.64831512920217,19.405725862108124,80.09590788352429,68.40168582004009,6.47544875391759e-05,0.1084010675549507,0,0,0
6389,265886.5071864812,2011-01-21 15:09:26,1230.619695754033,2,31,0.550297200679779,4.026273727416992,19.652902288817213,19.405725862108124,80.11437058394229,68.40168582004009,9.71794142969884e-05,0.1084010675549507,0,0,0
6390,265916.5223369115,2011-01-21 15:09:56,1260.6348461843363,2,31,0.550297200679779,4.029187679290772,19.657489433523416,19.405725862108124,80.1328461859615,68.40168582004009,9.71794142969884e-05,0.1084010675549507,0,0,0
6391,265946.5373966909,2011-01-21 15:10:26,1290.6499060539345,2,31,0.5501165986061096,4.031939506530762,19.6620766678167,19.405725862108124,80.1513349411166,68.40168582004009,6.47544875391759e-05,0.1084010675549507,0,0,0
6392,265976.5525701185,2011-01-21 15:10:56,1320.6650793863166,2,31,0.5501165986061096,4.034529685974121,19.666663879665677,19.405725862108124,80.16983634885239,68.40168582004009,3.24249267578125e-05,0.1084010675549507,0,0,0
6393,266006.5675902942,2011-01-21 15:11:26,1350.6800995669978,2,31,0.5501165986061096,4.037281513214111,19.67125101004181,19.405725862108124,80.18835014048946,68.40168582004009,3.23295607813634e-05,0.1084010675549507,0,0,0
6394,266036.58269853937,2011-01-21 15:11:56,1380.6952078071502,2,31,0.5501165986061096,4.04003381729126,19.675838225008498,19.405725862108124,80.20687706593094,68.40168582004009,3.24249267578125e-05,0.1084010675549507,0,0,0
6395,266066.5978407191,2011-01-21 15:12:26,1410.7103500670903,2,31,0.550297200679779,4.042947769165039,19.68042539476352,19.405725862108124,80.22541652093594,68.40168582004009,9.71794142969884e-05,0.1084010675549507,0,0,0
6396,266096.6131396345,2011-01-21 15:12:56,1440.7256488922392,2,31,0.5501165986061096,4.045861721038818,19.68501260908196,19.405725862108124,80.24396890730547,68.40168582004009,9.71794142969884e-05,0.1084010675549507,0,0,0
6397,266126.628092352,2011-01-21 15:13:26,1470.7406017852186,2,31,0.5501165986061096,4.048613548278809,19.689599734239504,19.405725862108124,80.26253372846219,68.40168582004009,9.70840483205393e-05,0.1084010675549507,0,0,0
6398,266156.6431272794,2011-01-21 15:13:56,1500.7556365522532,2,31,0.5501165986061096,4.051365852355957,19.69418692168305,19.405725862108124,80.28111166053938,68.40168582004009,6.47544875391759e-05,0.1084010675549507,0,0,0
6399,266186.6582661058,2011-01-21 15:14:26,1530.770775378636,2,31,0.5501165986061096,4.054279804229736,19.69877410437776,19.405725862108124,80.29970240783577,68.40168582004009,9.71794142969884e-05,0.1084010675549507,0,0,0
6400,266216.67361513106,2011-01-21 15:14:56,1560.7861244038988,2,31,0.550297200679779,4.056869983673096,19.70336134291045,19.405725862108124,80.31830633298459,68.40168582004009,3.24249267578125e-05,0.1084010675549507,0,0,0
6401,266246.68846625544,2011-01-21 15:15:26,1590.8009755282394,2,31,0.5501165986061096,4.059621810913086,19.70794848688274,19.405725862108124,80.33692287273915,68.40168582004009,3.23295607813634e-05,0.1084010675549507,0,0,0
6402,266276.7037092715,2011-01-21 15:15:56,1620.816218544295,2,31,0.550297200679779,4.062697887420654,19.712535693537305,19.405725862108124,80.35555226910755,68.40168582004009,9.71794142969884e-05,0.1084010675549507,0,0,0
6403,266306.71883504034,2011-01-21 15:16:26,1650.8313443081215,2,31,0.550297200679779,4.0654497146606445,19.71712284452698,19.405725862108124,80.37419444357263,68.40168582004009,6.47544875391759e-05,0.1084010675549507,0,0,0
6404,266336.73381676513,2011-01-21 15:16:56,1680.8463260379715,2,31,0.550297200679779,4.068363666534424,19.72170997012903,19.405725862108124,80.39284951697888,68.40168582004009,0.0001295089750783,0.1084010675549507,0,0,0
6405,266366.749048047,2011-01-21 15:17:26,1710.8615573197817,2,31,0.550297200679779,4.071115970611572,19.726297115109578,19.405725862108124,80.41151784554734,68.40168582004009,6.47544875391759e-05,0.1084010675549507,0,0,0
6406,266396.76406430785,2011-01-21 15:17:56,1740.8765736709183,2,31,0.5504778623580933,4.074191570281982,19.730884295982097,19.405725862108124,80.43019944630394,68.40168582004009,0.0001295089750783,0.1084010675549507,0,0,0
6407,266426.78156520624,2011-01-21 15:18:26,1770.8940745743237,2,31,0.5501165986061096,4.076943874359131,19.73547180091909,19.405725862108124,80.448895716787,68.40168582004009,6.47544875391759e-05,0.1084010675549507,0,0,0
6408,266456.7942788784,2011-01-21 15:18:56,1800.9067881512383,2,31,0.5499359965324402,4.07985782623291,19.74005855816573,19.405725862108124,80.4676023824263,68.40168582004009,6.47544875391759e-05,0.1084010675549507,0,0,0
6409,266486.8094951028,2011-01-21 15:19:26,1830.922004450708,2,31,0.5499359965324402,4.0827717781066895,19.744645762365337,19.405725862108124,80.48632423846351,68.40168582004009,6.47544875391759e-05,0.1084010675549507,0,0,0
6410,266516.82448580995,2011-01-21 15:19:56,1860.9369950827447,2,31,0.550297200679779,4.0858473777771,19.74923275221432,19.405725862108124,80.50505873076999,68.40168582004009,6.47544875391759e-05,0.1084010675549507,0,0,0
6411,266546.8396316338,2011-01-21 15:20:26,1890.9521409065671,2,31,0.5499359965324402,4.088599681854248,19.753819197413296,19.405725862108124,80.5238044739212,68.40168582004009,6.47544875391759e-05,0.1084010675549507,0,0,0
6412,266576.85475511185,2011-01-21 15:20:56,1920.9672644699097,2,31,0.5501165986061096,4.091675281524658,19.758405818519662,19.405725862108124,80.54256465040281,68.40168582004009,6.47544875391759e-05,0.1084010675549507,0,0,0
6413,266606.8698591014,2011-01-21 15:21:26,1950.982368374256,2,31,0.550297200679779,4.094751358032227,19.7629930013522,19.405725862108124,80.56134095863712,68.40168582004009,9.71794142969884e-05,0.1084010675549507,0,0,0
6414,266636.8849920131,2011-01-21 15:21:56,1980.99750127086,2,31,0.5504778623580933,4.097826957702637,19.76758017590893,19.405725862108124,80.5801312241608,68.40168582004009,9.70840483205393e-05,0.1084010675549507,0,0,0
6415,266666.90013056376,2011-01-21 15:22:26,2011.01263991178,2,31,0.550297200679779,4.100903034210205,19.772167276552967,19.405725862108124,80.59893518767056,68.40168582004009,6.47544875391759e-05,0.1084010675549507,0,0,0
6416,266696.9152014508,2011-01-21 15:22:56,2041.0277107086124,2,31,0.550297200679779,4.103816986083984,19.77675445014027,19.405725862108124,80.617753602402,68.40168582004009,3.24249267578125e-05,0.1084010675549507,0,0,0
6417,266726.93248160905,2011-01-21 15:23:26,2071.0449910523157,2,31,0.5501165986061096,4.107054710388184,19.78134194442468,19.405725862108124,80.63658770595342,68.40168582004009,6.47544875391759e-05,0.1084010675549507,0,0,0
6418,266756.9454264223,2011-01-21 15:23:56,2101.057935695117,2,31,0.550297200679779,4.110292434692383,19.785928764880097,19.405725862108124,80.65543333757495,68.40168582004009,9.71794142969884e-05,0.1084010675549507,0,0,0
6419,266786.960541705,2011-01-21 15:24:26,2131.073050977822,2,31,0.550297200679779,4.113368034362793,19.79051601671771,19.405725862108124,80.6742952862815,68.40168582004009,9.70840483205393e-05,0.1084010675549507,0,0,0
6420,266816.97577199934,2011-01-21 15:24:56,2161.0882812721707,2,31,0.5501165986061096,4.116605758666992,19.79510316023496,19.405725862108124,80.6931714122165,68.40168582004009,9.71794142969884e-05,0.1084010675549507,0,0,0
6421,266846.9907742353,2011-01-21 15:25:26,2191.10328349309,2,31,0.550297200679779,4.120005130767822,19.79969026171232,19.405725862108124,80.71206204825427,68.40168582004009,0.0001295089750783,0.1084010675549507,0,0,0
6422,266877.0059983292,2011-01-21 15:25:56,2221.118507602024,2,31,0.550297200679779,4.123081207275391,19.804277448146976,19.405725862108124,80.73096778353431,68.40168582004009,6.47544875391759e-05,0.1084010675549507,0,0,0
6423,266907.0209948058,2011-01-21 15:26:27,2251.133504078626,2,31,0.5501165986061096,4.12631893157959,19.808864589934128,19.405725862108124,80.74988820581055,68.40168582004009,9.71794142969884e-05,0.1084010675549507,0,0,0
6424,266937.0361101286,2011-01-21 15:26:57,2281.148619401431,2,31,0.5501165986061096,4.129556655883789,19.81345174501543,19.405725862108124,80.76882382068463,68.40168582004009,6.47544875391759e-05,0.1084010675549507,0,0,0
6425,266967.05121098534,2011-01-21 15:27:27,2311.163720258182,2,31,0.5501165986061096,4.132794380187988,19.81803891064388,19.405725862108124,80.78777474283172,68.40168582004009,6.47544875391759e-05,0.1084010675549507,0,0,0
6426,266997.0663327643,2011-01-21 15:27:57,2341.178842037077,2,31,0.550297200679779,4.136355876922607,19.822626037043936,19.405725862108124,80.80674084482692,68.40168582004009,9.71794142969884e-05,0.1084010675549507,0,0,0
6427,267027.0814515407,2011-01-21 15:28:27,2371.193960813489,2,31,0.550297200679779,4.1397552490234375,19.827213153722425,19.405725862108124,80.82572235184858,68.40168582004009,9.70840483205393e-05,0.1084010675549507,0,0,0
6428,267057.09658641217,2011-01-21 15:28:57,2401.2090956800025,2,31,0.5501165986061096,4.142992973327637,19.8318003435247,19.405725862108124,80.8447197233743,68.40168582004009,9.70840483205393e-05,0.1084010675549507,0,0,0
6429,267087.11179802497,2011-01-21 15:29:27,2431.2243073830164,2,31,0.550297200679779,4.146716594696045,19.836387494192216,19.405725862108124,80.86373271275811,68.40168582004009,9.71794142969884e-05,0.1084010675549507,0,0,0
6430,267117.1267750732,2011-01-21 15:29:57,2461.239284345985,2,31,0.550297200679779,4.150115966796875,19.840974599870133,19.405725862108124,80.88276153592051,68.40168582004009,9.70840483205393e-05,0.1084010675549507,0,0,0
6431,267147.1419021302,2011-01-21 15:30:27,2491.254411403035,2,31,0.5501165986061096,4.153515815734863,19.84556177227064,19.405725862108124,80.90180663215625,68.40168582004009,9.71794142969884e-05,0.1084010675549507,0,0,0
6432,267177.15725279454,2011-01-21 15:30:57,2521.269762047333,2,31,0.550297200679779,4.157238960266113,19.85014892706529,19.405725862108124,80.92086768888498,68.40168582004009,9.70840483205393e-05,0.1084010675549507,0,0,0
6433,267207.1721156782,2011-01-21 15:31:27,2551.2846249359945,2,31,0.5501165986061096,4.1604766845703125,19.854736024431425,19.405725862108124,80.93994476153979,68.40168582004009,9.70840483205393e-05,0.1084010675549507,0,0,0
6434,267237.1873702732,2011-01-21 15:31:57,2581.299879530908,2,31,0.5501165986061096,4.164200305938721,19.8593232028119,19.405725862108124,80.95903854903173,68.40168582004009,9.71794142969884e-05,0.1084010675549507,0,0,0
6435,267267.20249463845,2011-01-21 15:32:27,2611.3150039112866,2,31,0.5501165986061096,4.16776180267334,19.86391036876172,19.405725862108124,80.97814860886378,68.40168582004009,0.0001295089750783,0.1084010675549507,0,0,0
6436,267297.217460178,2011-01-21 15:32:57,2641.329969450785,2,31,0.550297200679779,4.17148494720459,19.868497466766517,19.405725862108124,80.99727495339424,68.40168582004009,0.0001295089750783,0.1084010675549507,0,0,0
6437,267327.23258704453,2011-01-21 15:33:27,2671.34509631736,2,31,0.550297200679779,4.175208568572998,19.873084587857843,19.405725862108124,81.0164180072579,68.40168582004009,0.0001295089750783,0.1084010675549507,0,0,0
6438,267357.247691791,2011-01-21 15:33:57,2701.3602010437558,2,31,0.5501165986061096,4.178607940673828,19.877671740643265,19.405725862108124,81.03557795583126,68.40168582004009,6.47544875391759e-05,0.1084010675549507,0,0,0
6439,267387.263000586,2011-01-21 15:34:27,2731.3755098588026,2,31,0.5499359965324402,4.182331562042236,19.88225886870536,19.405725862108124,81.05475476098638,68.40168582004009,6.47544875391759e-05,0.1084010675549507,0,0,0
6440,267417.2779164918,2011-01-21 15:34:57,2761.390425764598,2,31,0.550297200679779,4.186216831207275,19.88684595109689,19.405725862108124,81.07394840555389,68.40168582004009,9.71794142969884e-05,0.1084010675549507,0,0,0
6441,267447.29302229587,2011-01-21 15:35:27,2791.405531568679,2,31,0.5501165986061096,4.189939975738525,19.89143303409813,19.405725862108124,81.09315942215963,68.40168582004009,9.70840483205393e-05,0.1084010675549507,0,0,0
6442,267477.3081658991,2011-01-21 15:35:57,2821.420675171967,2,31,0.5499359965324402,4.193663597106934,19.89602017719234,19.405725862108124,81.11238802735576,68.40168582004009,6.47544875391759e-05,0.1084010675549507,0,0,0
6443,267507.32326335745,2011-01-21 15:36:27,2851.435772630248,2,31,0.5501165986061096,4.197548389434815,19.90060732505748,19.405725862108124,81.13163405393806,68.40168582004009,0.0001295089750783,0.1084010675549507,0,0,0
6444,267525.635460412,2011-01-21 15:36:45,2869.74796968483,2,31,0.5504778623580933,4.200138568878174,19.903405968274164,19.405725862108124,81.14338476334395,68.40168582004009,0.0001618385285837,0.1084010675549507,0,0,0
6445,267555.6608486152,2011-01-21 15:37:15,30.017986243021067,3,31,0.0,4.091675281524658,19.903405968274164,19.405725862108124,81.14338476334395,68.40168582004009,-0.0005180359003134,0.1084010675549507,0,0,0
6446,267585.6730338102,2011-01-21 15:37:45,60.03017135283322,3,31,0.0,4.0780768394470215,19.903405968274164,19.405725862108124,81.14338476334395,68.40168582004009,-0.0002590179501567,0.1084010675549507,0,0,0
6447,267615.6881320204,2011-01-21 15:38:15,90.04526957802523,3,31,0.0,4.069334983825684,19.903405968274164,19.405725862108124,81.14338476334395,68.40168582004009,-0.0001295089750783,0.1084010675549507,0,0,0
6448,267645.6585497832,2011-01-21 15:38:45,120.01568733073198,3,31,0.0,4.063021659851074,19.903405968274164,19.405725862108124,81.14338476334395,68.40168582004009,-0.0001618385285837,0.1084010675549507,0,0,0
6449,267645.6658470064,2011-01-21 15:38:45,2.726796015e-06,4,31,1.04751455783844,4.199814796447754,19.9034059690676,19.405725862108124,81.14338476667622,68.40168582004009,0.0,0.1084010675549507,0,0,0
6450,267645.89807301003,2011-01-21 15:38:46,0.232228780576205,4,31,0.996402144432068,4.199814796447754,19.90347105548257,19.405725862108124,81.14365812183357,68.40168582004009,0.0,0.1084010675549507,0,0,0
6451,267647.30417925445,2011-01-21 15:38:47,1.638335024985348,4,31,0.946192741394043,4.199814796447754,19.90384926084666,19.405725862108124,81.14524651913644,68.40168582004009,0.0,0.1084010675549507,0,0,0
6452,267649.7728788435,2011-01-21 15:38:50,4.107034613960949,4,31,0.8959833979606628,4.199814796447754,19.90447984758188,19.405725862108124,81.14789485626308,68.40168582004009,0.0,0.1084010675549507,0,0,0
6453,267653.2572188709,2011-01-21 15:38:53,7.591374641413986,4,31,0.8459545969963074,4.199814796447754,19.905321764566622,19.405725862108124,81.15143076115919,68.40168582004009,0.0,0.1084010675549507,0,0,0
6454,267657.9603189835,2011-01-21 15:38:58,12.294474754002282,4,31,0.7959258556365967,4.199814796447754,19.90639298539703,19.405725862108124,81.1559297232516,68.40168582004009,0.0,0.1084010675549507,0,0,0
6455,267664.1007522776,2011-01-21 15:39:04,18.434908048135352,4,31,0.7458970546722412,4.199976921081543,19.90770620635769,19.405725862108124,81.16144508281164,68.40168582004009,3.24249267578125e-05,0.1084010675549507,0,0,0
6456,267672.1787822839,2011-01-21 15:39:12,26.51293813967118,4,31,0.6956877112388611,4.199976921081543,19.909321019798632,19.405725862108124,81.16822708538828,68.40168582004009,3.24249267578125e-05,0.1084010675549507,0,0,0
6457,267683.084811324,2011-01-21 15:39:23,37.4189670945279,4,31,0.6456589102745056,4.199814796447754,19.911348807557136,19.405725862108124,81.17674352376979,68.40168582004009,0.0,0.1084010675549507,0,0,0
6458,267698.928323802,2011-01-21 15:39:39,53.26247965776242,4,31,0.5956301689147949,4.199976921081543,19.91407268719953,19.405725862108124,81.18818343039115,68.40168582004009,3.24249267578125e-05,0.1084010675549507,0,0,0
6459,267724.6153624811,2011-01-21 15:40:04,78.94951825164256,4,31,0.54542076587677,4.199653148651123,19.91812826291907,19.405725862108124,81.20521629203664,68.40168582004009,-6.47544875391759e-05,0.1084010675549507,0,0,0
6460,267774.2239229029,2011-01-21 15:40:54,128.5580786683735,4,31,0.4952113926410675,4.199814796447754,19.925261713714427,19.405725862108124,81.23517572680832,68.40168582004009,0.0,0.1084010675549507,0,0,0
6461,267867.7847829992,2011-01-21 15:42:28,222.11893876970296,4,31,0.4451826214790344,4.199814796447754,19.93743120150548,19.405725862108124,81.28628583675854,68.40168582004009,0.0,0.1084010675549507,0,0,0
6462,268001.1731445187,2011-01-21 15:44:41,355.5073002891823,4,31,0.3951538503170013,4.199814796447754,19.952973519252925,19.405725862108124,81.35156134879168,68.40168582004009,-3.24249267578125e-05,0.1084010675549507,0,0,0
6463,268164.5008508676,2011-01-21 15:47:24,518.8350067182824,4,31,0.3451250791549682,4.199814796447754,19.96974177008841,19.405725862108124,81.42198573649947,68.40168582004009,0.0,0.1084010675549507,0,0,0
6464,268360.6982866159,2011-01-21 15:50:40,715.0324424766341,4,31,0.2950963079929352,4.199653148651123,19.98715923990477,19.405725862108124,81.49513667587945,68.40168582004009,-6.47544875391759e-05,0.1084010675549507,0,0,0
6465,268598.9912572647,2011-01-21 15:54:39,953.32541303518,4,31,0.2450675517320633,4.199814796447754,20.005000481792496,19.405725862108124,81.57006732462682,68.40168582004009,0.0,0.1084010675549507,0,0,0
6466,268897.1735068991,2011-01-21 15:59:37,1251.5076626696534,4,31,0.1950387805700302,4.199814796447754,20.023178148931617,19.405725862108124,81.64641086636098,68.40168582004009,-3.24249267578125e-05,0.1084010675549507,0,0,0
6467,269293.2450048552,2011-01-21 16:06:13,1647.5791606207008,4,31,0.1448293924331665,4.199653148651123,20.04178038687185,19.405725862108124,81.72453759320463,68.40168582004009,-3.23295607813634e-05,0.1084010675549507,0,0,0
6468,269887.5784822527,2011-01-21 16:16:07,2241.912638023227,4,31,0.094800628721714,4.199814796447754,20.06129596867109,19.405725862108124,81.80649988819522,68.40168582004009,-3.24249267578125e-05,0.1084010675549507,0,0,0
6469,270919.90475113364,2011-01-21 16:33:20,3274.2389068941056,4,31,0.0498289167881011,4.199653148651123,20.081277524556864,19.405725862108124,81.89041970507942,68.40168582004009,-6.47544875391759e-05,0.1084010675549507,0,0,0
6470,270949.9069365426,2011-01-21 16:33:50,30.01514428999969,5,31,0.0,4.1896162033081055,20.081277524556864,19.405725862108124,81.89041970507942,68.40168582004009,-6.47544875391759e-05,0.1084010675549507,0,0,0
6471,270979.906399946,2011-01-21 16:34:20,60.01460770343009,5,31,0.0,4.187997341156006,20.081277524556864,19.405725862108124,81.89041970507942,68.40168582004009,-3.24249267578125e-05,0.1084010675549507,0,0,0
6472,270980.0821780955,2011-01-21 16:34:20,0.187613721120331,6,31,-1.9243103452026844e-05,4.187835693359375,20.081277524556864,19.405725863110977,81.89041970507942,68.40168582423986,0.0,0.1124458834528923,0,0,0
6473,270984.91031935904,2011-01-21 16:34:25,5.01575498974367,6,31,0.0008838032954372,4.187997341156006,20.081278446688863,19.40572586327769,81.89042356702016,68.40168582493804,-3.24249267578125e-05,0.1124458834528923,0,0,0
6474,270999.2574695582,2011-01-21 16:34:39,14.35912268692742,7,31,-1.0997490882873535,3.987906694412232,20.081278446688863,19.410111403527736,81.89042356702016,68.41925703744873,-0.0018454551463946,0.1124458834528923,0,0,0
6475,271029.2725891868,2011-01-21 16:35:09,44.37424231045066,7,31,-1.099568486213684,3.930922746658325,20.081278446688863,19.419278530015884,81.89042356702016,68.45554460258596,-0.0014245987404137,0.1124458834528923,0,0,0
6476,271059.2876933718,2011-01-21 16:35:39,74.38934649549647,7,31,-1.0993878841400146,3.886728048324585,20.081278446688863,19.428445629475377,81.89042356702016,68.49136996044427,-0.0010036944877356,0.1124458834528923,0,0,0
6477,271089.30292551074,2011-01-21 16:36:09,104.4045786194053,7,31,-1.099568486213684,3.849979877471924,20.081278446688863,19.43761205352457,81.89042356702016,68.52682232914299,-0.0008418083307333,0.1124458834528923,0,0,0
6478,271119.3179087193,2011-01-21 16:36:39,134.41956184297788,7,31,-1.0993878841400146,3.82116436958313,20.081278446688863,19.44677837833351,81.89042356702016,68.56197543961568,-0.0006799221155233,0.1124458834528923,0,0,0
6479,271149.3331881261,2011-01-21 16:37:10,164.43484131489248,7,31,-1.0993878841400146,3.797852754592896,20.081278446688863,19.455944704445923,81.89042356702016,68.59689107958873,-0.0005504131549969,0.1124458834528923,0,0,0
6480,271179.34814190626,2011-01-21 16:37:40,194.44979503493323,7,31,-1.0993878841400146,3.7779407501220703,20.081278446688863,19.465110994218364,81.89042356702016,68.63160868898909,-0.0004856586456298,0.1124458834528923,0,0,0
6481,271209.363251169,2011-01-21 16:38:10,224.46490426755915,7,31,-1.099568486213684,3.760295152664185,20.081278446688863,19.47427735139757,81.89042356702016,68.66615646056592,-0.0004532813909463,0.1124458834528923,0,0,0
6482,271239.37837014586,2011-01-21 16:38:40,254.4800232695333,7,31,-1.099568486213684,3.744754314422608,20.081278446688863,19.48344367842357,81.89042356702016,68.7005530892826,-0.0003885269106831,0.1124458834528923,0,0,0
6483,271269.3935004259,2011-01-21 16:39:10,284.4951535546285,7,31,-1.0993878841400146,3.730346441268921,20.081278446688863,19.49261002712012,81.89042356702016,68.73481117343516,-0.0003561496851034,0.1124458834528923,0,0,0
6484,271299.40859651583,2011-01-21 16:39:40,314.51024962444865,7,31,-1.0992072820663452,3.716747999191284,20.081278446688863,19.50177642683732,81.89042356702016,68.76894184902423,-0.0003561496851034,0.1124458834528923,0,0,0
6485,271329.4237246105,2011-01-21 16:40:10,344.525377724097,7,31,-1.099568486213684,3.703958988189697,20.081278446688863,19.510942831554217,81.89042356702016,68.80295258361052,-0.0003561496851034,0.1124458834528923,0,0,0
6486,271359.43888060964,2011-01-21 16:40:40,374.5405337182671,7,31,-1.0993878841400146,3.69197940826416,20.081278446688863,19.5201092699016,81.89042356702016,68.83684969341857,-0.0003237724304199,0.1124458834528923,0,0,0
6487,271389.4539574014,2011-01-21 16:41:10,404.5556105300904,7,31,-1.0992072820663452,3.680323600769043,20.081278446688863,19.529275614107103,81.89042356702016,68.87063768976968,-0.0002913951757363,0.1124458834528923,0,0,0
6488,271419.4691956757,2011-01-21 16:41:40,434.57084878427776,7,31,-1.099568486213684,3.668991804122925,20.081278446688863,19.53844208193233,81.89042356702016,68.90432094422792,-0.0003237724304199,0.1124458834528923,0,0,0
6489,271449.4841989041,2011-01-21 16:42:10,464.5858520076961,7,31,-1.099568486213684,3.6581454277038574,20.081278446688863,19.54760846168458,81.89042356702016,68.93790222327733,-0.0002913951757363,0.1124458834528923,0,0,0
6490,271479.4992501121,2011-01-21 16:42:40,494.6009032357568,7,31,-1.0993878841400146,3.6474609375,20.081278446688863,19.55677488477913,81.89042356702016,68.9713854252056,-0.0002913951757363,0.1124458834528923,0,0,0
6491,271509.51437357016,2011-01-21 16:43:10,524.616026693837,7,31,-1.099568486213684,3.637585878372192,20.081278446688863,19.56594125515166,81.89042356702016,69.00477423868894,-0.0002590179501567,0.1124458834528923,0,0,0
6492,271539.52948456217,2011-01-21 16:43:40,554.6311376908603,7,31,-1.099568486213684,3.6277108192443848,20.081278446688863,19.575107643989966,81.89042356702016,69.03807241736162,-0.0002590179501567,0.1124458834528923,0,0,0
6493,271569.5445948374,2011-01-21 16:44:10,584.6462479410222,7,31,-1.0993878841400146,3.618159532546997,20.081278446688863,19.58427402142488,81.89042356702016,69.07128123444002,-0.0002590179501567,0.1124458834528923,0,0,0
6494,271599.5597115587,2011-01-21 16:44:40,614.6613646823622,7,31,-1.0997490882873535,3.60860824584961,20.081278446688863,19.59344042788895,81.89042356702016,69.10440277356265,-0.0002590179501567,0.1124458834528923,0,0,0
6495,271629.57503594755,2011-01-21 16:45:10,644.6766890611988,7,31,-1.099568486213684,3.599542617797852,20.081278446688863,19.602606908762457,81.89042356702016,69.13743971080551,-0.0002266406954731,0.1124458834528923,0,0,0
6496,271659.59006825846,2011-01-21 16:45:40,674.6917213670996,7,31,-1.0992072820663452,3.5908010005950928,20.081278446688863,19.61177335481896,81.89042356702016,69.17039383512237,-0.0002266406954731,0.1124458834528923,0,0,0
6497,271689.6050523292,2011-01-21 16:46:10,704.7067054578333,7,31,-1.0993878841400146,3.581897258758545,20.081278446688863,19.62093977895349,81.89042356702016,69.20326764698144,-0.0002266406954731,0.1124458834528923,0,0,0
6498,271719.62015928107,2011-01-21 16:46:40,734.7218124047628,7,31,-1.0993878841400146,3.573479175567627,20.081278446688863,19.63010629548949,81.89042356702016,69.2360628585252,-0.0002266406954731,0.1124458834528923,0,0,0
6499,271749.6354136053,2011-01-21 16:47:10,764.737066713964,7,31,-1.099568486213684,3.565222978591919,20.081278446688863,19.639272818430165,81.89042356702016,69.2687812531173,-0.0002266406954731,0.1124458834528923,0,0,0
6500,271779.6504256357,2011-01-21 16:47:40,794.7520787493446,7,31,-1.0993878841400146,3.557290554046631,20.081278446688863,19.64843921960495,81.89042356702016,69.30142557880583,-0.0001942634553415,0.1124458834528923,0,0,0
6501,271809.6655064826,2011-01-21 16:48:10,824.7671596012369,7,31,-1.0993878841400146,3.5496819019317627,20.081278446688863,19.65760568414424,81.89042356702016,69.33399850080153,-0.0001942634553415,0.1124458834528923,0,0,0
6502,271839.6806091288,2011-01-21 16:48:40,854.7822622574724,7,31,-1.099568486213684,3.5423970222473145,20.081278446688863,19.66677215790382,81.89042356702016,69.36650248144075,-0.0001618862152099,0.1124458834528923,0,0,0
6503,271869.6958712224,2011-01-21 16:49:10,884.7975243260125,7,31,-1.0993878841400146,3.534950256347656,20.081278446688863,19.675938695027437,81.89042356702016,69.39893845936368,-0.0001618862152099,0.1124458834528923,0,0,0
6504,271899.7108732028,2011-01-21 16:49:40,914.8125263013202,7,31,-1.0993878841400146,3.527827262878418,20.081278446688863,19.685105140378315,81.89042356702016,69.4313084011745,-0.0002266406954731,0.1124458834528923,0,0,0
6505,271929.7259538441,2011-01-21 16:50:10,944.8276069627376,7,31,-1.0992072820663452,3.5210280418396,20.081278446688863,19.694271588660943,81.89042356702016,69.46361385099644,-0.0001295089750783,0.1124458834528923,0,0,0
6506,271959.7412054265,2011-01-21 16:50:40,974.8428585351182,7,31,-1.0992072820663452,3.514228820800781,20.081278446688863,19.70343806788116,81.89042356702016,69.49585681039913,-0.0001618862152099,0.1124458834528923,0,0,0
6507,271989.7562302036,2011-01-21 16:51:10,1004.85788330223,7,31,-1.0992072820663452,3.507753610610962,20.081278446688863,19.71260449934465,81.89042356702016,69.52803953043149,-0.0001618862152099,0.1124458834528923,0,0,0
6508,272019.77131842886,2011-01-21 16:51:40,1034.8729715425368,7,31,-1.099568486213684,3.5012781620025635,20.081278446688863,19.72177108413571,81.89042356702016,69.56016381370277,-0.0001618862152099,0.1124458834528923,0,0,0
6509,272049.7864018572,2011-01-21 16:52:10,1064.8880549558128,7,31,-1.0993878841400146,3.495126485824585,20.081278446688863,19.730937596059636,81.89042356702016,69.59223110128859,-0.0001942634553415,0.1124458834528923,0,0,0
6510,272079.8015683726,2011-01-21 16:52:40,1094.9032214712051,7,31,-1.0993878841400146,3.4891366958618164,20.081278446688863,19.74010415793904,81.89042356702016,69.62424204295283,-0.0001295089750783,0.1124458834528923,0,0,0
6511,272109.8166373649,2011-01-21 16:53:10,1124.91829048359,7,31,-1.099568486213684,3.482985019683838,20.081278446688863,19.749270583002406,81.89042356702016,69.65619626569394,-0.0001295089750783,0.1124458834528923,0,0,0
6512,272139.83186423074,2011-01-21 16:53:40,1154.933517329344,7,31,-1.0993878841400146,3.4769952297210693,20.081278446688863,19.758436970331548,81.89042356702016,69.68809548315875,-0.0001295089750783,0.1124458834528923,0,0,0
6513,272169.84685539413,2011-01-21 16:54:10,1184.948508517767,7,31,-1.099568486213684,3.4711673259735107,20.081278446688863,19.767603320952013,81.89042356702016,69.7199402898534,-0.0001618862152099,0.1124458834528923,0,0,0
6514,272199.86199609016,2011-01-21 16:54:40,1214.9636492138095,7,31,-1.099568486213684,3.465177536010742,20.081278446688863,19.7767697674227,81.89042356702016,69.75173262264298,-0.0001618862152099,0.1124458834528923,0,0,0
6515,272229.8771066862,2011-01-21 16:55:10,1244.9787598048213,7,31,-1.0993878841400146,3.4595115184783936,20.081278446688863,19.785936267211536,81.89042356702016,69.78347081870793,-0.0001618862152099,0.1124458834528923,0,0,0
6516,272259.89241410774,2011-01-21 16:55:40,1274.9940672113576,7,31,-1.099568486213684,3.453683614730835,20.081278446688863,19.79510279664395,81.89042356702016,69.8151558185599,-0.0001618862152099,0.1124458834528923,0,0,0
6517,272289.9074349852,2011-01-21 16:56:10,1305.0090880937876,7,31,-1.0993878841400146,3.4476938247680664,20.081278446688863,19.80426919018906,81.89042356702016,69.84678537269188,-0.0001295089750783,0.1124458834528923,0,0,0
6518,272319.9224433715,2011-01-21 16:56:40,1335.024096485086,7,31,-1.0992072820663452,3.441380262374878,20.081278446688863,19.81343564085778,81.89042356702016,69.87835930258608,-0.0001618862152099,0.1124458834528923,0,0,0
6519,272349.9376723926,2011-01-21 16:57:10,1365.0393255112742,7,31,-1.0992072820663452,3.434742927551269,20.081278446688863,19.822602110034964,81.89042356702016,69.90987379834408,-0.0001295089750783,0.1124458834528923,0,0,0
6520,272379.95277589094,2011-01-21 16:57:40,1395.0544289995837,7,31,-1.0993878841400146,3.4279439449310303,20.081278446688863,19.83176855538062,81.89042356702016,69.9413259299035,-0.0001295089750783,0.1124458834528923,0,0,0
6521,272409.9678354247,2011-01-21 16:58:10,1425.0694885383573,7,31,-1.0993878841400146,3.420982837677002,20.081278446688863,19.84093504464959,81.89042356702016,69.97271725722378,-0.0002266406954731,0.1124458834528923,0,0,0
6522,272439.9828816102,2011-01-21 16:58:40,1455.084534738888,7,31,-1.0993878841400146,3.414183616638184,20.081278446688863,19.85010146114514,81.89042356702016,70.00404448419512,-0.0001295089750783,0.1124458834528923,0,0,0
6523,272469.99811841577,2011-01-21 16:59:10,1485.099771539452,7,31,-1.0997490882873535,3.4065749645233154,20.081278446688863,19.85926798735212,81.89042356702016,70.03530590410264,-0.0001942634553415,0.1124458834528923,0,0,0
6524,272500.0130955993,2011-01-21 16:59:40,1515.1147487229712,7,31,-1.099568486213684,3.3988044261932373,20.081278446688863,19.868434427231136,81.89042356702016,70.06649669400925,-0.0002266406954731,0.1124458834528923,0,0,0
6525,272530.02833111666,2011-01-21 17:00:10,1545.1299842403375,7,31,-1.0993878841400146,3.3907101154327397,20.081278446688863,19.87760084578266,81.89042356702016,70.0976151499985,-0.0002266406954731,0.1124458834528923,0,0,0
6526,272560.04332227004,2011-01-21 17:00:40,1575.1449753886611,7,31,-1.0993878841400146,3.3819682598114014,20.081278446688863,19.886767255812327,81.89042356702016,70.12865531053757,-0.0002266406954731,0.1124458834528923,0,0,0
6527,272590.06082259194,2011-01-21 17:01:10,1605.1624757005925,7,31,-1.099568486213684,3.371931314468384,20.081278446688863,19.89593446907491,81.89042356702016,70.15961382998867,-0.0002913951757363,0.1124458834528923,0,0,0
6528,272620.0735780132,2011-01-21 17:01:40,1635.175231131821,7,31,-1.0993878841400146,3.3615705966949463,20.081278446688863,19.905100236544865,81.89042356702016,70.19047387060591,-0.0002590179501567,0.1124458834528923,0,0,0
6529,272650.08867265447,2011-01-21 17:02:10,1665.1903257480185,7,31,-1.0993878841400146,3.350076913833618,20.081278446688863,19.914266721864717,81.89042356702016,70.22123508389373,-0.0002913475036621,0.1124458834528923,0,0,0
6530,272680.1037826439,2011-01-21 17:02:40,1695.205435772618,7,31,-1.099568486213684,3.3366403579711914,20.081278446688863,19.92343319697441,81.89042356702016,70.2518828743961,-0.0003885269106831,0.1124458834528923,0,0,0
6531,272710.1189015857,2011-01-21 17:03:10,1725.2205547094295,7,31,-1.0992072820663452,3.322232484817505,20.081278446688863,19.932599681501493,81.89042356702016,70.28240389668166,-0.0004209041653666,0.1124458834528923,0,0,0
6532,272740.13412928866,2011-01-21 17:03:40,1755.23578239227,7,31,-1.0997490882873535,3.304425001144409,20.081278446688863,19.94176618593568,81.89042356702016,70.31277907989549,-0.0005180359003134,0.1124458834528923,0,0,0
6533,272770.1491434744,2011-01-21 17:04:10,1785.250796603072,7,31,-1.0993878841400146,3.283865451812744,20.081278446688863,19.950932565894437,81.89042356702016,70.34297928434339,-0.0005827903514727,0.1124458834528923,0,0,0
6534,272800.1642233338,2011-01-21 17:04:40,1815.2658764574787,7,31,-1.0997490882873535,3.2581257820129395,20.081278446688863,19.960098981651143,81.89042356702016,70.37296738691354,-0.0007770538213662,0.1124458834528923,0,0,0
6535,272830.1794862896,2011-01-21 17:05:10,1845.28113941323,7,31,-1.0993878841400146,3.226396083831787,20.081278446688863,19.969265488274218,81.89042356702016,70.40269306856715,-0.0009389400365762,0.1124458834528923,0,0,0
6536,272860.194601487,2011-01-21 17:05:40,1875.2962546808967,7,31,-1.099568486213684,3.185277223587036,20.081278446688863,19.97843191807929,81.89042356702016,70.4320873499201,-0.001230287598446,0.1124458834528923,0,0,0
6537,272890.21023883094,2011-01-21 17:06:10,1905.311891979626,7,31,-1.099568486213684,3.1302359104156494,20.081278446688863,19.98759857160497,81.89042356702016,70.46104623496458,-0.0016512393485754,0.1124458834528923,0,0,0
6538,272920.22470923135,2011-01-21 17:06:40,1935.3263623500109,7,31,-1.0992072820663452,3.054311513900757,20.081278446688863,19.99676487714209,81.89042356702016,70.4894103820268,-0.0023311614058911,0.1124458834528923,0,0,0
6539,272950.2398084039,2011-01-21 17:07:10,1965.3414615275765,7,31,-1.0993878841400146,2.942124843597412,20.081278446688863,20.005931397120506,81.89042356702016,70.51692697937182,-0.0035290718078613,0.1124458834528923,0,0,0
6540,272980.25490742613,2011-01-21 17:07:40,1995.3565605497547,7,31,-1.099568486213684,2.77910590171814,20.081278446688863,20.01509794665245,81.89042356702016,70.54319377954822,-0.0050508021377027,0.1124458834528923,0,0,0
6541,272992.09859418776,2011-01-21 17:07:52,2007.200247291326,7,31,-1.0993878841400146,2.699943780899048,20.081278446688863,20.01871496171851,81.89042356702016,70.55310458451659,-0.0054717063903808,0.1124458834528923,0,0,0
6542,273052.1021959505,2011-01-21 17:08:52,60.01248243159876,8,31,0.0,3.6165406703948975,20.081278446688863,20.01871496171851,81.89042356702016,70.55310458451659,0.0012627125252038,0.1124458834528923,0,0,0
6543,273052.2820819276,2011-01-21 17:08:53,0.187726542305438,9,31,-1.9243103452026844e-05,3.6167025566101074,20.081278446688863,20.018714962721965,81.89042356702016,70.5531045881458,0.0,0.1077866628766059,0,0,0
6544,273057.1099947569,2011-01-21 17:08:58,5.015639376600142,9,31,0.0010644125286489,3.624311208724976,20.0812795993348,20.01871496280444,81.89042774087865,70.55310458844409,0.0011008263099938,0.1077866628766059,0,0,0
