Data_Point,Test_Time(s),Date_Time,Step_Time(s),Step_Index,Cycle_Index,Current(A),Voltage(V),Charge_Capacity(Ah),Discharge_Capacity(Ah),Charge_Energy(Wh),Discharge_Energy(Wh),dV/dt(V/s),Internal_Resistance(Ohm),Is_FC_Data,AC_Impedance(Ohm),ACI_Phase_Angle(Deg)
2549,91625.91356598516,2010-11-24 13:52:11,30.0154375348466,1,9,0.0,3.441542148590088,7.668157579233021,7.655375816038873,30.72390745646252,27.772570877086565,0.0006799221155233,0.096440702676773,0,0,0
2550,91655.9290715398,2010-11-24 13:52:41,60.03094318471878,1,9,0.0,3.4633967876434326,7.668157579233021,7.655375816038873,30.72390745646252,27.772570877086565,0.0004856586456298,0.096440702676773,0,0,0
2551,91685.94395421962,2010-11-24 13:53:11,90.04582576431169,1,9,0.0,3.4800710678100586,7.668157579233021,7.655375816038873,30.72390745646252,27.772570877086565,0.0004209041653666,0.096440702676773,0,0,0
2552,91715.9123246828,2010-11-24 13:53:41,120.01419623251888,1,9,0.0,3.4933457374572754,7.668157579233021,7.655375816038873,30.72390745646252,27.772570877086565,0.0003237724304199,0.096440702676773,0,0,0
2553,91745.93174765422,2010-11-24 13:54:11,30.01536119930133,2,9,0.5501165986061096,3.64940357208252,7.67274416338225,7.655375816038873,30.74050320632611,27.772570877086565,0.0013598442310467,0.096440702676773,0,0,0
2554,91775.94691116003,2010-11-24 13:54:41,60.03052471515437,2,9,0.5501165986061096,3.6905224323272714,7.677330670450701,7.655375816038873,30.75734185559044,27.772570877086565,0.0009065627818927,0.096440702676773,0,0,0
2555,91805.96211427974,2010-11-24 13:55:11,90.04572781982718,2,9,0.5499359965324402,3.7199857234954834,7.681917149453265,7.655375816038873,30.774338735746497,27.772570877086565,0.0007446765666827,0.096440702676773,0,0,0
2556,91835.97738500824,2010-11-24 13:55:41,120.0609985432869,2,9,0.5501165986061096,3.742811679840088,7.686503735392194,7.655375816038873,30.791454673325703,27.772570877086565,0.0005827903514727,0.096440702676773,0,0,0
2557,91865.99263897988,2010-11-24 13:56:11,150.076252519944,2,9,0.5499359965324402,3.7607808113098153,7.691090199649019,7.655375816038873,30.80866417597564,27.772570877086565,0.0004209041653666,0.096440702676773,0,0,0
2558,91896.00795217937,2010-11-24 13:56:41,180.09156580965563,2,9,0.5501165986061096,3.774217367172241,7.695676596674085,7.655375816038873,30.82594568392745,27.772570877086565,0.0002913951757363,0.096440702676773,0,0,0
2559,91926.02322027124,2010-11-24 13:57:11,210.1068338213464,2,9,0.5499359965324402,3.783121109008789,7.700263091023402,7.655375816038873,30.84327769473705,27.772570877086565,0.0001942634553415,0.096440702676773,0,0,0
2560,91956.03884591062,2010-11-24 13:57:41,240.1224595008309,2,9,0.5499359965324402,3.788949012756348,7.704849624757761,7.655375816038873,30.8606430018604,27.772570877086565,9.713172767078504e-05,0.096440702676773,0,0,0
2561,91986.05373187868,2010-11-24 13:58:11,270.1373454287818,2,9,0.5501165986061096,3.793967485427856,7.709436096214839,7.655375816038873,30.87803273473979,27.772570877086565,0.0001295089750783,0.096440702676773,0,0,0
2562,92016.06884796616,2010-11-24 13:58:41,300.1524615112338,2,9,0.5501165986061096,3.798338413238525,7.714022597806663,7.655375816038873,30.89544407150181,27.772570877086565,9.713172767078504e-05,0.096440702676773,0,0,0
2563,92046.08409527616,2010-11-24 13:59:11,330.16770881623745,2,9,0.5499359965324402,3.8027093410491934,7.718609145802537,7.655375816038873,30.91287578903215,27.772570877086565,9.713172767078504e-05,0.096440702676773,0,0,0
2564,92076.0993852577,2010-11-24 13:59:41,360.18299882784333,2,9,0.5501165986061096,3.8067564964294434,7.723195679923301,7.655375816038873,30.930326665313967,27.772570877086565,9.713172767078504e-05,0.096440702676773,0,0,0
2565,92106.11474351966,2010-11-24 14:00:11,390.19835706976266,2,9,0.550297200679779,3.8109655380249023,7.727782252527235,7.655375816038873,30.947796428335867,27.772570877086565,9.713172767078504e-05,0.096440702676773,0,0,0
2566,92136.12984310594,2010-11-24 14:00:41,420.21345664601256,2,9,0.5501165986061096,3.814850807189941,7.732368723777212,7.655375816038873,30.965284129233364,27.772570877086565,9.713172767078504e-05,0.096440702676773,0,0,0
2567,92166.14510906753,2010-11-24 14:01:11,450.2287226125984,2,9,0.5499359965324402,3.8185741901397705,7.736955259422781,7.655375816038873,30.982789876033276,27.772570877086565,0.0001295089750783,0.096440702676773,0,0,0
2568,92196.16038170074,2010-11-24 14:01:41,480.2439952458252,2,9,0.5501165986061096,3.8222975730896,7.741541747831636,7.655375816038873,31.00031264460286,27.772570877086565,9.713172767078504e-05,0.096440702676773,0,0,0
2569,92226.17582871926,2010-11-24 14:02:11,510.2594422743695,2,9,0.5499359965324402,3.8258590698242183,7.746128218293279,7.655375816038873,31.017852030174765,27.772570877086565,6.47544875391759e-05,0.096440702676773,0,0,0
2570,92256.19351421036,2010-11-24 14:02:41,540.277127865711,2,9,0.5499359965324402,3.829582452774048,7.750714808356976,7.655375816038873,31.03540828518026,27.772570877086565,9.713172767078504e-05,0.096440702676773,0,0,0
2571,92286.20613781118,2010-11-24 14:03:11,570.2897513863452,2,9,0.550297200679779,3.832982063293457,7.755300067904928,7.655375816038873,31.052975442976344,27.772570877086565,9.713172767078504e-05,0.096440702676773,0,0,0
2572,92316.22139547704,2010-11-24 14:03:41,600.3050090271485,2,9,0.5501165986061096,3.836381435394287,7.759885808761359,7.655375816038873,31.070560397346988,27.772570877086565,9.713172767078504e-05,0.096440702676773,0,0,0
2573,92346.2366294688,2010-11-24 14:04:11,630.3202430139078,2,9,0.5499359965324402,3.839942932128906,7.764472235990659,7.655375816038873,31.08816411886013,27.772570877086565,9.713172767078504e-05,0.096440702676773,0,0,0
2574,92376.2518905432,2010-11-24 14:04:41,660.3355040882819,2,9,0.5499359965324402,3.843342542648315,7.769058643387508,7.655375816038873,31.105783753394977,27.772570877086565,9.713172767078504e-05,0.096440702676773,0,0,0
2575,92406.267152986,2010-11-24 14:05:11,690.3507665310717,2,9,0.5501165986061096,3.847065925598145,7.773645047944357,7.655375816038873,31.123419395903618,27.772570877086565,0.0001295089750783,0.096440702676773,0,0,0
2576,92436.2823881156,2010-11-24 14:05:41,720.3660016606838,2,9,0.5501165986061096,3.8504655361175537,7.778231519958442,7.655375816038873,31.14107155545989,27.772570877086565,9.713172767078504e-05,0.096440702676773,0,0,0
2577,92466.2977272448,2010-11-24 14:06:11,750.3813408149573,2,9,0.5501165986061096,3.854027032852173,7.782818038320717,7.655375816038873,31.158740169190956,27.772570877086565,0.0001295089750783,0.096440702676773,0,0,0
2578,92496.3128771567,2010-11-24 14:06:41,780.3964907318652,2,9,0.5501165986061096,3.857588529586792,7.787404506989446,7.655375816038873,31.17642485603704,27.772570877086565,6.47544875391759e-05,0.096440702676773,0,0,0
2579,92526.32814742402,2010-11-24 14:07:11,810.4117609791364,2,9,0.5501165986061096,3.861150026321411,7.791990964042669,7.655375816038873,31.19412577727481,27.772570877086565,9.713172767078504e-05,0.096440702676773,0,0,0
2580,92556.34340597207,2010-11-24 14:07:41,840.4270195272045,2,9,0.5501165986061096,3.8647115230560303,7.796577392809826,7.655375816038873,31.21184276276643,27.772570877086565,9.713172767078504e-05,0.096440702676773,0,0,0
2581,92586.35864295132,2010-11-24 14:08:11,870.4422565064334,2,9,0.5499359965324402,3.86811113357544,7.801163754387781,7.655375816038873,31.22957547638848,27.772570877086565,0.0001295089750783,0.096440702676773,0,0,0
2582,92616.37390117858,2010-11-24 14:08:41,900.4575147236757,2,9,0.5501165986061096,3.8715107440948486,7.80575019069979,7.655375816038873,31.247324232004797,27.772570877086565,9.713172767078504e-05,0.096440702676773,0,0,0
2583,92646.38929223744,2010-11-24 14:09:11,930.472905792536,2,9,0.5501165986061096,3.874910354614258,7.810336655894026,7.655375816038873,31.26508854752405,27.772570877086565,9.713172767078504e-05,0.096440702676773,0,0,0
2584,92676.40453221412,2010-11-24 14:09:41,960.4881457692472,2,9,0.5499359965324402,3.878148078918457,7.814923019078417,7.655375816038873,31.28286750485095,27.772570877086565,9.713172767078504e-05,0.096440702676773,0,0,0
2585,92706.4199233632,2010-11-24 14:10:11,990.5035369132952,2,9,0.5501165986061096,3.8812239170074463,7.819509548223342,7.655375816038873,31.300661809036903,27.772570877086565,9.713172767078504e-05,0.096440702676773,0,0,0
2586,92736.43489507028,2010-11-24 14:10:41,1020.5185086253764,2,9,0.5504778623580933,3.8844616413116455,7.824095947644765,7.655375816038873,31.318469821842065,27.772570877086565,0.0001295089750783,0.096440702676773,0,0,0
2587,92766.45021788376,2010-11-24 14:11:11,1050.5338314538983,2,9,0.5501165986061096,3.887051820755005,7.828682425028396,7.655375816038873,31.336291613621857,27.772570877086565,9.713172767078504e-05,0.096440702676773,0,0,0
2588,92796.46540381556,2010-11-24 14:11:42,1080.549017360643,2,9,0.5499359965324402,3.889965772628784,7.833268955005639,7.655375816038873,31.354126656528088,27.772570877086565,9.713172767078504e-05,0.096440702676773,0,0,0
2589,92826.48084970626,2010-11-24 14:12:12,1110.5644632513468,2,9,0.5501165986061096,3.8927178382873535,7.837855541814713,7.655375816038873,31.37197433830692,27.772570877086565,0.0001295089750783,0.096440702676773,0,0,0
2590,92856.49589362855,2010-11-24 14:12:42,1140.5795071837008,2,9,0.5499359965324402,3.894984245300293,7.842442058885504,7.655375816038873,31.3898334498726,27.772570877086565,6.47544875391759e-05,0.096440702676773,0,0,0
2591,92886.5111458208,2010-11-24 14:13:12,1170.594759370891,2,9,0.5499359965324402,3.897250652313232,7.847028539104575,7.655375816038873,31.40770295428487,27.772570877086565,6.47544875391759e-05,0.096440702676773,0,0,0
2592,92916.52645436366,2010-11-24 14:13:42,1200.610067933804,2,9,0.550297200679779,3.899678945541382,7.851614996160271,7.655375816038873,31.425582682126212,27.772570877086565,9.713172767078504e-05,0.096440702676773,0,0,0
2593,92946.54165719764,2010-11-24 14:14:12,1230.6252707477513,2,9,0.5499359965324402,3.9014596939086914,7.856201414497545,7.655375816038873,31.443471815771268,27.772570877086565,3.237724376958795e-05,0.096440702676773,0,0,0
2594,92976.55689925957,2010-11-24 14:14:42,1260.6405128146796,2,9,0.5501165986061096,3.903240442276001,7.860787867074903,7.655375816038873,31.46136998620375,27.772570877086565,0.0,0.096440702676773,0,0,0
2595,93006.57215464977,2010-11-24 14:15:12,1290.6557682048654,2,9,0.550297200679779,3.905021190643311,7.865374403174104,7.655375816038873,31.47927693221867,27.772570877086565,3.237724376958795e-05,0.096440702676773,0,0,0
2596,93036.58740874672,2010-11-24 14:15:42,1320.67102229681,2,9,0.5501165986061096,3.90680193901062,7.869960966276236,7.655375816038873,31.49719169737299,27.772570877086565,6.47544875391759e-05,0.096440702676773,0,0,0
2597,93066.60264706428,2010-11-24 14:16:12,1350.6862606093673,2,9,0.5501165986061096,3.90842080116272,7.874547420531908,7.655375816038873,31.5151135826108,27.772570877086565,3.237724376958795e-05,0.096440702676773,0,0,0
2598,93096.61796313094,2010-11-24 14:16:42,1380.701576691048,2,9,0.550297200679779,3.9100396633148193,7.879133951372612,7.655375816038873,31.533043045183177,27.772570877086565,3.237724376958795e-05,0.096440702676773,0,0,0
2599,93126.63317579446,2010-11-24 14:17:12,1410.7167893395438,2,9,0.5501165986061096,3.911496639251709,7.883720396614198,7.655375816038873,31.55097897828505,27.772570877086565,6.47544875391759e-05,0.096440702676773,0,0,0
2600,93156.64840842284,2010-11-24 14:17:42,1440.7320219729247,2,9,0.5501165986061096,3.9127917289733887,7.888306794486716,7.655375816038873,31.56892147130505,27.772570877086565,3.237724376958795e-05,0.096440702676773,0,0,0
2601,93186.66377866468,2010-11-24 14:18:12,1470.7473922198103,2,9,0.5499359965324402,3.914248466491699,7.892893277574604,7.655375816038873,31.58687091098187,27.772570877086565,6.47544875391759e-05,0.096440702676773,0,0,0
2602,93216.6788980153,2010-11-24 14:18:42,1500.7625115654075,2,9,0.5501165986061096,3.915705442428589,7.897479738998213,7.655375816038873,31.604826812742264,27.772570877086565,6.47544875391759e-05,0.096440702676773,0,0,0
2603,93246.6941401474,2010-11-24 14:19:12,1530.7777536924864,2,9,0.5501165986061096,3.9171624183654794,7.902066165726462,7.655375816038873,31.62278887740972,27.772570877086565,6.47544875391759e-05,0.096440702676773,0,0,0
2604,93276.70953162228,2010-11-24 14:19:42,1560.793145177385,2,9,0.5501165986061096,3.918619394302368,7.906652652471061,7.655375816038873,31.640757760627032,27.772570877086565,6.47544875391759e-05,0.096440702676773,0,0,0
2605,93306.72464494784,2010-11-24 14:20:12,1590.8082585029556,2,9,0.5501165986061096,3.919914484024048,7.911239077184748,7.655375816038873,31.65873289577535,27.772570877086565,3.237724376958795e-05,0.096440702676773,0,0,0
2606,93336.73991145076,2010-11-24 14:20:42,1620.82352502593,2,9,0.5501165986061096,3.921209573745728,7.915825604771568,7.655375816038873,31.676714900251657,27.772570877086565,0.0,0.096440702676773,0,0,0
2607,93366.7551619788,2010-11-24 14:21:12,1650.8387755289164,2,9,0.5501165986061096,3.922828435897827,7.920412069676925,7.655375816038873,31.69470315907123,27.772570877086565,6.47544875391759e-05,0.096440702676773,0,0,0
2608,93396.77058095734,2010-11-24 14:21:42,1680.854194502431,2,9,0.5501165986061096,3.924123525619507,7.924998579506401,7.655375816038873,31.712698158049985,27.772570877086565,3.237724376958795e-05,0.096440702676773,0,0,0
2609,93426.7856440876,2010-11-24 14:22:12,1710.8692576377186,2,9,0.5501165986061096,3.925580501556397,7.929584976282284,7.655375816038873,31.730699298130236,27.772570877086565,0.0,0.096440702676773,0,0,0
2610,93456.80089084124,2010-11-24 14:22:42,1740.8845043963586,2,9,0.5497553944587708,3.926875591278076,7.934171441738492,7.655375816038873,31.7487071478552,27.772570877086565,3.237724376958795e-05,0.096440702676773,0,0,0
2611,93486.816141645,2010-11-24 14:23:12,1770.8997551950831,2,9,0.5501165986061096,3.928494453430176,7.938757910185379,7.655375816038873,31.76672167160242,27.772570877086565,6.47544875391759e-05,0.096440702676773,0,0,0
2612,93516.83140755142,2010-11-24 14:23:42,1800.9150211015187,2,9,0.5501165986061096,3.9299514293670654,7.943344400906786,7.655375816038873,31.78474289596972,27.772570877086565,6.47544875391759e-05,0.096440702676773,0,0,0
2613,93546.84666253056,2010-11-24 14:24:12,1830.9302760957155,2,9,0.5501165986061096,3.931408405303955,7.94793093253243,7.655375816038873,31.80277097550622,27.772570877086565,3.237724376958795e-05,0.096440702676773,0,0,0
2614,93576.86190206118,2010-11-24 14:24:42,1860.945515611276,2,9,0.550297200679779,3.933027267456055,7.952517400450271,7.655375816038873,31.82080550067942,27.772570877086565,9.713172767078504e-05,0.096440702676773,0,0,0
2615,93606.87714698025,2010-11-24 14:25:12,1890.960760535336,2,9,0.5501165986061096,3.9343223571777344,7.957103918604322,7.655375816038873,31.838847029340183,27.772570877086565,3.237724376958795e-05,0.096440702676773,0,0,0
2616,93636.8924015584,2010-11-24 14:25:42,1920.9760151034693,2,9,0.5501165986061096,3.935941219329834,7.961690464360537,7.655375816038873,31.856895517662306,27.772570877086565,6.47544875391759e-05,0.096440702676773,0,0,0
2617,93666.9078835893,2010-11-24 14:26:12,1950.9914971444105,2,9,0.5501165986061096,3.937398195266724,7.966277043469572,7.655375816038873,31.87495079847677,27.772570877086565,3.237724376958795e-05,0.096440702676773,0,0,0
2618,93696.92296001271,2010-11-24 14:26:42,1981.0065735578423,2,9,0.550297200679779,3.9386932849884033,7.970863513536201,7.655375816038873,31.89301265608187,27.772570877086565,0.0,0.096440702676773,0,0,0
2619,93726.9381351376,2010-11-24 14:27:12,2011.0217486926983,2,9,0.5501165986061096,3.940312147140503,7.975450052490648,7.655375816038873,31.91108161462006,27.772570877086565,6.47544875391759e-05,0.096440702676773,0,0,0
2620,93756.9534104926,2010-11-24 14:27:42,2041.0370240477191,2,9,0.5501165986061096,3.9417691230773926,7.980036518278365,7.655375816038873,31.92915719878546,27.772570877086565,3.237724376958795e-05,0.096440702676773,0,0,0
2621,93786.96863839416,2010-11-24 14:28:12,2071.052251944276,2,9,0.5501165986061096,3.943387985229492,7.984622964098281,7.655375816038873,31.94723964858478,27.772570877086565,6.47544875391759e-05,0.096440702676773,0,0,0
2622,93816.98405642032,2010-11-24 14:28:42,2101.0676699754385,2,9,0.5501165986061096,3.944844961166382,7.989209459502073,7.655375816038873,31.965329302592085,27.772570877086565,3.237724376958795e-05,0.096440702676773,0,0,0
2623,93846.99925903878,2010-11-24 14:29:12,2131.082872603923,2,9,0.5501165986061096,3.946301937103272,7.993795930862119,7.655375816038873,31.98342591729113,27.772570877086565,3.237724376958795e-05,0.096440702676773,0,0,0
2624,93877.01490173576,2010-11-24 14:29:42,2161.098515305898,2,9,0.5501165986061096,3.948082685470581,7.998382377539464,7.655375816038873,32.001529340106494,27.772570877086565,9.713172767078504e-05,0.096440702676773,0,0,0
2625,93907.02978364869,2010-11-24 14:30:12,2191.1133971937643,2,9,0.5501165986061096,3.9497015476226807,8.002968836222328,7.655375816038873,32.01963998258647,27.772570877086565,9.713172767078504e-05,0.096440702676773,0,0,0
2626,93937.04488596678,2010-11-24 14:30:42,2221.1284995168708,2,9,0.5501165986061096,3.9511585235595694,8.007555301781716,7.655375816038873,32.037757777723954,27.772570877086565,6.47544875391759e-05,0.096440702676773,0,0,0
2627,93967.06023142178,2010-11-24 14:31:12,2251.1438450771348,2,9,0.550297200679779,3.95261549949646,8.012141782844548,7.655375816038873,32.055882819164445,27.772570877086565,3.237724376958795e-05,0.096440702676773,0,0,0
2628,93997.07540549898,2010-11-24 14:31:42,2281.159019044076,2,9,0.5501165986061096,3.95423436164856,8.016728295539306,7.655375816038873,32.07401521170204,27.772570877086565,3.237724376958795e-05,0.096440702676773,0,0,0
2629,94027.0906536862,2010-11-24 14:32:12,2311.174267241306,2,9,0.5501165986061096,3.955853223800659,8.021314776674382,7.655375816038873,32.092154702651825,27.772570877086565,6.47544875391759e-05,0.096440702676773,0,0,0
2630,94057.10588798372,2010-11-24 14:32:42,2341.1895015288164,2,9,0.5501165986061096,3.957310199737549,8.025901322411768,7.655375816038873,32.11030173142725,27.772570877086565,6.47544875391759e-05,0.096440702676773,0,0,0
2631,94087.121119775,2010-11-24 14:33:12,2371.20473333012,2,9,0.5499359965324402,3.9590909481048575,8.03048775749343,7.655375816038873,32.12845565003871,27.772570877086565,6.47544875391759e-05,0.096440702676773,0,0,0
2632,94117.1363727592,2010-11-24 14:33:42,2401.2199863042747,2,9,0.5499359965324402,3.960547924041748,8.035074176975531,7.655375816038873,32.1466168181352,27.772570877086565,3.237724376958795e-05,0.096440702676773,0,0,0
2633,94147.15178132671,2010-11-24 14:34:12,2431.2353948718146,2,9,0.5499359965324402,3.962166786193848,8.039660664266336,7.655375816038873,32.164785718056635,27.772570877086565,0.0,0.096440702676773,0,0,0
2634,94177.16754415356,2010-11-24 14:34:42,2461.251157708665,2,9,0.5499359965324402,3.9637856483459473,8.044247260725093,7.655375816038873,32.1829624417463,27.772570877086565,0.0,0.096440702676773,0,0,0
2635,94207.16927993672,2010-11-24 14:35:12,2491.2528934818065,2,9,0.5501165986061096,3.965404510498047,8.048831735107285,7.655375816038873,32.20113832101337,27.772570877086565,0.0,0.096440702676773,0,0,0
2636,94237.18182928722,2010-11-24 14:35:42,2521.2654428323003,2,9,0.5499359965324402,3.9670233726501465,8.053417844739979,7.655375816038873,32.219328246346606,27.772570877086565,3.237724376958795e-05,0.096440702676773,0,0,0
2637,94267.19718389004,2010-11-24 14:36:12,2551.2807974351363,2,9,0.5499359965324402,3.968804121017456,8.058004380455182,7.655375816038873,32.23752726230762,27.772570877086565,3.237724376958795e-05,0.096440702676773,0,0,0
2638,94297.21228105026,2010-11-24 14:36:42,2581.295894600368,2,9,0.5501165986061096,3.970422983169556,8.062590896117252,7.655375816038873,32.25573379147824,27.772570877086565,6.47544875391759e-05,0.096440702676773,0,0,0
2639,94327.2275519542,2010-11-24 14:37:12,2611.3111655343528,2,9,0.5501165986061096,3.972203731536865,8.067177501032697,7.655375816038873,32.2739483101793,27.772570877086565,6.47544875391759e-05,0.096440702676773,0,0,0
2640,94357.24278438203,2010-11-24 14:37:42,2641.3263979271333,2,9,0.550297200679779,3.973984479904175,8.071764017869071,7.655375816038873,32.29217010354533,27.772570877086565,9.713172767078504e-05,0.096440702676773,0,0,0
2641,94387.2581808143,2010-11-24 14:38:12,2671.3417943593818,2,9,0.5501165986061096,3.975441455841065,8.076350583872241,7.655375816038873,32.31039984657803,27.772570877086565,3.237724376958795e-05,0.096440702676773,0,0,0
2642,94417.27340122216,2010-11-24 14:38:42,2701.357014777271,2,9,0.5501165986061096,3.977060317993164,8.080937168995705,7.655375816038873,32.32863756802416,27.772570877086565,0.0,0.096440702676773,0,0,0
2643,94447.28853287848,2010-11-24 14:39:12,2731.3721464235728,2,9,0.5501165986061096,3.979002952575684,8.085523661604151,7.655375816038873,32.346882309912935,27.772570877086565,6.47544875391759e-05,0.096440702676773,0,0,0
2644,94477.303779582,2010-11-24 14:39:42,2761.3873931320877,2,9,0.5499359965324402,3.980621814727783,8.090110091046402,7.655375816038873,32.36513533942062,27.772570877086565,6.47544875391759e-05,0.096440702676773,0,0,0
2645,94507.3190444809,2010-11-24 14:40:12,2791.4026580360205,2,9,0.5501165986061096,3.9824025630950928,8.094696508399275,7.655375816038873,32.38339628003299,27.772570877086565,6.47544875391759e-05,0.096440702676773,0,0,0
2646,94537.33430406656,2010-11-24 14:40:42,2821.417917646741,2,9,0.5499359965324402,3.984021425247192,8.099282933111013,7.655375816038873,32.40166519332333,27.772570877086565,3.237724376958795e-05,0.096440702676773,0,0,0
2647,94567.34961257936,2010-11-24 14:41:12,2851.4332261344666,2,9,0.5501165986061096,3.985964059829712,8.103869338987002,7.655375816038873,32.41994218641585,27.772570877086565,3.237724376958795e-05,0.096440702676773,0,0,0
2648,94597.36479920788,2010-11-24 14:41:42,2881.448412758,2,9,0.5499359965324402,3.987582921981812,8.108455790041578,7.655375816038873,32.43822756593476,27.772570877086565,0.0,0.096440702676773,0,0,0
2649,94627.38003747536,2010-11-24 14:42:12,2911.4636510304567,2,9,0.550297200679779,3.989687442779541,8.113042226000605,7.655375816038873,32.4565210466603,27.772570877086565,6.47544875391759e-05,0.096440702676773,0,0,0
2650,94657.39541375228,2010-11-24 14:42:42,2941.479027297369,2,9,0.550297200679779,3.9914681911468506,8.11762863537506,7.655375816038873,32.47482296187337,27.772570877086565,6.47544875391759e-05,0.096440702676773,0,0,0
2651,94687.41053104275,2010-11-24 14:43:12,2971.494144592849,2,9,0.5501165986061096,3.99341082572937,8.122214966283652,7.655375816038873,32.4931331361958,27.772570877086565,9.713172767078504e-05,0.096440702676773,0,0,0
2652,94717.42590249264,2010-11-24 14:43:42,3001.50951604775,2,9,0.5501165986061096,3.9951913356781006,8.126801432857352,7.655375816038873,32.511452402645695,27.772570877086565,0.0,0.096440702676773,0,0,0
2653,94747.44105910129,2010-11-24 14:44:13,3031.524672671399,2,9,0.550297200679779,3.99713397026062,8.131387837948518,7.655375816038873,32.529780094298026,27.772570877086565,9.713172767078504e-05,0.096440702676773,0,0,0
2654,94777.4562868374,2010-11-24 14:44:43,3061.5399003925186,2,9,0.5497553944587708,3.99875283241272,8.135974257293622,7.655375816038873,32.54811656978019,27.772570877086565,6.47544875391759e-05,0.096440702676773,0,0,0
2655,94807.4715301725,2010-11-24 14:45:13,3091.555143727612,2,9,0.5501165986061096,4.000857353210449,8.140560666905497,7.655375816038873,32.5664618906619,27.772570877086565,3.23295607813634e-05,0.096440702676773,0,0,0
2656,94837.48693892048,2010-11-24 14:45:43,3121.570552475602,2,9,0.5501165986061096,4.002799987792969,8.145147138328014,7.655375816038873,32.58481643304308,27.772570877086565,3.23295607813634e-05,0.096440702676773,0,0,0
2657,94867.502415573,2010-11-24 14:46:13,3151.586029138118,2,9,0.5501165986061096,4.004904747009277,8.14973359193553,7.655375816038873,32.6031799128493,27.772570877086565,9.71794142969884e-05,0.096440702676773,0,0,0
2658,94897.51742102428,2010-11-24 14:46:43,3181.6010347047054,2,9,0.5501165986061096,4.006847381591797,8.15431994829947,7.655375816038873,32.621552151144364,27.772570877086565,3.24249267578125e-05,0.096440702676773,0,0,0
2659,94927.5325455478,2010-11-24 14:47:13,3211.616159097902,2,9,0.550297200679779,4.008951663970947,8.15890637814512,7.655375816038873,32.63993393686174,27.772570877086565,3.23295607813634e-05,0.096440702676773,0,0,0
2660,94957.5478269429,2010-11-24 14:47:43,3241.631440487987,2,9,0.5501165986061096,4.011056423187256,8.163492788594105,7.655375816038873,32.658324867472665,27.772570877086565,9.71794142969884e-05,0.096440702676773,0,0,0
2661,94987.56303937586,2010-11-24 14:48:13,3271.646652920945,2,9,0.5501165986061096,4.012999057769775,8.168079174661466,7.655375816038873,32.67672517072217,27.772570877086565,3.24249267578125e-05,0.096440702676773,0,0,0
2662,95017.57828068089,2010-11-24 14:48:43,3301.661894225972,2,9,0.550297200679779,4.014941692352295,8.17266561017112,7.655375816038873,32.695135257848406,27.772570877086565,3.24249267578125e-05,0.096440702676773,0,0,0
2663,95047.59352689816,2010-11-24 14:49:13,3331.67714044326,2,9,0.5499359965324402,4.017208099365234,8.17725241562215,7.655375816038873,32.71355660689356,27.772570877086565,0.0,0.096440702676773,0,0,0
2664,95077.6087880728,2010-11-24 14:49:43,3361.692401617885,2,9,0.5501165986061096,4.019474506378174,8.181839537884766,7.655375816038873,32.73198911917026,27.772570877086565,6.47544875391759e-05,0.096440702676773,0,0,0
2665,95107.62405351303,2010-11-24 14:50:13,3391.7076670531446,2,9,0.550297200679779,4.021740913391113,8.186426621759827,7.655375816038873,32.75043135048829,27.772570877086565,9.71794142969884e-05,0.096440702676773,0,0,0
2666,95137.63928939456,2010-11-24 14:50:43,3421.722902964708,2,9,0.550297200679779,4.023845195770264,8.191013685975317,7.655375816038873,32.768883610335266,27.772570877086565,6.47544875391759e-05,0.096440702676773,0,0,0
2667,95167.65466522035,2010-11-24 14:51:13,3451.73827891082,2,9,0.5499359965324402,4.025787830352783,8.19560046761917,7.655375816038873,32.78734490863488,27.772570877086565,0.0,0.096440702676773,0,0,0
2668,95197.66979008476,2010-11-24 14:51:43,3481.7534036348425,2,9,0.5501165986061096,4.028378009796143,8.200186806596877,7.655375816038873,32.80581478914165,27.772570877086565,6.47544875391759e-05,0.096440702676773,0,0,0
2669,95227.6850549536,2010-11-24 14:52:13,3511.768668523738,2,9,0.5499359965324402,4.030644416809082,8.20477325395692,7.655375816038873,32.824295499372184,27.772570877086565,6.47544875391759e-05,0.096440702676773,0,0,0
2670,95257.70028554687,2010-11-24 14:52:43,3541.783899091964,2,9,0.5501165986061096,4.0329108238220215,8.209359630608187,7.655375816038873,32.84278643086463,27.772570877086565,6.47544875391759e-05,0.096440702676773,0,0,0
2671,95287.71553272152,2010-11-24 14:53:13,3571.799146271655,2,9,0.5501165986061096,4.035177230834961,8.213946003614394,7.655375816038873,32.8612879547795,27.772570877086565,9.71794142969884e-05,0.096440702676773,0,0,0
2672,95317.73078578593,2010-11-24 14:53:43,3601.814399356085,2,9,0.5501165986061096,4.0374436378479,8.218532291366326,7.655375816038873,32.87979978853102,27.772570877086565,6.47544875391759e-05,0.096440702676773,0,0,0
2673,95347.74617135106,2010-11-24 14:54:13,3631.829784901157,2,9,0.5499359965324402,4.039871692657471,8.223118729489574,7.655375816038873,32.898323068286096,27.772570877086565,3.23295607813634e-05,0.096440702676773,0,0,0
2674,95377.76130761388,2010-11-24 14:54:43,3661.844921174008,2,9,0.5499359965324402,4.04213809967041,8.2277051039392,7.655375816038873,32.91685691610558,27.772570877086565,0.0,0.096440702676773,0,0,0
2675,95407.77653681868,2010-11-24 14:55:13,3691.860150393868,2,9,0.5501165986061096,4.0447282791137695,8.232291425333344,7.655375816038873,32.93540169879096,27.772570877086565,3.23295607813634e-05,0.096440702676773,0,0,0
2676,95437.79185791287,2010-11-24 14:55:43,3721.875471563249,2,9,0.5501165986061096,4.047318458557129,8.236877758969905,7.655375816038873,32.95395771108722,27.772570877086565,0.0001295089750783,0.096440702676773,0,0,0
2677,95467.80705212538,2010-11-24 14:56:13,3751.8906656754734,2,9,0.5501165986061096,4.049746990203857,8.24146408099819,7.655375816038873,32.972525050896266,27.772570877086565,9.71794142969884e-05,0.096440702676773,0,0,0
2678,95497.82226071876,2010-11-24 14:56:43,3781.9058742888974,2,9,0.5501165986061096,4.052175045013428,8.246050498376238,7.655375816038873,32.99110420900214,27.772570877086565,9.70840483205393e-05,0.096440702676773,0,0,0
2679,95527.83751165282,2010-11-24 14:57:13,3811.9211252129353,2,9,0.5501165986061096,4.054603576660156,8.250636914318777,7.655375816038873,33.00969489457544,27.772570877086565,6.47544875391759e-05,0.096440702676773,0,0,0
2680,95557.85278081738,2010-11-24 14:57:43,3841.936394392541,2,9,0.5501165986061096,4.057193756103516,8.255223457861552,7.655375816038873,33.02829776942547,27.772570877086565,3.24249267578125e-05,0.096440702676773,0,0,0
2681,95587.8680592601,2010-11-24 14:58:13,3871.9516728352696,2,9,0.5501165986061096,4.059783935546875,8.259809982662253,7.655375816038873,33.0469123273545,27.772570877086565,6.47544875391759e-05,0.096440702676773,0,0,0
2682,95617.88351400293,2010-11-24 14:58:43,3901.9671275530072,2,9,0.5501165986061096,4.062374114990234,8.264396537705002,7.655375816038873,33.06553843527893,27.772570877086565,9.71794142969884e-05,0.096440702676773,0,0,0
2683,95647.89851645674,2010-11-24 14:59:13,3931.9821300168496,2,9,0.550297200679779,4.065125942230225,8.268982966165492,7.655375816038873,33.084176037106985,27.772570877086565,6.47544875391759e-05,0.096440702676773,0,0,0
2684,95677.91375989708,2010-11-24 14:59:43,3961.9973734421696,2,9,0.5501165986061096,4.067554473876953,8.27356943994323,7.655375816038873,33.10282578625545,27.772570877086565,9.71794142969884e-05,0.096440702676773,0,0,0
2685,95707.92902769324,2010-11-24 15:00:13,3992.012641243334,2,9,0.5501165986061096,4.070306301116943,8.278155889035338,7.655375816038873,33.1214875618488,27.772570877086565,0.0001295089750783,0.096440702676773,0,0,0
2686,95737.94442102774,2010-11-24 15:00:43,4022.0280346029126,2,9,0.5501165986061096,4.072896480560303,8.282742384628774,7.655375816038873,33.140161571501885,27.772570877086565,9.70840483205393e-05,0.096440702676773,0,0,0
2687,95767.95951428324,2010-11-24 15:01:13,4052.0431278583847,2,9,0.5501165986061096,4.075486660003662,8.287328824308334,7.655375816038873,33.158847680548,27.772570877086565,3.23295607813634e-05,0.096440702676773,0,0,0
2688,95797.97477892652,2010-11-24 15:01:43,4082.05839246658,2,9,0.5497553944587708,4.0782389640808105,8.2919153427462,7.655375816038873,33.17754666677987,27.772570877086565,3.24249267578125e-05,0.096440702676773,0,0,0
2689,95827.99054405408,2010-11-24 15:02:13,4112.074157619211,2,9,0.5501165986061096,4.080990791320801,8.296501932376986,7.655375816038873,33.19625853873778,27.772570877086565,6.47544875391759e-05,0.096440702676773,0,0,0
2690,95857.99115194686,2010-11-24 15:02:43,4142.074765637302,2,9,0.5501165986061096,4.08390474319458,8.30108384043231,7.655375816038873,33.214963834300576,27.772570877086565,9.70840483205393e-05,0.096440702676773,0,0,0
2691,95888.0049040546,2010-11-24 15:03:13,4172.088517619751,2,9,0.550297200679779,4.0866570472717285,8.305672350159925,7.655375816038873,33.23370894198139,27.772570877086565,9.71794142969884e-05,0.096440702676773,0,0,0
2692,95918.02014137972,2010-11-24 15:03:43,4202.103754924793,2,9,0.550297200679779,4.089570999145508,8.310258805481267,7.655375816038873,33.25245852568876,27.772570877086565,6.47544875391759e-05,0.096440702676773,0,0,0
2693,95948.0354366294,2010-11-24 15:04:13,4232.119050179486,2,9,0.5501165986061096,4.092161178588867,8.31484528321346,7.655375816038873,33.27122112134453,27.772570877086565,6.47544875391759e-05,0.096440702676773,0,0,0
2694,95978.05083694131,2010-11-24 15:04:43,4262.134450626757,2,9,0.5501165986061096,4.095236778259277,8.319431751993061,7.655375816038873,33.28999673893245,27.772570877086565,6.47544875391759e-05,0.096440702676773,0,0,0
2695,96008.0658967483,2010-11-24 15:05:13,4292.149510283361,2,9,0.5501165986061096,4.097989082336426,8.32401817664617,7.655375816038873,33.30878543493508,27.772570877086565,6.47544875391759e-05,0.096440702676773,0,0,0
2696,96038.08132524056,2010-11-24 15:05:43,4322.164938880899,2,9,0.5501165986061096,4.101064682006836,8.328604659512168,7.655375816038873,33.32758774826118,27.772570877086565,6.47544875391759e-05,0.096440702676773,0,0,0
