Data_Point,Test_Time(s),Date_Time,Step_Time(s),Step_Index,Cycle_Index,Current(A),Voltage(V),Charge_Capacity(Ah),Discharge_Capacity(Ah),Charge_Energy(Wh),Discharge_Energy(Wh),dV/dt(V/s),Internal_Resistance(Ohm),Is_FC_Data,AC_Impedance(Ohm),ACI_Phase_Angle(Deg)
637,23091.449918931645,2010-11-23 18:49:49,30.0178119918566,1,3,0.0,3.43247652053833,1.921992270250503,1.915315708547134,7.712077976587319,6.93940276794191,0.0007122516399249,0.0956302732229232,0,0,0
638,23121.46267609086,2010-11-23 18:50:19,60.03056915107326,1,3,0.0,3.4551405906677246,1.921992270250503,1.915315708547134,7.712077976587319,6.93940276794191,0.0005504131549969,0.0956302732229232,0,0,0
639,23151.47781701532,2010-11-23 18:50:49,90.04571008054721,1,3,0.0,3.4719767570495605,1.921992270250503,1.915315708547134,7.712077976587319,6.93940276794191,0.0004209041653666,0.0956302732229232,0,0,0
640,23181.448824566098,2010-11-23 18:51:19,120.01671771151835,1,3,0.0,3.4854133129119877,1.921992270250503,1.915315708547134,7.712077976587319,6.93940276794191,0.0003237724304199,0.0956302732229232,0,0,0
641,23211.46531049642,2010-11-23 18:51:49,30.015254392695613,2,3,0.5501165986061096,3.6413092613220215,1.926578564744701,1.915315708547134,7.728632106495546,6.93940276794191,0.0014569759368896,0.0956302732229232,0,0,0
642,23241.48058003693,2010-11-23 18:52:19,60.030523938215005,2,3,0.5499359965324402,3.683399438858032,1.9311648478298,1.915315708547134,7.745434973544429,6.93940276794191,0.0009389400365762,0.0956302732229232,0,0,0
643,23271.49582159258,2010-11-23 18:52:49,90.04576548384235,2,3,0.5499359965324402,3.713672161102295,1.935751085420315,1.915315708547134,7.762400512142028,6.93940276794191,0.0007446765666827,0.0956302732229232,0,0,0
644,23301.51108262184,2010-11-23 18:53:19,120.06102651310384,2,3,0.5499359965324402,3.7371456623077393,1.940337344595935,1.915315708547134,7.779488615403383,6.93940276794191,0.0005504131549969,0.0956302732229232,0,0,0
645,23331.526437505378,2010-11-23 18:53:49,150.07638150190283,2,3,0.5499359965324402,3.7560861110687256,1.944923609273721,1.915315708547134,7.796673767482869,6.93940276794191,0.0004209041653666,0.0956302732229232,0,0,0
646,23361.541738554533,2010-11-23 18:54:19,180.09168245080988,2,3,0.5499359965324402,3.770332098007202,1.949509884047217,1.915315708547134,7.813934926581452,6.93940276794191,0.0003237724304199,0.0956302732229232,0,0,0
647,23391.55697830568,2010-11-23 18:54:49,210.106922201958,2,3,0.5501165986061096,3.77955961227417,1.954096116093858,1.915315708547134,7.831249466983993,6.93940276794191,0.0001942634553415,0.0956302732229232,0,0,0
648,23421.57223926477,2010-11-23 18:55:19,240.12218315603172,2,3,0.5501165986061096,3.7858731746673584,1.958682359306337,1.915315708547134,7.848598813468882,6.93940276794191,0.0001618862152099,0.0956302732229232,0,0,0
649,23451.58738925185,2010-11-23 18:55:49,270.13733315815244,2,3,0.5501165986061096,3.790729761123657,1.963268628935594,1.915315708547134,7.865972948840147,6.93940276794191,0.0001618862152099,0.0956302732229232,0,0,0
650,23481.60307150756,2010-11-23 18:56:20,300.1530154188725,2,3,0.5501165986061096,3.794938802719116,1.967854927841954,1.915315708547134,7.88336803877679,6.93940276794191,9.713172767078504e-05,0.0956302732229232,0,0,0
651,23511.617889420737,2010-11-23 18:56:50,330.16783332202306,2,3,0.5499359965324402,3.798985958099365,1.97244116843989,1.915315708547134,7.900782422691618,6.93940276794191,6.47544875391759e-05,0.0956302732229232,0,0,0
652,23541.633289968257,2010-11-23 18:57:20,360.1832338845811,2,3,0.5499359965324402,3.8030331134796143,1.97702749015277,1.915315708547134,7.918215614003344,6.93940276794191,9.713172767078504e-05,0.0956302732229232,0,0,0
653,23571.64839727881,2010-11-23 18:57:50,390.1983412001496,2,3,0.5501165986061096,3.8067564964294434,1.981613837671939,1.915315708547134,7.935666700908826,6.93940276794191,6.47544875391759e-05,0.0956302732229232,0,0,0
654,23601.664024973325,2010-11-23 18:58:20,420.213968894664,2,3,0.5497553944587708,3.810479879379273,1.986200250710695,1.915315708547134,7.953135236926743,6.93940276794191,6.47544875391759e-05,0.0956302732229232,0,0,0
655,23631.678907467704,2010-11-23 18:58:50,450.22885138403166,2,3,0.5501165986061096,3.814365148544312,1.990786545599826,1.915315708547134,7.970620229301647,6.93940276794191,9.713172767078504e-05,0.0956302732229232,0,0,0
656,23661.694235714756,2010-11-23 18:59:20,480.2441796060166,2,3,0.5501165986061096,3.8177647590637207,1.995372883312661,1.915315708547134,7.98812209048582,6.93940276794191,6.47544875391759e-05,0.0956302732229232,0,0,0
657,23691.709419822007,2010-11-23 18:59:50,510.2593637232939,2,3,0.5501165986061096,3.82148814201355,1.999959123805261,1.915315708547134,8.005639846103476,6.93940276794191,0.0001295089750783,0.0956302732229232,0,0,0
658,23721.72469474595,2010-11-23 19:00:20,540.2746386422263,2,3,0.550297200679779,3.824725866317749,2.004545410023177,1.915315708547134,8.023173613747764,6.93940276794191,6.47544875391759e-05,0.0956302732229232,0,0,0
659,23751.740100075407,2010-11-23 19:00:50,570.2900439766956,2,3,0.5501165986061096,3.828449249267578,2.009131604695502,1.915315708547134,8.040722741252756,6.93940276794191,0.0001295089750783,0.0956302732229232,0,0,0
660,23781.75518062416,2010-11-23 19:01:20,600.3051245254501,2,3,0.5499359965324402,3.831525087356568,2.013717800844634,1.915315708547134,8.058287496932737,6.93940276794191,9.713172767078504e-05,0.0956302732229232,0,0,0
661,23811.770449147127,2010-11-23 19:01:50,630.3203930383919,2,3,0.5501165986061096,3.8352482318878174,2.018304072491584,1.915315708547134,8.075868107837545,6.93940276794191,0.0001618862152099,0.0956302732229232,0,0,0
662,23841.78574441686,2010-11-23 19:02:20,660.3356883482231,2,3,0.5501165986061096,3.8384859561920166,2.022890344237951,1.915315708547134,8.093464424275938,6.93940276794191,9.713172767078504e-05,0.0956302732229232,0,0,0
663,23871.8010849596,2010-11-23 19:02:50,690.3510288558749,2,3,0.5501165986061096,3.841885566711426,2.027476604998875,1.915315708547134,8.111076467150818,6.93940276794191,6.47544875391759e-05,0.0956302732229232,0,0,0
664,23901.816265603207,2010-11-23 19:03:20,720.3662096298067,2,3,0.5501165986061096,3.845447063446045,2.032062868767809,1.915315708547134,8.128704445027093,6.93940276794191,9.713172767078504e-05,0.0956302732229232,0,0,0
665,23931.831594486845,2010-11-23 19:03:50,750.3815383781052,2,3,0.5501165986061096,3.849008560180664,2.03664913930234,1.915315708547134,8.146348576136116,6.93940276794191,9.713172767078504e-05,0.0956302732229232,0,0,0
666,23961.846759326,2010-11-23 19:04:20,780.3967032172616,2,3,0.5501165986061096,3.852408170700073,2.041235414274762,1.915315708547134,8.164008956194118,6.93940276794191,6.47544875391759e-05,0.0956302732229232,0,0,0
667,23991.862058480427,2010-11-23 19:04:50,810.4120023716893,2,3,0.5499359965324402,3.855969667434693,2.04582168677982,1.915315708547134,8.181685467835447,6.93940276794191,9.713172767078504e-05,0.0956302732229232,0,0,0
668,24021.877225003787,2010-11-23 19:05:20,840.4271688950496,2,3,0.5499359965324402,3.8593692779541016,2.050407959347021,1.915315708547134,8.199378185196387,6.93940276794191,6.47544875391759e-05,0.0956302732229232,0,0,0
669,24051.89246308076,2010-11-23 19:05:50,870.4424069720186,2,3,0.5501165986061096,3.8629307746887207,2.054994251330659,1.915315708547134,8.217087015503264,6.93940276794191,9.713172767078504e-05,0.0956302732229232,0,0,0
670,24081.90773793953,2010-11-23 19:06:20,900.4576818308008,2,3,0.5501165986061096,3.86633038520813,2.059580592664108,1.915315708547134,8.234811810646361,6.93940276794191,6.47544875391759e-05,0.0956302732229232,0,0,0
671,24111.923011615367,2010-11-23 19:06:50,930.472955516655,2,3,0.5499359965324402,3.869568109512329,2.064166855775348,1.915315708547134,8.252551873487455,6.93940276794191,6.47544875391759e-05,0.0956302732229232,0,0,0
672,24141.93823471996,2010-11-23 19:07:20,960.4881786112256,2,3,0.5499359965324402,3.8729677200317374,2.068753216275748,1.915315708547134,8.270307730824596,6.93940276794191,9.713172767078504e-05,0.0956302732229232,0,0,0
673,24171.953644585745,2010-11-23 19:07:50,990.5035884820186,2,3,0.5501165986061096,3.8762054443359375,2.073339597941098,1.915315708547134,8.288078544379882,6.93940276794191,6.47544875391759e-05,0.0956302732229232,0,0,0
674,24201.9687668386,2010-11-23 19:08:20,1020.5187107448978,2,3,0.5499359965324402,3.8794431686401367,2.077925955005753,1.915315708547134,8.305863838965204,6.93940276794191,6.47544875391759e-05,0.0956302732229232,0,0,0
675,24231.984003872964,2010-11-23 19:08:50,1050.5339477742518,2,3,0.5501165986061096,3.882357120513916,2.0825123230739,1.915315708547134,8.323663210497656,6.93940276794191,3.237724376958795e-05,0.0956302732229232,0,0,0
676,24261.999394545837,2010-11-23 19:09:20,1080.5493384370989,2,3,0.5499359965324402,3.8852710723876953,2.087098792389477,1.915315708547134,8.34147655734989,6.93940276794191,9.713172767078504e-05,0.0956302732229232,0,0,0
677,24292.014517831267,2010-11-23 19:09:50,1110.564461747593,2,3,0.550297200679779,3.8881850242614746,2.091685244581362,1.915315708547134,8.359302741033297,6.93940276794191,6.47544875391759e-05,0.0956302732229232,0,0,0
678,24322.02978454472,2010-11-23 19:10:20,1140.5797284460057,2,3,0.5501165986061096,3.890775203704834,2.09627166788273,1.915315708547134,8.37714110194251,6.93940276794191,9.713172767078504e-05,0.0956302732229232,0,0,0
679,24352.045166370503,2010-11-23 19:10:50,1170.5951102717938,2,3,0.5501165986061096,3.893203496932984,2.100858151988609,1.915315708547134,8.394991318793743,6.93940276794191,9.713172767078504e-05,0.0956302732229232,0,0,0
680,24382.06030591152,2010-11-23 19:11:20,1200.610249812802,2,3,0.5501165986061096,3.895469903945923,2.105444592804828,1.915315708547134,8.412852054388363,6.93940276794191,9.713172767078504e-05,0.0956302732229232,0,0,0
681,24412.07554152233,2010-11-23 19:11:50,1230.6254854186027,2,3,0.5499359965324402,3.8974125385284415,2.110031069683547,1.915315708547134,8.430722863265018,6.93940276794191,6.47544875391759e-05,0.0956302732229232,0,0,0
682,24442.09093180422,2010-11-23 19:12:20,1260.6408757205486,2,3,0.5501165986061096,3.899355173110962,2.114617484371159,1.915315708547134,8.448602926653702,6.93940276794191,3.237724376958795e-05,0.0956302732229232,0,0,0
683,24472.106068919173,2010-11-23 19:12:50,1290.6560128204635,2,3,0.5499359965324402,3.9014596939086914,2.11920386258712,1.915315708547134,8.466491653838613,6.93940276794191,9.713172767078504e-05,0.0956302732229232,0,0,0
684,24502.12143652948,2010-11-23 19:13:20,1320.6713804257552,2,3,0.5499359965324402,3.902916669845581,2.123790300664558,1.915315708547134,8.484388919336386,6.93940276794191,0.0,0.0956302732229232,0,0,0
685,24532.136640205576,2010-11-23 19:13:50,1350.6865841820545,2,3,0.5499359965324402,3.9045355319976807,2.128376704429684,1.915315708547134,8.502293863647987,6.93940276794191,3.237724376958795e-05,0.0956302732229232,0,0,0
686,24562.152473337897,2010-11-23 19:14:20,1380.702417234173,2,3,0.5499359965324402,3.9063162803649902,2.132963192041056,1.915315708547134,8.520206412238817,6.93940276794191,3.237724376958795e-05,0.0956302732229232,0,0,0
687,24592.167099632763,2010-11-23 19:14:50,1410.7170435340524,2,3,0.5501165986061096,3.90777325630188,2.137549517497444,1.915315708547134,8.538125441050095,6.93940276794191,3.237724376958795e-05,0.0956302732229232,0,0,0
688,24622.18232998044,2010-11-23 19:15:20,1440.732273881728,2,3,0.5501165986061096,3.9092302322387695,2.14213596874194,1.915315708547134,8.556051774700167,6.93940276794191,3.237724376958795e-05,0.0956302732229232,0,0,0
689,24652.197711204728,2010-11-23 19:15:50,1470.7476551010022,2,3,0.5501165986061096,3.910687208175659,2.146722431681466,1.915315708547134,8.573984822705683,6.93940276794191,3.237724376958795e-05,0.0956302732229232,0,0,0
690,24682.212850013908,2010-11-23 19:16:20,1500.7627939051713,2,3,0.550297200679779,3.912144184112549,2.151308795439926,1.915315708547134,8.591924003641179,6.93940276794191,3.237724376958795e-05,0.0956302732229232,0,0,0
691,24712.228108902826,2010-11-23 19:16:50,1530.7780527940895,2,3,0.5501165986061096,3.9136011600494394,2.155895212421103,1.915315708547134,8.609869830014848,6.93940276794191,6.47544875391759e-05,0.0956302732229232,0,0,0
692,24742.24337023785,2010-11-23 19:17:20,1560.7933141341273,2,3,0.550297200679779,3.915057897567749,2.160481569594462,1.915315708547134,8.627821888846077,6.93940276794191,6.47544875391759e-05,0.0956302732229232,0,0,0
693,24772.25877602345,2010-11-23 19:17:50,1590.80871991471,2,3,0.5501165986061096,3.9163529872894287,2.165068069264212,1.915315708547134,8.645780825195748,6.93940276794191,6.47544875391759e-05,0.0956302732229232,0,0,0
694,24802.27391098301,2010-11-23 19:18:20,1620.823854879295,2,3,0.5499359965324402,3.917648077011109,2.169654400611781,1.915315708547134,8.663745598846996,6.93940276794191,3.237724376958795e-05,0.0956302732229232,0,0,0
695,24832.289265751268,2010-11-23 19:18:50,1650.8392096475432,2,3,0.5499359965324402,3.919266939163208,2.174240829677477,1.915315708547134,8.681717179377863,6.93940276794191,9.713172767078504e-05,0.0956302732229232,0,0,0
696,24862.307009342385,2010-11-23 19:19:20,1680.8569533288862,2,3,0.5501165986061096,3.920562028884888,2.178827603068938,1.915315708547134,8.69969659211764,6.93940276794191,3.237724376958795e-05,0.0956302732229232,0,0,0
697,24892.319643474508,2010-11-23 19:19:50,1710.8695873707834,2,3,0.5501165986061096,3.922019004821777,2.183413582056607,1.915315708547134,8.717679200306545,6.93940276794191,6.47544875391759e-05,0.0956302732229232,0,0,0
698,24922.334907035085,2010-11-23 19:20:20,1740.8848509313632,2,3,0.5501165986061096,3.923314094543457,2.187999987103062,1.915315708547134,8.735670027508498,6.93940276794191,3.237724376958795e-05,0.0956302732229232,0,0,0
699,24952.350146590747,2010-11-23 19:20:50,1770.900090492036,2,3,0.5499359965324402,3.9247710704803462,2.192586424144044,1.915315708547134,8.753667430082288,6.93940276794191,0.0,0.0956302732229232,0,0,0
700,24982.365629503864,2010-11-23 19:21:20,1800.9155735003912,2,3,0.5499359965324402,3.9260661602020255,2.19717289083643,1.915315708547134,8.771671460262672,6.93940276794191,3.237724376958795e-05,0.0956302732229232,0,0,0
701,25012.380681025163,2010-11-23 19:21:50,1830.9306249465008,2,3,0.550297200679779,3.927523136138916,2.201759287529139,1.915315708547134,8.789681738834682,6.93940276794191,3.237724376958795e-05,0.0956302732229232,0,0,0
702,25042.395928640944,2010-11-23 19:22:20,1860.9458725322056,2,3,0.5501165986061096,3.9289801120758057,2.206345663876518,1.915315708547134,8.807698497264322,6.93940276794191,3.237724376958795e-05,0.0956302732229232,0,0,0
703,25072.41128231646,2010-11-23 19:22:50,1890.9612262177511,2,3,0.550297200679779,3.9304370880126953,2.210932056763777,1.915315708547134,8.825721949393703,6.93940276794191,6.47544875391759e-05,0.0956302732229232,0,0,0
704,25102.42641974219,2010-11-23 19:23:20,1920.9763636334544,2,3,0.5499359965324402,3.931894063949585,2.215518492028398,1.915315708547134,8.843752159829789,6.93940276794191,3.237724376958795e-05,0.0956302732229232,0,0,0
705,25132.441740460443,2010-11-23 19:23:50,1950.9916843667463,2,3,0.5501165986061096,3.9333510398864746,2.220104878581569,1.915315708547134,8.861788883924918,6.93940276794191,0.0,0.0956302732229232,0,0,0
706,25162.457065815277,2010-11-23 19:24:20,1981.0070097065368,2,3,0.5501165986061096,3.934969902038574,2.224691290715975,1.915315708547134,8.879832486409597,6.93940276794191,6.47544875391759e-05,0.0956302732229232,0,0,0
707,25192.472183506743,2010-11-23 19:24:50,2011.0221273980053,2,3,0.550297200679779,3.936264991760254,2.229277741659731,1.915315708547134,8.89788304883792,6.93940276794191,0.0,0.0956302732229232,0,0,0
708,25222.487558360124,2010-11-23 19:25:20,2041.0375022714395,2,3,0.5501165986061096,3.937721967697144,2.233864156612777,1.915315708547134,8.915940075449738,6.93940276794191,0.0,0.0956302732229232,0,0,0
709,25252.502715520117,2010-11-23 19:25:50,2071.05265941639,2,3,0.5501165986061096,3.939340829849243,2.238450491916395,1.915315708547134,8.934003657744215,6.93940276794191,6.47544875391759e-05,0.0956302732229232,0,0,0
710,25282.51806486984,2010-11-23 19:26:20,2101.0680087611,2,3,0.5499359965324402,3.940635919570923,2.243036881610925,1.915315708547134,8.95207430770837,6.93940276794191,6.47544875391759e-05,0.0956302732229232,0,0,0
711,25312.53331100693,2010-11-23 19:26:50,2131.0832549082133,2,3,0.5501165986061096,3.942416667938232,2.247623256923506,1.915315708547134,8.970151735938366,6.93940276794191,6.47544875391759e-05,0.0956302732229232,0,0,0
712,25342.548445801083,2010-11-23 19:27:20,2161.098389692348,2,3,0.5501165986061096,3.943873643875122,2.252209546404373,1.915315708547134,8.988235775641638,6.93940276794191,3.237724376958795e-05,0.0956302732229232,0,0,0
713,25372.56369765244,2010-11-23 19:27:50,2191.113641558737,2,3,0.5501165986061096,3.9454925060272217,2.256795947205435,1.915315708547134,9.006327288665652,6.93940276794191,6.47544875391759e-05,0.0956302732229232,0,0,0
714,25402.579006691536,2010-11-23 19:28:21,2221.128950592826,2,3,0.5501165986061096,3.946787595748901,2.261382416719114,1.915315708547134,9.024426132126887,6.93940276794191,3.237724376958795e-05,0.0956302732229232,0,0,0
715,25432.5943826577,2010-11-23 19:28:51,2251.144326558988,2,3,0.5499359965324402,3.948406457901001,2.265968844251886,1.915315708547134,9.042531846043984,6.93940276794191,3.237724376958795e-05,0.0956302732229232,0,0,0
716,25462.60945693079,2010-11-23 19:29:21,2281.159400822052,2,3,0.5501165986061096,3.94986343383789,2.270555259990362,1.915315708547134,9.060644613484458,6.93940276794191,3.237724376958795e-05,0.0956302732229232,0,0,0
717,25492.62473145373,2010-11-23 19:29:51,2311.174675355021,2,3,0.5499359965324402,3.9514822959899902,2.275141719405515,1.915315708547134,9.07876478889322,6.93940276794191,3.237724376958795e-05,0.0956302732229232,0,0,0
718,25522.640183133888,2010-11-23 19:30:21,2341.190127025151,2,3,0.5499359965324402,3.95293927192688,2.279728244292005,1.915315708547134,9.096892410645848,6.93940276794191,0.0,0.0956302732229232,0,0,0
719,25552.655235517337,2010-11-23 19:30:51,2371.205179418626,2,3,0.550297200679779,3.9548819065094,2.284314693203374,1.915315708547134,9.115026969218953,6.93940276794191,6.47544875391759e-05,0.0956302732229232,0,0,0
720,25582.67047873213,2010-11-23 19:31:21,2401.2204226233944,2,3,0.5499359965324402,3.956338882446289,2.288901187077602,1.915315708547134,9.13316914458308,6.93940276794191,6.47544875391759e-05,0.0956302732229232,0,0,0
721,25612.685735575946,2010-11-23 19:31:51,2431.2356794672087,2,3,0.5501165986061096,3.9579577445983887,2.293487714157259,1.915315708547134,9.151318642865238,6.93940276794191,6.47544875391759e-05,0.0956302732229232,0,0,0
722,25642.70101696101,2010-11-23 19:32:21,2461.250960867319,2,3,0.5501165986061096,3.959576606750488,2.298074182420212,1.915315708547134,9.169475324120729,6.93940276794191,3.237724376958795e-05,0.0956302732229232,0,0,0
723,25672.716252576844,2010-11-23 19:32:51,2491.2661964781323,2,3,0.5501165986061096,3.961195468902588,2.302660553659535,1.915315708547134,9.187638965602329,6.93940276794191,6.47544875391759e-05,0.0956302732229232,0,0,0
724,25702.731510157497,2010-11-23 19:33:21,2521.28145404876,2,3,0.5501165986061096,3.962814331054688,2.307247059509999,1.915315708547134,9.20581065021072,6.93940276794191,3.237724376958795e-05,0.0956302732229232,0,0,0
725,25732.746798299435,2010-11-23 19:33:51,2551.296742200724,2,3,0.5501165986061096,3.964433193206787,2.311833526074903,1.915315708547134,9.223989643080062,6.93940276794191,6.47544875391759e-05,0.0956302732229232,0,0,0
726,25762.76202407069,2010-11-23 19:34:21,2581.3119679619517,2,3,0.5501165986061096,3.966052055358887,2.316419976323704,1.915315708547134,9.242176026727842,6.93940276794191,6.47544875391759e-05,0.0956302732229232,0,0,0
727,25792.77742231245,2010-11-23 19:34:51,2611.327366213741,2,3,0.5499359965324402,3.9676709175109854,2.321006466913147,1.915315708547134,9.26037013793735,6.93940276794191,6.47544875391759e-05,0.0956302732229232,0,0,0
728,25822.792522795968,2010-11-23 19:35:21,2641.3424666972555,2,3,0.5499359965324402,3.969289779663086,2.325592922354703,1.915315708547134,9.27857170813401,6.93940276794191,3.237724376958795e-05,0.0956302732229232,0,0,0
729,25852.807797524427,2010-11-23 19:35:51,2671.35774144075,2,3,0.5499359965324402,3.971070528030396,2.330179398119252,1.915315708547134,9.296781081311028,6.93940276794191,3.237724376958795e-05,0.0956302732229232,0,0,0
730,25882.82304339585,2010-11-23 19:36:21,2701.372987287113,2,3,0.550297200679779,3.972851276397705,2.334765878627194,1.915315708547134,9.314998235673714,6.93940276794191,3.237724376958795e-05,0.0956302732229232,0,0,0
731,25912.838289568022,2010-11-23 19:36:51,2731.3882334592886,2,3,0.5501165986061096,3.9744701385498047,2.339352377054388,1.915315708547134,9.333223257558608,6.93940276794191,3.237724376958795e-05,0.0956302732229232,0,0,0
732,25942.8535443918,2010-11-23 19:37:21,2761.403488293085,2,3,0.5501165986061096,3.976250886917114,2.343938810698344,1.915315708547134,9.35145582184259,6.93940276794191,6.47544875391759e-05,0.0956302732229232,0,0,0
733,25972.86878593241,2010-11-23 19:37:51,2791.418729823676,2,3,0.5501165986061096,3.977707862854004,2.348525336112197,1.915315708547134,9.369696607739602,6.93940276794191,3.237724376958795e-05,0.0956302732229232,0,0,0
734,26002.88405724735,2010-11-23 19:38:21,2821.434001138611,2,3,0.5501165986061096,3.979650497436523,2.353111682673676,1.915315708547134,9.387944181546064,6.93940276794191,6.47544875391759e-05,0.0956302732229232,0,0,0
735,26032.899316171355,2010-11-23 19:38:51,2851.449260072643,2,3,0.550297200679779,3.981431245803833,2.357697992954914,1.915315708547134,9.406200096259328,6.93940276794191,6.47544875391759e-05,0.0956302732229232,0,0,0
736,26062.899458431843,2010-11-23 19:39:21,2881.4494024383944,2,3,0.5501165986061096,3.9830501079559326,2.362282085340538,1.915315708547134,9.424455230951787,6.93940276794191,3.237724376958795e-05,0.0956302732229232,0,0,0
737,26092.914185723817,2010-11-23 19:39:51,2911.4641296251025,2,3,0.5501165986061096,3.984992742538452,2.366868325818355,1.915315708547134,9.44272705768009,6.93940276794191,6.47544875391759e-05,0.0956302732229232,0,0,0
738,26122.92945106885,2010-11-23 19:40:21,2941.479394960112,2,3,0.5501165986061096,3.9867734909057617,2.371454649734898,1.915315708547134,9.461007468410596,6.93940276794191,6.47544875391759e-05,0.0956302732229232,0,0,0
739,26152.944774619173,2010-11-23 19:40:51,2971.494718505423,2,3,0.5501165986061096,3.988716125488281,2.376041035494573,1.915315708547134,9.479296378897608,6.93940276794191,0.0001295089750783,0.0956302732229232,0,0,0
740,26182.9600741746,2010-11-23 19:41:21,3001.510018065864,2,3,0.5501165986061096,3.990496873855591,2.380627398176121,1.915315708547134,9.497593612371654,6.93940276794191,3.237724376958795e-05,0.0956302732229232,0,0,0
741,26212.97522623185,2010-11-23 19:41:51,3031.5251701531897,2,3,0.550297200679779,3.9924395084381104,2.38521377298592,1.915315708547134,9.515899331894277,6.93940276794191,9.713172767078504e-05,0.0956302732229232,0,0,0
742,26242.99046574741,2010-11-23 19:42:21,3061.540409638675,2,3,0.5501165986061096,3.994058132171631,2.389800202893068,1.915315708547134,9.534213850825536,6.93940276794191,3.23295607813634e-05,0.0956302732229232,0,0,0
743,26273.005890380053,2010-11-23 19:42:51,3091.5558342813406,2,3,0.5501165986061096,3.995838880538941,2.394386572216973,1.915315708547134,9.55253682004812,6.93940276794191,0.0,0.0956302732229232,0,0,0
744,26303.02112909361,2010-11-23 19:43:21,3121.571072994899,2,3,0.5501165986061096,3.99810528755188,2.398972931448996,1.915315708547134,9.570868467988198,6.93940276794191,6.47544875391759e-05,0.0956302732229232,0,0,0
745,26333.03623146183,2010-11-23 19:43:51,3151.586175363118,2,3,0.5499359965324402,3.99972414970398,2.403559215679339,1.915315708547134,9.589208517352931,6.93940276794191,0.0,0.0956302732229232,0,0,0
746,26363.05150472663,2010-11-23 19:44:21,3181.6014486279214,2,3,0.5499359965324402,4.001828670501709,2.408145560758016,1.915315708547134,9.607557817383627,6.93940276794191,0.0,0.0956302732229232,0,0,0
747,26393.066751911338,2010-11-23 19:44:51,3211.6166958026,2,3,0.5501165986061096,4.0037713050842285,2.412731946845141,1.915315708547134,9.62591639525144,6.93940276794191,3.23295607813634e-05,0.0956302732229232,0,0,0
748,26423.08201712605,2010-11-23 19:45:21,3241.631961037359,2,3,0.5501165986061096,4.005876064300537,2.417318259631201,1.915315708547134,9.6442838801889,6.93940276794191,6.47544875391759e-05,0.0956302732229232,0,0,0
749,26453.09725109777,2010-11-23 19:45:51,3271.64719498903,2,3,0.550297200679779,4.007980346679688,2.421904634891211,1.915315708547134,9.66266103880328,6.93940276794191,6.47544875391759e-05,0.0956302732229232,0,0,0
750,26483.112496688493,2010-11-23 19:46:21,3301.6624405797547,2,3,0.5501165986061096,4.010085105895996,2.426490987408697,1.915315708547134,9.681047509506268,6.93940276794191,6.47544875391759e-05,0.0956302732229232,0,0,0
751,26513.128418612447,2010-11-23 19:46:51,3331.678362503711,2,3,0.5501165986061096,4.0121893882751465,2.43107744116676,1.915315708547134,9.699443975600907,6.93940276794191,6.47544875391759e-05,0.0956302732229232,0,0,0
752,26543.14302257156,2010-11-23 19:47:21,3361.692966467837,2,3,0.5501165986061096,4.014294147491455,2.43566377071149,1.915315708547134,9.717849664638347,6.93940276794191,6.47544875391759e-05,0.0956302732229232,0,0,0
753,26573.15827066854,2010-11-23 19:47:51,3391.708214559805,2,3,0.5501165986061096,4.0163984298706055,2.440250155091139,1.915315708547134,9.73626533103588,6.93940276794191,6.47544875391759e-05,0.0956302732229232,0,0,0
754,26603.173548284205,2010-11-23 19:48:21,3421.723492175469,2,3,0.5499359965324402,4.018503189086914,2.444836601978687,1.915315708547134,9.754691210515588,6.93940276794191,3.24249267578125e-05,0.0956302732229232,0,0,0
755,26633.18881752396,2010-11-23 19:48:51,3451.738761415225,2,3,0.5501165986061096,4.0207695960998535,2.449423009841568,1.915315708547134,9.773126816118332,6.93940276794191,3.24249267578125e-05,0.0956302732229232,0,0,0
756,26663.204073410383,2010-11-23 19:49:21,3481.754017311674,2,3,0.550297200679779,4.023036003112793,2.454009354505462,1.915315708547134,9.791572412919042,6.93940276794191,9.71794142969884e-05,0.0956302732229232,0,0,0
757,26693.21928218421,2010-11-23 19:49:51,3511.769226075473,2,3,0.550297200679779,4.025140285491943,2.458595720420591,1.915315708547134,9.81002828952434,6.93940276794191,3.23295607813634e-05,0.0956302732229232,0,0,0
758,26723.23468061645,2010-11-23 19:50:21,3541.7846245177384,2,3,0.5501165986061096,4.027406692504883,2.463182070941346,1.915315708547134,9.82849437833784,6.93940276794191,6.47544875391759e-05,0.0956302732229232,0,0,0
759,26753.249809310382,2010-11-23 19:50:51,3571.7997532066584,2,3,0.5499359965324402,4.029673099517822,2.467768383298894,1.915315708547134,9.846970765393028,6.93940276794191,3.23295607813634e-05,0.0956302732229232,0,0,0
760,26783.265174284104,2010-11-23 19:51:21,3601.8151181853937,2,3,0.5501165986061096,4.032101631164551,2.472354820940995,1.915315708547134,9.865458114865872,6.93940276794191,6.47544875391759e-05,0.0956302732229232,0,0,0
761,26813.280883221418,2010-11-23 19:51:51,3631.8308271227024,2,3,0.550297200679779,4.034367561340332,2.476941260900695,1.915315708547134,9.883956144961363,6.93940276794191,6.46591215627268e-05,0.0956302732229232,0,0,0
762,26843.282530719207,2010-11-23 19:52:21,3661.832474705708,2,3,0.5497553944587708,4.036633968353272,2.481525007788294,1.915315708547134,9.902453889900828,6.93940276794191,3.23295607813634e-05,0.0956302732229232,0,0,0
763,26873.29533741708,2010-11-23 19:52:51,3691.845281403581,2,3,0.5499359965324402,4.0390625,2.486110149953845,1.915315708547134,9.920968168304515,6.93940276794191,3.24249267578125e-05,0.0956302732229232,0,0,0
764,26903.31043265249,2010-11-23 19:53:21,3721.8603765537823,2,3,0.5497553944587708,4.04116678237915,2.490695708380692,1.915315708547134,9.939495034057812,6.93940276794191,3.23295607813634e-05,0.0956302732229232,0,0,0
765,26933.325738288106,2010-11-23 19:53:51,3751.875682284626,2,3,0.5499359965324402,4.043919086456299,2.495281124038501,1.915315708547134,9.958032413984013,6.93940276794191,6.47544875391759e-05,0.0956302732229232,0,0,0
766,26963.34084374904,2010-11-23 19:54:21,3781.890787670377,2,3,0.5501165986061096,4.046347141265869,2.499866545733855,1.915315708547134,9.9765810216236,6.93940276794191,6.47544875391759e-05,0.0956302732229232,0,0,0
767,26993.35631483764,2010-11-23 19:54:51,3811.906258758979,2,3,0.5501165986061096,4.0489373207092285,2.504452005752134,1.915315708547134,9.995141098896475,6.93940276794191,9.70840483205393e-05,0.0956302732229232,0,0,0
768,27023.371450423776,2010-11-23 19:55:21,3841.9213943350906,2,3,0.5499359965324402,4.051203727722168,2.509037856054916,1.915315708547134,10.013714079770228,6.93940276794191,0.0,0.0956302732229232,0,0,0
769,27053.3868145554,2010-11-23 19:55:51,3871.936758471724,2,3,0.5499359965324402,4.053793907165527,2.513624321662118,1.915315708547134,10.032301169319252,6.93940276794191,6.47544875391759e-05,0.0956302732229232,0,0,0
770,27083.401886402437,2010-11-23 19:56:21,3901.9518302936954,2,3,0.5501165986061096,4.056222438812256,2.518210728261158,1.915315708547134,10.05089963989344,6.93940276794191,0.0,0.0956302732229232,0,0,0
771,27113.417196248545,2010-11-23 19:56:51,3931.967140134798,2,3,0.5499359965324402,4.058812618255615,2.522797164145676,1.915315708547134,10.069509906334728,6.93940276794191,6.47544875391759e-05,0.0956302732229232,0,0,0
772,27143.43248432031,2010-11-23 19:57:21,3961.982428211574,2,3,0.5501165986061096,4.0615644454956055,2.52738354868415,1.915315708547134,10.088131598412527,6.93940276794191,9.70840483205393e-05,0.0956302732229232,0,0,0
773,27173.447696141742,2010-11-23 19:57:51,3991.9976400380174,2,3,0.5501165986061096,4.064154624938965,2.531970469448611,1.915315708547134,10.106767350760435,6.93940276794191,9.70840483205393e-05,0.0956302732229232,0,0,0
774,27203.46294491541,2010-11-23 19:58:21,4022.012888806675,2,3,0.550297200679779,4.066744804382324,2.536557721416151,1.915315708547134,10.12541652133012,6.93940276794191,6.47544875391759e-05,0.0956302732229232,0,0,0
775,27233.47820831559,2010-11-23 19:58:51,4052.0281522068553,2,3,0.5501165986061096,4.069334983825684,2.541144753676706,1.915315708547134,10.14407697532616,6.93940276794191,3.23295607813634e-05,0.0956302732229232,0,0,0
776,27263.49346317946,2010-11-23 19:59:21,4082.0434070707274,2,3,0.550297200679779,4.072087287902832,2.545732046624599,1.915315708547134,10.162750763021338,6.93940276794191,6.47544875391759e-05,0.0956302732229232,0,0,0
777,27293.50895127552,2010-11-23 19:59:51,4112.058895166781,2,3,0.5501165986061096,4.074839115142822,2.550319322783332,1.915315708547134,10.181436837068592,6.93940276794191,9.70840483205393e-05,0.0956302732229232,0,0,0
778,27323.523955102763,2010-11-23 20:00:21,4142.073898994027,2,3,0.550297200679779,4.077591419219971,2.554906500961281,1.915315708547134,10.200135030723487,6.93940276794191,0.0001295089750783,0.0956302732229232,0,0,0
779,27353.539220132017,2010-11-23 20:00:51,4172.089164018261,2,3,0.5501165986061096,4.08050537109375,2.559493417931885,1.915315708547134,10.21884491383793,6.93940276794191,9.71794142969884e-05,0.0956302732229232,0,0,0
780,27383.554701345885,2010-11-23 20:01:22,4202.104645267224,2,3,0.5501165986061096,4.08325719833374,2.564080044683236,1.915315708547134,10.23756640385961,6.93940276794191,9.70840483205393e-05,0.0956302732229232,0,0,0
781,27413.569727884824,2010-11-23 20:01:52,4232.119671776087,2,3,0.5501165986061096,4.0858473777771,2.568666526189179,1.915315708547134,10.25630018006807,6.93940276794191,3.23295607813634e-05,0.0956302732229232,0,0,0
782,27443.585088292148,2010-11-23 20:02:22,4262.135032183412,2,3,0.5501165986061096,4.088923454284668,2.573253012507608,1.915315708547134,10.275046897114777,6.93940276794191,9.71794142969884e-05,0.0956302732229232,0,0,0
783,27473.600302790263,2010-11-23 20:02:52,4292.150246686537,2,3,0.5499359965324402,4.091513633728027,2.577839518078944,1.915315708547134,10.293806860827388,6.93940276794191,3.24249267578125e-05,0.0956302732229232,0,0,0
784,27503.61566709732,2010-11-23 20:03:22,4322.1656110136455,2,3,0.550297200679779,4.094913005828857,2.582426059554727,1.915315708547134,10.312580225620106,6.93940276794191,0.0001295089750783,0.0956302732229232,0,0,0
785,27533.630727350417,2010-11-23 20:03:52,4352.1806712416765,2,3,0.5501165986061096,4.097503185272217,2.587012561752432,1.915315708547134,10.331366812344616,6.93940276794191,9.70840483205393e-05,0.0956302732229232,0,0,0
786,27563.64597438975,2010-11-23 20:04:22,4382.195918286029,2,3,0.550297200679779,4.100579261779785,2.591599188708273,1.915315708547134,10.350167302401404,6.93940276794191,0.0001295089750783,0.0956302732229232,0,0,0
787,27593.661353909785,2010-11-23 20:04:52,4412.211297791025,2,3,0.5501165986061096,4.103331089019775,2.596185798554935,1.915315708547134,10.368981232548071,6.93940276794191,3.23295607813634e-05,0.0956302732229232,0,0,0
788,27623.67651117504,2010-11-23 20:05:22,4442.226455071313,2,3,0.550297200679779,4.106568813323975,2.600772312341642,1.915315708547134,10.387808636472723,6.93940276794191,0.0001295089750783,0.0956302732229232,0,0,0
789,27653.69186193328,2010-11-23 20:05:52,4472.241805849601,2,3,0.5501165986061096,4.109482765197754,2.60535897787805,1.915315708547134,10.406650607843607,6.93940276794191,9.70840483205393e-05,0.0956302732229232,0,0,0
790,27683.70702082258,2010-11-23 20:06:22,4502.256964713843,2,3,0.5501165986061096,4.112396717071533,2.609945652267146,1.915315708547134,10.425506641538709,6.93940276794191,6.47544875391759e-05,0.0956302732229232,0,0,0
791,27713.72238689905,2010-11-23 20:06:52,4532.272330790319,2,3,0.5501165986061096,4.115634441375732,2.614532289627927,1.915315708547134,10.444376452867486,6.93940276794191,9.71794142969884e-05,0.0956302732229232,0,0,0
792,27743.73759361775,2010-11-23 20:07:22,4562.287537509013,2,3,0.5501165986061096,4.118710041046143,2.619118927329919,1.915315708547134,10.463260518898188,6.93940276794191,6.47544875391759e-05,0.0956302732229232,0,0,0
793,27773.75276127394,2010-11-23 20:07:52,4592.302705170213,2,3,0.550297200679779,4.121947765350342,2.62370552489079,1.915315708547134,10.482158777092366,6.93940276794191,9.70840483205393e-05,0.0956302732229232,0,0,0
794,27803.768011240587,2010-11-23 20:08:22,4622.317955131848,2,3,0.5499359965324402,4.12502384185791,2.628292145280063,1.915315708547134,10.501071455992454,6.93940276794191,9.71794142969884e-05,0.0956302732229232,0,0,0
795,27833.78330736245,2010-11-23 20:08:52,4652.333251273757,2,3,0.5501165986061096,4.128261566162109,2.632878735543188,1.915315708547134,10.519998594288674,6.93940276794191,6.47544875391759e-05,0.0956302732229232,0,0,0
796,27863.79868286745,2010-11-23 20:09:22,4682.34862678378,2,3,0.5501165986061096,4.131499290466309,2.63746537006553,1.915315708547134,10.538940542507977,6.93940276794191,6.47544875391759e-05,0.0956302732229232,0,0,0
797,27893.81378025825,2010-11-23 20:09:52,4712.363724149513,2,3,0.5501165986061096,4.134574890136719,2.642051987569701,1.915315708547134,10.557897142180275,6.93940276794191,3.23295607813634e-05,0.0956302732229232,0,0,0
798,27923.82903033016,2010-11-23 20:10:22,4742.378974216409,2,3,0.5499359965324402,4.137812614440918,2.646638702941399,1.915315708547134,10.576869192084088,6.93940276794191,6.47544875391759e-05,0.0956302732229232,0,0,0
799,27953.844296828072,2010-11-23 20:10:52,4772.394240719334,2,3,0.5499359965324402,4.141212463378906,2.651225321713126,1.915315708547134,10.595855886941692,6.93940276794191,6.47544875391759e-05,0.0956302732229232,0,0,0
800,27983.8595498323,2010-11-23 20:11:22,4802.409493723564,2,3,0.5501165986061096,4.144611835479736,2.655811937819991,1.915315708547134,10.614857835454597,6.93940276794191,9.70840483205393e-05,0.0956302732229232,0,0,0
801,28013.87479832527,2010-11-23 20:11:52,4832.424742216533,2,3,0.5501165986061096,4.148173332214356,2.660398487115856,1.915315708547134,10.633875332851968,6.93940276794191,0.0001295089750783,0.0956302732229232,0,0,0
802,28043.89009270779,2010-11-23 20:12:22,4862.4400366190985,2,3,0.5501165986061096,4.151573181152344,2.664985079395995,1.915315708547134,10.652908511066764,6.93940276794191,9.71794142969884e-05,0.0956302732229232,0,0,0
803,28073.905386378527,2010-11-23 20:12:52,4892.455330269789,2,3,0.5499359965324402,4.154810905456543,2.669571724379979,1.915315708547134,10.671957459114278,6.93940276794191,9.71794142969884e-05,0.0956302732229232,0,0,0
804,28103.92056945821,2010-11-23 20:13:22,4922.470513349476,2,3,0.5501165986061096,4.158372402191162,2.674158275963133,1.915315708547134,10.691021757989107,6.93940276794191,9.71794142969884e-05,0.0956302732229232,0,0,0
805,28133.93581210158,2010-11-23 20:13:52,4952.485755997856,2,3,0.5501165986061096,4.161610126495361,2.678744875056337,1.915315708547134,10.710102008599204,6.93940276794191,9.71794142969884e-05,0.0956302732229232,0,0,0
806,28163.95106903561,2010-11-23 20:14:22,4982.501012936908,2,3,0.5501165986061096,4.165009498596191,2.683331487371624,1.915315708547134,10.72919805021588,6.93940276794191,6.47544875391759e-05,0.0956302732229232,0,0,0
807,28193.966323678946,2010-11-23 20:14:52,5012.516267570204,2,3,0.5501165986061096,4.1687331199646,2.687918041405079,1.915315708547134,10.748309787170555,6.93940276794191,9.71794142969884e-05,0.0956302732229232,0,0,0
808,28223.98160101892,2010-11-23 20:15:22,5042.531544910179,2,3,0.5501165986061096,4.17213249206543,2.692504542784387,1.915315708547134,10.767437443440413,6.93940276794191,9.70840483205393e-05,0.0956302732229232,0,0,0
809,28253.981625715947,2010-11-23 20:15:52,5072.531569732524,2,3,0.5501165986061096,4.175532341003418,2.697088834185545,1.915315708547134,10.786572134031989,6.93940276794191,6.47544875391759e-05,0.0956302732229232,0,0,0
810,28283.996589533326,2010-11-23 20:16:22,5102.5465334296,2,3,0.5501165986061096,4.179417610168457,2.701675348322912,1.915315708547134,10.80573239618268,6.93940276794191,9.71794142969884e-05,0.0956302732229232,0,0,0
811,28314.01183810148,2010-11-23 20:16:52,5132.561781997756,2,3,0.550297200679779,4.182979106903076,2.706261939758568,1.915315708547134,10.824909485960406,6.93940276794191,0.0001295089750783,0.0956302732229232,0,0,0
812,28344.027037496893,2010-11-23 20:17:22,5162.576981468357,2,3,0.5499359965324402,4.186540603637695,2.710848524230745,1.915315708547134,10.844103036763531,6.93940276794191,9.71794142969884e-05,0.0956302732229232,0,0,0
813,28374.04222898257,2010-11-23 20:17:52,5192.592172873828,2,3,0.5501165986061096,4.1901021003723145,2.715435129198199,1.915315708547134,10.863313271452366,6.93940276794191,3.24249267578125e-05,0.0956302732229232,0,0,0
814,28404.057500723564,2010-11-23 20:18:22,5222.60744463989,2,3,0.5501165986061096,4.1938252449035645,2.720021730755278,1.915315708547134,10.88254021164715,6.93940276794191,9.70840483205393e-05,0.0956302732229232,0,0,0
815,28434.072753111253,2010-11-23 20:18:52,5252.622697002518,2,3,0.5501165986061096,4.197548389434815,2.72460833751077,1.915315708547134,10.90178402375269,6.93940276794191,0.0001295089750783,0.0956302732229232,0,0,0
816,28453.431865293587,2010-11-23 20:19:11,5271.981809179838,2,3,0.550297200679779,4.200138568878174,2.727566568679293,1.915315708547134,10.914204751685542,6.93940276794191,0.0001618385285837,0.0956302732229232,0,0,0
817,28483.44754511514,2010-11-23 20:19:42,30.015096633905404,3,3,0.0,4.107863903045654,2.727566568679293,1.915315708547134,10.914204751685542,6.93940276794191,-0.0004209518374409,0.0956302732229232,0,0,0
818,28513.46278999409,2010-11-23 20:20:12,60.03034151786575,3,3,0.0,4.096370220184326,2.727566568679293,1.915315708547134,10.914204751685542,6.93940276794191,-0.0002265930233988,0.0956302732229232,0,0,0
819,28543.47818412559,2010-11-23 20:20:42,90.04573564937093,3,3,0.0,4.089247226715088,2.727566568679293,1.915315708547134,10.914204751685542,6.93940276794191,-0.0001942634553415,0.0956302732229232,0,0,0
820,28573.446432945144,2010-11-23 20:21:12,120.01398447393689,3,3,0.0,4.08487606048584,2.727566568679293,1.915315708547134,10.914204751685542,6.93940276794191,-6.47544875391759e-05,0.0956302732229232,0,0,0
821,28573.44654704355,2010-11-23 20:21:12,2.827056769e-06,4,3,1.0043489933013916,4.199814796447754,2.727566569468002,1.915315708547134,10.914204754997971,6.93940276794191,0.0,0.0956302732229232,0,0,0
822,28574.040253676645,2010-11-23 20:21:12,0.593709475189993,4,3,0.952875316143036,4.199814796447754,2.72772624869639,1.915315708547134,10.914875376915594,6.93940276794191,0.0,0.0956302732229232,0,0,0
823,28576.02459573972,2010-11-23 20:21:14,2.578051538262818,4,3,0.902665913105011,4.199814796447754,2.728236453122138,1.915315708547134,10.917018153623063,6.93940276794191,0.0,0.0956302732229232,0,0,0
824,28579.13392811168,2010-11-23 20:21:17,5.687383915234566,4,3,0.8522759079933167,4.199814796447754,2.728993150337261,1.915315708547134,10.920196163308091,6.93940276794191,0.0,0.0956302732229232,0,0,0
825,28583.446419638996,2010-11-23 20:21:22,9.999875457584508,4,3,0.8020665645599365,4.199814796447754,2.729982751885391,1.915315708547134,10.92435234714094,6.93940276794191,-3.24249267578125e-05,0.0956302732229232,0,0,0
826,28589.18069477192,2010-11-23 20:21:27,15.734150570462424,4,3,0.7516765594482422,4.199814796447754,2.73121857367531,1.915315708547134,10.92954263480532,6.93940276794191,-3.24249267578125e-05,0.0956302732229232,0,0,0
827,28596.63383887123,2010-11-23 20:21:35,23.18729467478437,4,3,0.7016478180885315,4.199976921081543,2.732720683180442,1.915315708547134,10.935851286236224,6.93940276794191,0.0,0.0956302732229232,0,0,0
828,28606.492949613425,2010-11-23 20:21:45,33.04640540695814,4,3,0.651619017124176,4.199976921081543,2.734570304883555,1.915315708547134,10.943619470218453,6.93940276794191,3.24249267578125e-05,0.0956302732229232,0,0,0
829,28620.24290966409,2010-11-23 20:21:58,46.79636546263558,4,3,0.6015902757644653,4.199814796447754,2.736957880705376,1.915315708547134,10.95364699363221,6.93940276794191,0.0,0.0956302732229232,0,0,0
830,28641.21152073326,2010-11-23 20:22:19,67.76497652679187,4,3,0.5515614748001099,4.199814796447754,2.740305184953354,1.915315708547134,10.96770522563448,6.93940276794191,-3.24249267578125e-05,0.0956302732229232,0,0,0
831,28677.52344911295,2010-11-23 20:22:56,104.07690491650312,4,3,0.5015327334403992,4.199814796447754,2.745591857790863,1.915315708547134,10.989908553146591,6.93940276794191,-3.24249267578125e-05,0.0956302732229232,0,0,0
832,28746.069367836604,2010-11-23 20:24:04,172.62282363515084,4,3,0.4515039622783661,4.199976921081543,2.754621166571771,1.915315708547134,11.027830464599642,6.93940276794191,3.24249267578125e-05,0.0956302732229232,0,0,0
833,28854.67738880587,2010-11-23 20:25:53,281.2308446044164,4,3,0.401475191116333,4.199814796447754,2.7674539559377,1.915315708547134,11.08172648415722,6.93940276794191,0.0,0.0956302732229232,0,0,0
834,28989.472838771748,2010-11-23 20:28:08,416.0262946003679,4,3,0.3514464199542999,4.199491024017334,2.781533298758834,1.915315708547134,11.140857944334275,6.93940276794191,-9.71794142969884e-05,0.0956302732229232,0,0,0
835,29153.267461393985,2010-11-23 20:30:52,579.8209171925306,4,3,0.3014176487922668,4.199814796447754,2.796361923216352,1.915315708547134,11.203136173981914,6.93940276794191,0.0,0.0956302732229232,0,0,0
836,29351.54665689545,2010-11-23 20:34:10,778.1001127040187,4,3,0.2513888776302337,4.199814796447754,2.81155911875378,1.915315708547134,11.266962457672896,6.93940276794191,-3.24249267578125e-05,0.0956302732229232,0,0,0
837,29599.636957693983,2010-11-23 20:38:18,1026.1904134925255,4,3,0.2013601064682006,4.199814796447754,2.827113014891737,1.915315708547134,11.332286777469466,6.93940276794191,3.23295607813634e-05,0.0956302732229232,0,0,0
838,29925.42992747856,2010-11-23 20:43:44,1351.9833832720908,4,3,0.1513313353061676,4.199814796447754,2.842984386342038,1.915315708547134,11.398944431823285,6.93940276794191,3.23295607813634e-05,0.0956302732229232,0,0,0
839,30390.33040217655,2010-11-23 20:51:29,1816.8838579851245,4,3,0.1013025641441345,4.199814796447754,2.859110833144595,1.915315708547134,11.466673364367354,6.93940276794191,3.23295607813634e-05,0.0956302732229232,0,0,0
840,31242.69503512341,2010-11-23 21:05:41,2669.248490921955,4,3,0.0512737929821014,4.199653148651123,2.876459216204804,1.915315708547134,11.539534177284176,6.93940276794191,-3.23295607813634e-05,0.0956302732229232,0,0,0
841,31285.02265584167,2010-11-23 21:06:23,2711.576111645222,4,3,0.0496483072638511,4.199814796447754,2.877058614514955,1.915315708547134,11.542051543991832,6.93940276794191,-3.24249267578125e-05,0.0956302732229232,0,0,0
842,31315.038135808583,2010-11-23 21:06:53,30.015358983771023,5,3,0.0,4.191397190093994,2.877058614514955,1.915315708547134,11.542051543991832,6.93940276794191,0.0,0.0956302732229232,0,0,0
843,31345.03772781556,2010-11-23 21:07:23,60.01495101580483,5,3,0.0,4.189939975738525,2.877058614514955,1.915315708547134,11.542051543991832,6.93940276794191,-3.24249267578125e-05,0.0956302732229232,0,0,0
844,31345.22572533497,2010-11-23 21:07:24,0.187224596396389,6,3,-1.9243103452026844e-05,4.1901021003723145,2.877058614514955,1.915315709547907,11.542051543991832,6.93940277213525,0.0,0.0987826660275459,0,0,0
845,31350.05378522023,2010-11-23 21:07:29,5.015284466610887,6,3,0.0008838032954372,4.1901021003723145,2.877059591123342,1.915315709631673,11.542055636075908,6.939402772486242,0.0,0.0987826660275459,0,0,0
846,31380.07016327772,2010-11-23 21:07:59,30.01547777028043,7,3,-1.099568486213684,4.000371932983398,2.877059591123342,1.924483696361615,11.542055636075908,6.976288602262192,-0.001003646873869,0.0987826660275459,0,0,0
847,31410.08520306974,2010-11-23 21:08:29,60.03051754224969,7,3,-1.099568486213684,3.971070528030396,2.877059591123342,1.933651519555488,11.542055636075908,7.012819302112842,-0.0006475448608398,0.0987826660275459,0,0,0
848,31440.10051468026,2010-11-23 21:08:59,90.0458292379825,7,3,-1.0997490882873535,3.950672864913941,2.877059591123342,1.942819380795015,11.542055636075908,7.049128105143899,-0.0004856586456298,0.0987826660275459,0,0,0
849,31470.115887618867,2010-11-23 21:09:29,120.06120210139926,7,3,-1.099929690361023,3.935293674468994,2.877059591123342,1.951987328432618,11.542055636075908,7.085275321014402,-0.0003885269106831,0.0987826660275459,0,0,0
850,31500.131143384988,2010-11-23 21:09:59,150.07645786752315,7,3,-1.0993878841400146,3.922828435897827,2.877059591123342,1.961155221203556,11.542055636075908,7.121294395929374,-0.0002913951757363,0.0987826660275459,0,0,0
851,31530.146296590105,2010-11-23 21:10:29,180.09161108767654,7,3,-1.0997490882873535,3.911334753036499,2.877059591123342,1.970323071513696,11.542055636075908,7.157204783100527,-0.0002913951757363,0.0987826660275459,0,0,0
852,31560.161556306088,2010-11-23 21:10:59,210.10687077859737,7,3,-1.099568486213684,3.9012978076934814,2.877059591123342,1.979490896735849,11.542055636075908,7.193017344448842,-0.0002590179501567,0.0987826660275459,0,0,0
853,31590.17683670871,2010-11-23 21:11:29,240.12215118121773,7,3,-1.0997490882873535,3.8917465209960938,2.877059591123342,1.988658750236666,11.542055636075908,7.22873872385968,-0.0002266406954731,0.0987826660275459,0,0,0
854,31620.192107803097,2010-11-23 21:11:59,270.13742227560334,7,3,-1.0993878841400146,3.882519006729126,2.877059591123342,1.997826680369092,11.542055636075908,7.264374208788328,-0.0002266406954731,0.0987826660275459,0,0,0
855,31650.20737239124,2010-11-23 21:12:29,300.1526868637484,7,3,-1.0997490882873535,3.873615264892578,2.877059591123342,2.006994602262239,11.542055636075908,7.299927489772134,-0.0002266406954731,0.0987826660275459,0,0,0
856,31680.222644558304,2010-11-23 21:12:59,330.1679590308115,7,3,-1.0997490882873535,3.86503529548645,2.877059591123342,2.016162604254901,11.542055636075908,7.335402280943337,-0.0002266406954731,0.0987826660275459,0,0,0
857,31710.22270047326,2010-11-23 21:13:29,360.16801509113134,7,3,-1.099568486213684,3.856617212295532,2.877059591123342,2.02532593815542,11.542055636075908,7.370781525170085,-0.0002590179501567,0.0987826660275459,0,0,0
858,31740.237574797244,2010-11-23 21:13:59,390.1828892697542,7,3,-1.0997490882873535,3.848522901535034,2.877059591123342,2.034493839128147,11.542055636075908,7.406102128224069,-0.0002266406954731,0.0987826660275459,0,0,0
859,31770.25296691873,2010-11-23 21:14:29,420.1982813962546,7,3,-1.099568486213684,3.840428590774536,2.877059591123342,2.04366185647796,11.542055636075908,7.441349007382002,-0.0002266406954731,0.0987826660275459,0,0,0
860,31800.268117527365,2010-11-23 21:14:59,450.2134319998766,7,3,-1.0997490882873535,3.832658290863037,2.877059591123342,2.052829876408849,11.542055636075908,7.476522665664744,-0.0002265930233988,0.0987826660275459,0,0,0
861,31830.28340810037,2010-11-23 21:15:29,480.22872257288384,7,3,-1.099568486213684,3.825049638748169,2.877059591123342,2.06199791382313,11.542055636075908,7.511625206474847,-0.0001942634553415,0.0987826660275459,0,0,0
862,31860.298706011698,2010-11-23 21:15:59,510.2440204842087,7,3,-1.0997490882873535,3.817440986633301,2.877059591123342,2.071165969758792,11.542055636075908,7.546658178381247,-0.0001942634553415,0.0987826660275459,0,0,0
863,31890.313971642445,2010-11-23 21:16:29,540.2592861400187,7,3,-1.099568486213684,3.8098323345184326,2.877059591123342,2.080334025871703,11.542055636075908,7.581621143760426,-0.0001618862152099,0.0987826660275459,0,0,0
864,31920.32922574441,2010-11-23 21:16:59,570.2745402169261,7,3,-1.099568486213684,3.8023855686187744,2.877059591123342,2.089502003187535,11.542055636075908,7.616515455895812,-0.0001942634553415,0.0987826660275459,0,0,0
865,31950.34450571596,2010-11-23 21:17:29,600.2898201884705,7,3,-1.0997490882873535,3.795262575149536,2.877059591123342,2.098670070883156,11.542055636075908,7.651343065330217,-0.0001618862152099,0.0987826660275459,0,0,0
866,31980.35979521128,2010-11-23 21:17:59,630.3051096837876,7,3,-1.0997490882873535,3.787977695465088,2.877059591123342,2.107838105266235,11.542055636075908,7.686105012376194,-0.0002266406954731,0.0987826660275459,0,0,0
867,32010.37530907665,2010-11-23 21:18:29,660.3206235391419,7,3,-1.099929690361023,3.7811784744262695,2.877059591123342,2.117006321871232,11.542055636075908,7.720804143642478,-0.0001942634553415,0.0987826660275459,0,0,0
868,32040.39033943513,2010-11-23 21:18:59,690.3356539126512,7,3,-1.0997490882873535,3.774703025817871,2.877059591123342,2.126174323745421,11.542055636075908,7.755440142126584,-0.0001295089750783,0.0987826660275459,0,0,0
869,32070.40562952192,2010-11-23 21:19:29,720.3509439944322,7,3,-1.099568486213684,3.7679038047790527,2.877059591123342,2.13534245382932,11.542055636075908,7.79001488993842,-0.0001618862152099,0.0987826660275459,0,0,0
870,32100.42092656107,2010-11-23 21:19:59,750.36624103358,7,3,-1.099568486213684,3.7614283561706543,2.877059591123342,2.144510628918001,11.542055636075908,7.824529063830527,-0.0001618862152099,0.0987826660275459,0,0,0
871,32130.43618175577,2010-11-23 21:20:29,780.3814962282775,7,3,-1.099568486213684,3.754952907562256,2.877059591123342,2.153678742438701,11.542055636075908,7.858984190636077,-0.0001618862152099,0.0987826660275459,0,0,0
872,32160.45146429372,2010-11-23 21:20:59,810.396778766228,7,3,-1.099568486213684,3.748801469802856,2.877059591123342,2.1628468885163,11.542055636075908,7.89338192018645,-0.0001618862152099,0.0987826660275459,0,0,0
873,32190.46674173394,2010-11-23 21:21:29,840.4120562064537,7,3,-1.0997490882873535,3.742649793624878,2.877059591123342,2.172015037252178,11.542055636075908,7.927723472508775,-0.0001618862152099,0.0987826660275459,0,0,0
874,32220.482448064748,2010-11-23 21:21:59,870.4277625673316,7,3,-1.0997490882873535,3.736660003662109,2.877059591123342,2.181183407481663,11.542055636075908,7.962010394343498,-0.0001295089750783,0.0987826660275459,0,0,0
875,32250.49737636346,2010-11-23 21:22:29,900.4426909462466,7,3,-1.0997490882873535,3.730832099914551,2.877059591123342,2.190352313169431,11.542055636075908,7.996244551969252,-0.0001295089750783,0.0987826660275459,0,0,0
876,32280.51258565357,2010-11-23 21:22:59,930.457900136109,7,3,-1.099568486213684,3.725166082382202,2.877059591123342,2.199521267410874,11.542055636075908,8.030425297850424,-0.0001295089750783,0.0987826660275459,0,0,0
877,32310.5279835595,2010-11-23 21:23:29,960.4732980570732,7,3,-1.0997490882873535,3.7191762924194336,2.877059591123342,2.208690256388858,11.542055636075908,8.064553273393399,-0.0001618862152099,0.0987826660275459,0,0,0
878,32340.54311730605,2010-11-23 21:23:59,990.4884317785552,7,3,-1.099568486213684,3.713672161102295,2.877059591123342,2.217859112470659,11.542055636075908,8.098628576145122,-0.0001618862152099,0.0987826660275459,0,0,0
879,32370.558436069423,2010-11-23 21:24:29,1020.5037505419295,7,3,-1.0997490882873535,3.708168029785156,2.877059591123342,2.227027334411813,11.542055636075908,8.132650155863981,-0.0001295089750783,0.0987826660275459,0,0,0
880,32400.57371801088,2010-11-23 21:24:59,1050.5190324884038,7,3,-1.0997490882873535,3.702502012252808,2.877059591123342,2.236195557907281,11.542055636075908,8.166621093104933,-0.0001295089750783,0.0987826660275459,0,0,0
881,32430.589036794307,2010-11-23 21:25:29,1080.5343513169412,7,3,-1.099568486213684,3.697159767150879,2.877059591123342,2.245363779799415,11.542055636075908,8.200541814525943,-0.0001295089750783,0.0987826660275459,0,0,0
882,32460.604307507743,2010-11-23 21:25:59,1110.549621975238,7,3,-1.0993878841400146,3.69197940826416,2.877059591123342,2.254532026966829,11.542055636075908,8.234413291911007,-0.0001295089750783,0.0987826660275459,0,0,0
883,32490.61957051193,2010-11-23 21:26:29,1140.5648849744168,7,3,-1.099568486213684,3.686637163162232,2.877059591123342,2.263700283003862,11.542055636075908,8.268236465439948,-9.713172767078504e-05,0.0987826660275459,0,0,0
884,32520.6374653957,2010-11-23 21:26:59,1170.5827798631967,7,3,-1.0993878841400146,3.6814568042755127,2.877059591123342,2.272869278264423,11.542055636075908,8.302014702314828,-0.0001295089750783,0.0987826660275459,0,0,0
885,32550.650277321623,2010-11-23 21:27:29,1200.5955917941324,7,3,-1.0997490882873535,3.676276445388794,2.877059591123342,2.282036745180572,11.542055636075908,8.335739957995216,-0.0001618862152099,0.0987826660275459,0,0,0
886,32580.66550799511,2010-11-23 21:27:59,1230.610822462609,7,3,-1.099568486213684,3.671258211135864,2.877059591123342,2.291205061880766,11.542055636075908,8.369421627724018,-0.0001295089750783,0.0987826660275459,0,0,0
887,32610.6808355354,2010-11-23 21:28:29,1260.6261500480043,7,3,-1.099568486213684,3.666401624679565,2.877059591123342,2.30037332633735,11.542055636075908,8.403057018210799,-9.713172767078504e-05,0.0987826660275459,0,0,0
888,32640.695991768065,2010-11-23 21:28:59,1290.6413062405777,7,3,-1.0997490882873535,3.6613831520080566,2.877059591123342,2.309541062192785,11.542055636075908,8.436645495326207,-9.713172767078504e-05,0.0987826660275459,0,0,0
889,32670.7112825917,2010-11-23 21:29:29,1320.6565970642102,7,3,-1.099568486213684,3.656526565551758,2.877059591123342,2.318708735673649,11.542055636075908,8.470189676965447,-0.0001618862152099,0.0987826660275459,0,0,0
890,32700.72670368049,2010-11-23 21:29:59,1350.672018153005,7,3,-1.099568486213684,3.651831865310669,2.877059591123342,2.327876421720497,11.542055636075908,8.503690638234893,-0.0001295089750783,0.0987826660275459,0,0,0
891,32730.74200381236,2010-11-23 21:30:29,1380.6873182898853,7,3,-1.0993878841400146,3.64729905128479,2.877059591123342,2.337044065729663,11.542055636075908,8.537148305397416,-9.713172767078504e-05,0.0987826660275459,0,0,0
892,32760.75716089215,2010-11-23 21:30:59,1410.702475489973,7,3,-1.099568486213684,3.642442464828491,2.877059591123342,2.346212063518474,11.542055636075908,8.570563935884522,-0.0001618862152099,0.0987826660275459,0,0,0
893,32790.77254970037,2010-11-23 21:31:29,1440.71786417789,7,3,-1.099568486213684,3.637909650802612,2.877059591123342,2.355380326691067,11.542055636075908,8.603938461185445,-0.0001295089750783,0.0987826660275459,0,0,0
894,32820.78773539659,2010-11-23 21:31:59,1470.7330498891463,7,3,-1.099568486213684,3.633538722991944,2.877059591123342,2.36454854186863,11.542055636075908,8.637271250404925,-6.47544875391759e-05,0.0987826660275459,0,0,0
895,32850.803151803695,2010-11-23 21:32:29,1500.7484662812174,7,3,-1.099568486213684,3.629005908966065,2.877059591123342,2.373716878220662,11.542055636075908,8.670563529343747,-0.0001295089750783,0.0987826660275459,0,0,0
896,32880.81841217632,2010-11-23 21:32:59,1530.7637266388024,7,3,-1.099568486213684,3.624634981155396,2.877059591123342,2.382885119880664,11.542055636075908,8.703815299122015,-0.0001295089750783,0.0987826660275459,0,0,0
897,32910.83359408308,2010-11-23 21:33:29,1560.7789085505742,7,3,-1.099568486213684,3.620425939559937,2.877059591123342,2.392053342760348,11.542055636075908,8.737027756314406,-0.0001295089750783,0.0987826660275459,0,0,0
898,32940.84889253074,2010-11-23 21:33:59,1590.7942070132756,7,3,-1.0997490882873535,3.616055011749268,2.877059591123342,2.401221633511348,11.542055636075908,8.770201666782537,-0.0001295089750783,0.0987826660275459,0,0,0
899,32970.86427904824,2010-11-23 21:34:29,1620.8095935458125,7,3,-1.099568486213684,3.6123316287994394,2.877059591123342,2.410389940081948,11.542055636075908,8.803338113376107,-6.47544875391759e-05,0.0987826660275459,0,0,0
900,33000.879414654424,2010-11-23 21:34:59,1650.8247291570112,7,3,-1.099568486213684,3.60812258720398,2.877059591123342,2.419558245198104,11.542055636075908,8.83643775952274,-0.0001295089750783,0.0987826660275459,0,0,0
901,33030.89470405952,2010-11-23 21:35:29,1680.840018532028,7,3,-1.0997490882873535,3.6043992042541504,2.877059591123342,2.428726575087787,11.542055636075908,8.869501271202717,-3.237724376958795e-05,0.0987826660275459,0,0,0
902,33060.91021582967,2010-11-23 21:36:00,1710.8555303122023,7,3,-1.0997490882873535,3.6005139350891118,2.877059591123342,2.437894956582667,11.542055636075908,8.902530199600353,-0.0001295089750783,0.0987826660275459,0,0,0
903,33090.92546247803,2010-11-23 21:36:30,1740.870776930492,7,3,-1.099568486213684,3.596952438354492,2.877059591123342,2.4470632979775,11.542055636075908,8.935525004746887,-0.0001295089750783,0.0987826660275459,0,0,0
904,33120.94069057509,2010-11-23 21:37:00,1770.8860050876997,7,3,-1.0997490882873535,3.593390941619873,2.877059591123342,2.456231616294397,11.542055636075908,8.968486319010637,-9.713172767078504e-05,0.0987826660275459,0,0,0
905,33150.95593485755,2010-11-23 21:37:30,1800.9012493200337,7,3,-1.0997490882873535,3.589829683303833,2.877059591123342,2.465400066337459,11.542055636075908,9.001415795037232,-9.713172767078504e-05,0.0987826660275459,0,0,0
906,33180.971452346974,2010-11-23 21:38:00,1830.9167668445464,7,3,-1.0997490882873535,3.586430072784424,2.877059591123342,2.474568574707831,11.542055636075908,9.03431394479528,-0.0001295089750783,0.0987826660275459,0,0,0
907,33210.98649500114,2010-11-23 21:38:30,1860.931809468635,7,3,-1.099568486213684,3.5831923484802246,2.877059591123342,2.48373695747962,11.542055636075908,9.067180712446383,-9.713172767078504e-05,0.0987826660275459,0,0,0
908,33241.001787909976,2010-11-23 21:39:00,1890.947102377473,7,3,-1.0997490882873535,3.5797927379608154,2.877059591123342,2.492905318196999,11.542055636075908,9.100017213265808,-9.713172767078504e-05,0.0987826660275459,0,0,0
909,33271.01707482385,2010-11-23 21:39:30,1920.9623893214216,7,3,-1.0993878841400146,3.576716899871826,2.877059591123342,2.502073729389675,11.542055636075908,9.132824412450736,-6.47544875391759e-05,0.0987826660275459,0,0,0
910,33301.03237678528,2010-11-23 21:40:00,1950.9776912778432,7,3,-1.0997490882873535,3.573479175567627,2.877059591123342,2.51124218217175,11.542055636075908,9.165602751596987,-6.47544875391759e-05,0.0987826660275459,0,0,0
911,33331.047661117715,2010-11-23 21:40:30,1980.9929756152856,7,3,-1.099568486213684,3.570565223693848,2.877059591123342,2.520410636820876,11.542055636075908,9.19835304341856,-9.713172767078504e-05,0.0987826660275459,0,0,0
912,33361.06297121947,2010-11-23 21:41:00,2011.008285691977,7,3,-1.099568486213684,3.5676512718200684,2.877059591123342,2.529579137452204,11.542055636075908,9.231075694480294,-3.237724376958795e-05,0.0987826660275459,0,0,0
913,33391.078246128374,2010-11-23 21:41:30,2041.0235606259475,7,3,-1.099568486213684,3.564575433731079,2.877059591123342,2.538747618772168,11.542055636075908,9.263770914509736,-6.47544875391759e-05,0.0987826660275459,0,0,0
914,33421.09354833041,2010-11-23 21:42:00,2071.03886282297,7,3,-1.099568486213684,3.5616614818573,2.877059591123342,2.547916072802281,11.542055636075908,9.29643905563468,-6.47544875391759e-05,0.0987826660275459,0,0,0
915,33451.10890800591,2010-11-23 21:42:30,2101.0542225886925,7,3,-1.0997490882873535,3.5587475299835205,2.877059591123342,2.557084523759346,11.542055636075908,9.329080521779009,-6.47544875391759e-05,0.0987826660275459,0,0,0
916,33481.12412901528,2010-11-23 21:43:00,2131.069443497808,7,3,-1.0997490882873535,3.5555098056793213,2.877059591123342,2.566252952710811,11.542055636075908,9.361694696834537,-0.0001295089750783,0.0987826660275459,0,0,0
917,33511.13953031467,2010-11-23 21:43:30,2161.0848447921926,7,3,-1.099568486213684,3.552919626235962,2.877059591123342,2.575421442167281,11.542055636075908,9.394281905951512,-6.47544875391759e-05,0.0987826660275459,0,0,0
918,33541.15470564,2010-11-23 21:44:00,2191.100020112512,7,3,-1.0997490882873535,3.5498437881469727,2.877059591123342,2.584589910343439,11.542055636075908,9.42684222566664,-6.47544875391759e-05,0.0987826660275459,0,0,0
919,33571.170009576366,2010-11-23 21:44:30,2221.115324063913,7,3,-1.099568486213684,3.5469298362731934,2.877059591123342,2.5937584482124,11.542055636075908,9.459375592079509,-9.713172767078504e-05,0.0987826660275459,0,0,0
920,33601.18525795906,2010-11-23 21:45:00,2251.130572421545,7,3,-1.099568486213684,3.543853998184204,2.877059591123342,2.602926923133101,11.542055636075908,9.491881500757277,-9.713172767078504e-05,0.0987826660275459,0,0,0
921,33631.20054975512,2010-11-23 21:45:30,2281.145864242668,7,3,-1.099568486213684,3.540940046310425,2.877059591123342,2.612095470588133,11.542055636075908,9.524360053292227,-6.47544875391759e-05,0.0987826660275459,0,0,0
922,33661.21586456864,2010-11-23 21:46:00,2311.161179046158,7,3,-1.099568486213684,3.5377023220062256,2.877059591123342,2.621263953972214,11.542055636075908,9.556810292674838,-9.713172767078504e-05,0.0987826660275459,0,0,0
923,33691.23115870554,2010-11-23 21:46:30,2341.176473183061,7,3,-1.099568486213684,3.5346264839172363,2.877059591123342,2.630432488839942,11.542055636075908,9.589232020147424,-9.713172767078504e-05,0.0987826660275459,0,0,0
924,33721.24646036121,2010-11-23 21:47:00,2371.1917748637943,7,3,-1.0997490882873535,3.531388759613037,2.877059591123342,2.639601107057128,11.542055636075908,9.621624705630683,-9.713172767078504e-05,0.0987826660275459,0,0,0
925,33751.26177661833,2010-11-23 21:47:30,2401.2070911159008,7,3,-1.099568486213684,3.528151035308838,2.877059591123342,2.648769713489775,11.542055636075908,9.653987408069067,-6.47544875391759e-05,0.0987826660275459,0,0,0
926,33781.277182824975,2010-11-23 21:48:00,2431.222497317535,7,3,-1.0997490882873535,3.5249133110046387,2.877059591123342,2.657938282569465,11.542055636075908,9.686319911126342,-6.47544875391759e-05,0.0987826660275459,0,0,0
927,33811.29230355403,2010-11-23 21:48:30,2461.237618041573,7,3,-1.099568486213684,3.5213518142700195,2.877059591123342,2.667106775758394,11.542055636075908,9.718620930292614,-9.713172767078504e-05,0.0987826660275459,0,0,0
928,33841.307940195875,2010-11-23 21:49:00,2491.253254778659,7,3,-1.099568486213684,3.5177903175354004,2.877059591123342,2.676275276982719,11.542055636075908,9.750890158526508,-9.713172767078504e-05,0.0987826660275459,0,0,0
929,33871.32287670008,2010-11-23 21:49:30,2521.26819119263,7,3,-1.0997490882873535,3.5139050483703613,2.877059591123342,2.685443636026454,11.542055636075908,9.78312531063615,-0.0001295089750783,0.0987826660275459,0,0,0
930,33901.33834025988,2010-11-23 21:50:00,2551.28365473239,7,3,-1.0993878841400146,3.5103437900543213,2.877059591123342,2.694612185222609,11.542055636075908,9.815326090468671,-6.47544875391759e-05,0.0987826660275459,0,0,0
931,33931.353600296665,2010-11-23 21:50:30,2581.2989147741864,7,3,-1.0997490882873535,3.5059728622436523,2.877059591123342,2.703780666217292,11.542055636075908,9.847490017417565,-0.0001295089750783,0.0987826660275459,0,0,0
932,33961.36876622855,2010-11-23 21:51:00,2611.314080696045,7,3,-1.0997490882873535,3.5017638206481934,2.877059591123342,2.712949157194104,11.542055636075908,9.879615279171574,-9.713172767078504e-05,0.0987826660275459,0,0,0
933,33991.38410434022,2010-11-23 21:51:30,2641.329418832779,7,3,-1.0997490882873535,3.4970691204071045,2.877059591123342,2.722117677237917,11.542055636075908,9.911699396676427,-0.0001295089750783,0.0987826660275459,0,0,0
934,34021.399368116334,2010-11-23 21:52:00,2671.3446826139093,7,3,-1.0997490882873535,3.4918887615203857,2.877059591123342,2.731286237739333,11.542055636075908,9.943739171348463,-0.0001618862152099,0.0987826660275459,0,0,0
935,34051.41470685958,2010-11-23 21:52:30,2701.360021337107,7,3,-1.0997490882873535,3.486384630203247,2.877059591123342,2.740454736809933,11.542055636075908,9.975730691829556,-0.0001618862152099,0.0987826660275459,0,0,0
936,34081.429924049415,2010-11-23 21:53:00,2731.375238521926,7,3,-1.0997490882873535,3.4803948402404785,2.877059591123342,2.749623293782116,11.542055636075908,10.00766912941466,-0.0001942634553415,0.0987826660275459,0,0,0
937,34111.44523137925,2010-11-23 21:53:30,2761.390545841736,7,3,-1.0997490882873535,3.47359561920166,2.877059591123342,2.758791784365702,11.542055636075908,10.039548100830013,-0.0001618862152099,0.0987826660275459,0,0,0
938,34141.46108954406,2010-11-23 21:54:00,2791.40640402659,7,3,-1.0997490882873535,3.465825080871582,2.877059591123342,2.767960392701524,11.542055636075908,10.071361524967344,-0.0002590179501567,0.0987826660275459,0,0,0
939,34171.47589753246,2010-11-23 21:54:30,2821.421212030029,7,3,-1.099568486213684,3.457083225250244,2.877059591123342,2.777128766179805,11.542055636075908,10.103098604572184,-0.0002266406954731,0.0987826660275459,0,0,0
940,34201.49117595513,2010-11-23 21:55:00,2851.436490442682,7,3,-1.0993878841400146,3.4465606212615967,2.877059591123342,2.786297272747969,11.542055636075908,10.134747794777372,-0.0002913951757363,0.0987826660275459,0,0,0
941,34231.506453741225,2010-11-23 21:55:30,2881.451768233784,7,3,-1.099568486213684,3.4337716102600098,2.877059591123342,2.795465839652531,11.542055636075908,10.166291190477727,-0.0003561496851034,0.0987826660275459,0,0,0
942,34261.52175937182,2010-11-23 21:56:00,2911.4670738443265,7,3,-1.0997490882873535,3.4180688858032227,2.877059591123342,2.804634411101457,11.542055636075908,10.197704807140935,-0.0004532813909463,0.0987826660275459,0,0,0
943,34291.537049032544,2010-11-23 21:56:30,2941.4823635200946,7,3,-1.0997490882873535,3.397671222686768,2.877059591123342,2.813803017440975,11.542055636075908,10.228955482376442,-0.0006151676061563,0.0987826660275459,0,0,0
944,34321.55234658297,2010-11-23 21:57:00,2971.497661045456,7,3,-1.099568486213684,3.371607542037964,2.877059591123342,2.82297158237595,11.542055636075908,10.259995485040784,-0.0008418083307333,0.0987826660275459,0,0,0
945,34351.56764685519,2010-11-23 21:57:30,3001.512961347749,7,3,-1.0997490882873535,3.3363165855407715,2.877059591123342,2.832140223150113,11.542055636075908,10.290754915851249,-0.0010684489971026,0.0987826660275459,0,0,0
946,34381.58294400963,2010-11-23 21:58:00,3031.5282584971715,7,3,-1.0997490882873535,3.287750720977783,2.877059591123342,2.841308762053024,11.542055636075908,10.321133292083053,-0.0014893531333655,0.0987826660275459,0,0,0
947,34411.59824578058,2010-11-23 21:58:30,3061.543560258106,7,3,-1.099568486213684,3.2197587490081787,2.877059591123342,2.85047736282259,11.542055636075908,10.35098401537208,-0.0020721436012536,0.0987826660275459,0,0,0
948,34441.61616310537,2010-11-23 21:59:00,3091.5614775728645,7,3,-1.0993878841400146,3.120037078857422,2.877059591123342,2.859646787920894,11.542055636075908,10.38008057541918,-0.0031082152854651,0.0987826660275459,0,0,0
949,34471.62882618976,2010-11-23 21:59:30,3121.5741406873312,7,3,-1.0993878841400146,2.9532947540283203,2.877059591123342,2.868814532937507,11.542055636075908,10.408000835513922,-0.0059250355698168,0.0987826660275459,0,0,0
950,34491.425607055455,2010-11-23 21:59:50,3141.3709215329804,7,3,-1.0997490882873535,2.752718448638916,2.877059591123342,2.874861732741616,11.542055636075908,10.42529822627658,-0.0094864843413233,0.0987826660275459,0,0,0
951,34495.73805575587,2010-11-23 21:59:54,3145.683370238403,7,3,-1.0997490882873535,2.699943780899048,2.877059591123342,2.876179014406413,11.542055636075908,10.428890133049102,-0.0098426342010498,0.0987826660275459,0,0,0
952,34555.75402105977,2010-11-23 22:00:54,60.01484767284492,8,3,0.0,3.358170986175537,2.877059591123342,2.876179014406413,11.542055636075908,10.428890133049102,0.0012950897216796,0.0987826660275459,0,0,0
953,34555.943328820395,2010-11-23 22:00:55,0.187440039174709,9,3,-1.9243103452026844e-05,3.358494758605957,2.877059591123342,2.876179015408337,11.542055636075908,10.42889013641406,0.0,0.0947341993451118,0,0,0
954,34560.77139440988,2010-11-23 22:01:00,5.015505633677912,9,3,0.0005225847125984,3.366103410720825,2.877060408120927,2.876179015575275,11.542058383578665,10.42889013697472,0.0011008263099938,0.0947341993451118,0,0,0
