Data_Point,Test_Time(s),Date_Time,Step_Time(s),Step_Index,Cycle_Index,Current(A),Voltage(V),Charge_Capacity(Ah),Discharge_Capacity(Ah),Charge_Energy(Wh),Discharge_Energy(Wh),dV/dt(V/s),Internal_Resistance(Ohm),Is_FC_Data,AC_Impedance(Ohm),ACI_Phase_Angle(Deg)
11566,386189.369572694,2010-08-24 01:38:18,30.014797921743423,1,32,0.0,3.38876748085022,34.15648554158277,34.112414299242495,135.57236716318576,125.35675824475796,0.0006475448608398,0.0842081755399704,0,0,0
11567,386219.3849655835,2010-08-24 01:38:48,60.0301907962923,1,32,0.0,3.4093270301818848,34.15648554158277,34.112414299242495,135.57236716318576,125.35675824475796,0.0004856586456298,0.0842081755399704,0,0,0
11568,386249.4002218777,2010-08-24 01:39:18,90.0454470854283,1,32,0.0,3.424382448196411,34.15648554158277,34.112414299242495,135.57236716318576,125.35675824475796,0.0003561496851034,0.0842081755399704,0,0,0
11569,386279.36845689535,2010-08-24 01:39:48,120.01368212815017,1,32,0.0,3.436361789703369,34.15648554158277,34.112414299242495,135.57236716318576,125.35675824475796,0.0003237724304199,0.0842081755399704,0,0,0
11570,386309.3867506439,2010-08-24 01:40:18,30.015158715953607,2,32,0.5501165986061096,3.569108247756958,34.16107335817483,34.112414299242495,135.5885962679998,125.35675824475796,0.0015217304462566,0.0842081755399704,0,0,0
11571,386339.4021601199,2010-08-24 01:40:48,60.03056819689071,2,32,0.550297200679779,3.6129791736602783,34.165661050110394,34.112414299242495,135.6050762806055,125.35675824475796,0.0010360718006268,0.0842081755399704,0,0,0
11572,386369.4175479217,2010-08-24 01:41:18,90.045955998797,2,32,0.5501165986061096,3.6460039615631104,34.170248938354895,34.112414299242495,135.62173104339513,125.35675824475796,0.0007770538213662,0.0842081755399704,0,0,0
11573,386399.4326915551,2010-08-24 01:41:48,120.06109963216016,2,32,0.550297200679779,3.673362493515015,34.17483676696368,34.112414299242495,135.63852310408447,125.35675824475796,0.000679874443449,0.0842081755399704,0,0,0
11574,386429.4479219096,2010-08-24 01:42:18,150.07632998665906,2,32,0.5501165986061096,3.696026563644409,34.17942451251835,34.112414299242495,135.65542890963826,125.35675824475796,0.0005827903514727,0.0842081755399704,0,0,0
11575,386459.4631969755,2010-08-24 01:42:48,180.0916050525926,2,32,0.5501165986061096,3.7152910232543945,34.184011728213754,34.112414299242495,135.672428709112,125.35675824475796,0.0004856586456298,0.0842081755399704,0,0,0
11576,386489.4784501519,2010-08-24 01:43:18,210.10685822897068,2,32,0.5501165986061096,3.730346441268921,34.18859884411863,34.112414299242495,135.68950710747663,125.35675824475796,0.0003561496851034,0.0842081755399704,0,0,0
11577,386519.4937181702,2010-08-24 01:43:48,240.12212623230204,2,32,0.550297200679779,3.741516590118408,34.193185897769325,34.112414299242495,135.7066457678981,125.35675824475796,0.0002266406954731,0.0842081755399704,0,0,0
11578,386549.50898389285,2010-08-24 01:44:18,270.13739195494924,2,32,0.5501165986061096,3.747992038726807,34.19777299924599,34.112414299242495,135.72382509346593,125.35675824475796,0.0001295089750783,0.0842081755399704,0,0,0
11579,386579.52450992935,2010-08-24 01:44:48,300.1529180014035,2,32,0.5501165986061096,3.7522010803222656,34.20236011475905,34.112414299242495,135.7410281086701,125.35675824475796,6.47544875391759e-05,0.0842081755399704,0,0,0
11580,386609.53955054085,2010-08-24 01:45:18,330.1679586130047,2,32,0.5501165986061096,3.755114793777466,34.20694716195913,34.112414299242495,135.7582465671896,125.35675824475796,6.47544875391759e-05,0.0842081755399704,0,0,0
11581,386639.5548171057,2010-08-24 01:45:48,360.18322517775067,2,32,0.550297200679779,3.758190631866455,34.21153423467372,34.112414299242495,135.77547814094768,125.35675824475796,0.0001295089750783,0.0842081755399704,0,0,0
11582,386669.570044177,2010-08-24 01:46:18,390.19845225407937,2,32,0.550297200679779,3.7604570388793945,34.21612135826255,34.112414299242495,135.79272210302435,125.35675824475796,9.713172767078504e-05,0.0842081755399704,0,0,0
11583,386699.58545246,2010-08-24 01:46:48,420.2138605420432,2,32,0.550297200679779,3.763209104537964,34.220708485326,34.112414299242495,135.80997797545808,125.35675824475796,9.713172767078504e-05,0.0842081755399704,0,0,0
11584,386729.60058864974,2010-08-24 01:47:18,450.2289967218298,2,32,0.5501165986061096,3.765637397766113,34.225295550529005,34.112414299242495,135.82724552599905,125.35675824475796,3.237724376958795e-05,0.0842081755399704,0,0,0
11585,386759.61584515945,2010-08-24 01:47:48,480.24425322650296,2,32,0.550297200679779,3.7683894634246826,34.22988262885107,34.112414299242495,135.84452502043155,125.35675824475796,9.713172767078504e-05,0.0842081755399704,0,0,0
11586,386789.6311091879,2010-08-24 01:48:18,510.2595172649527,2,32,0.550297200679779,3.770979642868042,34.23446971853936,34.112414299242495,135.86181629984813,125.35675824475796,6.47544875391759e-05,0.0842081755399704,0,0,0
11587,386819.64639303565,2010-08-24 01:48:48,540.2748011127734,2,32,0.5501165986061096,3.773246049880981,34.239056774759234,34.112414299242495,135.8791192197819,125.35675824475796,3.237724376958795e-05,0.0842081755399704,0,0,0
11588,386849.6616354803,2010-08-24 01:49:18,570.2900435574046,2,32,0.5501165986061096,3.775998115539551,34.24364387990778,34.112414299242495,135.89643411790703,125.35675824475796,6.47544875391759e-05,0.0842081755399704,0,0,0
11589,386879.6769139898,2010-08-24 01:49:48,600.3053220669206,2,32,0.550297200679779,3.77858829498291,34.24823093217646,34.112414299242495,135.91376051726226,125.35675824475796,9.713172767078504e-05,0.0842081755399704,0,0,0
11590,386909.69216892566,2010-08-24 01:50:18,630.3205769976712,2,32,0.5501165986061096,3.78101658821106,34.25281807069236,34.112414299242495,135.93109905065833,125.35675824475796,3.237724376958795e-05,0.0842081755399704,0,0,0
11591,386939.707575394,2010-08-24 01:50:48,660.3359834761252,2,32,0.550297200679779,3.783768653869629,34.25740524450387,34.112414299242495,135.94844958131526,125.35675824475796,6.47544875391759e-05,0.0842081755399704,0,0,0
11592,386969.7227073032,2010-08-24 01:51:18,690.3511153802554,2,32,0.5501165986061096,3.786358833312988,34.26199191855488,34.112414299242495,135.96581028974234,125.35675824475796,6.47544875391759e-05,0.0842081755399704,0,0,0
11593,386999.73796502594,2010-08-24 01:51:48,720.3663731029644,2,32,0.550297200679779,3.7891108989715576,34.26657809870683,34.112414299242495,135.9831814539391,125.35675824475796,9.713172767078504e-05,0.0842081755399704,0,0,0
11594,387029.7535980489,2010-08-24 01:52:18,750.3820062613745,2,32,0.5499359965324402,3.791862964630127,34.271164317751385,34.112414299242495,136.00056559648897,125.35675824475796,6.47544875391759e-05,0.0842081755399704,0,0,0
11595,387059.7686728708,2010-08-24 01:52:48,780.3970809428884,2,32,0.5501165986061096,3.794776916503906,34.27575051104209,34.112414299242495,136.01796296897462,125.35675824475796,3.237724376958795e-05,0.0842081755399704,0,0,0
11596,387089.7837728554,2010-08-24 01:53:18,810.4121809174404,2,32,0.5501165986061096,3.7980146408081055,34.280337035588744,34.112414299242495,136.03537553085874,125.35675824475796,9.713172767078504e-05,0.0842081755399704,0,0,0
11597,387119.79903911945,2010-08-24 01:53:48,840.4274471764243,2,32,0.5501165986061096,3.8012523651123047,34.28492413976667,34.112414299242495,136.0528048811103,125.35675824475796,6.47544875391759e-05,0.0842081755399704,0,0,0
11598,387149.8143026215,2010-08-24 01:54:18,870.4427106885622,2,32,0.5499359965324402,3.804328203201294,34.289511249058464,34.112414299242495,136.07024912971417,125.35675824475796,3.237724376958795e-05,0.0842081755399704,0,0,0
11599,387179.8297085436,2010-08-24 01:54:48,900.4581166156421,2,32,0.5501165986061096,3.808051586151123,34.2940983623662,34.112414299242495,136.08770882346775,125.35675824475796,9.713172767078504e-05,0.0842081755399704,0,0,0
11600,387209.8448271596,2010-08-24 01:55:18,930.4732352366668,2,32,0.550297200679779,3.811451196670532,34.298685474250256,34.112414299242495,136.10518422819092,125.35675824475796,9.713172767078504e-05,0.0842081755399704,0,0,0
11601,387239.8601118045,2010-08-24 01:55:48,960.488519901524,2,32,0.550297200679779,3.814850807189941,34.30327248794452,34.112414299242495,136.12267515627138,125.35675824475796,6.47544875391759e-05,0.0842081755399704,0,0,0
11602,387269.8753604144,2010-08-24 01:56:18,990.503768511521,2,32,0.5501165986061096,3.818412303924561,34.30785945491763,34.112414299242495,136.14018177388184,125.35675824475796,0.0001295089750783,0.0842081755399704,0,0,0
11603,387299.8906386683,2010-08-24 01:56:48,1020.51904674535,2,32,0.5504778623580933,3.82165002822876,34.31244640612914,34.112414299242495,136.1577039116063,125.35675824475796,6.47544875391759e-05,0.0842081755399704,0,0,0
11604,387329.90589801,2010-08-24 01:57:18,1050.534306107144,2,32,0.550297200679779,3.825049638748169,34.317033353324994,34.112414299242495,136.17524129119667,125.35675824475796,9.713172767078504e-05,0.0842081755399704,0,0,0
11605,387359.9211761235,2010-08-24 01:57:48,1080.549584190598,2,32,0.550297200679779,3.828125476837158,34.321620454626064,34.112414299242495,136.19279426077256,125.35675824475796,6.47544875391759e-05,0.0842081755399704,0,0,0
11606,387389.9364353901,2010-08-24 01:58:18,1110.564843457155,2,32,0.550297200679779,3.831363201141357,34.32620748016962,34.112414299242495,136.21036166797063,125.35675824475796,6.47544875391759e-05,0.0842081755399704,0,0,0
11607,387419.95203958126,2010-08-24 01:58:48,1140.5804476884696,2,32,0.5501165986061096,3.834438800811768,34.33079460821266,34.112414299242495,136.22794385657804,125.35675824475796,9.713172767078504e-05,0.0842081755399704,0,0,0
11608,387449.9670350754,2010-08-24 01:59:18,1170.5954431475368,2,32,0.5501165986061096,3.837514638900757,34.335381583592046,34.112414299242495,136.245539755276,125.35675824475796,3.237724376958795e-05,0.0842081755399704,0,0,0
11609,387479.9822359264,2010-08-24 01:59:48,1200.6106440035164,2,32,0.5501165986061096,3.840428590774536,34.33996864872798,34.112414299242495,136.2631500555539,125.35675824475796,3.237724376958795e-05,0.0842081755399704,0,0,0
11610,387509.9975375686,2010-08-24 02:00:18,1230.6259456456862,2,32,0.5501165986061096,3.843504428863525,34.34455572617535,34.112414299242495,136.28077418020024,125.35675824475796,6.47544875391759e-05,0.0842081755399704,0,0,0
11611,387540.0129714905,2010-08-24 02:00:48,1260.6413795926,2,32,0.5501165986061096,3.8464183807373047,34.34914278076699,34.112414299242495,136.29841157415845,125.35675824475796,6.47544875391759e-05,0.0842081755399704,0,0,0
11612,387570.02804411686,2010-08-24 02:01:18,1290.656452178892,2,32,0.550297200679779,3.849332332611084,34.353729821737794,34.112414299242495,136.316061910074,125.35675824475796,9.713172767078504e-05,0.0842081755399704,0,0,0
11613,387600.042629163,2010-08-24 02:01:48,1320.6710372300963,2,32,0.5499359965324402,3.8517606258392334,34.35831447660857,34.112414299242495,136.333715429518,125.35675824475796,6.47544875391759e-05,0.0842081755399704,0,0,0
11614,387630.04299650935,2010-08-24 02:02:18,1350.6714045713932,2,32,0.550297200679779,3.8545126914978023,34.36290154635928,34.112414299242495,136.35138992757086,125.35675824475796,0.0001295089750783,0.0842081755399704,0,0,0
11615,387660.058260633,2010-08-24 02:02:48,1380.6866687050804,2,32,0.550297200679779,3.856617212295532,34.36748859945426,34.112414299242495,136.36907536316775,125.35675824475796,6.47544875391759e-05,0.0842081755399704,0,0,0
11616,387690.07349628565,2010-08-24 02:03:18,1410.701904357784,2,32,0.5501165986061096,3.8587217330932617,34.37207562456167,34.112414299242495,136.3867709213748,125.35675824475796,6.47544875391759e-05,0.0842081755399704,0,0,0
11617,387720.0887341339,2010-08-24 02:03:48,1440.7171422009471,2,32,0.5501165986061096,3.860988140106201,34.37666271145544,34.112414299242495,136.40447607457622,125.35675824475796,9.713172767078504e-05,0.0842081755399704,0,0,0
11618,387750.1040061623,2010-08-24 02:04:19,1470.7324142242976,2,32,0.5504778623580933,3.862768888473511,34.3812497878758,34.112414299242495,136.42218982962558,125.35675824475796,9.713172767078504e-05,0.0842081755399704,0,0,0
11619,387780.1197070445,2010-08-24 02:04:49,1500.7481151265465,2,32,0.550297200679779,3.8642258644104,34.38583691536941,34.112414299242495,136.43991166577257,125.35675824475796,6.47544875391759e-05,0.0842081755399704,0,0,0
11620,387810.1347244232,2010-08-24 02:05:19,1530.763132525294,2,32,0.5499359965324402,3.86568284034729,34.39042383527157,34.112414299242495,136.45763992904705,125.35675824475796,3.237724376958795e-05,0.0842081755399704,0,0,0
11621,387840.1498380218,2010-08-24 02:05:49,1560.7782460937258,2,32,0.5501165986061096,3.86713981628418,34.39501084302293,34.112414299242495,136.47537515685784,125.35675824475796,3.237724376958795e-05,0.0842081755399704,0,0,0
11622,387870.1651077393,2010-08-24 02:06:19,1590.7935158113296,2,32,0.5501165986061096,3.8684349060058594,34.399597776136744,34.112414299242495,136.49311628536947,125.35675824475796,3.237724376958795e-05,0.0842081755399704,0,0,0
11623,387900.1803659532,2010-08-24 02:06:49,1620.8087740302751,2,32,0.5501165986061096,3.869406223297119,34.404184781287775,34.112414299242495,136.51086337027257,125.35675824475796,0.0,0.0842081755399704,0,0,0
11624,387930.1956501218,2010-08-24 02:07:19,1650.824058193883,2,32,0.5501165986061096,3.870701313018799,34.408771791056026,34.112414299242495,136.52861589670115,125.35675824475796,0.0,0.0842081755399704,0,0,0
11625,387960.2109033082,2010-08-24 02:07:49,1680.8393113852987,2,32,0.5501165986061096,3.8719964027404794,34.413358769878855,34.112414299242495,136.54637338852493,125.35675824475796,9.713172767078504e-05,0.0842081755399704,0,0,0
11626,387990.2261719231,2010-08-24 02:08:19,1710.854580000154,2,32,0.5501165986061096,3.8729677200317374,34.41794576476331,34.112414299242495,136.56413591315393,125.35675824475796,3.237724376958795e-05,0.0842081755399704,0,0,0
11627,388020.2420571848,2010-08-24 02:08:49,1740.8704652769209,2,32,0.5501165986061096,3.873939037322998,34.42253300311722,34.112414299242495,136.58190416985545,125.35675824475796,3.237724376958795e-05,0.0842081755399704,0,0,0
11628,388050.2568466203,2010-08-24 02:09:19,1770.8852546974767,2,32,0.5499359965324402,3.874748468399048,34.42711995690701,34.112414299242495,136.5996757368994,125.35675824475796,-3.237724376958795e-05,0.0842081755399704,0,0,0
11629,388080.27197487553,2010-08-24 02:09:49,1800.9003829474998,2,32,0.550297200679779,3.8758816719055176,34.43170693646084,34.112414299242495,136.61745201013102,125.35675824475796,3.237724376958795e-05,0.0842081755399704,0,0,0
11630,388110.2872480317,2010-08-24 02:10:19,1830.9156561086863,2,32,0.5501165986061096,3.876691102981568,34.436293909256264,34.112414299242495,136.63523273678376,125.35675824475796,0.0,0.0842081755399704,0,0,0
11631,388140.3025071829,2010-08-24 02:10:49,1860.930915254943,2,32,0.550297200679779,3.877824306488037,34.44088094183603,34.112414299242495,136.65301806994486,125.35675824475796,3.237724376958795e-05,0.0842081755399704,0,0,0
11632,388170.317793938,2010-08-24 02:11:19,1890.946202015022,2,32,0.5501165986061096,3.878795623779297,34.44546792025615,34.112414299242495,136.6708075575191,125.35675824475796,3.237724376958795e-05,0.0842081755399704,0,0,0
11633,388200.33305007673,2010-08-24 02:11:49,1920.9614581487708,2,32,0.5501165986061096,3.8797669410705566,34.450054964988986,34.112414299242495,136.68860161806847,125.35675824475796,6.47544875391759e-05,0.0842081755399704,0,0,0
11634,388230.3483473832,2010-08-24 02:12:19,1950.9767554801967,2,32,0.5501165986061096,3.8805763721466064,34.454642022182625,34.112414299242495,136.706400066258,125.35675824475796,3.237724376958795e-05,0.0842081755399704,0,0,0
11635,388260.3635895119,2010-08-24 02:12:49,1980.991997594004,2,32,0.5501165986061096,3.881547689437866,34.45922906157988,34.112414299242495,136.72420277555082,125.35675824475796,3.237724376958795e-05,0.0842081755399704,0,0,0
11636,388290.3788592094,2010-08-24 02:13:19,2011.007267286545,2,32,0.550297200679779,3.882519006729126,34.46381608821304,34.112414299242495,136.7420097469865,125.35675824475796,3.237724376958795e-05,0.0842081755399704,0,0,0
11637,388320.3941154735,2010-08-24 02:13:49,2041.022523555631,2,32,0.5501165986061096,3.8834903240203857,34.46840312480893,34.112414299242495,136.75982110162434,125.35675824475796,3.237724376958795e-05,0.0842081755399704,0,0,0
11638,388350.4093966848,2010-08-24 02:14:19,2071.037804756856,2,32,0.5501165986061096,3.884299755096436,34.47299021333804,34.112414299242495,136.7776370593726,125.35675824475796,0.0,0.0842081755399704,0,0,0
11639,388380.42466285353,2010-08-24 02:14:49,2101.053070925615,2,32,0.5501165986061096,3.885432958602905,34.477577274539186,34.112414299242495,136.79545715053266,125.35675824475796,3.237724376958795e-05,0.0842081755399704,0,0,0
11640,388410.43993579416,2010-08-24 02:15:19,2131.068343866252,2,32,0.5501165986061096,3.886404275894165,34.482164277046394,34.112414299242495,136.81328147549857,125.35675824475796,6.47544875391759e-05,0.0842081755399704,0,0,0
11641,388440.4553424732,2010-08-24 02:15:49,2161.08375055523,2,32,0.5501165986061096,3.887213706970215,34.48675134570777,34.112414299242495,136.8311105007597,125.35675824475796,3.237724376958795e-05,0.0842081755399704,0,0,0
11642,388470.470460237,2010-08-24 02:16:19,2191.0988683090936,2,32,0.5501165986061096,3.8881850242614746,34.49133830732517,34.112414299242495,136.8489435648475,125.35675824475796,0.0,0.0842081755399704,0,0,0
11643,388500.485854104,2010-08-24 02:16:49,2221.114262176116,2,32,0.5501165986061096,3.8891563415527344,34.49592539972196,34.112414299242495,136.86678175147622,125.35675824475796,3.237724376958795e-05,0.0842081755399704,0,0,0
11644,388530.5011973751,2010-08-24 02:17:19,2251.129605507187,2,32,0.5501165986061096,3.890127658843994,34.50051241935778,34.112414299242495,136.88462410858327,125.35675824475796,0.0,0.0842081755399704,0,0,0
11645,388560.5162839562,2010-08-24 02:17:49,2281.1446920282087,2,32,0.5501165986061096,3.891260862350464,34.50509938409644,34.112414299242495,136.90247089646277,125.35675824475796,0.0,0.0842081755399704,0,0,0
11646,388590.53157480137,2010-08-24 02:18:19,2311.159982878482,2,32,0.5501165986061096,3.892232179641724,34.50968638796526,34.112414299242495,136.92032253513955,125.35675824475796,3.237724376958795e-05,0.0842081755399704,0,0,0
11647,388620.5468535165,2010-08-24 02:18:49,2341.175261588497,2,32,0.5501165986061096,3.893365383148194,34.51427350455093,34.112414299242495,136.938179388572,125.35675824475796,3.237724376958795e-05,0.0842081755399704,0,0,0
11648,388650.5622686666,2010-08-24 02:19:19,2371.190676748589,2,32,0.5501165986061096,3.894336700439453,34.518860591195995,34.112414299242495,136.9560409767077,125.35675824475796,0.0,0.0842081755399704,0,0,0
11649,388680.5773752726,2010-08-24 02:19:49,2401.205783349656,2,32,0.550297200679779,3.895308017730713,34.52344760462133,34.112414299242495,136.97390669497443,125.35675824475796,6.47544875391759e-05,0.0842081755399704,0,0,0
11650,388710.5926331857,2010-08-24 02:20:19,2431.2210412678523,2,32,0.550297200679779,3.896441221237183,34.52803460685895,34.112414299242495,136.99177732271394,125.35675824475796,0.0,0.0842081755399704,0,0,0
11651,388740.60790342966,2010-08-24 02:20:49,2461.236311506755,2,32,0.5501165986061096,3.8977363109588623,34.53262160570039,34.112414299242495,137.00965295667228,125.35675824475796,6.47544875391759e-05,0.0842081755399704,0,0,0
11652,388770.6231843001,2010-08-24 02:21:19,2491.2515923721426,2,32,0.5501165986061096,3.898707628250122,34.53720866745886,34.112414299242495,137.02753391016037,125.35675824475796,6.47544875391759e-05,0.0842081755399704,0,0,0
11653,388800.6384380679,2010-08-24 02:21:49,2521.266846139995,2,32,0.5499359965324402,3.899840831756592,34.541795704239746,34.112414299242495,137.04541992869258,125.35675824475796,3.237724376958795e-05,0.0842081755399704,0,0,0
11654,388830.6538257145,2010-08-24 02:22:19,2551.2822337915263,2,32,0.550297200679779,3.9009740352630615,34.54638280731596,34.112414299242495,137.0633112848949,125.35675824475796,0.0,0.0842081755399704,0,0,0
11655,388860.6689878339,2010-08-24 02:22:49,2581.2973959310125,2,32,0.5501165986061096,3.9021072387695312,34.55096988526874,34.112414299242495,137.08120785934514,125.35675824475796,3.237724376958795e-05,0.0842081755399704,0,0,0
11656,388890.6842538573,2010-08-24 02:23:19,2611.3126619343598,2,32,0.550297200679779,3.903402328491211,34.55555700773232,34.112414299242495,137.09910994336502,125.35675824475796,6.47544875391759e-05,0.0842081755399704,0,0,0
11657,388920.6996351179,2010-08-24 02:23:49,2641.328043199976,2,32,0.550297200679779,3.9045355319976807,34.56014409499185,34.112414299242495,137.1170172870995,125.35675824475796,3.237724376958795e-05,0.0842081755399704,0,0,0
11658,388950.71479712205,2010-08-24 02:24:19,2671.343205199112,2,32,0.5501165986061096,3.9056687355041504,34.56473111170189,34.112414299242495,137.1349297424126,125.35675824475796,6.47544875391759e-05,0.0842081755399704,0,0,0
11659,388980.7302037909,2010-08-24 02:24:49,2701.358611903128,2,32,0.5501165986061096,3.90680193901062,34.56931819082727,34.112414299242495,137.15284798407183,125.35675824475796,0.0,0.0842081755399704,0,0,0
11660,389010.7454553182,2010-08-24 02:25:19,2731.373863400321,2,32,0.5501165986061096,3.9080970287323,34.573905226240285,34.112414299242495,137.17077170376544,125.35675824475796,3.237724376958795e-05,0.0842081755399704,0,0,0
11661,389040.7605903201,2010-08-24 02:25:49,2761.3889983921467,2,32,0.550297200679779,3.90939211845398,34.578492247775564,34.112414299242495,137.18870098104117,125.35675824475796,6.47544875391759e-05,0.0842081755399704,0,0,0
11662,389070.7758746992,2010-08-24 02:26:19,2791.404282796354,2,32,0.5501165986061096,3.910525321960449,34.58307927348506,34.112414299242495,137.20663605318546,125.35675824475796,3.237724376958795e-05,0.0842081755399704,0,0,0
11663,389100.7911186576,2010-08-24 02:26:49,2821.419526734708,2,32,0.5499359965324402,3.911820411682129,34.58766557081694,34.112414299242495,137.224573931522,125.35675824475796,3.237724376958795e-05,0.0842081755399704,0,0,0
11664,389130.80640167336,2010-08-24 02:27:19,2851.434809750455,2,32,0.5499359965324402,3.9131155014038086,34.592251770669144,34.112414299242495,137.24251734276044,125.35675824475796,3.237724376958795e-05,0.0842081755399704,0,0,0
11665,389160.8218092947,2010-08-24 02:27:49,2881.45021737677,2,32,0.5501165986061096,3.914572238922119,34.596838778348975,34.112414299242495,137.26047002409757,125.35675824475796,6.47544875391759e-05,0.0842081755399704,0,0,0
11666,389190.8369606172,2010-08-24 02:28:19,2911.465368689272,2,32,0.5501165986061096,3.915705442428589,34.60142584071697,34.112414299242495,137.27842898507245,125.35675824475796,3.237724376958795e-05,0.0842081755399704,0,0,0
11667,389220.85234796297,2010-08-24 02:28:49,2941.4807560450663,2,32,0.5501165986061096,3.9171624183654794,34.606012874466806,34.112414299242495,137.29639383675524,125.35675824475796,6.47544875391759e-05,0.0842081755399704,0,0,0
11668,389250.8675078068,2010-08-24 02:29:19,2971.4959159088803,2,32,0.5501165986061096,3.918457508087158,34.610599886966675,34.112414299242495,137.31436482836668,125.35675824475796,3.237724376958795e-05,0.0842081755399704,0,0,0
11669,389280.8827772537,2010-08-24 02:29:49,3001.511185350797,2,32,0.550297200679779,3.920076370239258,34.615186893617654,34.112414299242495,137.33234203076893,125.35675824475796,9.713172767078504e-05,0.0842081755399704,0,0,0
11670,389310.8980327659,2010-08-24 02:30:19,3031.5264408379344,2,32,0.550297200679779,3.9213714599609375,34.61977391153255,34.112414299242495,137.35032557657783,125.35675824475796,9.713172767078504e-05,0.0842081755399704,0,0,0
11671,389340.91334025766,2010-08-24 02:30:49,3061.5417483296837,2,32,0.550297200679779,3.922666549682617,34.624360933471564,34.112414299242495,137.3683154800793,125.35675824475796,3.237724376958795e-05,0.0842081755399704,0,0,0
11672,389370.9285915192,2010-08-24 02:31:19,3091.556999596301,2,32,0.5501165986061096,3.923961639404297,34.628947922107635,34.112414299242495,137.38631166936867,125.35675824475796,3.237724376958795e-05,0.0842081755399704,0,0,0
11673,389400.9438851916,2010-08-24 02:31:49,3121.572293268608,2,32,0.5501165986061096,3.9254186153411865,34.633534947749666,34.112414299242495,137.40431455479194,125.35675824475796,3.237724376958795e-05,0.0842081755399704,0,0,0
11674,389430.9591196512,2010-08-24 02:32:19,3151.587527728338,2,32,0.550297200679779,3.926875591278076,34.638121942179346,34.112414299242495,137.4223237334697,125.35675824475796,0.0,0.0842081755399704,0,0,0
11675,389460.974379359,2010-08-24 02:32:49,3181.6027874359943,2,32,0.5501165986061096,3.928332567214966,34.64270894053355,34.112414299242495,137.44033953283832,125.35675824475796,6.47544875391759e-05,0.0842081755399704,0,0,0
11676,389490.9898894506,2010-08-24 02:33:19,3211.6182975427214,2,32,0.550297200679779,3.929789543151856,34.64729598543003,34.112414299242495,137.4583621638438,125.35675824475796,3.237724376958795e-05,0.0842081755399704,0,0,0
11677,389521.0049121476,2010-08-24 02:33:49,3241.633320224637,2,32,0.5501165986061096,3.931246519088745,34.651882950879006,34.112414299242495,137.47639121844713,125.35675824475796,6.47544875391759e-05,0.0842081755399704,0,0,0
11678,389551.0203080196,2010-08-24 02:34:19,3271.648716091644,2,32,0.5501165986061096,3.9328653812408447,34.65646999752551,34.112414299242495,137.49442734076126,125.35675824475796,6.47544875391759e-05,0.0842081755399704,0,0,0
11679,389581.03546076064,2010-08-24 02:34:49,3301.6638688327066,2,32,0.5501165986061096,3.934160470962525,34.66105701696853,34.112414299242495,137.51247024719558,125.35675824475796,3.237724376958795e-05,0.0842081755399704,0,0,0
11680,389611.05088789057,2010-08-24 02:35:19,3331.67929596263,2,32,0.5501165986061096,3.935779333114624,34.66564410844203,34.112414299242495,137.5305203938202,125.35675824475796,3.237724376958795e-05,0.0842081755399704,0,0,0
11681,389641.06612676126,2010-08-24 02:35:49,3361.6945348383665,2,32,0.5501165986061096,3.937398195266724,34.67023119364032,34.112414299242495,137.5485774362752,125.35675824475796,3.237724376958795e-05,0.0842081755399704,0,0,0
11682,389671.08126032446,2010-08-24 02:36:20,3391.7096683966192,2,32,0.5501165986061096,3.938855171203613,34.67481823141429,34.112414299242495,137.56664144979254,125.35675824475796,3.237724376958795e-05,0.0842081755399704,0,0,0
11683,389701.0969476931,2010-08-24 02:36:50,3421.7253557952126,2,32,0.550297200679779,3.940635919570923,34.679405398179696,34.112414299242495,137.58471315397796,125.35675824475796,9.713172767078504e-05,0.0842081755399704,0,0,0
11684,389731.11194334266,2010-08-24 02:37:20,3451.740351439742,2,32,0.5501165986061096,3.942092895507813,34.6839924518308,34.112414299242495,137.60279171150367,125.35675824475796,6.47544875391759e-05,0.0842081755399704,0,0,0
11685,389761.1270637181,2010-08-24 02:37:50,3481.755471820152,2,32,0.550297200679779,3.943711757659912,34.68857938061659,34.112414299242495,137.62087715048855,125.35675824475796,6.47544875391759e-05,0.0842081755399704,0,0,0
11686,389791.14233439305,2010-08-24 02:38:20,3511.770742490129,2,32,0.5501165986061096,3.9451687335968018,34.69316640936193,34.112414299242495,137.63897049652428,125.35675824475796,0.0,0.0842081755399704,0,0,0
11687,389821.1576092284,2010-08-24 02:38:50,3541.7860172904007,2,32,0.550297200679779,3.9469494819641113,34.697753467415964,34.112414299242495,137.65707162841838,125.35675824475796,3.237724376958795e-05,0.0842081755399704,0,0,0
11688,389851.1728924445,2010-08-24 02:39:20,3571.8013005166727,2,32,0.5501165986061096,3.948568344116211,34.70234047156558,34.112414299242495,137.67518024996102,125.35675824475796,3.237724376958795e-05,0.0842081755399704,0,0,0
11689,389881.1881967133,2010-08-24 02:39:50,3601.816604790401,2,32,0.5501165986061096,3.950349092483521,34.70692748687731,34.112414299242495,137.69329678725086,125.35675824475796,3.237724376958795e-05,0.0842081755399704,0,0,0
11690,389911.20355382375,2010-08-24 02:40:20,3631.831961915852,2,32,0.5501165986061096,3.95212984085083,34.711514507256574,34.112414299242495,137.71142137621044,125.35675824475796,3.237724376958795e-05,0.0842081755399704,0,0,0
11691,389941.2186819535,2010-08-24 02:40:50,3661.8470900255247,2,32,0.5501165986061096,3.9537487030029297,34.71610153815734,34.112414299242495,137.7295541282578,125.35675824475796,0.0,0.0842081755399704,0,0,0
11692,389971.2340944619,2010-08-24 02:41:20,3691.8625025289953,2,32,0.5501165986061096,3.955853223800659,34.720688615911875,34.112414299242495,137.74769529774906,125.35675824475796,6.47544875391759e-05,0.0842081755399704,0,0,0
11693,390001.2492226017,2010-08-24 02:41:50,3721.877630663731,2,32,0.5501165986061096,3.9576339721679688,34.725275699678726,34.112414299242495,137.76584474433795,125.35675824475796,6.47544875391759e-05,0.0842081755399704,0,0,0
11694,390031.2646180576,2010-08-24 02:42:20,3751.893026134752,2,32,0.5501165986061096,3.9594147205352783,34.72986274797625,34.112414299242495,137.7840024745843,125.35675824475796,3.237724376958795e-05,0.0842081755399704,0,0,0
11695,390061.2797764177,2010-08-24 02:42:50,3781.9081844898046,2,32,0.5501165986061096,3.961357355117798,34.734449697686394,34.112414299242495,137.80216830968862,125.35675824475796,6.47544875391759e-05,0.0842081755399704,0,0,0
11696,390091.2950421304,2010-08-24 02:43:20,3811.923450202428,2,32,0.5501165986061096,3.9631381034851074,34.7390367885238,34.112414299242495,137.82034331312113,125.35675824475796,6.47544875391759e-05,0.0842081755399704,0,0,0
11697,390121.3104702879,2010-08-24 02:43:50,3841.938878400013,2,32,0.550297200679779,3.965080738067627,34.74362378276415,34.112414299242495,137.83852655610627,125.35675824475796,6.47544875391759e-05,0.0842081755399704,0,0,0
11698,390151.32557117473,2010-08-24 02:44:20,3871.9539792367136,2,32,0.5499359965324402,3.966861486434937,34.74821082723776,34.112414299242495,137.85671872668075,125.35675824475796,3.237724376958795e-05,0.0842081755399704,0,0,0
11699,390181.3408465263,2010-08-24 02:44:50,3901.9692545833454,2,32,0.5501165986061096,3.968804121017456,34.75279793770209,34.112414299242495,137.8749198352784,125.35675824475796,6.47544875391759e-05,0.0842081755399704,0,0,0
11700,390211.3561647197,2010-08-24 02:45:20,3931.984572796816,2,32,0.5501165986061096,3.970746755599976,34.75738503030521,34.112414299242495,137.8931296782341,125.35675824475796,3.237724376958795e-05,0.0842081755399704,0,0,0
11701,390241.3714207734,2010-08-24 02:45:50,3961.999828860391,2,32,0.550297200679779,3.972689390182495,34.76197202733248,34.112414299242495,137.9113480342831,125.35675824475796,6.47544875391759e-05,0.0842081755399704,0,0,0
11702,390271.3867977482,2010-08-24 02:46:20,3992.0152058202752,2,32,0.5501165986061096,3.974632024765015,34.76655913014627,34.112414299242495,137.92957567122684,125.35675824475796,6.47544875391759e-05,0.0842081755399704,0,0,0
11703,390301.40194117103,2010-08-24 02:46:50,4022.0303492330886,2,32,0.5501165986061096,3.976574659347534,34.77114613887192,34.112414299242495,137.94781188008722,125.35675824475796,3.237724376958795e-05,0.0842081755399704,0,0,0
11704,390331.4173734488,2010-08-24 02:47:20,4052.045781540917,2,32,0.5501165986061096,3.9785172939300537,34.7757332623178,34.112414299242495,137.966057177442,125.35675824475796,0.0001295089750783,0.0842081755399704,0,0,0
11705,390361.43258817936,2010-08-24 02:47:50,4082.060996246415,2,32,0.5501165986061096,3.980621814727783,34.78032018079193,34.112414299242495,137.98431112388658,125.35675824475796,6.47544875391759e-05,0.0842081755399704,0,0,0
11706,390391.447728324,2010-08-24 02:48:20,4112.07613642617,2,32,0.5501165986061096,3.982564449310303,34.78490720227655,34.112414299242495,138.00257460749083,125.35675824475796,3.237724376958795e-05,0.0842081755399704,0,0,0
11707,390421.4630127433,2010-08-24 02:48:50,4142.091420825364,2,32,0.5504778623580933,3.984668970108032,34.789494155185125,34.112414299242495,138.02084691537414,125.35675824475796,9.713172767078504e-05,0.0842081755399704,0,0,0
11708,390451.47852019337,2010-08-24 02:49:20,4172.106928295521,2,32,0.5499359965324402,3.986611604690552,34.794081147765645,34.112414299242495,138.03912862207343,125.35675824475796,6.47544875391759e-05,0.0842081755399704,0,0,0
11709,390481.49356926605,2010-08-24 02:49:50,4202.121977343148,2,32,0.5501165986061096,3.988392353057861,34.79866806158967,34.112414299242495,138.05741926271662,125.35675824475796,3.237724376958795e-05,0.0842081755399704,0,0,0
11710,390511.5089893835,2010-08-24 02:50:20,4232.137397465606,2,32,0.550297200679779,3.9908206462860103,34.80325510009094,34.112414299242495,138.07571976935515,125.35675824475796,9.713172767078504e-05,0.0842081755399704,0,0,0
11711,390541.5240586215,2010-08-24 02:50:50,4262.152466703554,2,32,0.5501165986061096,3.9927632808685294,34.80784203020644,34.112414299242495,138.09402925188402,125.35675824475796,9.713172767078504e-05,0.0842081755399704,0,0,0
11712,390571.53939714056,2010-08-24 02:51:20,4292.167805242681,2,32,0.5501165986061096,3.994705677032471,34.81242896644594,34.112414299242495,138.11234826858612,125.35675824475796,3.237724376958795e-05,0.0842081755399704,0,0,0
11713,390601.5546626377,2010-08-24 02:51:50,4322.183070734754,2,32,0.5501165986061096,3.9968101978302,34.81701589711199,34.112414299242495,138.1306769101176,125.35675824475796,3.237724376958795e-05,0.0842081755399704,0,0,0
11714,390631.5698996487,2010-08-24 02:52:20,4352.198307745844,2,32,0.5499359965324402,3.99907660484314,34.82160284127731,34.112414299242495,138.14901526396957,125.35675824475796,9.713172767078504e-05,0.0842081755399704,0,0,0
11715,390661.5851655819,2010-08-24 02:52:50,4382.213573679015,2,32,0.5501165986061096,4.001181125640869,34.82618970634051,34.112414299242495,138.16736311326508,125.35675824475796,3.23295607813634e-05,0.0842081755399704,0,0,0
11716,390691.6004508783,2010-08-24 02:53:20,4412.228858950384,2,32,0.5501165986061096,4.003285884857178,34.83077671470166,34.112414299242495,138.18572148756994,125.35675824475796,6.47544875391759e-05,0.0842081755399704,0,0,0
11717,390721.61570440046,2010-08-24 02:53:50,4442.244112502699,2,32,0.550297200679779,4.005552291870117,34.83536366517691,34.112414299242495,138.2040895930551,125.35675824475796,6.47544875391759e-05,0.0842081755399704,0,0,0
11718,390751.6311328287,2010-08-24 02:54:20,4472.259540910808,2,32,0.550297200679779,4.007818698883057,34.83995066491175,34.112414299242495,138.22246805111675,125.35675824475796,6.47544875391759e-05,0.0842081755399704,0,0,0
11719,390781.64624144987,2010-08-24 02:54:50,4502.2746495268975,2,32,0.5501165986061096,4.009922981262207,34.84453767084135,34.112414299242495,138.24085668523907,125.35675824475796,3.23295607813634e-05,0.0842081755399704,0,0,0
11720,390811.66165549215,2010-08-24 02:55:20,4532.290063564191,2,32,0.5501165986061096,4.0121893882751465,34.849124687793186,34.112414299242495,138.25925566607526,125.35675824475796,6.47544875391759e-05,0.0842081755399704,0,0,0
11721,390841.676791321,2010-08-24 02:55:50,4562.305199393103,2,32,0.5501165986061096,4.014455795288086,34.8537116522168,34.112414299242495,138.27766487642333,125.35675824475796,3.23295607813634e-05,0.0842081755399704,0,0,0
11722,390871.6920791288,2010-08-24 02:56:20,4592.32048725593,2,32,0.550297200679779,4.016884326934815,34.85829862011529,34.112414299242495,138.29608459478698,125.35675824475796,6.47544875391759e-05,0.0842081755399704,0,0,0
11723,390901.7073303402,2010-08-24 02:56:50,4622.335738417287,2,32,0.5499359965324402,4.018988609313965,34.86288564781852,34.112414299242495,138.31451521835396,125.35675824475796,3.23295607813634e-05,0.0842081755399704,0,0,0
11724,390931.722746573,2010-08-24 02:57:20,4652.351154645039,2,32,0.5501165986061096,4.021417140960693,34.867472683515984,34.112414299242495,138.33295650884065,125.35675824475796,3.24249267578125e-05,0.0842081755399704,0,0,0
11725,390961.7378858104,2010-08-24 02:57:50,4682.366293887458,2,32,0.5499359965324402,4.023683547973633,34.87205961778267,34.112414299242495,138.35140823821274,125.35675824475796,3.24249267578125e-05,0.0842081755399704,0,0,0
11726,390991.7531496633,2010-08-24 02:58:20,4712.381557740445,2,32,0.550297200679779,4.026435375213623,34.87664660397793,34.112414299242495,138.36987112420525,125.35675824475796,9.70840483205393e-05,0.0842081755399704,0,0,0
11727,391021.76841268427,2010-08-24 02:58:50,4742.396820756347,2,32,0.5501165986061096,4.0287017822265625,34.88123354547471,34.112414299242495,138.38834485688636,125.35675824475796,6.47544875391759e-05,0.0842081755399704,0,0,0
11728,391051.78369969496,2010-08-24 02:59:20,4772.412107772063,2,32,0.5501165986061096,4.031291961669922,34.88582054593464,34.112414299242495,138.40682993741615,125.35675824475796,0.0001295089750783,0.0842081755399704,0,0,0
11729,391081.7989596132,2010-08-24 02:59:50,4802.427367685231,2,32,0.5501165986061096,4.033558368682861,34.89040751084695,34.112414299242495,138.42532611411622,125.35675824475796,6.47544875391759e-05,0.0842081755399704,0,0,0
11730,391111.8142349598,2010-08-24 03:00:20,4832.4426430318645,2,32,0.5501165986061096,4.035824775695801,34.894994498645694,34.112414299242495,138.4438337578805,125.35675824475796,3.24249267578125e-05,0.0842081755399704,0,0,0
11731,391141.8295036699,2010-08-24 03:00:50,4862.457911741957,2,32,0.5501165986061096,4.038576602935791,34.8995814520447,34.112414299242495,138.462352680173,125.35675824475796,6.47544875391759e-05,0.0842081755399704,0,0,0
11732,391171.8447998234,2010-08-24 03:01:20,4892.473207930534,2,32,0.5499359965324402,4.04100513458252,34.904168515317274,34.112414299242495,138.4808836106974,125.35675824475796,3.24249267578125e-05,0.0842081755399704,0,0,0
11733,391201.8600467893,2010-08-24 03:01:50,4922.4884548914215,2,32,0.5501165986061096,4.043595314025879,34.908755457038055,34.112414299242495,138.4994256819865,125.35675824475796,6.47544875391759e-05,0.0842081755399704,0,0,0
11734,391231.87546537793,2010-08-24 03:02:20,4952.503873480058,2,32,0.5501165986061096,4.046185493469238,34.91334246626671,34.112414299242495,138.51797983957616,125.35675824475796,3.24249267578125e-05,0.0842081755399704,0,0,0
11735,391261.8905682897,2010-08-24 03:02:50,4982.518976391931,2,32,0.5501165986061096,4.0489373207092285,34.91792953558995,34.112414299242495,138.5365461821344,125.35675824475796,6.47544875391759e-05,0.0842081755399704,0,0,0
11736,391291.9058662829,2010-08-24 03:03:20,5012.534274379993,2,32,0.5501165986061096,4.051365852355957,34.92251665567967,34.112414299242495,138.55512469622764,125.35675824475796,6.47544875391759e-05,0.0842081755399704,0,0,0
11737,391321.9211668624,2010-08-24 03:03:50,5042.549574939464,2,32,0.550297200679779,4.054117679595947,34.927103776542126,34.112414299242495,138.57371535771645,125.35675824475796,9.70840483205393e-05,0.0842081755399704,0,0,0
11738,391351.9363937282,2010-08-24 03:04:20,5072.564801825319,2,32,0.5501165986061096,4.056869983673096,34.93169091474812,34.112414299242495,138.59231831996803,125.35675824475796,9.71794142969884e-05,0.0842081755399704,0,0,0
11739,391381.9516925784,2010-08-24 03:04:50,5102.580100650467,2,32,0.5501165986061096,4.059460163116455,34.936278060020086,34.112414299242495,138.61093366320634,125.35675824475796,6.47544875391759e-05,0.0842081755399704,0,0,0
11740,391411.9671555777,2010-08-24 03:05:20,5132.595563679864,2,32,0.550297200679779,4.062211990356445,34.94086529247104,34.112414299242495,138.6295615702544,125.35675824475796,6.47544875391759e-05,0.0842081755399704,0,0,0
11741,391441.9822055528,2010-08-24 03:05:50,5162.610613624726,2,32,0.550297200679779,4.064964294433594,34.94545234642454,34.112414299242495,138.64820129723287,125.35675824475796,9.71794142969884e-05,0.0842081755399704,0,0,0
11742,391471.99760526425,2010-08-24 03:06:20,5192.626013341327,2,32,0.5501165986061096,4.067716121673584,34.950039542917466,34.112414299242495,138.6668543079277,125.35675824475796,9.70840483205393e-05,0.0842081755399704,0,0,0
11743,391502.0127737346,2010-08-24 03:06:50,5222.641181806579,2,32,0.550297200679779,4.070630073547363,34.95462667843837,34.112414299242495,138.68551989202686,125.35675824475796,6.47544875391759e-05,0.0842081755399704,0,0,0
11744,391532.0280415575,2010-08-24 03:07:20,5252.656449634474,2,32,0.550297200679779,4.073544025421143,34.959213815795835,34.112414299242495,138.70419838134734,125.35675824475796,9.70840483205393e-05,0.0842081755399704,0,0,0
11745,391562.0434386375,2010-08-24 03:07:50,5282.671846714504,2,32,0.550297200679779,4.076296329498291,34.96380091650413,34.112414299242495,138.72288979241557,125.35675824475796,0.0001295089750783,0.0842081755399704,0,0,0
11746,391592.0586089423,2010-08-24 03:08:21,5312.687017014328,2,32,0.5501165986061096,4.079048156738281,34.96838799516606,34.112414299242495,138.7415942486783,125.35675824475796,6.47544875391759e-05,0.0842081755399704,0,0,0
11747,391622.07412020187,2010-08-24 03:08:51,5342.702528278941,2,32,0.5501165986061096,4.0819621086120605,34.97297517829409,34.112414299242495,138.76031245026934,125.35675824475796,9.70840483205393e-05,0.0842081755399704,0,0,0
11748,391652.0892443918,2010-08-24 03:09:21,5372.717652463833,2,32,0.5501165986061096,4.08487606048584,34.97756228189216,34.112414299242495,138.77904375126107,125.35675824475796,6.47544875391759e-05,0.0842081755399704,0,0,0
11749,391682.1043746568,2010-08-24 03:09:51,5402.732782728878,2,32,0.5499359965324402,4.087790012359619,34.982149369245086,34.112414299242495,138.79778855309212,125.35675824475796,3.23295607813634e-05,0.0842081755399704,0,0,0
11750,391712.1197761378,2010-08-24 03:10:21,5432.748184219901,2,32,0.5501165986061096,4.090866088867188,34.98673648272732,34.112414299242495,138.816547145503,125.35675824475796,6.47544875391759e-05,0.0842081755399704,0,0,0
11751,391742.1349268288,2010-08-24 03:10:51,5462.76333490083,2,32,0.550297200679779,4.093941688537598,34.9913236120027,34.112414299242495,138.83531954117288,125.35675824475796,6.47544875391759e-05,0.0842081755399704,0,0,0
11752,391772.1502131026,2010-08-24 03:11:21,5492.778621174697,2,32,0.550297200679779,4.097017765045166,34.99591075922272,34.112414299242495,138.85410592943242,125.35675824475796,9.71794142969884e-05,0.0842081755399704,0,0,0
11753,391802.1654846047,2010-08-24 03:11:51,5522.793892696798,2,32,0.5501165986061096,4.100093364715576,35.00049789569565,34.112414299242495,138.87290631597867,125.35675824475796,9.70840483205393e-05,0.0842081755399704,0,0,0
11754,391832.1807361971,2010-08-24 03:12:21,5552.809144274191,2,32,0.550297200679779,4.1031694412231445,35.005085067839154,34.112414299242495,138.89172102206385,125.35675824475796,9.71794142969884e-05,0.0842081755399704,0,0,0
11755,391862.19601066655,2010-08-24 03:12:51,5582.824418738626,2,32,0.5499359965324402,4.106083393096924,35.00967216081167,34.112414299242495,138.91054967814588,125.35675824475796,3.24249267578125e-05,0.0842081755399704,0,0,0
11756,391892.2114172954,2010-08-24 03:13:21,5612.839825367454,2,32,0.550297200679779,4.109321117401123,35.01425930492609,34.112414299242495,138.9293929637711,125.35675824475796,6.47544875391759e-05,0.0842081755399704,0,0,0
11757,391922.2265515153,2010-08-24 03:13:51,5642.854959592369,2,32,0.5501165986061096,4.112558841705322,35.018846406203025,34.112414299242495,138.94825064289577,125.35675824475796,9.71794142969884e-05,0.0842081755399704,0,0,0
11758,391952.2418254785,2010-08-24 03:14:21,5672.870233550541,2,32,0.5501165986061096,4.115796089172363,35.02343351937283,34.112414299242495,138.96712302055633,125.35675824475796,3.23295607813634e-05,0.0842081755399704,0,0,0
11759,391982.2570929756,2010-08-24 03:14:51,5702.885501047611,2,32,0.550297200679779,4.119195938110352,35.02802062731846,34.112414299242495,138.98601018012292,125.35675824475796,0.0001295089750783,0.0842081755399704,0,0,0
11760,392012.2724297954,2010-08-24 03:15:21,5732.900837892516,2,32,0.550297200679779,4.122433662414551,35.03260776202918,34.112414299242495,139.00491242886068,125.35675824475796,9.71794142969884e-05,0.0842081755399704,0,0,0
11761,392042.2875961955,2010-08-24 03:15:51,5762.916004267559,2,32,0.550297200679779,4.12567138671875,35.03719486476834,34.112414299242495,139.02382951375097,125.35675824475796,9.71794142969884e-05,0.0842081755399704,0,0,0
11762,392072.30288598815,2010-08-24 03:16:21,5792.931294085259,2,32,0.550297200679779,4.12907075881958,35.041781982937,34.112414299242495,139.04276187732225,125.35675824475796,0.0001295089750783,0.0842081755399704,0,0,0
11763,392102.3182861208,2010-08-24 03:16:51,5822.94669420286,2,32,0.5501165986061096,4.132146835327148,35.04636910983432,34.112414299242495,139.0617095711584,125.35675824475796,6.47544875391759e-05,0.0842081755399704,0,0,0
11764,392132.3334375034,2010-08-24 03:17:21,5852.961845600574,2,32,0.5501165986061096,4.1355462074279785,35.0509561779832,34.112414299242495,139.08067245865234,125.35675824475796,3.23295607813634e-05,0.0842081755399704,0,0,0
11765,392162.3487075068,2010-08-24 03:17:51,5882.97711558384,2,32,0.550297200679779,4.139269828796387,35.05554327898119,34.112414299242495,139.09965103452916,125.35675824475796,0.0001619339018361,0.0842081755399704,0,0,0
11766,392192.3641077598,2010-08-24 03:18:21,5912.992515836778,2,32,0.5501165986061096,4.142507553100586,35.060130452040475,34.112414299242495,139.11864565193048,125.35675824475796,6.47544875391759e-05,0.0842081755399704,0,0,0
11767,392222.37930097664,2010-08-24 03:18:51,5943.007709073769,2,32,0.550297200679779,4.146069049835205,35.06471760749513,34.112414299242495,139.1376561397915,125.35675824475796,6.47544875391759e-05,0.0842081755399704,0,0,0
11768,392252.3945333612,2010-08-24 03:19:21,5973.0229414382775,2,32,0.550297200679779,4.149630546569824,35.0693047372835,34.112414299242495,139.15668261874967,125.35675824475796,0.0001295089750783,0.0842081755399704,0,0,0
11769,392282.409918306,2010-08-24 03:19:51,6003.03832637805,2,32,0.550297200679779,4.153192043304443,35.07389187905074,34.112414299242495,139.17572528084085,125.35675824475796,9.71794142969884e-05,0.0842081755399704,0,0,0
11770,392312.4250628767,2010-08-24 03:20:21,6033.0534709537615,2,32,0.5501165986061096,4.156591415405273,35.078479017524224,34.112414299242495,139.19478408874863,125.35675824475796,9.70840483205393e-05,0.0842081755399704,0,0,0
11771,392342.4403381782,2010-08-24 03:20:51,6063.06874625027,2,32,0.5501165986061096,4.160152912139893,35.08306613722373,34.112414299242495,139.21385917854738,125.35675824475796,6.47544875391759e-05,0.0842081755399704,0,0,0
11772,392372.4556612138,2010-08-24 03:21:21,6093.084069315833,2,32,0.5501165986061096,4.163714408874512,35.08765331826603,34.112414299242495,139.23295104079813,125.35675824475796,3.23295607813634e-05,0.0842081755399704,0,0,0
11773,392402.47090366326,2010-08-24 03:21:51,6123.099311735402,2,32,0.5501165986061096,4.16743803024292,35.09224044928853,34.112414299242495,139.2520591983621,125.35675824475796,9.71794142969884e-05,0.0842081755399704,0,0,0
11774,392432.4861793659,2010-08-24 03:22:21,6153.114587437922,2,32,0.5501165986061096,4.170999526977539,35.09682762208483,34.112414299242495,139.2711842819074,125.35675824475796,9.71794142969884e-05,0.0842081755399704,0,0,0
11775,392462.5014305924,2010-08-24 03:22:51,6183.12983866444,2,32,0.5504778623580933,4.174884796142578,35.10141477650318,34.112414299242495,139.29032616954697,125.35675824475796,9.71794142969884e-05,0.0842081755399704,0,0,0
11776,392492.5178737346,2010-08-24 03:23:21,6213.14628180658,2,32,0.5501165986061096,4.178446292877197,35.10600210635736,34.112414299242495,139.30948571739523,125.35675824475796,6.47544875391759e-05,0.0842081755399704,0,0,0
11777,392522.532132282,2010-08-24 03:23:51,6243.160540359049,2,32,0.550297200679779,4.182331562042236,35.1105891014306,34.112414299242495,139.32866097882484,125.35675824475796,0.0001295089750783,0.0842081755399704,0,0,0
11778,392552.5473471279,2010-08-24 03:24:21,6273.175755290108,2,32,0.550297200679779,4.185893058776856,35.115176323543345,34.112414299242495,139.34785443718405,125.35675824475796,9.71794142969884e-05,0.0842081755399704,0,0,0
11779,392582.56267467455,2010-08-24 03:24:51,6303.191082751627,2,32,0.5501165986061096,4.189778327941895,35.11976350944905,34.112414299242495,139.36706522034976,125.35675824475796,9.71794142969884e-05,0.0842081755399704,0,0,0
11780,392612.57784322,2010-08-24 03:25:21,6333.206251297079,2,32,0.550297200679779,4.193663597106934,35.124350566683304,34.112414299242495,139.38629298892172,125.35675824475796,6.47544875391759e-05,0.0842081755399704,0,0,0
11781,392642.59308874735,2010-08-24 03:25:51,6363.22149681938,2,32,0.550297200679779,4.197548389434815,35.12893779163932,34.112414299242495,139.40553917742093,125.35675824475796,6.47544875391759e-05,0.0842081755399704,0,0,0
11782,392660.3897489755,2010-08-24 03:26:09,6381.018157072627,2,32,0.550297200679779,4.200138568878174,35.13165762068582,34.112414299242495,139.41695891335613,125.35675824475796,0.0001942634553415,0.0842081755399704,0,0,0
11783,392690.39000931126,2010-08-24 03:26:39,30.0152876272402,3,32,0.0,4.126480579376221,35.13165762068582,34.112414299242495,139.41695891335613,125.35675824475796,-0.0002914428769145,0.0842081755399704,0,0,0
11784,392720.40539376985,2010-08-24 03:27:09,60.03067208581387,3,32,0.0,4.117414951324463,35.13165762068582,34.112414299242495,139.41695891335613,125.35675824475796,-0.0001619339018361,0.0842081755399704,0,0,0
11785,392750.42054619006,2010-08-24 03:27:39,90.04582451108918,3,32,0.0,4.111911296844482,35.13165762068582,34.112414299242495,139.41695891335613,125.35675824475796,-9.70840483205393e-05,0.0842081755399704,0,0,0
11786,392780.38892593846,2010-08-24 03:28:09,120.01420424943706,3,32,0.0,4.108511447906494,35.13165762068582,34.112414299242495,139.41695891335613,125.35675824475796,-9.71794142969884e-05,0.0842081755399704,0,0,0
11787,392780.3909500612,2010-08-24 03:28:09,2.756870971e-06,4,32,1.0032652616500854,4.199653148651123,35.13165762145412,34.112414299242495,139.4169589165827,125.35675824475796,0.0,0.0842081755399704,0,0,0
11788,392781.2504302152,2010-08-24 03:28:10,0.859482835682779,4,32,0.9530559182167052,4.199653148651123,35.131889677143114,34.112414299242495,139.41793347887338,125.35675824475796,0.0,0.0842081755399704,0,0,0
11789,392783.26590358,2010-08-24 03:28:12,2.874956195440945,4,32,0.902665913105011,4.199653148651123,35.132407994366766,34.112414299242495,139.42011024597053,125.35675824475796,0.0,0.0842081755399704,0,0,0
11790,392786.29725977726,2010-08-24 03:28:15,5.906312397822265,4,32,0.8526371717453003,4.199814796447754,35.13314593721923,34.112414299242495,139.42320936798382,125.35675824475796,0.0,0.0842081755399704,0,0,0
11791,392790.3909951304,2010-08-24 03:28:19,10.000047755945587,4,32,0.8024277687072754,4.199653148651123,35.13408584580477,34.112414299242495,139.42715668360864,125.35675824475796,0.0,0.0842081755399704,0,0,0
11792,392795.6095703456,2010-08-24 03:28:24,15.218622961072212,4,32,0.7523990273475647,4.199653148651123,35.13521147278512,34.112414299242495,139.43188397033276,125.35675824475796,-3.23295607813634e-05,0.0842081755399704,0,0,0
11793,392802.2344548211,2010-08-24 03:28:31,21.843507436611247,4,32,0.7020090222358704,4.199491024017334,35.136548213857665,34.112414299242495,139.43749786427,125.35675824475796,-6.47544875391759e-05,0.0842081755399704,0,0,0
11794,392810.9063573304,2010-08-24 03:28:40,30.5154099459422,4,32,0.6519802212715149,4.199653148651123,35.13817695473979,34.112414299242495,139.44433808171,125.35675824475796,3.24249267578125e-05,0.0842081755399704,0,0,0
11795,392822.6248264212,2010-08-24 03:28:51,42.233879036598914,4,32,0.6019514799118042,4.199653148651123,35.140214349277336,34.112414299242495,139.45289453209656,125.35675824475796,0.0,0.0842081755399704,0,0,0
11796,392839.4527356136,2010-08-24 03:29:08,59.06178824917487,4,32,0.5519226789474487,4.199653148651123,35.14290458573756,34.112414299242495,139.4641927262896,125.35675824475796,0.0,0.0842081755399704,0,0,0
11797,392865.6243037743,2010-08-24 03:29:34,85.23335638977143,4,32,0.501893937587738,4.199653148651123,35.14672136862847,34.112414299242495,139.4802220836858,125.35675824475796,0.0,0.0842081755399704,0,0,0
11798,392908.6707162191,2010-08-24 03:30:17,128.279768834634,4,32,0.4518651664257049,4.199653148651123,35.15239976921933,34.112414299242495,139.5040696761965,125.35675824475796,0.0,0.0842081755399704,0,0,0
11799,392978.3730311698,2010-08-24 03:31:27,197.98208378535736,4,32,0.4018363952636719,4.199814796447754,35.16063616475955,34.112414299242495,139.53866019578024,125.35675824475796,0.0,0.0842081755399704,0,0,0
11800,393072.6688147616,2010-08-24 03:33:01,292.27786739219283,4,32,0.3516270220279693,4.199653148651123,35.170488756168574,34.112414299242495,139.5800384315245,125.35675824475796,3.24249267578125e-05,0.0842081755399704,0,0,0
11801,393190.3081659516,2010-08-24 03:34:59,409.917218567044,4,32,0.3015982508659363,4.199653148651123,35.18114990766504,34.112414299242495,139.62481211657385,125.35675824475796,0.0,0.0842081755399704,0,0,0
11802,393331.61891088815,2010-08-24 03:37:20,551.2279635036552,4,32,0.2515694797039032,4.199653148651123,35.19198921543173,34.112414299242495,139.67033405997608,125.35675824475796,0.0,0.0842081755399704,0,0,0
11803,393507.10133524926,2010-08-24 03:40:16,726.7103878797928,4,32,0.2015407085418701,4.199653148651123,35.2029993545941,34.112414299242495,139.7165733481906,125.35675824475796,3.24249267578125e-05,0.0842081755399704,0,0,0
11804,393734.457935132,2010-08-24 03:44:03,954.0669877525524,4,32,0.151511937379837,4.199814796447754,35.21409082774681,34.112414299242495,139.76315427069483,125.35675824475796,3.23295607813634e-05,0.0842081755399704,0,0,0
11805,394066.6884082408,2010-08-24 03:49:35,1286.2974608813504,4,32,0.1014831736683845,4.199653148651123,35.225627525584585,34.112414299242495,139.8116049291737,125.35675824475796,0.0,0.0842081755399704,0,0,0
11806,394665.4939557231,2010-08-24 03:59:34,1885.103008363537,4,32,0.0514544025063514,4.199653148651123,35.23787554834974,34.112414299242495,139.86304296497602,125.35675824475796,0.0,0.0842081755399704,0,0,0
11807,394697.4623154468,2010-08-24 04:00:06,1917.0713680623248,4,32,0.0498289167881011,4.199491024017334,35.238328405080814,34.112414299242495,139.86494482631326,125.35675824475796,-6.47544875391759e-05,0.0842081755399704,0,0,0
11808,394727.47074388113,2010-08-24 04:00:36,30.01528245434776,5,32,0.0,4.192853927612305,35.238328405080814,34.112414299242495,139.86494482631326,125.35675824475796,-3.24249267578125e-05,0.0842081755399704,0,0,0
11809,394757.470395268,2010-08-24 04:01:06,60.0149338563034,5,32,0.0,4.191882610321045,35.238328405080814,34.112414299242495,139.86494482631326,125.35675824475796,-3.24249267578125e-05,0.0842081755399704,0,0,0
11810,394757.66738395847,2010-08-24 04:01:07,0.187534002436843,6,32,-1.9243103452026844e-05,4.191882610321045,35.238328405080814,34.11241430024492,139.86494482631326,125.35675824896,0.0,0.0865590572357177,0,0,0
11811,394762.4954426112,2010-08-24 04:01:11,5.015592645130941,6,32,0.0007031940040178,4.191720962524414,35.238329323057464,34.11241430032877,139.86494867438128,125.35675824931148,-3.23295607813634e-05,0.0865590572357177,0,0,0
11812,394792.5044893925,2010-08-24 04:01:42,30.01528476009439,7,32,-1.0997490882873535,4.039224147796631,35.238329323057464,34.12158382995936,139.86494867438128,125.39397119734836,-0.0008418083307333,0.0865590572357177,0,0,0
11813,394822.51975969656,2010-08-24 04:02:12,60.03055507919738,7,32,-1.099929690361023,4.0160746574401855,35.238329323057464,34.13075324820511,139.86494867438128,125.43089523861232,-0.0005504608270712,0.0865590572357177,0,0,0
11814,394852.53501622623,2010-08-24 04:02:42,90.04581160392054,7,32,-1.0997490882873535,4.000209808349609,35.238329323057464,34.13992264885148,139.86494867438128,125.46764484824556,-0.0003885269106831,0.0865590572357177,0,0,0
11815,394882.55030827445,2010-08-24 04:03:12,120.0611036321293,7,32,-1.099929690361023,3.9877448081970215,35.238329323057464,34.14909203796153,139.86494867438128,125.5042657373674,-0.0003237724304199,0.0865590572357177,0,0,0
11816,394912.56558108993,2010-08-24 04:03:42,150.07637644244116,7,32,-1.099568486213684,3.976898431777954,35.238329323057464,34.15826143847408,139.86494867438128,125.54078025476304,-0.0001942634553415,0.0865590572357177,0,0,0
11817,394942.5811939978,2010-08-24 04:04:12,180.09198939048088,7,32,-1.0997490882873535,3.9670233726501465,35.238329323057464,34.16743073799731,139.86494867438128,125.5771999982938,-0.0002590179501567,0.0865590572357177,0,0,0
11818,394972.5960913975,2010-08-24 04:04:42,210.1068867801289,7,32,-1.099568486213684,3.9579577445983887,35.238329323057464,34.17659983781316,139.86494867438128,125.61353194547524,-0.0001942634553415,0.0865590572357177,0,0,0
11819,395002.6113696814,2010-08-24 04:05:12,240.12216503902036,7,32,-1.0997490882873535,3.949054002761841,35.238329323057464,34.18576902747477,139.86494867438128,125.64978192277036,-0.0001942634553415,0.0865590572357177,0,0,0
11820,395032.62660733407,2010-08-24 04:05:42,270.1374026917086,7,32,-1.0997490882873535,3.940797805786133,35.238329323057464,34.19493813306388,139.86494867438128,125.68595246542765,-0.0001295089750783,0.0865590572357177,0,0,0
11821,395062.6418746858,2010-08-24 04:06:12,300.1526700434159,7,32,-1.0997490882873535,3.932379722595215,35.238329323057464,34.20410721895236,139.86494867438128,125.72204604873929,-0.0002266406954731,0.0865590572357177,0,0,0
11822,395092.6571318471,2010-08-24 04:06:42,330.1679272247756,7,32,-1.0997490882873535,3.924123525619507,35.238329323057464,34.21327629119043,139.86494867438128,125.7580648451373,-0.0001942634553415,0.0865590572357177,0,0,0
11823,395122.67237981554,2010-08-24 04:07:12,360.1831751731238,7,32,-1.099568486213684,3.916514873504639,35.238329323057464,34.222445337674266,139.86494867438128,125.7940102295953,-0.0001942634553415,0.0865590572357177,0,0,0
11824,395152.6876277689,2010-08-24 04:07:42,390.1984231264845,7,32,-1.1001102924346924,3.90842080116272,35.238329323057464,34.23161434391388,139.86494867438128,125.82988351940868,-0.0002590179501567,0.0865590572357177,0,0,0
11825,395182.7030102073,2010-08-24 04:08:12,420.2138055650236,7,32,-1.0997490882873535,3.9009740352630615,35.238329323057464,34.24078339872524,139.86494867438128,125.8656859993464,-0.0001942634553415,0.0865590572357177,0,0,0
11826,395212.7181508784,2010-08-24 04:08:42,450.2289462560536,7,32,-1.099929690361023,3.893203496932984,35.238329323057464,34.249952299702024,139.86494867438128,125.90141796255402,-0.0002266406954731,0.0865590572357177,0,0,0
11827,395242.73337255634,2010-08-24 04:09:12,480.2441679138776,7,32,-1.0997490882873535,3.885756731033325,35.238329323057464,34.259121241973055,139.86494867438128,125.93708156720405,-0.0002590179501567,0.0865590572357177,0,0,0
11828,395272.7486155423,2010-08-24 04:09:42,510.2594108948456,7,32,-1.099568486213684,3.878633737564087,35.238329323057464,34.268290126338975,139.86494867438128,125.972676659886,-0.0001618862152099,0.0865590572357177,0,0,0
11829,395302.76385301945,2010-08-24 04:10:12,540.2746483821215,7,32,-1.0997490882873535,3.8711869716644287,35.238329323057464,34.27745904322035,139.86494867438128,126.00820441152764,-0.0002266406954731,0.0865590572357177,0,0,0
11830,395332.779081765,2010-08-24 04:10:42,570.2898771326229,7,32,-1.099929690361023,3.863902091979981,35.238329323057464,34.28662801988095,139.86494867438128,126.04366608393394,-0.0001942634553415,0.0865590572357177,0,0,0
11831,395362.7943281645,2010-08-24 04:11:12,600.3051235471484,7,32,-1.0997490882873535,3.856940984725952,35.238329323057464,34.295796951498914,139.86494867438128,126.0790619605021,-0.0001618862152099,0.0865590572357177,0,0,0
11832,395392.8095596717,2010-08-24 04:11:42,630.320355029458,7,32,-1.0997490882873535,3.849817991256714,35.238329323057464,34.30496581603476,139.86494867438128,126.11439263761145,-0.0001618862152099,0.0865590572357177,0,0,0
11833,395422.82502829016,2010-08-24 04:12:12,660.3358236678337,7,32,-1.099568486213684,3.8428568840026855,35.238329323057464,34.314134841332965,139.86494867438128,126.14965956169844,-0.0001618862152099,0.0865590572357177,0,0,0
11834,395452.8400325061,2010-08-24 04:12:42,690.3508278887381,7,32,-1.099929690361023,3.836057662963867,35.238329323057464,34.323303624075535,139.86494867438128,126.18486268821314,-0.0001618862152099,0.0865590572357177,0,0,0
11835,395482.85525815387,2010-08-24 04:13:12,720.3660535114439,7,32,-1.099568486213684,3.829420566558838,35.238329323057464,34.3324723867981,139.86494867438128,126.22000364331193,-0.0001618862152099,0.0865590572357177,0,0,0
11836,395512.8705150194,2010-08-24 04:13:42,750.3813103820289,7,32,-1.0997490882873535,3.82262134552002,35.238329323057464,34.341641224577806,139.86494867438128,126.25508398313576,-0.0001942634553415,0.0865590572357177,0,0,0
11837,395542.88576341886,2010-08-24 04:14:12,780.3965587714766,7,32,-1.099568486213684,3.816307783126831,35.238329323057464,34.35080952721576,139.86494867438128,126.29010203439664,-0.0001618862152099,0.0865590572357177,0,0,0
11838,395572.90097000415,2010-08-24 04:14:42,810.4117653567351,7,32,-1.099568486213684,3.809670448303223,35.238329323057464,34.3599774698124,139.86494867438128,126.32505931032443,-0.0001618862152099,0.0865590572357177,0,0,0
11839,395602.91619511554,2010-08-24 04:15:12,840.4269904731792,7,32,-1.099568486213684,3.803680658340454,35.238329323057464,34.369145884649804,139.86494867438128,126.35995960012974,-9.713172767078504e-05,0.0865590572357177,0,0,0
11840,395632.931439525,2010-08-24 04:15:42,870.4422348776952,7,32,-1.0997490882873535,3.797205209732056,35.238329323057464,34.37831466843091,139.86494867438128,126.39480377722012,-0.0001942634553415,0.0865590572357177,0,0,0
11841,395662.94664841605,2010-08-24 04:16:12,900.4574437787254,7,32,-1.099568486213684,3.791215419769287,35.238329323057464,34.3874834079347,139.86494867438128,126.4295915142252,-0.0001618862152099,0.0865590572357177,0,0,0
11842,395692.9618535528,2010-08-24 04:16:42,930.4726489103612,7,32,-1.099568486213684,3.785225629806519,35.238329323057464,34.396652129110834,139.86494867438128,126.4643244020704,-0.0001295089750783,0.0865590572357177,0,0,0
11843,395722.9770798722,2010-08-24 04:17:12,960.4878752298036,7,32,-1.0997490882873535,3.77955961227417,35.238329323057464,34.405820967891614,139.86494867438128,126.49900366921403,-0.0001295089750783,0.0865590572357177,0,0,0
11844,395752.9922906529,2010-08-24 04:17:42,990.503086005506,7,32,-1.099568486213684,3.7737317085266113,35.238329323057464,34.41498972741352,139.86494867438128,126.53362963203205,-0.0001295089750783,0.0865590572357177,0,0,0
11845,395783.00752962887,2010-08-24 04:18:12,1020.5183249915174,7,32,-1.0997490882873535,3.768065690994263,35.238329323057464,34.42415848794118,139.86494867438128,126.56820369519076,-0.0001618862152099,0.0865590572357177,0,0,0
11846,395813.0227628906,2010-08-24 04:18:42,1050.533558263287,7,32,-1.0997490882873535,3.762561559677124,35.238329323057464,34.4333271956761,139.86494867438128,126.60272669193736,-0.0001295089750783,0.0865590572357177,0,0,0
11847,395843.03797099466,2010-08-24 04:19:12,1080.5487663723434,7,32,-1.099568486213684,3.757057428359986,35.238329323057464,34.4424959281951,139.86494867438128,126.6371996934254,-0.0001942634553415,0.0865590572357177,0,0,0
11848,395873.05321193056,2010-08-24 04:19:42,1110.5640072831518,7,32,-1.0997490882873535,3.7518773078918457,35.238329323057464,34.45166469961453,139.86494867438128,126.67162412823455,-0.0001295089750783,0.0865590572357177,0,0,0
11849,395903.0685398231,2010-08-24 04:20:12,1140.5793351857706,7,32,-1.0997490882873535,3.746696949005127,35.238329323057464,34.46083349120533,139.86494867438128,126.70600087954276,-0.0001295089750783,0.0865590572357177,0,0,0
11850,395933.0835965499,2010-08-24 04:20:42,1170.5943919075237,7,32,-1.0997490882873535,3.741678476333618,35.238329323057464,34.470002155568025,139.86494867438128,126.74033006030012,-9.713172767078504e-05,0.0865590572357177,0,0,0
11851,395963.0988032304,2010-08-24 04:21:12,1200.6095985930317,7,32,-1.099568486213684,3.736660003662109,35.238329323057464,34.479170919272114,139.86494867438128,126.77461334521055,-0.0001295089750783,0.0865590572357177,0,0,0
11852,395993.1140210686,2010-08-24 04:21:42,1230.624816426324,7,32,-1.099929690361023,3.7316415309906006,35.238329323057464,34.48833965791319,139.86494867438128,126.80885108033289,-0.0001618862152099,0.0865590572357177,0,0,0
11853,396023.1292408418,2010-08-24 04:22:12,1260.6400361994513,7,32,-1.0997490882873535,3.726946830749512,35.238329323057464,34.497508354745804,139.86494867438128,126.84304411946816,-0.0001295089750783,0.0865590572357177,0,0,0
11854,396053.1444605397,2010-08-24 04:22:42,1290.6552559224529,7,32,-1.099568486213684,3.722252130508423,35.238329323057464,34.50667710884602,139.86494867438128,126.87719361006008,-0.0001295089750783,0.0865590572357177,0,0,0
11855,396083.1597809137,2010-08-24 04:23:12,1320.670576266233,7,32,-1.099929690361023,3.717395544052124,35.238329323057464,34.5158458654289,139.86494867438128,126.91129974555002,-0.0001295089750783,0.0865590572357177,0,0,0
11856,396113.1748681665,2010-08-24 04:23:42,1350.6856635190784,7,32,-1.0997490882873535,3.713024616241455,35.238329323057464,34.52501453700571,139.86494867438128,126.9453631776075,-9.713172767078504e-05,0.0865590572357177,0,0,0
11857,396143.19021155767,2010-08-24 04:24:12,1380.7010069102994,7,32,-1.0997490882873535,3.708329916000366,35.238329323057464,34.53418323871874,139.86494867438128,126.9793849898238,-0.0001295089750783,0.0865590572357177,0,0,0
11858,396173.2054086543,2010-08-24 04:24:42,1410.7162040069095,7,32,-1.0997490882873535,3.703958988189697,35.238329323057464,34.54335200024362,139.86494867438128,127.01336639956412,-0.0001295089750783,0.0865590572357177,0,0,0
11859,396203.220503431,2010-08-24 04:25:12,1440.731298788519,7,32,-1.099568486213684,3.6997499465942383,35.238329323057464,34.55252062647541,139.86494867438128,127.04730743233613,-9.713172767078504e-05,0.0865590572357177,0,0,0
11860,396233.2357213544,2010-08-24 04:25:42,1470.746516732086,7,32,-1.0997490882873535,3.695379018783569,35.238329323057464,34.56168929750608,139.86494867438128,127.08120923963536,-0.0001618862152099,0.0865590572357177,0,0,0
11861,396263.2535707413,2010-08-24 04:26:12,1500.764366204232,7,32,-1.0997490882873535,3.691008090972901,35.238329323057464,34.5708588248978,139.86494867438128,127.11507546130004,-0.0001618862152099,0.0865590572357177,0,0,0
11862,396293.26616740687,2010-08-24 04:26:42,1530.776962759493,7,32,-1.099568486213684,3.6872847080230713,35.238329323057464,34.580026750111344,139.86494867438128,127.1488977113148,-6.47544875391759e-05,0.0865590572357177,0,0,0
11863,396323.2814570141,2010-08-24 04:27:12,1560.7922523766929,7,32,-1.099568486213684,3.6832375526428223,35.238329323057464,34.58919545520646,139.86494867438128,127.18268590905204,-9.713172767078504e-05,0.0865590572357177,0,0,0
11864,396353.2966548375,2010-08-24 04:27:42,1590.807450200114,7,32,-1.0997490882873535,3.679190397262573,35.238329323057464,34.598364114669124,139.86494867438128,127.21643761311704,-0.0001295089750783,0.0865590572357177,0,0,0
11865,396383.3119154775,2010-08-24 04:28:12,1620.8227108350814,7,32,-1.099568486213684,3.675305128097534,35.238329323057464,34.60753274901889,139.86494867438128,127.25015349518544,-9.713172767078504e-05,0.0865590572357177,0,0,0
11866,396413.32692640513,2010-08-24 04:28:42,1650.8377217576883,7,32,-1.099568486213684,3.671581983566284,35.238329323057464,34.61670104537395,139.86494867438128,127.28383293137796,-6.47544875391759e-05,0.0865590572357177,0,0,0
11867,396443.342120003,2010-08-24 04:29:12,1680.852915380641,7,32,-1.0997490882873535,3.667858600616455,35.238329323057464,34.62586937989828,139.86494867438128,127.31747808621834,-9.713172767078504e-05,0.0865590572357177,0,0,0
11868,396473.3573464277,2010-08-24 04:29:42,1710.868141810358,7,32,-1.099568486213684,3.664135217666626,35.238329323057464,34.63503773772498,139.86494867438128,127.3510892591772,-0.0001295089750783,0.0865590572357177,0,0,0
11869,396503.3725410481,2010-08-24 04:30:12,1740.8833364307966,7,32,-1.0997490882873535,3.660573720932007,35.238329323057464,34.644206087900564,139.86494867438128,127.38466716928984,-9.713172767078504e-05,0.0865590572357177,0,0,0
11870,396533.3877441397,2010-08-24 04:30:42,1770.898539492273,7,32,-1.0997490882873535,3.657012224197388,35.238329323057464,34.65337482554919,139.86494867438128,127.41821373872924,-9.713172767078504e-05,0.0865590572357177,0,0,0
11871,396563.40289384814,2010-08-24 04:31:13,1800.9136892258398,7,32,-1.099929690361023,3.6536126136779785,35.238329323057464,34.66254393144331,139.86494867438128,127.45172952266547,-6.47544875391759e-05,0.0865590572357177,0,0,0
11872,396593.4183736895,2010-08-24 04:31:43,1830.9291690470864,7,32,-1.099929690361023,3.650213003158569,35.238329323057464,34.6717134313405,139.86494867438128,127.48521513326772,-6.47544875391759e-05,0.0865590572357177,0,0,0
11873,396623.43346718285,2010-08-24 04:32:13,1860.9442625354727,7,32,-1.099929690361023,3.64681339263916,35.238329323057464,34.68088271973966,139.86494867438128,127.51866940636556,-9.713172767078504e-05,0.0865590572357177,0,0,0
11874,396653.44852501736,2010-08-24 04:32:43,1890.959320380024,7,32,-1.099929690361023,3.643413782119751,35.238329323057464,34.690052067381494,139.86494867438128,127.55209334725303,-0.0001295089750783,0.0865590572357177,0,0,0
11875,396683.4637638129,2010-08-24 04:33:13,1920.974559170548,7,32,-1.099929690361023,3.6403379440307617,35.238329323057464,34.69922146802694,139.86494867438128,127.58548856470098,-9.713172767078504e-05,0.0865590572357177,0,0,0
11876,396713.4789291404,2010-08-24 04:33:43,1950.9897244929675,7,32,-1.0997490882873535,3.637585878372192,35.238329323057464,34.70839082693793,139.86494867438128,127.61885527732744,-6.47544875391759e-05,0.0865590572357177,0,0,0
11877,396743.4941377607,2010-08-24 04:34:13,1981.00493313836,7,32,-1.099568486213684,3.634510040283203,35.238329323057464,34.717559857572795,139.86494867438128,127.65219308418888,-6.47544875391759e-05,0.0865590572357177,0,0,0
11878,396773.5093273235,2010-08-24 04:34:43,2011.0201226961813,7,32,-1.099568486213684,3.631596088409424,35.238329323057464,34.726728338124985,139.86494867438128,127.68550209102868,-6.47544875391759e-05,0.0865590572357177,0,0,0
11879,396803.524534405,2010-08-24 04:35:13,2041.035329772664,7,32,-1.099568486213684,3.6288440227508554,35.238329323057464,34.735896786771924,139.86494867438128,127.7187848010418,-6.47544875391759e-05,0.0865590572357177,0,0,0
11880,396833.5399038312,2010-08-24 04:35:43,2071.0506991787224,7,32,-1.0997490882873535,3.625930070877075,35.238329323057464,34.74506529706942,139.86494867438128,127.7520419145887,-9.713172767078504e-05,0.0865590572357177,0,0,0
11881,396863.5551366517,2010-08-24 04:36:13,2101.0659320194177,7,32,-1.099568486213684,3.623339891433716,35.238329323057464,34.754233772529744,139.86494867438128,127.78527366064267,-3.237724376958795e-05,0.0865590572357177,0,0,0
11882,396893.570352425,2010-08-24 04:36:43,2131.081147787563,7,32,-1.0997490882873535,3.620425939559937,35.238329323057464,34.763402241432104,139.86494867438128,127.81848078329944,-9.713172767078504e-05,0.0865590572357177,0,0,0
11883,396923.58534471615,2010-08-24 04:37:13,2161.0961400687097,7,32,-1.099568486213684,3.617835760116577,35.238329323057464,34.77257064595596,139.86494867438128,127.8516630718251,-9.713172767078504e-05,0.0865590572357177,0,0,0
11884,396953.6005351913,2010-08-24 04:37:43,2191.111330543817,7,32,-1.0993878841400146,3.615083694458008,35.238329323057464,34.78173922278571,139.86494867438128,127.88482104502056,-6.47544875391759e-05,0.0865590572357177,0,0,0
11885,396983.61575489416,2010-08-24 04:38:13,2221.1265502517813,7,32,-1.099568486213684,3.6126554012298575,35.238329323057464,34.79090765565324,139.86494867438128,127.91795418824334,-3.237724376958795e-05,0.0865590572357177,0,0,0
11886,397013.6309316551,2010-08-24 04:38:43,2251.141727017721,7,32,-1.099568486213684,3.609903335571289,35.238329323057464,34.800076094047235,139.86494867438128,127.95106303415332,-6.47544875391759e-05,0.0865590572357177,0,0,0
11887,397043.64614827535,2010-08-24 04:39:13,2281.1569436329773,7,32,-1.099568486213684,3.6073131561279297,35.238329323057464,34.80924450050081,139.86494867438128,127.98414740994644,-3.237724376958795e-05,0.0865590572357177,0,0,0
11888,397073.6613322092,2010-08-24 04:39:43,2311.172127561769,7,32,-1.0997490882873535,3.6043992042541504,35.238329323057464,34.818412910676535,139.86494867438128,128.017207122239,-6.47544875391759e-05,0.0865590572357177,0,0,0
11889,397103.6766879111,2010-08-24 04:40:13,2341.1874832736976,7,32,-1.0997490882873535,3.601809024810791,35.238329323057464,34.827581372034885,139.86494867438128,128.0502422540031,-6.47544875391759e-05,0.0865590572357177,0,0,0
11890,397133.69184931874,2010-08-24 04:40:43,2371.2026447014096,7,32,-1.099568486213684,3.5990569591522217,35.238329323057464,34.8367497873619,139.86494867438128,128.0832522760604,-6.47544875391759e-05,0.0865590572357177,0,0,0
11891,397163.7069265766,2010-08-24 04:41:13,2401.2177219292694,7,32,-1.099568486213684,3.5963048934936523,35.238329323057464,34.8459182043286,139.86494867438128,128.11623719203232,-6.47544875391759e-05,0.0865590572357177,0,0,0
11892,397193.7221466154,2010-08-24 04:41:43,2431.232941968058,7,32,-1.0997490882873535,3.593390941619873,35.238329323057464,34.85508659673072,139.86494867438128,128.14919663465264,-9.713172767078504e-05,0.0865590572357177,0,0,0
11893,397223.737337682,2010-08-24 04:42:13,2461.24813303464,7,32,-1.0997490882873535,3.590639114379883,35.238329323057464,34.86425501909984,139.86494867438128,128.18213043259402,-6.47544875391759e-05,0.0865590572357177,0,0,0
11894,397253.75252362585,2010-08-24 04:42:43,2491.263318978454,7,32,-1.0997490882873535,3.5877251625061035,35.238329323057464,34.87342346134789,139.86494867438128,128.21503807767704,-6.47544875391759e-05,0.0865590572357177,0,0,0
11895,397283.76771184034,2010-08-24 04:43:13,2521.278507217989,7,32,-1.0997490882873535,3.5846493244171143,35.238329323057464,34.88259190622675,139.86494867438128,128.24791858286758,-9.713172767078504e-05,0.0865590572357177,0,0,0
11896,397313.78305483056,2010-08-24 04:43:43,2551.293850198186,7,32,-1.099568486213684,3.581573486328125,35.238329323057464,34.89176039249871,139.86494867438128,128.28077130620957,-9.713172767078504e-05,0.0865590572357177,0,0,0
11897,397343.79832991655,2010-08-24 04:44:13,2581.3091252741447,7,32,-1.0997490882873535,3.578497648239136,35.238329323057464,34.900928910652084,139.86494867438128,128.3135957488135,-9.713172767078504e-05,0.0865590572357177,0,0,0
11898,397373.8133110398,2010-08-24 04:44:43,2611.324106417533,7,32,-1.099929690361023,3.5750980377197266,35.238329323057464,34.910097275273465,139.86494867438128,128.34638994543445,-9.713172767078504e-05,0.0865590572357177,0,0,0
11899,397403.8284956152,2010-08-24 04:45:13,2641.339290992936,7,32,-1.0997490882873535,3.571860313415528,35.238329323057464,34.91926566174422,139.86494867438128,128.37915381612686,-9.713172767078504e-05,0.0865590572357177,0,0,0
11900,397433.8436934738,2010-08-24 04:45:43,2671.35448886147,7,32,-1.0997490882873535,3.568460702896118,35.238329323057464,34.92843406021704,139.86494867438128,128.41188650035866,-6.47544875391759e-05,0.0865590572357177,0,0,0
11901,397463.8590703735,2010-08-24 04:46:13,2701.369865741155,7,32,-1.099568486213684,3.564899206161499,35.238329323057464,34.93760252433144,139.86494867438128,128.44458757864658,-9.713172767078504e-05,0.0865590572357177,0,0,0
11902,397493.8740921983,2010-08-24 04:46:43,2731.3848875559083,7,32,-1.099568486213684,3.56133770942688,35.238329323057464,34.94677088697758,139.86494867438128,128.47725581859805,-9.713172767078504e-05,0.0865590572357177,0,0,0
11903,397523.8894679352,2010-08-24 04:47:13,2761.400263312795,7,32,-1.0997490882873535,3.557614326477051,35.238329323057464,34.955939377019654,139.86494867438128,128.50989143945154,-9.713172767078504e-05,0.0865590572357177,0,0,0
11904,397553.90460136806,2010-08-24 04:47:43,2791.4153967306984,7,32,-1.099568486213684,3.553729057312012,35.238329323057464,34.96510780507835,139.86494867438128,128.54249185275518,-9.713172767078504e-05,0.0865590572357177,0,0,0
11905,397583.9196843803,2010-08-24 04:48:13,2821.4304797329496,7,32,-1.099568486213684,3.5498437881469727,35.238329323057464,34.97427617622147,139.86494867438128,128.57505577008902,-9.713172767078504e-05,0.0865590572357177,0,0,0
11906,397613.9348641588,2010-08-24 04:48:43,2851.4456595164106,7,32,-1.0997490882873535,3.545472860336304,35.238329323057464,34.98344460548556,139.86494867438128,128.60758267667674,-0.0001295089750783,0.0865590572357177,0,0,0
11907,397643.95006033307,2010-08-24 04:49:13,2881.460855685709,7,32,-1.1001102924346924,3.5412638187408447,35.238329323057464,34.99261306472385,139.86494867438128,128.64007113409426,-0.0001295089750783,0.0865590572357177,0,0,0
11908,397673.9652574849,2010-08-24 04:49:43,2911.476052847481,7,32,-1.099568486213684,3.536892890930176,35.238329323057464,35.001781532480166,139.86494867438128,128.67251977263754,-0.0001295089750783,0.0865590572357177,0,0,0
11909,397703.9804741854,2010-08-24 04:50:13,2941.4912695479507,7,32,-1.099568486213684,3.532198190689087,35.238329323057464,35.01094999312608,139.86494867438128,128.70492721085606,-0.0001618862152099,0.0865590572357177,0,0,0
11910,397733.99568042974,2010-08-24 04:50:43,2971.506475837472,7,32,-1.099568486213684,3.527665376663208,35.238329323057464,35.0201184636178,139.86494867438128,128.737292419069,-9.713172767078504e-05,0.0865590572357177,0,0,0
11911,397764.011055555,2010-08-24 04:51:13,3001.5218509076467,7,32,-1.0997490882873535,3.522808790206909,35.238329323057464,35.02928704965647,139.86494867438128,128.76961346381046,-9.713172767078504e-05,0.0865590572357177,0,0,0
11912,397794.0260270143,2010-08-24 04:51:43,3031.536822366899,7,32,-1.0997490882873535,3.5176284313201904,35.238329323057464,35.03845535676846,139.86494867438128,128.80188736372648,-0.0001295089750783,0.0865590572357177,0,0,0
11913,397824.0414708709,2010-08-24 04:52:13,3061.5522662235107,7,32,-1.0997490882873535,3.512124300003052,35.238329323057464,35.047623805038505,139.86494867438128,128.8341132126444,-0.0001295089750783,0.0865590572357177,0,0,0
11914,397854.0564364154,2010-08-24 04:52:43,3091.5672317780472,7,32,-1.099568486213684,3.5062966346740723,35.238329323057464,35.05679213213729,139.86494867438128,128.86628679018227,-0.0001618862152099,0.0865590572357177,0,0,0
11915,397884.0716324494,2010-08-24 04:53:13,3121.582427801984,7,32,-1.0997490882873535,3.499821186065674,35.238329323057464,35.065960549646505,139.86494867438128,128.898404541088,-0.0001942634553415,0.0865590572357177,0,0,0
11916,397914.0868009998,2010-08-24 04:53:43,3151.597596367485,7,32,-1.099568486213684,3.492860078811645,35.238329323057464,35.07512897806926,139.86494867438128,128.93046144130025,-0.0001942634553415,0.0865590572357177,0,0,0
11917,397944.1020247478,2010-08-24 04:54:13,3181.6128201305564,7,32,-1.099568486213684,3.4852514266967773,35.238329323057464,35.08429738238223,139.86494867438128,128.96245125483506,-0.0002266406954731,0.0865590572357177,0,0,0
11918,397974.1171862959,2010-08-24 04:54:43,3211.627981648493,7,32,-1.0997490882873535,3.476347684860229,35.238329323057464,35.09346582122399,139.86494867438128,128.9943655827689,-0.0002590179501567,0.0865590572357177,0,0,0
11919,398004.1323853324,2010-08-24 04:55:13,3241.6431807100003,7,32,-1.0997490882873535,3.465825080871582,35.238329323057464,35.102634171251765,139.86494867438128,129.02619214163732,-0.0002913951757363,0.0865590572357177,0,0,0
11920,398034.14767584176,2010-08-24 04:55:43,3271.658471204386,7,32,-1.099568486213684,3.453683614730835,35.238329323057464,35.111802584366885,139.86494867438128,129.05791488467034,-0.0003561496851034,0.0865590572357177,0,0,0
11921,398064.1627755858,2010-08-24 04:56:13,3301.673570933326,7,32,-1.099568486213684,3.4379806518554688,35.238329323057464,35.12097099414394,139.86494867438128,129.08950985184362,-0.0004532813909463,0.0865590572357177,0,0,0
11922,398094.17796358967,2010-08-24 04:56:43,3331.688758947299,7,32,-1.099568486213684,3.4175832271575928,35.238329323057464,35.13013940285139,139.86494867438128,129.12094087115213,-0.0006151676061563,0.0865590572357177,0,0,0
11923,398124.1931722351,2010-08-24 04:57:13,3361.7039676127424,7,32,-1.0997490882873535,3.389576911926269,35.238329323057464,35.139307858330284,139.86494867438128,129.15215308731618,-0.0008418083307333,0.0865590572357177,0,0,0
11924,398154.208342144,2010-08-24 04:57:43,3391.7191375215925,7,32,-1.099568486213684,3.350076913833618,35.238329323057464,35.14847632622694,139.86494867438128,129.18306025388114,-0.0011979102855548,0.0865590572357177,0,0,0
11925,398184.22355444334,2010-08-24 04:58:13,3421.734349826105,7,32,-1.099568486213684,3.292607307434082,35.238329323057464,35.1576447432978,139.86494867438128,129.21352830174442,-0.0017483711708337,0.0865590572357177,0,0,0
11926,398214.2387707831,2010-08-24 04:58:43,3451.7495662258243,7,32,-1.099568486213684,3.206969738006592,35.238329323057464,35.16681310596836,139.86494867438128,129.24335004749358,-0.0026549338363111,0.0865590572357177,0,0,0
11927,398244.25393029593,2010-08-24 04:59:13,3481.76472564854,7,32,-1.0993878841400146,3.069366931915283,35.238329323057464,35.17598148335467,139.86494867438128,129.27217742958746,-0.0045651914551854,0.0865590572357177,0,0,0
11928,398266.6442382226,2010-08-24 04:59:36,3504.1550335802303,7,32,-1.099568486213684,2.8689522743225098,35.238329323057464,35.182820853469565,139.86494867438128,129.29257844647051,-0.0098750591278076,0.0865590572357177,0,0,0
11929,398277.4565621458,2010-08-24 04:59:47,3514.9673574983035,7,32,-1.099568486213684,2.699943780899048,35.238329323057464,35.18612357540786,139.86494867438128,129.30178696409487,-0.0134365083649754,0.0865590572357177,0,0,0
11930,398337.4823651608,2010-08-24 05:00:47,60.01488033791912,8,32,0.0,3.3989663124084477,35.238329323057464,35.18612357540786,139.86494867438128,129.30178696409487,0.0011332035064697,0.0865590572357177,0,0,0
11931,398337.6813997216,2010-08-24 05:00:47,0.187374660307227,9,32,-1.9243103452026844e-05,3.399290084838867,35.238329323057464,35.18612357640944,139.86494867438128,129.30178696749954,0.0,0.0856727808713913,0,0,0
11932,398342.509480675,2010-08-24 05:00:52,5.015455588543755,9,32,-1.9243103452026844e-05,3.406089305877685,35.23833022797701,35.18612357666039,139.86495175407103,129.30178696835378,0.0009713172912597,0.0856727808713913,0,0,0
