Data_Point,Test_Time(s),Date_Time,Step_Time(s),Step_Index,Cycle_Index,Current(A),Voltage(V),Charge_Capacity(Ah),Discharge_Capacity(Ah),Charge_Energy(Wh),Discharge_Energy(Wh),dV/dt(V/s),Internal_Resistance(Ohm),Is_FC_Data,AC_Impedance(Ohm),ACI_Phase_Angle(Deg)
10472,349618.9040146561,2010-08-23 15:28:43,30.01531010826984,1,29,0.0,3.448665142059326,30.93516370280259,30.882153390451688,122.770340857089,113.48830512047527,0.0006475448608398,0.0859051570296287,0,0,0
10473,349648.91908829496,2010-08-23 15:29:13,60.03038372212284,1,29,0.0,3.4682533740997314,30.93516370280259,30.882153390451688,122.770340857089,113.48830512047527,0.0004209041653666,0.0859051570296287,0,0,0
10474,349678.9342689707,2010-08-23 15:29:43,90.04556440281934,1,29,0.0,3.482823133468628,30.93516370280259,30.882153390451688,122.770340857089,113.48830512047527,0.0004209041653666,0.0859051570296287,0,0,0
10475,349708.90257525595,2010-08-23 15:30:13,120.01387070313704,1,29,0.0,3.4939932823181152,30.93516370280259,30.882153390451688,122.770340857089,113.48830512047527,0.0002266406954731,0.0859051570296287,0,0,0
10476,349738.90569338546,2010-08-23 15:30:43,30.015271256439124,2,29,0.5501165986061096,3.621397256851196,30.939750409547248,30.882153390451688,122.78682353809904,113.48830512047527,0.0012303352123126,0.0859051570296287,0,0,0
10477,349768.9207488992,2010-08-23 15:31:13,60.03032681028101,2,29,0.5501165986061096,3.659278631210327,30.94433705167963,30.882153390451688,122.80352538268512,113.48830512047527,0.0008741855854168,0.0859051570296287,0,0,0
10478,349798.93596919364,2010-08-23 15:31:43,90.04554707964465,2,29,0.550297200679779,3.687446594238281,30.94892369148752,30.882153390451688,122.82037596135817,113.48830512047527,0.0006799221155233,0.0859051570296287,0,0,0
10479,349828.9511261152,2010-08-23 15:32:13,120.06070400613838,2,29,0.5501165986061096,3.709786891937256,30.95351027230631,30.882153390451688,122.8373415582342,113.48830512047527,0.0005504131549969,0.0859051570296287,0,0,0
10480,349858.96629228967,2010-08-23 15:32:44,150.0758701856936,2,29,0.5499359965324402,3.727594375610352,30.95809684831825,30.882153390451688,122.8543995184346,113.48830512047527,0.0004209041653666,0.0859051570296287,0,0,0
10481,349888.9818693282,2010-08-23 15:33:14,180.09144724428575,2,29,0.5501165986061096,3.7413547039031982,30.962682740278424,30.882153390451688,122.8715268485034,113.48830512047527,0.0003561496851034,0.0859051570296287,0,0,0
10482,349918.9961300611,2010-08-23 15:33:44,210.1057079370893,2,29,0.5499359965324402,3.749934673309326,30.96726597646809,30.882153390451688,122.8886958144956,113.48830512047527,0.0001295089750783,0.0859051570296287,0,0,0
10483,349948.9964610117,2010-08-23 15:34:14,240.10603891776427,2,29,0.5501165986061096,3.7554385662078857,30.971851773208886,30.882153390451688,122.9059061561483,113.48830512047527,0.0001295089750783,0.0859051570296287,0,0,0
10484,349979.0119380961,2010-08-23 15:34:44,270.12151600219005,2,29,0.5499359965324402,3.758838176727295,30.97643749124752,30.882153390451688,122.92313567016592,113.48830512047527,9.713172767078504e-05,0.0859051570296287,0,0,0
10485,350009.02654904686,2010-08-23 15:35:14,300.1361269379068,2,29,0.5501165986061096,3.761914014816284,30.98102308504251,30.882153390451688,122.9403793815864,113.48830512047527,9.713172767078504e-05,0.0859051570296287,0,0,0
10486,350039.04190606705,2010-08-23 15:35:44,330.1514839781455,2,29,0.5499359965324402,3.7646660804748535,30.985608835619693,30.882153390451688,122.95763695600525,113.48830512047527,6.47544875391759e-05,0.0859051570296287,0,0,0
10487,350069.0569083582,2010-08-23 15:36:14,360.1664862491903,2,29,0.5501165986061096,3.767580032348633,30.99019522971049,30.882153390451688,122.9749098147294,113.48830512047527,6.47544875391759e-05,0.0859051570296287,0,0,0
10488,350099.0722079803,2010-08-23 15:36:44,390.18178586130045,2,29,0.5501165986061096,3.770170211791992,30.994781853191583,30.882153390451688,122.99219631905568,113.48830512047527,3.237724376958795e-05,0.0859051570296287,0,0,0
10489,350129.0873148972,2010-08-23 15:37:14,420.1968928032172,2,29,0.5501165986061096,3.7729222774505615,30.99936843436165,30.882153390451688,123.00949524957404,113.48830512047527,3.237724376958795e-05,0.0859051570296287,0,0,0
10490,350159.10248388874,2010-08-23 15:37:44,450.2120617697184,2,29,0.5501165986061096,3.775674343109131,31.003955105699813,30.882153390451688,123.02680730958336,113.48830512047527,3.237724376958795e-05,0.0859051570296287,0,0,0
10491,350189.11781163095,2010-08-23 15:38:14,480.2273895119374,2,29,0.5501165986061096,3.77858829498291,31.00854182258068,30.882153390451688,123.04413225640984,113.48830512047527,6.47544875391759e-05,0.0859051570296287,0,0,0
10492,350219.13284756587,2010-08-23 15:38:44,510.24242544688303,2,29,0.5501165986061096,3.78134036064148,31.013128531726977,30.882153390451688,123.06146997672556,113.48830512047527,6.47544875391759e-05,0.0859051570296287,0,0,0
10493,350249.1480523968,2010-08-23 15:39:14,540.2576302827816,2,29,0.550297200679779,3.784254312515259,31.017715236976755,30.882153390451688,123.07882034709816,113.48830512047527,9.713172767078504e-05,0.0859051570296287,0,0,0
10494,350279.16334516177,2010-08-23 15:39:44,570.2729230428143,2,29,0.5501165986061096,3.786844491958618,31.022301969984472,30.882153390451688,123.09618350501754,113.48830512047527,6.47544875391759e-05,0.0859051570296287,0,0,0
10495,350309.17840221943,2010-08-23 15:40:14,600.2879801004041,2,29,0.5501165986061096,3.7897584438323975,31.0268885709751,30.882153390451688,123.11355892251451,113.48830512047527,9.713172767078504e-05,0.0859051570296287,0,0,0
10496,350339.19357630867,2010-08-23 15:40:44,630.3031541946851,2,29,0.5501165986061096,3.792510509490967,31.03147528356549,30.882153390451688,123.13094770775548,113.48830512047527,6.47544875391759e-05,0.0859051570296287,0,0,0
10497,350369.2087532,2010-08-23 15:41:14,660.3183310809247,2,29,0.550297200679779,3.795748233795166,31.03606196485928,30.882153390451688,123.14834947110737,113.48830512047527,0.0001295089750783,0.0859051570296287,0,0,0
10498,350399.22392290324,2010-08-23 15:41:44,690.3335008093247,2,29,0.5499359965324402,3.798338413238525,31.040648687513865,30.882153390451688,123.1657648458456,113.48830512047527,3.237724376958795e-05,0.0859051570296287,0,0,0
10499,350429.23912536824,2010-08-23 15:42:14,720.3487032542645,2,29,0.5501165986061096,3.8015761375427246,31.04523536189588,30.882153390451688,123.1831938407488,113.48830512047527,0.0001295089750783,0.0859051570296287,0,0,0
10500,350459.2543203195,2010-08-23 15:42:44,750.3638982255776,2,29,0.5501165986061096,3.804490089416504,31.04982198018806,30.882153390451688,123.20063684500978,113.48830512047527,6.47544875391759e-05,0.0859051570296287,0,0,0
10501,350489.26964791137,2010-08-23 15:43:14,780.379225797372,2,29,0.5501165986061096,3.807727813720703,31.05440875167581,30.882153390451688,123.21809521824164,113.48830512047527,3.237724376958795e-05,0.0859051570296287,0,0,0
10502,350519.2847104827,2010-08-23 15:43:44,810.3942883636911,2,29,0.5501165986061096,3.811127424240112,31.058995431611084,30.882153390451688,123.2355684285412,113.48830512047527,9.713172767078504e-05,0.0859051570296287,0,0,0
10503,350549.299878562,2010-08-23 15:44:14,840.4094564429809,2,29,0.5499359965324402,3.814688920974731,31.063582124751136,30.882153390451688,123.25305731266728,113.48830512047527,6.47544875391759e-05,0.0859051570296287,0,0,0
10504,350579.3150522904,2010-08-23 15:44:44,870.42463017135,2,29,0.550297200679779,3.818250417709351,31.068168796465567,30.882153390451688,123.27056204209988,113.48830512047527,9.713172767078504e-05,0.0859051570296287,0,0,0
10505,350609.3302432868,2010-08-23 15:45:14,900.4398211727689,2,29,0.5501165986061096,3.82165002822876,31.072755447382328,30.882153390451688,123.28808252107628,113.48830512047527,0.0001295089750783,0.0859051570296287,0,0,0
10506,350639.3454403082,2010-08-23 15:45:44,930.4550181941916,2,29,0.5501165986061096,3.825049638748169,31.07734210897774,30.882153390451688,123.30561872967928,113.48830512047527,9.713172767078504e-05,0.0859051570296287,0,0,0
10507,350669.36133999587,2010-08-23 15:46:14,960.4709180222244,2,29,0.5499359965324402,3.828287363052368,31.08192890130149,30.882153390451688,123.32317105064465,113.48830512047527,6.47544875391759e-05,0.0859051570296287,0,0,0
10508,350699.3757786823,2010-08-23 15:46:44,990.4853565632808,2,29,0.550297200679779,3.8318488597869873,31.086515477160976,30.882153390451688,123.34073791731991,113.48830512047527,9.713172767078504e-05,0.0859051570296287,0,0,0
10509,350729.3909544758,2010-08-23 15:47:14,1020.5005323618094,2,29,0.5499359965324402,3.8349244594573975,31.091102181752653,30.882153390451688,123.35832032966898,113.48830512047527,6.47544875391759e-05,0.0859051570296287,0,0,0
10510,350759.40626836347,2010-08-23 15:47:44,1050.5158462545112,2,29,0.5501165986061096,3.8381621837615967,31.095688888627677,30.882153390451688,123.3759175416712,113.48830512047527,6.47544875391759e-05,0.0859051570296287,0,0,0
10511,350789.4213336566,2010-08-23 15:48:14,1080.530911542614,2,29,0.5501165986061096,3.841238021850586,31.10027558069407,30.882153390451688,123.39352922323906,113.48830512047527,6.47544875391759e-05,0.0859051570296287,0,0,0
10512,350819.43669522816,2010-08-23 15:48:44,1110.5462731191585,2,29,0.5499359965324402,3.844313859939575,31.10486217712945,30.882153390451688,123.41115482582542,113.48830512047527,9.713172767078504e-05,0.0859051570296287,0,0,0
10513,350849.4516775244,2010-08-23 15:49:14,1140.5612554104075,2,29,0.5501165986061096,3.847389698028565,31.109448775822617,30.882153390451688,123.42879454349097,113.48830512047527,6.47544875391759e-05,0.0859051570296287,0,0,0
10514,350879.46687631024,2010-08-23 15:49:44,1170.5764542162774,2,29,0.5501165986061096,3.850303649902344,31.11403540180215,30.882153390451688,123.44644814139708,113.48830512047527,6.47544875391759e-05,0.0859051570296287,0,0,0
10515,350909.48205682554,2010-08-23 15:50:14,1200.5916347064992,2,29,0.5501165986061096,3.853379487991333,31.118622075103424,30.882153390451688,123.46411532807534,113.48830512047527,6.47544875391759e-05,0.0859051570296287,0,0,0
10516,350939.49721851887,2010-08-23 15:50:44,1230.6067964048862,2,29,0.5501165986061096,3.855969667434693,31.1232086993556,30.882153390451688,123.48179521433865,113.48830512047527,6.47544875391759e-05,0.0859051570296287,0,0,0
10517,350969.5124011043,2010-08-23 15:51:14,1260.6219789953425,2,29,0.5501165986061096,3.858559846878052,31.12779537666642,30.882153390451688,123.49948777972064,113.48830512047527,6.47544875391759e-05,0.0859051570296287,0,0,0
10518,350999.527584186,2010-08-23 15:51:44,1290.6371620720104,2,29,0.550297200679779,3.861150026321411,31.132382045935824,30.882153390451688,123.5171920455002,113.48830512047527,3.237724376958795e-05,0.0859051570296287,0,0,0
10519,351029.54277553834,2010-08-23 15:52:14,1320.652353449366,2,29,0.5501165986061096,3.863578319549561,31.13696875303052,30.882153390451688,123.53490749358689,113.48830512047527,6.47544875391759e-05,0.0859051570296287,0,0,0
10520,351059.558065762,2010-08-23 15:52:44,1350.6676436430023,2,29,0.550297200679779,3.86568284034729,31.14155548083901,30.882153390451688,123.55263316699468,113.48830512047527,6.47544875391759e-05,0.0859051570296287,0,0,0
10521,351089.57314470416,2010-08-23 15:53:14,1380.6827226101975,2,29,0.5501165986061096,3.8676254749298096,31.14614216121741,30.882153390451688,123.57036806789324,113.48830512047527,6.47544875391759e-05,0.0859051570296287,0,0,0
10522,351119.5883259462,2010-08-23 15:53:44,1410.6979038372558,2,29,0.5499359965324402,3.869244337081909,31.150728853965337,30.882153390451688,123.58811161527426,113.48830512047527,3.237724376958795e-05,0.0859051570296287,0,0,0
10523,351149.6038714211,2010-08-23 15:54:14,1440.713449447469,2,29,0.5501165986061096,3.8710250854492183,31.155315575390475,30.882153390451688,123.60586308077832,113.48830512047527,3.237724376958795e-05,0.0859051570296287,0,0,0
10524,351179.6186698491,2010-08-23 15:54:44,1470.728247730112,2,29,0.5501165986061096,3.8723201751708975,31.159902145895963,30.882153390451688,123.62362107548554,113.48830512047527,0.0,0.0859051570296287,0,0,0
10525,351209.63384716643,2010-08-23 15:55:14,1500.7434250474255,2,29,0.550297200679779,3.873939037322998,31.164488887141644,30.882153390451688,123.6413862644916,113.48830512047527,6.47544875391759e-05,0.0859051570296287,0,0,0
10526,351239.64903914026,2010-08-23 15:55:44,1530.7586170463308,2,29,0.5499359965324402,3.875072240829468,31.169075613920477,30.882153390451688,123.65915720485796,113.48830512047527,3.237724376958795e-05,0.0859051570296287,0,0,0
10527,351269.66426055244,2010-08-23 15:56:14,1560.7738385186926,2,29,0.5501165986061096,3.876043558120728,31.17366230083456,30.882153390451688,123.6769336053458,113.48830512047527,-3.237724376958795e-05,0.0859051570296287,0,0,0
10528,351299.6795535331,2010-08-23 15:56:44,1590.7891314190751,2,29,0.5501165986061096,3.8773386478424072,31.1782490207599,30.882153390451688,123.69471530233336,113.48830512047527,3.237724376958795e-05,0.0859051570296287,0,0,0
10529,351329.6945715935,2010-08-23 15:57:14,1620.8041495045345,2,29,0.5501165986061096,3.878471851348877,31.18283572020263,30.882153390451688,123.71250189725848,113.48830512047527,6.47544875391759e-05,0.0859051570296287,0,0,0
10530,351359.7097611262,2010-08-23 15:57:44,1650.819339007218,2,29,0.5501165986061096,3.879281282424927,31.187422424694528,30.882153390451688,123.73029321176487,113.48830512047527,0.0,0.0859051570296287,0,0,0
10531,351389.7249434711,2010-08-23 15:58:14,1680.834521352062,2,29,0.5501165986061096,3.880414485931397,31.192009214395632,30.882153390451688,123.74808935592888,113.48830512047527,3.237724376958795e-05,0.0859051570296287,0,0,0
10532,351419.74010733486,2010-08-23 15:58:44,1710.849685245921,2,29,0.5499359965324402,3.881385803222656,31.196595880789985,30.882153390451688,123.76588947181652,113.48830512047527,3.237724376958795e-05,0.0859051570296287,0,0,0
10533,351449.75530594523,2010-08-23 15:59:14,1740.8648838262286,2,29,0.5499359965324402,3.882195234298706,31.201182552090565,30.882153390451688,123.7836939504167,113.48830512047527,0.0,0.0859051570296287,0,0,0
10534,351479.7704736486,2010-08-23 15:59:44,1770.8800515345938,2,29,0.5501165986061096,3.883166551589966,31.20576915468862,30.882153390451688,123.8015024980074,113.48830512047527,3.237724376958795e-05,0.0859051570296287,0,0,0
10535,351509.785679517,2010-08-23 16:00:14,1800.8952574281286,2,29,0.550297200679779,3.8841378688812256,31.210355855663938,30.882153390451688,123.81931577489893,113.48830512047527,3.237724376958795e-05,0.0859051570296287,0,0,0
10536,351539.80087160616,2010-08-23 16:00:44,1830.9104494871835,2,29,0.5501165986061096,3.885109186172485,31.214942615562837,30.882153390451688,123.8371333560306,113.48830512047527,6.47544875391759e-05,0.0859051570296287,0,0,0
10537,351569.81602023705,2010-08-23 16:01:14,1860.9255981180013,2,29,0.5501165986061096,3.885918617248535,31.219529281639424,30.882153390451688,123.8549548277886,113.48830512047527,3.237724376958795e-05,0.0859051570296287,0,0,0
10538,351599.8312136595,2010-08-23 16:01:44,1890.9407915605043,2,29,0.5501165986061096,3.886889934539795,31.22411592701537,30.882153390451688,123.8727804526643,113.48830512047527,3.237724376958795e-05,0.0859051570296287,0,0,0
10539,351629.84662531584,2010-08-23 16:02:14,1920.9562031968137,2,29,0.5501165986061096,3.887861251831055,31.22870263672296,30.882153390451688,123.89061050372808,113.48830512047527,6.47544875391759e-05,0.0859051570296287,0,0,0
10540,351659.8615769205,2010-08-23 16:02:44,1950.9711548015823,2,29,0.5501165986061096,3.888670682907105,31.233289246085043,30.882153390451688,123.90844445234714,113.48830512047527,0.0,0.0859051570296287,0,0,0
10541,351689.87673875934,2010-08-23 16:03:14,1980.9863166453315,2,29,0.5501165986061096,3.889642000198364,31.23787596990104,30.882153390451688,123.9262831278548,113.48830512047527,3.237724376958795e-05,0.0859051570296287,0,0,0
10542,351719.8919549736,2010-08-23 16:03:44,2011.0015328595885,2,29,0.550297200679779,3.890451431274414,31.24246276513772,30.882153390451688,123.94412628175782,113.48830512047527,0.0,0.0859051570296287,0,0,0
10543,351749.9071170178,2010-08-23 16:04:14,2041.0166948988249,2,29,0.5499359965324402,3.891422748565674,31.247049496339187,30.882153390451688,123.961973528457,113.48830512047527,0.0,0.0859051570296287,0,0,0
10544,351779.92241725646,2010-08-23 16:04:44,2071.031995137497,2,29,0.5501165986061096,3.892555952072144,31.251636138209168,30.882153390451688,123.97982475834613,113.48830512047527,6.47544875391759e-05,0.0859051570296287,0,0,0
10545,351809.9374666299,2010-08-23 16:05:15,2101.047044515947,2,29,0.5501165986061096,3.893365383148194,31.25622287946204,30.882153390451688,123.99768082876209,113.48830512047527,3.237724376958795e-05,0.0859051570296287,0,0,0
10546,351839.9528494695,2010-08-23 16:05:45,2131.062427355486,2,29,0.550297200679779,3.894660472869873,31.260809575297625,30.882153390451688,124.01554121077334,113.48830512047527,3.237724376958795e-05,0.0859051570296287,0,0,0
10547,351869.9679564916,2010-08-23 16:06:15,2161.077534382616,2,29,0.550297200679779,3.895469903945923,31.265396204179897,30.882153390451688,124.03340537775524,113.48830512047527,6.47544875391759e-05,0.0859051570296287,0,0,0
10548,351899.983065624,2010-08-23 16:06:45,2191.092643514992,2,29,0.5501165986061096,3.896441221237183,31.26998283399685,30.882153390451688,124.0512740907868,113.48830512047527,6.47544875391759e-05,0.0859051570296287,0,0,0
10549,351929.9982456681,2010-08-23 16:07:15,2221.107823569126,2,29,0.5501165986061096,3.897250652313232,31.27456957787087,30.882153390451688,124.06914791504649,113.48830512047527,3.237724376958795e-05,0.0859051570296287,0,0,0
10550,351960.013521912,2010-08-23 16:07:45,2251.1230998230203,2,29,0.5501165986061096,3.898221969604492,31.27915630781556,30.882153390451688,124.08702630651236,113.48830512047527,0.0,0.0859051570296287,0,0,0
10551,351990.02858805214,2010-08-23 16:08:15,2281.1381659582344,2,29,0.5501165986061096,3.899517059326172,31.28374296033808,30.882153390451688,124.10490917394868,113.48830512047527,3.237724376958795e-05,0.0859051570296287,0,0,0
10552,352020.04388114804,2010-08-23 16:08:45,2311.153459044079,2,29,0.5501165986061096,3.900488376617432,31.288329673359456,30.882153390451688,124.1227970210233,113.48830512047527,3.237724376958795e-05,0.0859051570296287,0,0,0
10553,352050.0589411279,2010-08-23 16:09:15,2341.168519013927,2,29,0.5501165986061096,3.901621580123901,31.29291634137096,30.882153390451688,124.14068962043577,113.48830512047527,6.47544875391759e-05,0.0859051570296287,0,0,0
10554,352080.07412385376,2010-08-23 16:09:45,2371.183701744733,2,29,0.5501165986061096,3.902592897415161,31.297502924850875,30.882153390451688,124.1585868357278,113.48830512047527,3.237724376958795e-05,0.0859051570296287,0,0,0
10555,352110.0894461173,2010-08-23 16:10:15,2401.199024008298,2,29,0.550297200679779,3.903887987136841,31.302089642754257,30.882153390451688,124.17648955973284,113.48830512047527,3.237724376958795e-05,0.0859051570296287,0,0,0
10556,352140.1045073302,2010-08-23 16:10:45,2431.2140852262564,2,29,0.5501165986061096,3.9048593044281006,31.30667631396589,30.882153390451688,124.19439720719107,113.48830512047527,3.237724376958795e-05,0.0859051570296287,0,0,0
10557,352170.1197864713,2010-08-23 16:11:15,2461.229364362334,2,29,0.550297200679779,3.9059925079345694,31.31126306861636,30.882153390451688,124.21231019690494,113.48830512047527,6.47544875391759e-05,0.0859051570296287,0,0,0
10558,352200.13484917296,2010-08-23 16:11:45,2491.244427053965,2,29,0.5499359965324402,3.90696382522583,31.31584969323794,30.882153390451688,124.23022788939804,113.48830512047527,0.0,0.0859051570296287,0,0,0
10559,352230.1500160493,2010-08-23 16:12:15,2521.259593940282,2,29,0.550297200679779,3.9082589149475098,31.32043642426917,30.882153390451688,124.24815129967212,113.48830512047527,3.237724376958795e-05,0.0859051570296287,0,0,0
10560,352260.1651860834,2010-08-23 16:12:45,2551.274763969432,2,29,0.5499359965324402,3.90939211845398,31.325023163965145,30.882153390451688,124.26608017683652,113.48830512047527,3.237724376958795e-05,0.0859051570296287,0,0,0
10561,352290.1803628344,2010-08-23 16:13:15,2581.289940735371,2,29,0.5501165986061096,3.910687208175659,31.32960993799875,30.882153390451688,124.28401461549367,113.48830512047527,3.237724376958795e-05,0.0859051570296287,0,0,0
10562,352320.1955506729,2010-08-23 16:13:45,2611.30512857892,2,29,0.5501165986061096,3.911658525466919,31.33419668698896,30.882153390451688,124.30195443957372,113.48830512047527,-3.237724376958795e-05,0.0859051570296287,0,0,0
10563,352350.21075933834,2010-08-23 16:14:15,2641.320337249376,2,29,0.5501165986061096,3.912953615188599,31.33878342553243,30.882153390451688,124.31989989032569,113.48830512047527,3.237724376958795e-05,0.0859051570296287,0,0,0
10564,352380.2259130518,2010-08-23 16:14:45,2671.3354909377986,2,29,0.5501165986061096,3.914410352706909,31.343370251834333,30.882153390451688,124.33785129196195,113.48830512047527,6.47544875391759e-05,0.0859051570296287,0,0,0
10565,352410.2411199228,2010-08-23 16:15:15,2701.350697813782,2,29,0.5501165986061096,3.915543556213379,31.347957070208867,30.882153390451688,124.35580844375237,113.48830512047527,3.237724376958795e-05,0.0859051570296287,0,0,0
10566,352440.25642457744,2010-08-23 16:15:45,2731.366002458435,2,29,0.5501165986061096,3.9168386459350586,31.352543862062817,30.882153390451688,124.373771065177,113.48830512047527,3.237724376958795e-05,0.0859051570296287,0,0,0
10567,352470.271469981,2010-08-23 16:16:15,2761.381047861979,2,29,0.5501165986061096,3.9181337356567374,31.35713062573004,30.882153390451688,124.39173952085396,113.48830512047527,3.237724376958795e-05,0.0859051570296287,0,0,0
10568,352500.2867623801,2010-08-23 16:16:45,2791.396340271137,2,29,0.5501165986061096,3.919428825378418,31.36171738482821,30.882153390451688,124.40971387906208,113.48830512047527,3.237724376958795e-05,0.0859051570296287,0,0,0
10569,352530.30182699155,2010-08-23 16:17:15,2821.4114048825536,2,29,0.5501165986061096,3.9207239151000977,31.366304107098298,30.882153390451688,124.42769416583296,113.48830512047527,3.237724376958795e-05,0.0859051570296287,0,0,0
10570,352560.3170350103,2010-08-23 16:17:45,2851.42661289136,2,29,0.5501165986061096,3.922019004821777,31.370890895533936,30.882153390451688,124.44568075878334,113.48830512047527,0.0,0.0859051570296287,0,0,0
10571,352590.33245218545,2010-08-23 16:18:15,2881.442030076498,2,29,0.5501165986061096,3.923314094543457,31.37547772648208,30.882153390451688,124.46367369138932,113.48830512047527,3.237724376958795e-05,0.0859051570296287,0,0,0
10572,352620.3473910786,2010-08-23 16:18:45,2911.456968969586,2,29,0.5501165986061096,3.9247710704803462,31.380064424320626,30.882153390451688,124.481672327168,113.48830512047527,3.237724376958795e-05,0.0859051570296287,0,0,0
10573,352650.3625669523,2010-08-23 16:19:15,2941.47214485834,2,29,0.5499359965324402,3.9260661602020255,31.384651236908542,30.882153390451688,124.49967771713008,113.48830512047527,3.237724376958795e-05,0.0859051570296287,0,0,0
10574,352680.3779084588,2010-08-23 16:19:45,2971.4874863799005,2,29,0.550297200679779,3.927523136138916,31.38923804074687,30.882153390451688,124.5176893805372,113.48830512047527,3.237724376958795e-05,0.0859051570296287,0,0,0
10575,352710.3928875571,2010-08-23 16:20:15,3001.502465438092,2,29,0.550297200679779,3.9289801120758057,31.39382564249427,30.882153390451688,124.53571065942356,113.48830512047527,3.237724376958795e-05,0.0859051570296287,0,0,0
10576,352740.40806629794,2010-08-23 16:20:45,3031.5176442090287,2,29,0.5499359965324402,3.9301133155822754,31.3984132370874,30.882153390451688,124.5537383741154,113.48830512047527,-3.237724376958795e-05,0.0859051570296287,0,0,0
10577,352770.4232865072,2010-08-23 16:21:15,3061.53286439318,2,29,0.550297200679779,3.931894063949585,31.403000769215613,30.882153390451688,124.57177231855684,113.48830512047527,3.237724376958795e-05,0.0859051570296287,0,0,0
10578,352800.43842587486,2010-08-23 16:21:45,3091.548003760912,2,29,0.550297200679779,3.9331891536712646,31.407588405969552,30.882153390451688,124.58981321787128,113.48830512047527,3.237724376958795e-05,0.0859051570296287,0,0,0
10579,352830.4536238838,2010-08-23 16:22:15,3121.5632017948583,2,29,0.550297200679779,3.934808015823364,31.412176135350716,30.882153390451688,124.60786108786183,113.48830512047527,6.47544875391759e-05,0.0859051570296287,0,0,0
10580,352860.46879001823,2010-08-23 16:22:45,3151.578367894213,2,29,0.550297200679779,3.936264991760254,31.416763799407008,30.882153390451688,124.6259154507688,113.48830512047527,9.713172767078504e-05,0.0859051570296287,0,0,0
10581,352890.48397461366,2010-08-23 16:23:15,3181.593552504704,2,29,0.5501165986061096,3.937721967697144,31.421350856925624,30.882153390451688,124.64397393678016,113.48830512047527,6.47544875391759e-05,0.0859051570296287,0,0,0
10582,352920.49915657256,2010-08-23 16:23:45,3211.6087344535613,2,29,0.5501165986061096,3.9390170574188232,31.425937781005647,30.882153390451688,124.6620388198785,113.48830512047527,3.237724376958795e-05,0.0859051570296287,0,0,0
10583,352950.5143566566,2010-08-23 16:24:15,3241.623934537617,2,29,0.550297200679779,3.940635919570923,31.43052469010916,30.882153390451688,124.68011051783144,113.48830512047527,3.237724376958795e-05,0.0859051570296287,0,0,0
10584,352980.5295608409,2010-08-23 16:24:45,3271.639138726904,2,29,0.5501165986061096,3.942092895507813,31.43511163220665,30.882153390451688,124.69818925148527,113.48830512047527,6.47544875391759e-05,0.0859051570296287,0,0,0
10585,353010.5446904944,2010-08-23 16:25:15,3301.6542683854377,2,29,0.5501165986061096,3.943549871444702,31.439698552770704,30.882153390451688,124.7162749597686,113.48830512047527,6.47544875391759e-05,0.0859051570296287,0,0,0
10586,353040.55987934547,2010-08-23 16:25:45,3331.669457226472,2,29,0.550297200679779,3.945330619812012,31.444285500177447,30.882153390451688,124.7343678337044,113.48830512047527,3.237724376958795e-05,0.0859051570296287,0,0,0
10587,353070.57519551384,2010-08-23 16:26:15,3361.6847733948453,2,29,0.5501165986061096,3.9466257095336914,31.448872474406205,30.882153390451688,124.75246804581526,113.48830512047527,0.0,0.0859051570296287,0,0,0
10588,353100.59023518313,2010-08-23 16:26:45,3391.699813074123,2,29,0.5501165986061096,3.948406457901001,31.45345933951042,30.882153390451688,124.77057506805224,113.48830512047527,6.47544875391759e-05,0.0859051570296287,0,0,0
10589,353130.6054282948,2010-08-23 16:27:15,3421.7150061757766,2,29,0.5501165986061096,3.94986343383789,31.45804630047286,30.882153390451688,124.7886899538346,113.48830512047527,0.0,0.0859051570296287,0,0,0
10590,353160.6206014568,2010-08-23 16:27:45,3451.7301793377337,2,29,0.550297200679779,3.95180606842041,31.462633225061587,30.882153390451688,124.8068122226596,113.48830512047527,6.47544875391759e-05,0.0859051570296287,0,0,0
10591,353190.6358101573,2010-08-23 16:28:15,3481.7453880733524,2,29,0.5501165986061096,3.9532630443573,31.467220153242742,30.882153390451688,124.8249420507344,113.48830512047527,3.237724376958795e-05,0.0859051570296287,0,0,0
10592,353220.65096952487,2010-08-23 16:28:45,3511.760547415867,2,29,0.550297200679779,3.95504379272461,31.471807083449736,30.882153390451688,124.84307964948614,113.48830512047527,3.237724376958795e-05,0.0859051570296287,0,0,0
10593,353250.6661542155,2010-08-23 16:29:15,3541.775732101545,2,29,0.550297200679779,3.956662654876709,31.47639407605276,30.882153390451688,124.86122533356496,113.48830512047527,3.237724376958795e-05,0.0859051570296287,0,0,0
10594,353280.6814525695,2010-08-23 16:29:45,3571.791030450508,2,29,0.5501165986061096,3.9584434032440186,31.48098103846452,30.882153390451688,124.87937874923188,113.48830512047527,3.237724376958795e-05,0.0859051570296287,0,0,0
10595,353310.6966450195,2010-08-23 16:30:15,3601.8062229306115,2,29,0.550297200679779,3.960386037826538,31.48556803099128,30.882153390451688,124.8975403984234,113.48830512047527,6.47544875391759e-05,0.0859051570296287,0,0,0
10596,353340.71181238204,2010-08-23 16:30:45,3631.821390268052,2,29,0.550297200679779,3.962166786193848,31.49015498460165,30.882153390451688,124.9157101093778,113.48830512047527,6.47544875391759e-05,0.0859051570296287,0,0,0
10597,353370.72687587567,2010-08-23 16:31:15,3661.8364537566704,2,29,0.550297200679779,3.9637856483459473,31.49474193861927,30.882153390451688,124.93388800810744,113.48830512047527,6.47544875391759e-05,0.0859051570296287,0,0,0
10598,353400.74209188943,2010-08-23 16:31:45,3691.8516698005023,2,29,0.5501165986061096,3.965728282928467,31.499328893349237,30.882153390451688,124.95207440020177,113.48830512047527,3.237724376958795e-05,0.0859051570296287,0,0,0
10599,353430.7578624753,2010-08-23 16:32:15,3721.867440361362,2,29,0.550297200679779,3.967509031295776,31.50391596359969,30.882153390451688,124.97026972080924,113.48830512047527,3.237724376958795e-05,0.0859051570296287,0,0,0
10600,353460.77246713545,2010-08-23 16:32:45,3751.8820450164258,2,29,0.5501165986061096,3.969451665878296,31.50850283814794,30.882153390451688,124.98847274425592,113.48830512047527,3.237724376958795e-05,0.0859051570296287,0,0,0
10601,353490.7876014506,2010-08-23 16:33:15,3781.897179341589,2,29,0.5501165986061096,3.971394300460816,31.51308981397847,30.882153390451688,125.006684779995,113.48830512047527,6.47544875391759e-05,0.0859051570296287,0,0,0
10602,353520.8027902415,2010-08-23 16:33:45,3811.9123681224746,2,29,0.550297200679779,3.973175048828125,31.517676841149097,30.882153390451688,125.02490566437876,113.48830512047527,6.47544875391759e-05,0.0859051570296287,0,0,0
10603,353550.8181767552,2010-08-23 16:34:15,3841.9277546662447,2,29,0.550297200679779,3.9752795696258554,31.52226386960149,30.882153390451688,125.04313527441272,113.48830512047527,9.713172767078504e-05,0.0859051570296287,0,0,0
10604,353580.83316003386,2010-08-23 16:34:45,3871.942737924905,2,29,0.550297200679779,3.977222204208374,31.526850876557283,30.882153390451688,125.06137360559688,113.48830512047527,9.713172767078504e-05,0.0859051570296287,0,0,0
10605,353610.8483827644,2010-08-23 16:35:15,3901.957960650389,2,29,0.550297200679779,3.979002952575684,31.531437953047057,30.882153390451688,125.07962060901194,113.48830512047527,6.47544875391759e-05,0.0859051570296287,0,0,0
10606,353640.863518473,2010-08-23 16:35:45,3931.9730963590014,2,29,0.5501165986061096,3.980945587158203,31.53602487510013,30.882153390451688,125.09787627869832,113.48830512047527,6.47544875391759e-05,0.0859051570296287,0,0,0
10607,353670.87873083766,2010-08-23 16:36:15,3961.9883087286776,2,29,0.5501165986061096,3.982888221740722,31.540611727378884,30.882153390451688,125.11614062598248,113.48830512047527,6.47544875391759e-05,0.0859051570296287,0,0,0
10608,353700.8939007014,2010-08-23 16:36:45,3992.003478592416,2,29,0.5501165986061096,3.984830856323242,31.545198664252244,30.882153390451688,125.13441414875764,113.48830512047527,3.237724376958795e-05,0.0859051570296287,0,0,0
10609,353730.9090538334,2010-08-23 16:37:16,4022.018631724451,2,29,0.5501165986061096,3.9867734909057617,31.549785476850065,30.882153390451688,125.1526961785364,113.48830512047527,3.237724376958795e-05,0.0859051570296287,0,0,0
10610,353760.9245138353,2010-08-23 16:37:46,4052.0340917162775,2,29,0.5501165986061096,3.988716125488281,31.55437239460243,30.882153390451688,125.17098762155577,113.48830512047527,6.47544875391759e-05,0.0859051570296287,0,0,0
10611,353790.9395553642,2010-08-23 16:38:16,4082.0491332451647,2,29,0.550297200679779,3.9908206462860103,31.55895921163565,30.882153390451688,125.18928771814848,113.48830512047527,6.47544875391759e-05,0.0859051570296287,0,0,0
10612,353820.95474231045,2010-08-23 16:38:46,4112.064320226565,2,29,0.5499359965324402,3.9927632808685294,31.563546031903503,30.882153390451688,125.20759700862747,113.48830512047527,6.47544875391759e-05,0.0859051570296287,0,0,0
10613,353850.96977961384,2010-08-23 16:39:16,4142.079357504858,2,29,0.5501165986061096,3.994705677032471,31.56813285480164,30.882153390451688,125.22591549766474,113.48830512047527,6.47544875391759e-05,0.0859051570296287,0,0,0
10614,353880.98508879484,2010-08-23 16:39:46,4172.094666680804,2,29,0.550297200679779,3.9968101978302,31.572719794509087,30.882153390451688,125.24424382277545,113.48830512047527,6.47544875391759e-05,0.0859051570296287,0,0,0
10615,353911.0001522183,2010-08-23 16:40:16,4202.10973010426,2,29,0.5501165986061096,3.9985909461975098,31.5773066826563,30.882153390451688,125.26258132445231,113.48830512047527,3.237724376958795e-05,0.0859051570296287,0,0,0
10616,353941.01529959595,2010-08-23 16:40:46,4232.124877502005,2,29,0.5504778623580933,4.001019477844238,31.581893546179025,30.882153390451688,125.28092820142832,113.48830512047527,9.71794142969884e-05,0.0859051570296287,0,0,0
10617,353971.03047809115,2010-08-23 16:41:16,4262.140055997254,2,29,0.5501165986061096,4.003123760223389,31.58648038480775,30.882153390451688,125.29928459377994,113.48830512047527,9.70840483205393e-05,0.0859051570296287,0,0,0
10618,354001.0456565464,2010-08-23 16:41:46,4292.155234437367,2,29,0.5497553944587708,4.004904747009277,31.59106726636597,30.882153390451688,125.317650799893,113.48830512047527,3.24249267578125e-05,0.0859051570296287,0,0,0
10619,354031.0609933261,2010-08-23 16:42:16,4322.170571222123,2,29,0.5501165986061096,4.007332801818848,31.59565416983393,30.882153390451688,125.33602687666786,113.48830512047527,6.47544875391759e-05,0.0859051570296287,0,0,0
10620,354061.07602564705,2010-08-23 16:42:46,4352.185603538049,2,29,0.5499359965324402,4.009275436401367,31.60024110733863,30.882153390451688,125.3544130103576,113.48830512047527,3.23295607813634e-05,0.0859051570296287,0,0,0
10621,354091.09132762504,2010-08-23 16:43:16,4382.200905516055,2,29,0.5501165986061096,4.011541843414307,31.604827983479552,30.882153390451688,125.3728088336931,113.48830512047527,3.23295607813634e-05,0.0859051570296287,0,0,0
10622,354121.1065094336,2010-08-23 16:43:46,4412.216087314538,2,29,0.5501165986061096,4.013808250427246,31.60941485801867,30.882153390451688,125.39121479767952,113.48830512047527,6.47544875391759e-05,0.0859051570296287,0,0,0
10623,354151.1215775587,2010-08-23 16:44:16,4442.231155439711,2,29,0.550297200679779,4.016236782073975,31.614001791963776,30.882153390451688,125.40963117524646,113.48830512047527,9.71794142969884e-05,0.0859051570296287,0,0,0
10624,354181.13675615925,2010-08-23 16:44:46,4472.246334040224,2,29,0.5501165986061096,4.018341064453125,31.61858872224171,30.882153390451688,125.4280578697993,113.48830512047527,6.47544875391759e-05,0.0859051570296287,0,0,0
10625,354211.1519298375,2010-08-23 16:45:16,4502.261507718467,2,29,0.550297200679779,4.0206074714660645,31.623175662939424,30.882153390451688,125.4464949394522,113.48830512047527,3.23295607813634e-05,0.0859051570296287,0,0,0
10626,354241.16712759074,2010-08-23 16:45:46,4532.276705491765,2,29,0.5501165986061096,4.022873878479004,31.62776261337096,30.882153390451688,125.46494265179278,113.48830512047527,3.23295607813634e-05,0.0859051570296287,0,0,0
10627,354271.1822945572,2010-08-23 16:46:16,4562.291872463294,2,29,0.550297200679779,4.025302410125732,31.63234954268792,30.882153390451688,125.48340093762025,113.48830512047527,6.47544875391759e-05,0.0859051570296287,0,0,0
10628,354301.1974672229,2010-08-23 16:46:46,4592.307045103951,2,29,0.550297200679779,4.027730464935303,31.636936429933765,30.882153390451688,125.50186979818145,113.48830512047527,9.70840483205393e-05,0.0859051570296287,0,0,0
10629,354331.2126530264,2010-08-23 16:47:16,4622.3222309124285,2,29,0.5501165986061096,4.029835224151611,31.64152337575457,30.882153390451688,125.52034972370264,113.48830512047527,3.24249267578125e-05,0.0859051570296287,0,0,0
10630,354361.22796185146,2010-08-23 16:47:46,4652.337539742512,2,29,0.5501165986061096,4.032263278961182,31.646110303509268,30.882153390451688,125.53884049194744,113.48830512047527,3.23295607813634e-05,0.0859051570296287,0,0,0
10631,354391.2430258965,2010-08-23 16:48:16,4682.352603777492,2,29,0.5501165986061096,4.034853458404541,31.6506972123066,30.882153390451688,125.55734230884909,113.48830512047527,6.47544875391759e-05,0.0859051570296287,0,0,0
10632,354421.2581971036,2010-08-23 16:48:46,4712.3677749845765,2,29,0.5501165986061096,4.037281513214111,31.65528417350832,30.882153390451688,125.57585547880107,113.48830512047527,9.70840483205393e-05,0.0859051570296287,0,0,0
10633,354451.27339306235,2010-08-23 16:49:16,4742.382970943351,2,29,0.5501165986061096,4.03971004486084,31.65987115500853,30.882153390451688,125.59438002334184,113.48830512047527,6.47544875391759e-05,0.0859051570296287,0,0,0
10634,354481.28855243494,2010-08-23 16:49:46,4772.398130341004,2,29,0.5501165986061096,4.042300224304199,31.66445804655316,30.882153390451688,125.61291547641876,113.48830512047527,9.71794142969884e-05,0.0859051570296287,0,0,0
10635,354511.3037535065,2010-08-23 16:50:16,4802.413331387458,2,29,0.550297200679779,4.044566631317139,31.669044948423487,30.882153390451688,125.63146251662528,113.48830512047527,3.24249267578125e-05,0.0859051570296287,0,0,0
10636,354541.3189396909,2010-08-23 16:50:46,4832.428517571871,2,29,0.5501165986061096,4.047318458557129,31.673631884970927,30.882153390451688,125.65002128357324,113.48830512047527,6.47544875391759e-05,0.0859051570296287,0,0,0
10637,354571.3341106774,2010-08-23 16:51:16,4862.4436885884825,2,29,0.5501165986061096,4.049908638000488,31.67821885745795,30.882153390451688,125.66859198261552,113.48830512047527,9.70840483205393e-05,0.0859051570296287,0,0,0
10638,354601.3493104757,2010-08-23 16:51:46,4892.458888361764,2,29,0.550297200679779,4.052337169647217,31.682805785787984,30.882153390451688,125.68717426517574,113.48830512047527,6.47544875391759e-05,0.0859051570296287,0,0,0
10639,354631.3644751215,2010-08-23 16:52:16,4922.474053007496,2,29,0.550297200679779,4.055251121520996,31.68739272623849,30.882153390451688,125.70576851031969,113.48830512047527,9.71794142969884e-05,0.0859051570296287,0,0,0
10640,354661.3796743284,2010-08-23 16:52:46,4952.489252234415,2,29,0.550297200679779,4.057679176330566,31.69197972842683,30.882153390451688,125.72437504932824,113.48830512047527,9.70840483205393e-05,0.0859051570296287,0,0,0
10641,354691.3948181923,2010-08-23 16:53:16,4982.504396078302,2,29,0.5501165986061096,4.060431480407715,31.696566759133024,30.882153390451688,125.74299390403851,113.48830512047527,9.71794142969884e-05,0.0859051570296287,0,0,0
10642,354721.4100008379,2010-08-23 16:53:46,5012.519578738935,2,29,0.550297200679779,4.063021659851074,31.70115369886929,30.882153390451688,125.76162425429558,113.48830512047527,6.47544875391759e-05,0.0859051570296287,0,0,0
10643,354751.425199353,2010-08-23 16:54:16,5042.534777254079,2,29,0.5501165986061096,4.065611839294434,31.70574064879186,30.882153390451688,125.78026715030542,113.48830512047527,6.47544875391759e-05,0.0859051570296287,0,0,0
10644,354781.4403683246,2010-08-23 16:54:46,5072.549946210555,2,29,0.5501165986061096,4.068363666534424,31.71032755789068,30.882153390451688,125.79892239647398,113.48830512047527,6.47544875391759e-05,0.0859051570296287,0,0,0
10645,354811.4555482032,2010-08-23 16:55:16,5102.565126089254,2,29,0.5501165986061096,4.071115970611572,31.71491447323716,30.882153390451688,125.81759037601248,113.48830512047527,6.47544875391759e-05,0.0859051570296287,0,0,0
10646,354841.4707349692,2010-08-23 16:55:46,5132.580312855116,2,29,0.550297200679779,4.074029922485352,31.71950143177292,30.882153390451688,125.83627121471686,113.48830512047527,6.47544875391759e-05,0.0859051570296287,0,0,0
10647,354871.48592899303,2010-08-23 16:56:16,5162.595506894105,2,29,0.5501165986061096,4.076943874359131,31.72408837052089,30.882153390451688,125.85496493105262,113.48830512047527,0.0001619339018361,0.0859051570296287,0,0,0
10648,354901.5013052111,2010-08-23 16:56:46,5192.610883097103,2,29,0.5501165986061096,4.07953405380249,31.72867533139612,30.882153390451688,125.87367172291674,113.48830512047527,3.24249267578125e-05,0.0859051570296287,0,0,0
10649,354931.51639749145,2010-08-23 16:57:16,5222.625975372467,2,29,0.5501165986061096,4.0824480056762695,31.73326225460938,30.882153390451688,125.89239141832168,113.48830512047527,3.24249267578125e-05,0.0859051570296287,0,0,0
10650,354961.5314643785,2010-08-23 16:57:46,5252.641042269579,2,29,0.5501165986061096,4.085361957550049,31.73784918140575,30.882153390451688,125.91112433812305,113.48830512047527,9.71794142969884e-05,0.0859051570296287,0,0,0
10651,354991.54678506823,2010-08-23 16:58:16,5282.656362954209,2,29,0.550297200679779,4.088437557220459,31.74243619480035,30.882153390451688,125.92987099169036,113.48830512047527,9.70840483205393e-05,0.0859051570296287,0,0,0
10652,355021.5618174894,2010-08-23 16:58:46,5312.671395375397,2,29,0.5501165986061096,4.091351509094238,31.7470230354884,30.882153390451688,125.94863044921333,113.48830512047527,6.47544875391759e-05,0.0859051570296287,0,0,0
10653,355051.5769882804,2010-08-23 16:59:16,5342.686566166446,2,29,0.550297200679779,4.094265460968018,31.751609853690315,30.882153390451688,125.9674033286046,113.48830512047527,6.47544875391759e-05,0.0859051570296287,0,0,0
10654,355081.5923193108,2010-08-23 16:59:46,5372.70189721691,2,29,0.5501165986061096,4.097341537475586,31.75619671616057,30.882153390451688,125.98619011622104,113.48830512047527,6.47544875391759e-05,0.0859051570296287,0,0,0
10655,355111.60736546124,2010-08-23 17:00:16,5402.716943347266,2,29,0.5499359965324402,4.100255489349365,31.760783641668898,30.882153390451688,126.00499106761896,113.48830512047527,6.47544875391759e-05,0.0859051570296287,0,0,0
10656,355141.6226597301,2010-08-23 17:00:46,5432.732237616058,2,29,0.550297200679779,4.103331089019775,31.765370624022324,30.882153390451688,126.02380616077312,113.48830512047527,6.47544875391759e-05,0.0859051570296287,0,0,0
10657,355171.6378555084,2010-08-23 17:01:16,5462.74743342947,2,29,0.5501165986061096,4.106407165527344,31.769957536665107,30.882153390451688,126.04263514745942,113.48830512047527,6.47544875391759e-05,0.0859051570296287,0,0,0
10658,355201.6528974332,2010-08-23 17:01:46,5492.762475319257,2,29,0.550297200679779,4.109644889831543,31.774544418565103,30.882153390451688,126.06147824999432,113.48830512047527,9.71794142969884e-05,0.0859051570296287,0,0,0
10659,355231.66822709027,2010-08-23 17:02:16,5522.777804976248,2,29,0.550297200679779,4.112720489501953,31.779131383526085,30.882153390451688,126.08033601298422,113.48830512047527,6.47544875391759e-05,0.0859051570296287,0,0,0
10660,355261.68325409794,2010-08-23 17:02:46,5552.792831978932,2,29,0.5501165986061096,4.115796089172363,31.78371824382231,30.882153390451688,126.09920778643765,113.48830512047527,6.47544875391759e-05,0.0859051570296287,0,0,0
10661,355291.69846651773,2010-08-23 17:03:16,5582.808044403745,2,29,0.5501165986061096,4.1190338134765625,31.788305208065665,30.882153390451688,126.11809465691697,113.48830512047527,9.70840483205393e-05,0.0859051570296287,0,0,0
10662,355321.7136231585,2010-08-23 17:03:46,5612.823201039513,2,29,0.5501165986061096,4.122271537780762,31.792892172069585,30.882153390451688,126.13699629761632,113.48830512047527,9.70840483205393e-05,0.0859051570296287,0,0,0
10663,355351.72880717256,2010-08-23 17:04:16,5642.838385058531,2,29,0.5501165986061096,4.12567138671875,31.79747909478891,30.882153390451688,126.15591258176651,113.48830512047527,9.71794142969884e-05,0.0859051570296287,0,0,0
10664,355381.7440014371,2010-08-23 17:04:46,5672.853579343132,2,29,0.5501165986061096,4.128909111022949,31.802066011713944,30.882153390451688,126.17484389786776,113.48830512047527,6.47544875391759e-05,0.0859051570296287,0,0,0
10665,355411.75914524583,2010-08-23 17:05:16,5702.868723136895,2,29,0.550297200679779,4.132308483123779,31.806652864591143,30.882153390451688,126.19379009629768,113.48830512047527,0.0001295089750783,0.0859051570296287,0,0,0
10666,355441.774321275,2010-08-23 17:05:46,5732.883899155973,2,29,0.5501165986061096,4.135708332061768,31.811239788963395,30.882153390451688,126.21275186506148,113.48830512047527,9.71794142969884e-05,0.0859051570296287,0,0,0
10667,355471.7897116483,2010-08-23 17:06:16,5762.899289529289,2,29,0.5501165986061096,4.138946056365967,31.815826702680383,30.882153390451688,126.23172903368456,113.48830512047527,9.71794142969884e-05,0.0859051570296287,0,0,0
10668,355501.804696536,2010-08-23 17:06:46,5792.9142744170085,2,29,0.5501165986061096,4.142183780670166,31.82041360827427,30.882153390451688,126.25072175360384,113.48830512047527,6.47544875391759e-05,0.0859051570296287,0,0,0
10669,355531.8198503097,2010-08-23 17:07:16,5822.929428190645,2,29,0.5501165986061096,4.145906925201416,31.82500053623693,30.882153390451688,126.26973030761418,113.48830512047527,9.70840483205393e-05,0.0859051570296287,0,0,0
10670,355561.8350535716,2010-08-23 17:07:46,5852.944631457633,2,29,0.550297200679779,4.149306774139404,31.829587432578364,30.882153390451688,126.28875477744882,113.48830512047527,9.71794142969884e-05,0.0859051570296287,0,0,0
10671,355591.8502468537,2010-08-23 17:08:16,5882.959824739735,2,29,0.5501165986061096,4.152706146240234,31.83417435200866,30.882153390451688,126.30779530275694,113.48830512047527,6.47544875391759e-05,0.0859051570296287,0,0,0
10672,355621.86541341426,2010-08-23 17:08:46,5912.97499130024,2,29,0.5501165986061096,4.1562676429748535,31.83876129852841,30.882153390451688,126.32685201963494,113.48830512047527,6.47544875391759e-05,0.0859051570296287,0,0,0
10673,355651.88058076164,2010-08-23 17:09:17,5942.990158647707,2,29,0.550297200679779,4.159991264343262,31.84334821869813,30.882153390451688,126.34592481287189,113.48830512047527,9.71794142969884e-05,0.0859051570296287,0,0,0
10674,355681.8960302072,2010-08-23 17:09:47,5973.005608088235,2,29,0.5501165986061096,4.163390636444092,31.84793512958577,30.882153390451688,126.3650138866332,113.48830512047527,6.47544875391759e-05,0.0859051570296287,0,0,0
10675,355711.9111027133,2010-08-23 17:10:17,6003.020680589315,2,29,0.5501165986061096,4.16679048538208,31.852522019665223,30.882153390451688,126.38411935255706,113.48830512047527,3.24249267578125e-05,0.0859051570296287,0,0,0
10676,355741.92612958566,2010-08-23 17:10:47,6033.0357074716985,2,29,0.5501165986061096,4.170675754547119,31.857108853318373,30.882153390451688,126.40324122530554,113.48830512047527,9.71794142969884e-05,0.0859051570296287,0,0,0
10677,355771.9412907127,2010-08-23 17:11:17,6063.0508685986615,2,29,0.5501165986061096,4.174398899078369,31.86169574819521,30.882153390451688,126.42238017917508,113.48830512047527,6.47544875391759e-05,0.0859051570296287,0,0,0
10678,355801.95648336824,2010-08-23 17:11:47,6093.066061254202,2,29,0.5499359965324402,4.178122520446777,31.866282681697985,30.882153390451688,126.44153617990985,113.48830512047527,9.71794142969884e-05,0.0859051570296287,0,0,0
10679,355831.9716644348,2010-08-23 17:12:17,6123.081242315849,2,29,0.5501165986061096,4.182007789611816,31.87086959473773,30.882153390451688,126.46070917748624,113.48830512047527,0.0001295089750783,0.0859051570296287,0,0,0
10680,355861.9868407898,2010-08-23 17:12:47,6153.096418670764,2,29,0.5501165986061096,4.185569286346436,31.8754565589018,30.882153390451688,126.47989958398152,113.48830512047527,9.71794142969884e-05,0.0859051570296287,0,0,0
10681,355892.0020349541,2010-08-23 17:13:17,6183.111612835066,2,29,0.5501165986061096,4.1892924308776855,31.880043458834653,30.882153390451688,126.49910714071564,113.48830512047527,9.70840483205393e-05,0.0859051570296287,0,0,0
10682,355922.0172483212,2010-08-23 17:13:47,6213.12682622729,2,29,0.550297200679779,4.193177700042725,31.884630326108223,30.882153390451688,126.51833208141376,113.48830512047527,9.70840483205393e-05,0.0859051570296287,0,0,0
10683,355952.0325263746,2010-08-23 17:14:17,6243.142104265631,2,29,0.5501165986061096,4.197062969207764,31.889217278089056,30.882153390451688,126.53757506682268,113.48830512047527,9.71794142969884e-05,0.0859051570296287,0,0,0
10684,355973.93842607696,2010-08-23 17:14:39,6265.048003957942,2,29,0.550297200679779,4.200138568878174,31.89256491469026,30.882153390451688,126.55163017160524,113.48830512047527,0.0001295089750783,0.0859051570296287,0,0,0
10685,356003.9560670375,2010-08-23 17:15:09,30.015313050603044,3,29,0.0,4.122271537780762,31.89256491469026,30.882153390451688,126.55163017160524,113.48830512047527,-0.0004209518374409,0.0859051570296287,0,0,0
10686,356033.9711130726,2010-08-23 17:15:39,60.03035908572134,3,29,0.0,4.112558841705322,31.89256491469026,30.882153390451688,126.55163017160524,113.48830512047527,-0.0002265930233988,0.0859051570296287,0,0,0
10687,356063.98633205873,2010-08-23 17:16:09,90.04557809694933,3,29,0.0,4.106730937957764,31.89256491469026,30.882153390451688,126.55163017160524,113.48830512047527,-0.0001295089750783,0.0859051570296287,0,0,0
10688,356093.9546426347,2010-08-23 17:16:39,120.01388867292329,3,29,0.0,4.1031694412231445,31.89256491469026,30.882153390451688,126.55163017160524,113.48830512047527,-9.70840483205393e-05,0.0859051570296287,0,0,0
10689,356093.9588292961,2010-08-23 17:16:39,2.711758537e-06,4,29,1.0054326057434082,4.199814796447754,31.89256491544761,30.882153390451688,126.551630174786,113.48830512047527,0.0,0.0859051570296287,0,0,0
10690,356094.927541901,2010-08-23 17:16:40,0.96871528656035,4,29,0.954681396484375,4.199814796447754,31.89282717114434,30.882153390451688,126.55273159124292,113.48830512047527,0.0,0.0859051570296287,0,0,0
10691,356097.0369999796,2010-08-23 17:16:42,3.078173360143743,4,29,0.9046525955200196,4.199814796447754,31.89337084901245,30.882153390451688,126.55501490949072,113.48830512047527,0.0,0.0859051570296287,0,0,0
10692,356100.17746092455,2010-08-23 17:16:45,6.218634310126777,4,29,0.8546238541603088,4.199653148651123,31.89413705533963,30.882153390451688,126.55823278451652,113.48830512047527,-6.47544875391759e-05,0.0859051570296287,0,0,0
10693,356104.3336380568,2010-08-23 17:16:49,10.374811437351552,4,29,0.8045951128005981,4.199814796447754,31.895093614165447,30.882153390451688,126.56225011615872,113.48830512047527,0.0,0.0859051570296287,0,0,0
10694,356109.6462542109,2010-08-23 17:16:55,15.687427616521177,4,29,0.7543857097625732,4.199653148651123,31.89624260674157,30.882153390451688,126.56707562628328,113.48830512047527,-3.23295607813634e-05,0.0859051570296287,0,0,0
10695,356116.3959604206,2010-08-23 17:17:01,22.43713380617848,4,29,0.7043569087982178,4.199976921081543,31.897608285345072,30.882153390451688,126.572811191646,113.48830512047527,3.24249267578125e-05,0.0859051570296287,0,0,0
10696,356125.09908408765,2010-08-23 17:17:10,31.140257473241,4,29,0.6543281674385071,4.199814796447754,31.899248360742217,30.882153390451688,126.57969916599028,113.48830512047527,0.0,0.0859051570296287,0,0,0
10697,356136.8802885141,2010-08-23 17:17:22,42.921461934745054,4,29,0.6042994260787964,4.199653148651123,31.901305084428785,30.882153390451688,126.58833697292263,113.48830512047527,-3.23295607813634e-05,0.0859051570296287,0,0,0
10698,356154.25483617285,2010-08-23 17:17:39,60.296009553425456,4,29,0.5542706251144409,4.199653148651123,31.904093956343807,30.882153390451688,126.60004965129122,113.48830512047527,0.0,0.0859051570296287,0,0,0
10699,356181.0356320665,2010-08-23 17:18:06,87.07680545204973,4,29,0.5042418837547302,4.199814796447754,31.90801631901638,30.882153390451688,126.61652276157636,113.48830512047527,3.23295607813634e-05,0.0859051570296287,0,0,0
10700,356226.66012765776,2010-08-23 17:18:52,132.70130105840713,4,29,0.4542130827903747,4.199653148651123,31.914062841680835,30.882153390451688,126.64191685393648,113.48830512047527,-3.23295607813634e-05,0.0859051570296287,0,0,0
10701,356300.04951966903,2010-08-23 17:20:05,206.09069304960056,4,29,0.4040037095546722,4.199653148651123,31.922784187776745,30.882153390451688,126.67854462261828,113.48830512047527,0.0,0.0859051570296287,0,0,0
10702,356402.3448491355,2010-08-23 17:21:47,308.38602251611707,4,29,0.3539749383926391,4.199814796447754,31.933538264961943,30.882153390451688,126.72370948820402,113.48830512047527,-3.24249267578125e-05,0.0859051570296287,0,0,0
10703,356526.625128592,2010-08-23 17:23:52,432.6663020277461,4,29,0.3039461672306061,4.199653148651123,31.944875746823342,30.882153390451688,126.77132453783987,113.48830512047527,0.0,0.0859051570296287,0,0,0
10704,356675.6532898748,2010-08-23 17:26:21,581.6944632804066,4,29,0.253917396068573,4.199814796447754,31.9564025242143,30.882153390451688,126.81973456024404,113.48830512047527,6.47544875391759e-05,0.0859051570296287,0,0,0
10705,356861.8067738799,2010-08-23 17:29:27,767.8479472654923,4,29,0.2038886249065399,4.199491024017334,31.96820368380726,30.882153390451688,126.86929654936542,113.48830512047527,-3.24249267578125e-05,0.0859051570296287,0,0,0
10706,357103.75632945343,2010-08-23 17:33:29,1009.7975028339862,4,29,0.1538598537445068,4.199653148651123,31.980158805568543,30.882153390451688,126.9195055593777,113.48830512047527,-3.23295607813634e-05,0.0859051570296287,0,0,0
10707,357450.5323828989,2010-08-23 17:39:15,1356.5735562794964,4,29,0.1038310900330543,4.199653148651123,31.99242761102709,30.882153390451688,126.97103191308454,113.48830512047527,-3.23295607813634e-05,0.0859051570296287,0,0,0
10708,358072.0701581322,2010-08-23 17:49:37,1978.1113315328205,4,29,0.0538023225963115,4.199653148651123,32.00556892902789,30.882153390451688,127.02622271605024,113.48830512047527,-3.23295607813634e-05,0.0859051570296287,0,0,0
10709,358148.42824785155,2010-08-23 17:50:53,2054.46942123716,4,29,0.0498289167881011,4.199653148651123,32.006676687528056,30.882153390451688,127.03087507022686,113.48830512047527,0.0,0.0859051570296287,0,0,0
10710,358178.4472356801,2010-08-23 17:51:24,30.01545449312132,5,29,0.0,4.192530155181885,32.006676687528056,30.882153390451688,127.03087507022686,113.48830512047527,-3.24249267578125e-05,0.0859051570296287,0,0,0
10711,358208.44704225886,2010-08-23 17:51:54,60.015261202149965,5,29,0.0,4.191397190093994,32.006676687528056,30.882153390451688,127.03087507022686,113.48830512047527,0.0,0.0859051570296287,0,0,0
10712,358208.6226888829,2010-08-23 17:51:54,0.187375181606465,6,29,-1.9243103452026844e-05,4.191397190093994,32.006676687528056,30.882153391453265,127.03087507022686,113.48830512467327,0.0,0.0914128422737121,0,0,0
10713,358213.4507126537,2010-08-23 17:51:59,5.015398952389031,6,29,0.0005225847125984,4.191397190093994,32.00667768686535,30.882153391620196,127.03087925886769,113.48830512537296,-6.47544875391759e-05,0.0914128422737121,0,0,0
10714,358243.45472750696,2010-08-23 17:52:29,30.01513122243129,7,29,-1.099568486213684,4.0287017822265625,32.00667768686535,30.891321398563026,127.03087925886769,113.52542702963488,-0.0008742332574911,0.0914128422737121,0,0,0
10715,358273.4700501665,2010-08-23 17:52:59,60.03045389200778,7,29,-1.099568486213684,4.003609657287598,32.00667768686535,30.900489422659184,127.03087925886769,113.56223855209898,-0.0005503654247149,0.0914128422737121,0,0,0
10716,358303.4851302214,2010-08-23 17:53:29,90.0455339669638,7,29,-1.099568486213684,3.986449718475342,32.00667768686535,30.90965738347816,127.03087925886769,113.5988608827044,-0.0003561496851034,0.0914128422737121,0,0,0
10717,358333.5002772132,2010-08-23 17:53:59,120.0606809336346,7,29,-1.099568486213684,3.973175048828125,32.00667768686535,30.91882531415193,127.03087925886769,113.63534521831689,-0.0002913951757363,0.0914128422737121,0,0,0
10718,358363.5154601244,2010-08-23 17:54:29,150.07586384489036,7,29,-1.099568486213684,3.961843013763428,32.00667768686535,30.92799315651372,127.03087925886769,113.67171749503878,-0.0003237724304199,0.0914128422737121,0,0,0
10719,358393.53064350685,2010-08-23 17:54:59,180.09104722732042,7,29,-1.099568486213684,3.95180606842041,32.00667768686535,30.93716096683244,127.03087925886769,113.70799247465784,-0.0002913951757363,0.0914128422737121,0,0,0
10720,358423.5457911301,2010-08-23 17:55:29,210.10619483559023,7,29,-1.099568486213684,3.9425785541534415,32.00667768686535,30.946328843923677,127.03087925886769,113.7441790415188,-0.0002266406954731,0.0914128422737121,0,0,0
10721,358453.56096382096,2010-08-23 17:55:59,240.1213675414109,7,29,-1.099568486213684,3.933512926101685,32.00667768686535,30.955496704154264,127.03087925886769,113.78028221517708,-0.0002590179501567,0.0914128422737121,0,0,0
10722,358483.576267438,2010-08-23 17:56:29,270.1366711534903,7,29,-1.099568486213684,3.925094842910767,32.00667768686535,30.964664584524733,127.03087925886769,113.8163058182218,-0.0002266406954731,0.0914128422737121,0,0,0
10723,358513.5915511405,2010-08-23 17:56:59,300.1519548509362,7,29,-1.0993878841400146,3.917000532150269,32.00667768686535,30.97383259375853,127.03087925886769,113.85225312240838,-0.0001618862152099,0.0914128422737121,0,0,0
10724,358543.6065064144,2010-08-23 17:57:29,330.16691011983715,7,29,-1.099568486213684,3.9089064598083496,32.00667768686535,30.98300041048305,127.03087925886769,113.88812544737928,-0.0001618862152099,0.0914128422737121,0,0,0
10725,358573.6217943023,2010-08-23 17:57:59,360.1821980077269,7,29,-1.099568486213684,3.901135921478272,32.00667768686535,30.99216833833398,127.03087925886769,113.92392570887604,-0.0001942634553415,0.0914128422737121,0,0,0
10726,358603.6368648334,2010-08-23 17:58:29,390.1972685489219,7,29,-1.0993878841400146,3.8935272693634033,32.00667768686535,31.00133618844149,127.03087925886769,113.9596544538996,-0.0001618862152099,0.0914128422737121,0,0,0
10727,358633.652031825,2010-08-23 17:58:59,420.2124355405009,7,29,-1.0997490882873535,3.885918617248535,32.00667768686535,31.01050408204782,127.03087925886769,113.99531391521226,-0.0001618862152099,0.0914128422737121,0,0,0
10728,358663.6672094481,2010-08-23 17:59:29,450.2276131685894,7,29,-1.099568486213684,3.878309965133667,32.00667768686535,31.019671944928632,127.03087925886769,114.03090410704982,-0.0001942634553415,0.0914128422737121,0,0,0
10729,358693.68239199347,2010-08-23 17:59:59,480.2427956988957,7,29,-1.0993878841400146,3.8710250854492183,32.00667768686535,31.028839794227075,127.03087925886769,114.06642641180692,-0.0001618862152099,0.0914128422737121,0,0,0
10730,358723.6976785931,2010-08-23 18:00:29,510.2580822985749,7,29,-1.099568486213684,3.8637402057647705,32.00667768686535,31.03800772604601,127.03087925886769,114.10188206434296,-0.0001942634553415,0.0914128422737121,0,0,0
10731,358753.7127550641,2010-08-23 18:00:59,540.2731587996237,7,29,-1.099568486213684,3.856617212295532,32.00667768686535,31.047175606524124,127.03087925886769,114.13727174537829,-0.0001618862152099,0.0914128422737121,0,0,0
10732,358783.72790401574,2010-08-23 18:01:29,570.2883077261791,7,29,-1.099568486213684,3.849656105041504,32.00667768686535,31.056343472756023,127.03087925886769,114.17259653277752,-0.0001942634553415,0.0914128422737121,0,0,0
10733,358813.74310244067,2010-08-23 18:01:59,600.3035061811746,7,29,-1.099568486213684,3.8428568840026855,32.00667768686535,31.065511421805155,127.03087925886769,114.20785776225624,-0.0001618862152099,0.0914128422737121,0,0,0
10734,358843.7582449462,2010-08-23 18:02:29,630.3186486566519,7,29,-1.099568486213684,3.835895776748657,32.00667768686535,31.07467934141665,127.03087925886769,114.2430561390596,-0.0001942634553415,0.0914128422737121,0,0,0
10735,358873.7734478623,2010-08-23 18:02:59,660.3338515777784,7,29,-1.0997490882873535,3.829258680343628,32.00667768686535,31.08384728071161,127.03087925886769,114.27819254609932,-0.0001618862152099,0.0914128422737121,0,0,0
10736,358903.7885990144,2010-08-23 18:03:29,690.3490027198557,7,29,-1.099568486213684,3.8224594593048096,32.00667768686535,31.09301531450503,127.03087925886769,114.31326842333348,-0.0002266406954731,0.0914128422737121,0,0,0
10737,358933.80377334426,2010-08-23 18:03:59,720.3641770848113,7,29,-1.0997490882873535,3.815984010696411,32.00667768686535,31.10218362083629,127.03087925886769,114.34828552043253,-0.0001942634553415,0.0914128422737121,0,0,0
10738,358963.81895286206,2010-08-23 18:04:29,750.3793565725347,7,29,-1.0997490882873535,3.809670448303223,32.00667768686535,31.111352362764627,127.03087925886769,114.38324461590383,-0.0001295089750783,0.0914128422737121,0,0,0
10739,358993.8344051447,2010-08-23 18:04:59,780.3948088601592,7,29,-1.099568486213684,3.803356885910034,32.00667768686535,31.120520835459544,127.03087925886769,114.41814445568022,-0.0001618862152099,0.0914128422737121,0,0,0
10740,359023.8494667636,2010-08-23 18:05:29,810.4098704791171,7,29,-1.099568486213684,3.797205209732056,32.00667768686535,31.12968873481012,127.03087925886769,114.45298526805512,-0.0001618862152099,0.0914128422737121,0,0,0
10741,359053.86449727,2010-08-23 18:05:59,840.4249009855331,7,29,-1.099568486213684,3.791215419769287,32.00667768686535,31.13885662871144,127.03087925886769,114.48777005689392,-0.0001618862152099,0.0914128422737121,0,0,0
10742,359083.87968934915,2010-08-23 18:06:29,870.440093064638,7,29,-1.0997490882873535,3.7850637435913086,32.00667768686535,31.148024531525863,127.03087925886769,114.52249969470633,-0.0001942634553415,0.0914128422737121,0,0,0
10743,359113.89488038066,2010-08-23 18:06:59,900.4552840961319,7,29,-1.0993878841400146,3.77939772605896,32.00667768686535,31.15719247118936,127.03087925886769,114.55717495355924,-0.0001295089750783,0.0914128422737121,0,0,0
10744,359143.9100271218,2010-08-23 18:07:29,930.470430842253,7,29,-1.0997490882873535,3.773569822311402,32.00667768686535,31.166360477939307,127.03087925886769,114.59179740201805,-0.0001618862152099,0.0914128422737121,0,0,0
10745,359173.9252011108,2010-08-23 18:07:59,960.4856048312716,7,29,-1.0997490882873535,3.768065690994263,32.00667768686535,31.17552841547617,127.03087925886769,114.62636768484268,-0.0001295089750783,0.0914128422737121,0,0,0
10746,359203.94050215144,2010-08-23 18:08:29,990.50090586693,7,29,-1.0997490882873535,3.762399673461914,32.00667768686535,31.184696438571013,127.03087925886769,114.66088744012336,-0.0001618862152099,0.0914128422737121,0,0,0
10747,359233.95557510864,2010-08-23 18:08:59,1020.5159788492088,7,29,-1.099568486213684,3.757057428359986,32.00667768686535,31.193864397442653,127.03087925886769,114.6953567612582,-0.0001618862152099,0.0914128422737121,0,0,0
10748,359263.9707267469,2010-08-23 18:09:29,1050.5311304674728,7,29,-1.099568486213684,3.751715421676636,32.00667768686535,31.20303241965335,127.03087925886769,114.72977716035582,-0.0001618862152099,0.0914128422737121,0,0,0
10749,359293.9858953576,2010-08-23 18:09:59,1080.5462990730746,7,29,-1.0993878841400146,3.746535062789917,32.00667768686535,31.21220028829449,127.03087925886769,114.76414853824468,-0.0001618862152099,0.0914128422737121,0,0,0
10750,359324.0010732614,2010-08-23 18:10:29,1110.5614769818624,7,29,-1.0993878841400146,3.7413547039031982,32.00667768686535,31.2213674920936,127.03087925886769,114.79847010382724,-0.0001618862152099,0.0914128422737121,0,0,0
10751,359354.0168536467,2010-08-23 18:10:59,1140.5772573672075,7,29,-1.0993878841400146,3.7363362312316895,32.00667768686535,31.230534929567177,127.03087925886769,114.83274609975167,-0.0001618862152099,0.0914128422737121,0,0,0
10752,359384.0316095688,2010-08-23 18:11:29,1170.5920133143372,7,29,-1.0993878841400146,3.7316415309906006,32.00667768686535,31.23970207855801,127.03087925886769,114.86697575702404,-0.0001295089750783,0.0914128422737121,0,0,0
10753,359414.0466047071,2010-08-23 18:11:59,1200.60700842253,7,29,-1.099568486213684,3.7267849445343018,32.00667768686535,31.24886935700967,127.03087925886769,114.9011616205804,-0.0001295089750783,0.0914128422737121,0,0,0
10754,359444.0619356523,2010-08-23 18:12:29,1230.6223393727444,7,29,-1.0997490882873535,3.722090244293213,32.00667768686535,31.258037335322317,127.03087925886769,114.9353065962176,-9.713172767078504e-05,0.0914128422737121,0,0,0
10755,359474.0773359653,2010-08-23 18:12:59,1260.6377396858322,7,29,-1.0997490882873535,3.717395544052124,32.00667768686535,31.267205333335763,127.03087925886769,114.96940864035668,-0.0001295089750783,0.0914128422737121,0,0,0
10756,359504.09212396736,2010-08-23 18:13:29,1290.6525277129151,7,29,-1.0997490882873535,3.712700843811035,32.00667768686535,31.27637319428652,127.03087925886769,115.00346779215172,-0.0001295089750783,0.0914128422737121,0,0,0
10757,359534.10730413673,2010-08-23 18:13:59,1320.6677078522623,7,29,-1.099568486213684,3.708168029785156,32.00667768686535,31.28554111878596,127.03087925886769,115.03748553939948,-0.0001618862152099,0.0914128422737121,0,0,0
10758,359564.1224769328,2010-08-23 18:14:29,1350.6828806533206,7,29,-1.0993878841400146,3.703958988189697,32.00667768686535,31.294709032696197,127.03087925886769,115.07146247370596,-9.713172767078504e-05,0.0914128422737121,0,0,0
10759,359594.1376623954,2010-08-23 18:14:59,1380.6980661359853,7,29,-1.0997490882873535,3.6994261741638175,32.00667768686535,31.30387703276231,127.03087925886769,115.10539952579988,-0.0001295089750783,0.0914128422737121,0,0,0
10760,359624.15283124667,2010-08-23 18:15:29,1410.7132349671488,7,29,-1.0997490882873535,3.69521713256836,32.00667768686535,31.31304501933875,127.03087925886769,115.13929724667253,-0.0001295089750783,0.0914128422737121,0,0,0
10761,359654.1680200676,2010-08-23 18:16:00,1440.7284238081836,7,29,-1.099568486213684,3.691008090972901,32.00667768686535,31.32221305536671,127.03087925886769,115.17315612825335,-0.0001295089750783,0.0914128422737121,0,0,0
10762,359684.1834547213,2010-08-23 18:16:30,1470.7438584418087,7,29,-1.0997490882873535,3.6867990493774414,32.00667768686535,31.33138110642233,127.03087925886769,115.2069764741478,-9.713172767078504e-05,0.0914128422737121,0,0,0
10763,359714.199035414,2010-08-23 18:17:00,1500.759439154508,7,29,-1.099568486213684,3.682751893997192,32.00667768686535,31.3405492537377,127.03087925886769,115.24075964450736,-0.0001295089750783,0.0914128422737121,0,0,0
10764,359744.21378172707,2010-08-23 18:17:30,1530.7741854425644,7,29,-1.099568486213684,3.678704738616944,32.00667768686535,31.34971715286132,127.03087925886769,115.27450486352774,-0.0001295089750783,0.0914128422737121,0,0,0
10765,359774.2287033371,2010-08-23 18:18:00,1560.7891070826522,7,29,-1.099568486213684,3.674981355667114,32.00667768686535,31.358885090284225,127.03087925886769,115.30821414595908,-9.713172767078504e-05,0.0914128422737121,0,0,0
10766,359804.2438792409,2010-08-23 18:18:30,1590.8042829513556,7,29,-1.099568486213684,3.6710963249206543,32.00667768686535,31.36805316807931,127.03087925886769,115.3418885876022,-9.713172767078504e-05,0.0914128422737121,0,0,0
10767,359834.2590661321,2010-08-23 18:19:00,1620.8194698525556,7,29,-1.099568486213684,3.667372941970825,32.00667768686535,31.37722124714719,127.03087925886769,115.37552793370396,-9.713172767078504e-05,0.0914128422737121,0,0,0
10768,359864.2742515997,2010-08-23 18:19:30,1650.8346553201827,7,29,-1.099568486213684,3.663649559020996,32.00667768686535,31.386389293832096,127.03087925886769,115.40913287797424,-9.713172767078504e-05,0.0914128422737121,0,0,0
10769,359894.2893916341,2010-08-23 18:20:00,1680.849795354576,7,29,-1.099568486213684,3.659926176071167,32.00667768686535,31.39555731674708,127.03087925886769,115.44270415766336,-9.713172767078504e-05,0.0914128422737121,0,0,0
10770,359924.3047023689,2010-08-23 18:20:30,1710.86510611447,7,29,-1.0993878841400146,3.656526565551758,32.00667768686535,31.40472539495256,127.03087925886769,115.47624296272583,-6.47544875391759e-05,0.0914128422737121,0,0,0
10771,359954.319974272,2010-08-23 18:21:00,1740.8803779824332,7,29,-1.099568486213684,3.6529650688171382,32.00667768686535,31.413893469189457,127.03087925886769,115.5097500857303,-9.713172767078504e-05,0.0914128422737121,0,0,0
10772,359984.3350164124,2010-08-23 18:21:30,1770.895420157932,7,29,-1.099929690361023,3.6495654582977295,32.00667768686535,31.42306150133473,127.03087925886769,115.54322561724076,-6.47544875391759e-05,0.0914128422737121,0,0,0
10773,360014.3501032592,2010-08-23 18:22:00,1800.9105069997531,7,29,-1.099568486213684,3.64616584777832,32.00667768686535,31.432229511755565,127.03087925886769,115.57666985494266,-9.713172767078504e-05,0.0914128422737121,0,0,0
10774,360044.3652736092,2010-08-23 18:22:30,1830.9256773296524,7,29,-1.099568486213684,3.643090009689331,32.00667768686535,31.4413975275289,127.03087925886769,115.61008382630698,-9.713172767078504e-05,0.0914128422737121,0,0,0
10775,360074.3804870565,2010-08-23 18:23:00,1860.9408907970635,7,29,-1.0997490882873535,3.639852285385132,32.00667768686535,31.45056554935382,127.03087925886769,115.6434687103692,-9.713172767078504e-05,0.0914128422737121,0,0,0
10776,360104.3956401384,2010-08-23 18:23:30,1890.956043858925,7,29,-1.0997490882873535,3.636776447296143,32.00667768686535,31.45973360507148,127.03087925886769,115.6768253878664,-6.47544875391759e-05,0.0914128422737121,0,0,0
10777,360134.4108022528,2010-08-23 18:24:00,1920.9712059683363,7,29,-1.099568486213684,3.634024381637573,32.00667768686535,31.468901644386424,127.03087925886769,115.71015449058542,-9.713172767078504e-05,0.0914128422737121,0,0,0
10778,360164.4259772745,2010-08-23 18:24:30,1950.9863809899289,7,29,-1.0997490882873535,3.630948543548584,32.00667768686535,31.47806969483449,127.03087925886769,115.74345672208068,-6.47544875391759e-05,0.0914128422737121,0,0,0
10779,360194.4412428267,2010-08-23 18:25:00,1981.001646627364,7,29,-1.0997490882873535,3.6280345916748047,32.00667768686535,31.487237817161176,127.03087925886769,115.7767327397786,-9.713172767078504e-05,0.0914128422737121,0,0,0
10780,360224.4563263051,2010-08-23 18:25:30,2011.01673002059,7,29,-1.099568486213684,3.6252825260162354,32.00667768686535,31.496405831333533,127.03087925886769,115.8099823481666,-6.47544875391759e-05,0.0914128422737121,0,0,0
10781,360254.4715054771,2010-08-23 18:26:00,2041.031909192526,7,29,-1.099568486213684,3.622530460357666,32.00667768686535,31.505573898102917,127.03087925886769,115.84320692874024,-6.47544875391759e-05,0.0914128422737121,0,0,0
10782,360284.4866999571,2010-08-23 18:26:30,2071.047103697678,7,29,-1.099568486213684,3.619940280914306,32.00667768686535,31.514741990199585,127.03087925886769,115.87640664256568,0.0,0.0914128422737121,0,0,0
10783,360314.5018603222,2010-08-23 18:27:00,2101.062264027654,7,29,-1.099568486213684,3.6173501014709473,32.00667768686535,31.52391015372569,127.03087925886769,115.90958206484376,-6.47544875391759e-05,0.0914128422737121,0,0,0
10784,360344.5170183364,2010-08-23 18:27:30,2131.077422061908,7,29,-1.099568486213684,3.614598035812378,32.00667768686535,31.53307828410689,127.03087925886769,115.94273310979456,-9.713172767078504e-05,0.0914128422737121,0,0,0
10785,360374.5321976387,2010-08-23 18:28:00,2161.092601359157,7,29,-1.0997490882873535,3.6118459701538086,32.00667768686535,31.54224638233925,127.03087925886769,115.97585999589344,-9.713172767078504e-05,0.0914128422737121,0,0,0
10786,360404.5473808005,2010-08-23 18:28:30,2191.107784521037,7,29,-1.099568486213684,3.609255790710449,32.00667768686535,31.551414505139867,127.03087925886769,116.00896289920124,-9.713172767078504e-05,0.0914128422737121,0,0,0
10787,360434.562588258,2010-08-23 18:29:00,2221.122991973457,7,29,-1.099568486213684,3.60666561126709,32.00667768686535,31.56058264003312,127.03087925886769,116.04204175230744,-9.713172767078504e-05,0.0914128422737121,0,0,0
10788,360464.5777334352,2010-08-23 18:29:30,2251.138137150668,7,29,-1.099568486213684,3.6040754318237305,32.00667768686535,31.56975066746295,127.03087925886769,116.0750959314244,-6.47544875391759e-05,0.0914128422737121,0,0,0
10789,360494.5929334691,2010-08-23 18:30:00,2281.1533371845985,7,29,-1.099568486213684,3.601323366165161,32.00667768686535,31.578918759658457,127.03087925886769,116.10812595686023,-9.713172767078504e-05,0.0914128422737121,0,0,0
10790,360524.6080792127,2010-08-23 18:30:30,2311.168482928221,7,29,-1.0997490882873535,3.598571300506592,32.00667768686535,31.588086783810823,127.03087925886769,116.14113112502136,-9.713172767078504e-05,0.0914128422737121,0,0,0
10791,360554.62326943217,2010-08-23 18:31:00,2341.183673152704,7,29,-1.0997490882873535,3.5958192348480225,32.00667768686535,31.597254912261413,127.03087925886769,116.17411174929448,-9.713172767078504e-05,0.0914128422737121,0,0,0
10792,360584.6384449501,2010-08-23 18:31:30,2371.198848690583,7,29,-1.099568486213684,3.593229055404663,32.00667768686535,31.606422996322017,127.03087925886769,116.2070669941136,-6.47544875391759e-05,0.0914128422737121,0,0,0
10793,360614.6536183576,2010-08-23 18:32:00,2401.214022103165,7,29,-1.099568486213684,3.590477228164673,32.00667768686535,31.615591131926795,127.03087925886769,116.23999682146996,-6.47544875391759e-05,0.0914128422737121,0,0,0
10794,360644.66879447695,2010-08-23 18:32:30,2431.2291981924186,7,29,-1.099568486213684,3.5875632762908936,32.00667768686535,31.624759264313266,127.03087925886769,116.27290062270504,-6.47544875391759e-05,0.0914128422737121,0,0,0
10795,360674.6839754784,2010-08-23 18:33:00,2461.244379193914,7,29,-1.099568486213684,3.5844874382019043,32.00667768686535,31.633927447708285,127.03087925886769,116.3057779283384,-9.713172767078504e-05,0.0914128422737121,0,0,0
10796,360704.6991550464,2010-08-23 18:33:30,2491.2595587869,7,29,-1.0997490882873535,3.581573486328125,32.00667768686535,31.643095530721688,127.03087925886769,116.33862785723257,-6.47544875391759e-05,0.0914128422737121,0,0,0
10797,360734.7143214264,2010-08-23 18:34:00,2521.2747251418923,7,29,-1.099568486213684,3.5786595344543457,32.00667768686535,31.652263665234035,127.03087925886769,116.37144991657826,-3.237724376958795e-05,0.0914128422737121,0,0,0
10798,360764.7294855458,2010-08-23 18:34:30,2551.289889266325,7,29,-1.099568486213684,3.5752599239349365,32.00667768686535,31.66143183867529,127.03087925886769,116.40424353322857,-0.0001295089750783,0.0914128422737121,0,0,0
10799,360794.7446758706,2010-08-23 18:35:00,2581.30507957602,7,29,-1.099568486213684,3.5721840858459477,32.00667768686535,31.67059993450077,127.03087925886769,116.43700820685062,-9.713172767078504e-05,0.0914128422737121,0,0,0
10800,360824.75984259153,2010-08-23 18:35:30,2611.3202463069497,7,29,-1.099568486213684,3.568946361541748,32.00667768686535,31.679768021090908,127.03087925886769,116.4697430195798,-3.237724376958795e-05,0.0914128422737121,0,0,0
10801,360854.77501877095,2010-08-23 18:36:00,2641.335422486428,7,29,-1.099568486213684,3.565708637237549,32.00667768686535,31.688936068655,127.03087925886769,116.50244708128048,-3.237724376958795e-05,0.0914128422737121,0,0,0
10802,360884.7901981334,2010-08-23 18:36:30,2671.350601878913,7,29,-1.099568486213684,3.5621471405029297,32.00667768686535,31.69810406892397,127.03087925886769,116.53511999729233,-9.713172767078504e-05,0.0914128422737121,0,0,0
10803,360914.8055287227,2010-08-23 18:37:00,2701.3659324481787,7,29,-1.0993878841400146,3.5587475299835205,32.00667768686535,31.70727222822465,127.03087925886769,116.5677617146296,-6.47544875391759e-05,0.0914128422737121,0,0,0
10804,360944.82054260274,2010-08-23 18:37:30,2731.3809463181315,7,29,-1.099568486213684,3.554862260818481,32.00667768686535,31.716440284125746,127.03087925886769,116.60036975011684,-0.0001295089750783,0.0914128422737121,0,0,0
10805,360974.8357220152,2010-08-23 18:38:00,2761.39612575573,7,29,-1.0997490882873535,3.5511388778686523,32.00667768686535,31.725608377098567,127.03087925886769,116.63294396139275,-9.713172767078504e-05,0.0914128422737121,0,0,0
10806,361004.8508988112,2010-08-23 18:38:30,2791.411302526681,7,29,-1.099568486213684,3.5472536087036133,32.00667768686535,31.73477650111188,127.03087925886769,116.66548280920928,-6.47544875391759e-05,0.0914128422737121,0,0,0
10807,361034.866077126,2010-08-23 18:39:00,2821.4264808665444,7,29,-1.099568486213684,3.5430445671081543,32.00667768686535,31.743944611522952,127.03087925886769,116.69798474317774,-0.0001295089750783,0.0914128422737121,0,0,0
10808,361064.881262383,2010-08-23 18:39:30,2851.441666098584,7,29,-1.0997490882873535,3.5388355255126958,32.00667768686535,31.75311270000025,127.03087925886769,116.73044892633158,-0.0001295089750783,0.0914128422737121,0,0,0
10809,361094.8964464873,2010-08-23 18:40:00,2881.4568502028133,7,29,-1.099568486213684,3.5346264839172363,32.00667768686535,31.76228082122603,127.03087925886769,116.76287422785748,-9.713172767078504e-05,0.0914128422737121,0,0,0
10810,361124.91163667175,2010-08-23 18:40:30,2911.472040412258,7,29,-1.0997490882873535,3.5300936698913574,32.00667768686535,31.771448956381604,127.03087925886769,116.79525929334916,-0.0001618862152099,0.0914128422737121,0,0,0
10811,361154.92678455566,2010-08-23 18:41:00,2941.487188296215,7,29,-1.099929690361023,3.5252370834350586,32.00667768686535,31.780617091086302,127.03087925886769,116.8276024041179,-0.0001618862152099,0.0914128422737121,0,0,0
10812,361184.9419487754,2010-08-23 18:41:30,2971.5023525208985,7,29,-1.099568486213684,3.5205423831939697,32.00667768686535,31.78978521101904,127.03087925886769,116.85990164107196,-9.713172767078504e-05,0.0914128422737121,0,0,0
10813,361214.9571278771,2010-08-23 18:42:00,3001.517531592585,7,29,-1.099568486213684,3.515362024307251,32.00667768686535,31.79895330248452,127.03087925886769,116.89215533535462,-0.0001618862152099,0.0914128422737121,0,0,0
10814,361244.9723286178,2010-08-23 18:42:30,3031.532732353327,7,29,-1.099568486213684,3.5101819038391118,32.00667768686535,31.80812138397622,127.03087925886769,116.92436163721496,-0.0001295089750783,0.0914128422737121,0,0,0
10815,361274.9884959776,2010-08-23 18:43:00,3061.5488997231564,7,29,-1.099568486213684,3.5045158863067627,32.00667768686535,31.817289820716585,127.03087925886769,116.95651952413714,-0.0001618862152099,0.0914128422737121,0,0,0
10816,361305.0027168412,2010-08-23 18:43:30,3091.5631205566183,7,29,-1.099568486213684,3.498526096343994,32.00667768686535,31.82645764716605,127.03087925886769,116.98862176645656,-0.0001618862152099,0.0914128422737121,0,0,0
10817,361335.0178856322,2010-08-23 18:44:00,3121.5782893476817,7,29,-1.099568486213684,3.491726875305176,32.00667768686535,31.835625796150875,127.03087925886769,117.02066649193397,-0.0002266406954731,0.0914128422737121,0,0,0
10818,361365.033021446,2010-08-23 18:44:30,3151.5934251866192,7,29,-1.0993878841400146,3.484603881835937,32.00667768686535,31.84479388400429,127.03087925886769,117.05264697907567,-0.0001942634553415,0.0914128422737121,0,0,0
10819,361395.04842858616,2010-08-23 18:45:00,3181.60883230166,7,29,-1.0997490882873535,3.4761857986450195,32.00667768686535,31.85396215064016,127.03087925886769,117.08455602262818,-0.0001942634553415,0.0914128422737121,0,0,0
10820,361425.06336844165,2010-08-23 18:45:30,3211.623772182208,7,29,-1.099568486213684,3.466472625732422,32.00667768686535,31.863130195924384,127.03087925886769,117.11638273082596,-0.0002913951757363,0.0914128422737121,0,0,0
10821,361455.0786626804,2010-08-23 18:46:00,3241.639066425939,7,29,-1.0997490882873535,3.4551405906677246,32.00667768686535,31.872298419945928,127.03087925886769,117.14811443329214,-0.0003237724304199,0.0914128422737121,0,0,0
10822,361485.0937195976,2010-08-23 18:46:30,3271.6541233381654,7,29,-1.099568486213684,3.441218376159668,32.00667768686535,31.88146659472646,127.03087925886769,117.17973007925856,-0.0004209041653666,0.0914128422737121,0,0,0
10823,361515.1088367149,2010-08-23 18:47:00,3301.669240435393,7,29,-1.0993878841400146,3.4232492446899414,32.00667768686535,31.89063469219176,127.03087925886769,117.21120049284228,-0.0005504131549969,0.0914128422737121,0,0,0
10824,361545.1240716608,2010-08-23 18:47:30,3331.684475401385,7,29,-1.099568486213684,3.399613857269287,32.00667768686535,31.89980258041153,127.03087925886769,117.24248116565282,-0.0007122993702068,0.0914128422737121,0,0,0
10825,361575.1392175699,2010-08-23 18:48:01,3361.6996213003945,7,29,-1.0997490882873535,3.366589069366455,32.00667768686535,31.908970449172017,127.03087925886769,117.27350590912208,-0.0010360718006268,0.0914128422737121,0,0,0
10826,361605.1546749502,2010-08-23 18:48:31,3391.715078670687,7,29,-1.099568486213684,3.3194804191589355,32.00667768686535,31.918138419805985,127.03087925886769,117.30416876328523,-0.0014893531333655,0.0914128422737121,0,0,0
10827,361635.1697270103,2010-08-23 18:49:01,3421.7301307358343,7,29,-1.099568486213684,3.249222040176392,32.00667768686535,31.92730616076791,127.03087925886769,117.33429923716608,-0.0022340298164635,0.0914128422737121,0,0,0
10828,361665.18488869874,2010-08-23 18:49:31,3451.745292419183,7,29,-1.099568486213684,3.1415679454803467,32.00667768686535,31.9364742648891,127.03087925886769,117.36363344311192,-0.0035291195381432,0.0914128422737121,0,0,0
10829,361695.19994543545,2010-08-23 18:50:01,3481.760349140936,7,29,-1.0997490882873535,2.94827651977539,32.00667768686535,31.94564239775792,127.03087925886769,117.3916617898952,-0.0072524547576904,0.0914128422737121,0,0,0
10830,361710.7622092604,2010-08-23 18:50:16,3497.322612965776,7,29,-1.0997490882873535,2.7475380897521973,32.00667768686535,31.95039589381132,127.03087925886769,117.40523996907612,-0.0122709274291992,0.0914128422737121,0,0,0
10831,361713.6997877348,2010-08-23 18:50:19,3500.260191475292,7,29,-1.099568486213684,2.699781894683838,32.00667768686535,31.951293190014784,127.03087925886769,117.40768421422126,-0.012918472290039,0.0914128422737121,0,0,0
10832,361773.7091204862,2010-08-23 18:51:19,60.01505710347326,8,29,0.0,3.4183926582336426,32.00667768686535,31.951293190014784,127.03087925886769,117.40768421422126,0.0011655807029455,0.0914128422737121,0,0,0
10833,361773.8917868976,2010-08-23 18:51:20,0.187701755529165,9,29,-1.9243103452026844e-05,3.4183926582336426,32.00667768686535,31.95129319101811,127.03087925886769,117.407684217651,0.0,0.0851717442274093,0,0,0
10834,361778.7222625242,2010-08-23 18:51:24,5.018177397128228,9,29,0.0007031940040178,3.425677537918091,32.00667863670272,31.95129319110109,127.03088250992634,117.40768421793469,0.0010360718006268,0.0851717442274093,0,0,0
