Data_Point,Test_Time(s),Date_Time,Step_Time(s),Step_Index,Cycle_Index,Current(A),Voltage(V),Charge_Capacity(Ah),Discharge_Capacity(Ah),Charge_Energy(Wh),Discharge_Energy(Wh),dV/dt(V/s),Internal_Resistance(Ohm),Is_FC_Data,AC_Impedance(Ohm),ACI_Phase_Angle(Deg)
11933,398372.53657780366,2010-08-24 05:01:22,30.015281105987228,1,33,0.0,3.436199903488159,35.23833022797701,35.18612357666039,139.86495175407103,129.30178696835378,0.0006151676061563,0.0856727808713913,0,0,0
11934,398402.5516216784,2010-08-24 05:01:52,60.03032497570869,1,33,0.0,3.4559500217437744,35.23833022797701,35.18612357666039,139.86495175407103,129.30178696835378,0.0004856586456298,0.0856727808713913,0,0,0
11935,398432.5668360882,2010-08-24 05:02:22,90.04553939549338,1,33,0.0,3.470034122467041,35.23833022797701,35.18612357666039,139.86495175407103,129.30178696835378,0.0002913951757363,0.0856727808713913,0,0,0
11936,398462.5351932302,2010-08-24 05:02:52,120.0138965325118,1,33,0.0,3.4813661575317383,35.23833022797701,35.18612357666039,139.86495175407103,129.30178696835378,0.0002913951757363,0.0856727808713913,0,0,0
11937,398492.5639197012,2010-08-24 05:03:22,30.015197021422622,2,33,0.550297200679779,3.609903335571289,35.24291706207129,35.18612357666039,139.88137793931622,129.30178696835378,0.0012950897216796,0.0856727808713913,0,0,0
11938,398522.5791199356,2010-08-24 05:03:52,60.030397270890525,2,33,0.5501165986061096,3.6489179134368896,35.24750395281232,35.18612357666039,139.8980307638085,129.30178696835378,0.0008741855854168,0.0856727808713913,0,0,0
11939,398552.5944346754,2010-08-24 05:04:22,90.04571199065363,2,33,0.550297200679779,3.678380966186523,35.252090751971835,35.18612357666039,139.91483804624085,129.30178696835378,0.0007122993702068,0.0856727808713913,0,0,0
11940,398582.6094867155,2010-08-24 05:04:52,120.06076403575064,2,33,0.5501165986061096,3.7020163536071777,35.25667747551817,35.18612357666039,139.9317658356032,129.30178696835378,0.0005827903514727,0.0856727808713913,0,0,0
11941,398612.6246795765,2010-08-24 05:05:22,150.07595689179183,2,33,0.5501165986061096,3.721280813217163,35.26126423111141,35.18612357666039,139.94879199419228,129.30178696835378,0.0004856586456298,0.0856727808713913,0,0,0
11942,398642.6398687384,2010-08-24 05:05:52,180.0911460786884,2,33,0.5499359965324402,3.7363362312316895,35.265851076266244,35.18612357666039,139.96589721324307,129.30178696835378,0.0002913951757363,0.0856727808713913,0,0,0
11943,398672.6552023653,2010-08-24 05:06:22,210.1064796905364,2,33,0.5499359965324402,3.746858835220337,35.27043786698943,35.18612357666039,139.9830613570856,129.30178696835378,0.0001942634553415,0.0856727808713913,0,0,0
11944,398702.6704170206,2010-08-24 05:06:52,240.1216943358833,2,33,0.5501165986061096,3.753495931625366,35.275024617911626,35.18612357666039,140.00026411898762,129.30178696835378,0.0001618385285837,0.0856727808713913,0,0,0
11945,398732.6854710356,2010-08-24 05:07:22,270.1367483759524,2,33,0.5501165986061096,3.757381200790405,35.279611379350726,35.18612357666039,140.0174899500646,129.30178696835378,9.713172767078504e-05,0.0856727808713913,0,0,0
11946,398762.7006303079,2010-08-24 05:07:52,300.1519076232302,2,33,0.550297200679779,3.760618925094605,35.28419815947856,35.18612357666039,140.0347319837804,129.30178696835378,9.713172767078504e-05,0.0856727808713913,0,0,0
11947,398792.7163334207,2010-08-24 05:08:22,330.1676107359881,2,33,0.5501165986061096,3.763532876968384,35.28878507114291,35.18612357666039,140.05198819966887,129.30178696835378,9.713172767078504e-05,0.0856727808713913,0,0,0
11948,398822.7310173985,2010-08-24 05:08:52,360.1822947137481,2,33,0.5499359965324402,3.766123056411743,35.293371793458554,35.18612357666039,140.06925650192295,129.30178696835378,3.237724376958795e-05,0.0856727808713913,0,0,0
11949,398852.7462083949,2010-08-24 05:09:22,390.1974857101546,2,33,0.550297200679779,3.7690370082855225,35.297958567882084,35.18612357666039,140.08653752550458,129.30178696835378,6.47544875391759e-05,0.0856727808713913,0,0,0
11950,398882.76140171714,2010-08-24 05:09:52,420.2126790323576,2,33,0.5501165986061096,3.771627187728882,35.302545323166584,35.18612357666039,140.1038309663639,129.30178696835378,9.713172767078504e-05,0.0856727808713913,0,0,0
11951,398912.7759769639,2010-08-24 05:10:22,450.22725427411393,2,33,0.550297200679779,3.774541139602661,35.30712967304887,35.18612357666039,140.12112794009246,129.30178696835378,9.713172767078504e-05,0.0856727808713913,0,0,0
11952,398942.77615920384,2010-08-24 05:10:52,480.2274365491687,2,33,0.550297200679779,3.777131319046021,35.3117164587294,35.18612357666039,140.13844661695663,129.30178696835378,6.47544875391759e-05,0.0856727808713913,0,0,0
11953,398972.79138665606,2010-08-24 05:11:22,510.24266396634687,2,33,0.5501165986061096,3.77972149848938,35.316303242024226,35.18612357666039,140.1557778069131,129.30178696835378,6.47544875391759e-05,0.0856727808713913,0,0,0
11954,399002.8065309862,2010-08-24 05:11:52,540.257808301459,2,33,0.550297200679779,3.782635450363159,35.320890009117775,35.18612357666039,140.17312133153715,129.30178696835378,9.713172767078504e-05,0.0856727808713913,0,0,0
11955,399032.8217278423,2010-08-24 05:12:22,570.2730051474445,2,33,0.5501165986061096,3.785387516021729,35.325476816187994,35.18612357666039,140.1904774823871,129.30178696835378,9.713172767078504e-05,0.0856727808713913,0,0,0
11956,399062.8369404124,2010-08-24 05:12:52,600.2882177577192,2,33,0.5499359965324402,3.787977695465088,35.33006361200131,35.18612357666039,140.2078461107682,129.30178696835378,3.237724376958795e-05,0.0856727808713913,0,0,0
11957,399092.8521264314,2010-08-24 05:13:22,630.3034037366205,2,33,0.5499359965324402,3.790891647338867,35.33465040522293,35.18612357666039,140.22522744807063,129.30178696835378,6.47544875391759e-05,0.0856727808713913,0,0,0
11958,399122.8674149809,2010-08-24 05:13:52,660.3186923062093,2,33,0.5499359965324402,3.793643712997437,35.33923725957015,35.18612357666039,140.242621826164,129.30178696835378,9.713172767078504e-05,0.0856727808713913,0,0,0
11959,399152.8824958478,2010-08-24 05:14:22,690.3337731631142,2,33,0.5501165986061096,3.796557664871216,35.343824033156764,35.18612357666039,140.26002911809292,129.30178696835378,9.713172767078504e-05,0.0856727808713913,0,0,0
11960,399182.8976831049,2010-08-24 05:14:52,720.348960420201,2,33,0.5501165986061096,3.799471616744995,35.34841082383203,35.18612357666039,140.27744997410022,129.30178696835378,6.47544875391759e-05,0.0856727808713913,0,0,0
11961,399212.912865921,2010-08-24 05:15:22,750.3641432211821,2,33,0.5499359965324402,3.8023855686187744,35.35299760406614,35.18612357666039,140.2948847161315,129.30178696835378,3.237724376958795e-05,0.0856727808713913,0,0,0
11962,399242.9280494086,2010-08-24 05:15:53,780.379326723912,2,33,0.5501165986061096,3.8059470653533936,35.35758443952761,35.18612357666039,140.3123340945056,129.30178696835378,0.0001295089750783,0.0856727808713913,0,0,0
11963,399272.9435164581,2010-08-24 05:16:23,810.3947937883648,2,33,0.5501165986061096,3.809022903442383,35.36217126609076,35.18612357666039,140.32979837949276,129.30178696835378,6.47544875391759e-05,0.0856727808713913,0,0,0
11964,399302.95858448296,2010-08-24 05:16:53,840.4098618233136,2,33,0.5501165986061096,3.812260627746582,35.36675811536928,35.18612357666039,140.3472781133083,129.30178696835378,6.47544875391759e-05,0.0856727808713913,0,0,0
11965,399332.9736139969,2010-08-24 05:17:23,870.4248913121935,2,33,0.5501165986061096,3.816145896911621,35.37134486783906,35.18612357666039,140.3647734266885,129.30178696835378,9.713172767078504e-05,0.0856727808713913,0,0,0
11966,399362.98892841086,2010-08-24 05:17:53,900.4402057362195,2,33,0.5499359965324402,3.81938362121582,35.37593172928832,35.18612357666039,140.38228499630563,129.30178696835378,6.47544875391759e-05,0.0856727808713913,0,0,0
11967,399393.00398778426,2010-08-24 05:18:23,930.4552651296308,2,33,0.550297200679779,3.8231070041656494,35.38051853249551,35.18612357666039,140.39981211920835,129.30178696835378,0.0001295089750783,0.0856727808713913,0,0,0
11968,399423.01920408366,2010-08-24 05:18:53,960.4704813990252,2,33,0.5501165986061096,3.8263447284698486,35.3851052286376,35.18612357666039,140.41735446314033,129.30178696835378,6.47544875391759e-05,0.0856727808713913,0,0,0
11969,399453.034377797,2010-08-24 05:19:23,990.485655112357,2,33,0.550297200679779,3.829582452774048,35.38969203687116,35.18612357666039,140.4349126794061,129.30178696835378,6.47544875391759e-05,0.0856727808713913,0,0,0
11970,399483.0495587334,2010-08-24 05:19:53,1020.5008360486906,2,33,0.5501165986061096,3.832820177078247,35.39427879380444,35.18612357666039,140.45248586504496,129.30178696835378,6.47544875391759e-05,0.0856727808713913,0,0,0
11971,399513.06488884153,2010-08-24 05:20:23,1050.5161661868813,2,33,0.550297200679779,3.836219549179077,35.39886557859787,35.18612357666039,140.47007391504596,129.30178696835378,6.47544875391759e-05,0.0856727808713913,0,0,0
11972,399543.0801891754,2010-08-24 05:20:53,1080.5314664907153,2,33,0.5501165986061096,3.8392953872680655,35.40345237376953,35.18612357666039,140.48767666273886,129.30178696835378,6.47544875391759e-05,0.0856727808713913,0,0,0
11973,399573.0951259633,2010-08-24 05:21:23,1110.5464032785558,2,33,0.5501165986061096,3.8425331115722656,35.40803909176338,35.18612357666039,140.50529352845714,129.30178696835378,9.713172767078504e-05,0.0856727808713913,0,0,0
11974,399603.1104512644,2010-08-24 05:21:53,1140.5617285897158,2,33,0.5501165986061096,3.845447063446045,35.412625923575185,35.18612357666039,140.52292500259816,129.30178696835378,9.713172767078504e-05,0.0856727808713913,0,0,0
11975,399633.1255230938,2010-08-24 05:22:23,1170.5768003990715,2,33,0.5501165986061096,3.848361015319824,35.417212691506286,35.18612357666039,140.54057013797927,129.30178696835378,6.47544875391759e-05,0.0856727808713913,0,0,0
11976,399663.1407082056,2010-08-24 05:22:53,1200.5919855509114,2,33,0.5501165986061096,3.851274967193604,35.42179947442142,35.18612357666039,140.5582288841892,129.30178696835378,3.237724376958795e-05,0.0856727808713913,0,0,0
11977,399693.1558753927,2010-08-24 05:23:23,1230.6071527379777,2,33,0.5501165986061096,3.854188919067383,35.426386313541066,35.18612357666039,140.57590099108043,129.30178696835378,6.47544875391759e-05,0.0856727808713913,0,0,0
11978,399723.17107861454,2010-08-24 05:23:53,1260.6223559548412,2,33,0.5501165986061096,3.856940984725952,35.43097307893689,35.18612357666039,140.59358544265487,129.30178696835378,6.47544875391759e-05,0.0856727808713913,0,0,0
11979,399753.1862573303,2010-08-24 05:24:23,1290.6375346455782,2,33,0.5501165986061096,3.8593692779541016,35.43555982451189,35.18612357666039,140.6112818278709,129.30178696835378,6.47544875391759e-05,0.0856727808713913,0,0,0
11980,399783.20148164977,2010-08-24 05:24:53,1320.6527589750608,2,33,0.5501165986061096,3.861797571182251,35.44014657558095,35.18612357666039,140.62898951977,129.30178696835378,3.237724376958795e-05,0.0856727808713913,0,0,0
11981,399813.2167505253,2010-08-24 05:25:23,1350.6680278455535,2,33,0.5501165986061096,3.8640639781951904,35.4447334018238,35.18612357666039,140.64670803990708,129.30178696835378,6.47544875391759e-05,0.0856727808713913,0,0,0
11982,399843.2318274224,2010-08-24 05:25:53,1380.6831047425892,2,33,0.5501165986061096,3.86616849899292,35.44932026283331,35.18612357666039,140.66443639283358,129.30178696835378,6.47544875391759e-05,0.0856727808713913,0,0,0
11983,399873.2470487342,2010-08-24 05:26:23,1410.698326039514,2,33,0.5499359965324402,3.8679492473602295,35.453907005904846,35.18612357666039,140.68217325438346,129.30178696835378,6.47544875391759e-05,0.0856727808713913,0,0,0
11984,399903.2622037911,2010-08-24 05:26:53,1440.7134810963478,2,33,0.550297200679779,3.869568109512329,35.45849385753646,35.18612357666039,140.69991872554206,129.30178696835378,0.0,0.0856727808713913,0,0,0
11985,399933.2774319852,2010-08-24 05:27:23,1470.72870932555,2,33,0.5501165986061096,3.871348857879639,35.463080676158505,35.18612357666039,140.717671557765,129.30178696835378,9.713172767078504e-05,0.0856727808713913,0,0,0
11986,399963.292567353,2010-08-24 05:27:53,1500.7438446682502,2,33,0.5501165986061096,3.8726439476013184,35.46766741710354,35.18612357666039,140.73543086423223,129.30178696835378,6.47544875391759e-05,0.0856727808713913,0,0,0
11987,399993.3076199244,2010-08-24 05:28:23,1530.7588972496835,2,33,0.5501165986061096,3.873939037322998,35.47225424941222,35.18612357666039,140.75319680848958,129.30178696835378,3.237724376958795e-05,0.0856727808713913,0,0,0
11988,400023.32315806096,2010-08-24 05:28:53,1560.774435381258,2,33,0.5501165986061096,3.874910354614258,35.47684099619389,35.18612357666039,140.77096797529805,129.30178696835378,0.0,0.0856727808713913,0,0,0
11989,400053.338180743,2010-08-24 05:29:23,1590.7894580882353,2,33,0.5501165986061096,3.8762054443359375,35.48142763826793,35.18612357666039,140.78874422336293,129.30178696835378,0.0,0.0856727808713913,0,0,0
11990,400083.3533473886,2010-08-24 05:29:53,1620.8046247088898,2,33,0.550297200679779,3.8773386478424072,35.48601427572183,35.18612357666039,140.806525573542,129.30178696835378,3.237724376958795e-05,0.0856727808713913,0,0,0
11991,400113.3684709419,2010-08-24 05:30:23,1650.8197482622072,2,33,0.5501165986061096,3.878309965133667,35.490600942329536,35.18612357666039,140.82431190988854,129.30178696835378,0.0,0.0856727808713913,0,0,0
11992,400143.3837758823,2010-08-24 05:30:53,1680.8350531975848,2,33,0.5501165986061096,3.8794431686401367,35.49518778715916,35.18612357666039,140.84210367559265,129.30178696835378,3.237724376958795e-05,0.0856727808713913,0,0,0
11993,400173.39890129527,2010-08-24 05:31:23,1710.8501786255745,2,33,0.5501165986061096,3.8802525997161865,35.499774653914976,35.18612357666039,140.8599000565866,129.30178696835378,0.0,0.0856727808713913,0,0,0
11994,400203.41408428166,2010-08-24 05:31:53,1740.8653615819428,2,33,0.550297200679779,3.881385803222656,35.504361452630675,35.18612357666039,140.8777006789137,129.30178696835378,6.47544875391759e-05,0.0856727808713913,0,0,0
11995,400233.42939346767,2010-08-24 05:32:23,1770.8806707929764,2,33,0.550297200679779,3.882357120513916,35.50894827583872,35.18612357666039,140.89550577547425,129.30178696835378,6.47544875391759e-05,0.0856727808713913,0,0,0
11996,400263.4446131406,2010-08-24 05:32:53,1800.895890460841,2,33,0.5504778623580933,3.883328437805176,35.513535074289315,35.18612357666039,140.9133151261884,129.30178696835378,6.47544875391759e-05,0.0856727808713913,0,0,0
11997,400293.45965667954,2010-08-24 05:33:23,1830.9109339897127,2,33,0.550297200679779,3.8841378688812256,35.5181218445515,35.18612357666039,140.931128731989,129.30178696835378,3.237724376958795e-05,0.0856727808713913,0,0,0
11998,400323.4748404178,2010-08-24 05:33:53,1860.9261177330425,2,33,0.550297200679779,3.885109186172485,35.52270867993165,35.18612357666039,140.94894675263873,129.30178696835378,3.237724376958795e-05,0.0856727808713913,0,0,0
11999,400353.4900505068,2010-08-24 05:34:23,1890.9413278521083,2,33,0.5501165986061096,3.886080503463745,35.52729539029765,35.18612357666039,140.96676866249072,129.30178696835378,3.237724376958795e-05,0.0856727808713913,0,0,0
12000,400383.505261904,2010-08-24 05:34:53,1920.9565392192849,2,33,0.550297200679779,3.887051820755005,35.53188223637839,35.18612357666039,140.98459547020298,129.30178696835378,3.237724376958795e-05,0.0856727808713913,0,0,0
12001,400413.52038876055,2010-08-24 05:35:23,1950.9716660607976,2,33,0.550297200679779,3.8880231380462646,35.53646895941095,35.18612357666039,141.00242598166923,129.30178696835378,6.47544875391759e-05,0.0856727808713913,0,0,0
12002,400443.5355943834,2010-08-24 05:35:53,1980.98687168867,2,33,0.5501165986061096,3.8888325691223145,35.54105573468954,35.18612357666039,141.0202611269869,129.30178696835378,6.47544875391759e-05,0.0856727808713913,0,0,0
12003,400473.55083767016,2010-08-24 05:36:23,2011.0021150706373,2,33,0.550297200679779,3.889803886413574,35.545642560771945,35.18612357666039,141.03810077714004,129.30178696835378,3.237724376958795e-05,0.0856727808713913,0,0,0
12004,400503.5660971322,2010-08-24 05:36:53,2041.017374457494,2,33,0.5501165986061096,3.890775203704834,35.55022940112521,35.18612357666039,141.05594481158,129.30178696835378,3.237724376958795e-05,0.0856727808713913,0,0,0
12005,400533.581179969,2010-08-24 05:37:23,2071.032457289321,2,33,0.5501165986061096,3.8917465209960938,35.55481620156653,35.18612357666039,141.07379312974103,129.30178696835378,3.237724376958795e-05,0.0856727808713913,0,0,0
12006,400563.59635531646,2010-08-24 05:37:53,2101.047632641738,2,33,0.5501165986061096,3.8927178382873535,35.55940303932091,35.18612357666039,141.0916460071961,129.30178696835378,0.0,0.0856727808713913,0,0,0
12007,400593.6115195611,2010-08-24 05:38:23,2131.0627968814583,2,33,0.5501165986061096,3.893689155578613,35.563989836674665,35.18612357666039,141.10950323059092,129.30178696835378,3.237724376958795e-05,0.0856727808713913,0,0,0
12008,400623.6267327579,2010-08-24 05:38:53,2161.078010073182,2,33,0.5501165986061096,3.894660472869873,35.56857675479922,35.18612357666039,141.12736551428983,129.30178696835378,3.237724376958795e-05,0.0856727808713913,0,0,0
12009,400653.64188876713,2010-08-24 05:39:23,2191.093166072365,2,33,0.5501165986061096,3.895631790161133,35.57316356781398,35.18612357666039,141.1452313878275,129.30178696835378,3.237724376958795e-05,0.0856727808713913,0,0,0
12010,400683.65706931753,2010-08-24 05:39:53,2221.108346647799,2,33,0.5501165986061096,3.8966031074523926,35.57775035871537,35.18612357666039,141.16310201901433,129.30178696835378,3.237724376958795e-05,0.0856727808713913,0,0,0
12011,400713.67227442405,2010-08-24 05:40:23,2251.1235517343225,2,33,0.550297200679779,3.8977363109588623,35.58233713722252,35.18612357666039,141.18097726882425,129.30178696835378,6.47544875391759e-05,0.0856727808713913,0,0,0
12012,400743.68743993685,2010-08-24 05:40:53,2281.1387172522286,2,33,0.5501165986061096,3.898707628250122,35.58692388050146,35.18612357666039,141.19885711891902,129.30178696835378,3.237724376958795e-05,0.0856727808713913,0,0,0
12013,400773.7026401664,2010-08-24 05:41:23,2311.153917481646,2,33,0.5501165986061096,3.899678945541382,35.59151071296802,35.18612357666039,141.21674221001925,129.30178696835378,0.0,0.0856727808713913,0,0,0
12014,400803.7179433524,2010-08-24 05:41:53,2341.169220787964,2,33,0.5501165986061096,3.900812149047852,35.59609753054238,35.18612357666039,141.23463201649807,129.30178696835378,3.237724376958795e-05,0.0856727808713913,0,0,0
12015,400833.733026896,2010-08-24 05:42:23,2371.184304211265,2,33,0.5501165986061096,3.901945352554321,35.600684265907184,35.18612357666039,141.25252655506077,129.30178696835378,0.0,0.0856727808713913,0,0,0
12016,400863.7482302933,2010-08-24 05:42:53,2401.199507638654,2,33,0.5501165986061096,3.903078556060791,35.60527097387664,35.18612357666039,141.27042602951423,129.30178696835378,6.47544875391759e-05,0.0856727808713913,0,0,0
12017,400893.7634458309,2010-08-24 05:43:23,2431.2147231511613,2,33,0.550297200679779,3.904373645782471,35.60985770916462,35.18612357666039,141.28833074838985,129.30178696835378,6.47544875391759e-05,0.0856727808713913,0,0,0
12018,400923.7785972987,2010-08-24 05:43:53,2461.2298746190504,2,33,0.550297200679779,3.905183076858521,35.61444452308128,35.18612357666039,141.3062410115796,129.30178696835378,3.237724376958795e-05,0.0856727808713913,0,0,0
12019,400953.7937782953,2010-08-24 05:44:23,2491.245055605509,2,33,0.5501165986061096,3.9064781665802,35.619031253688874,35.18612357666039,141.3241560824196,129.30178696835378,6.47544875391759e-05,0.0856727808713913,0,0,0
12020,400983.8091962072,2010-08-24 05:44:53,2521.260473522472,2,33,0.550297200679779,3.90761137008667,35.62361795793273,35.18612357666039,141.34207644988604,129.30178696835378,3.237724376958795e-05,0.0856727808713913,0,0,0
12021,401013.8241671001,2010-08-24 05:45:23,2551.2754444403745,2,33,0.5501165986061096,3.9089064598083496,35.628204571231926,35.18612357666039,141.36000186187275,129.30178696835378,6.47544875391759e-05,0.0856727808713913,0,0,0
12022,401043.839337846,2010-08-24 05:45:53,2581.2906151662605,2,33,0.5501165986061096,3.9100396633148193,35.63279125106457,35.18612357666039,141.3779330856934,129.30178696835378,3.237724376958795e-05,0.0856727808713913,0,0,0
12023,401073.854516622,2010-08-24 05:46:23,2611.3057939422097,2,33,0.550297200679779,3.911172866821289,35.63737800213176,35.18612357666039,141.3958701129125,129.30178696835378,3.237724376958795e-05,0.0856727808713913,0,0,0
12024,401103.8697223601,2010-08-24 05:46:53,2641.32099970542,2,33,0.550297200679779,3.9124679565429688,35.64196476168717,35.18612357666039,141.41381281095963,129.30178696835378,6.47544875391759e-05,0.0856727808713913,0,0,0
12025,401133.8849004192,2010-08-24 05:47:23,2671.3361777395203,2,33,0.5501165986061096,3.913762807846069,35.64655155391327,35.18612357666039,141.4317613501929,129.30178696835378,3.23295607813634e-05,0.0856727808713913,0,0,0
12026,401163.9000799972,2010-08-24 05:47:54,2701.3513573124555,2,33,0.550297200679779,3.915057897567749,35.651138270039,35.18612357666039,141.44971538861682,129.30178696835378,3.237724376958795e-05,0.0856727808713913,0,0,0
12027,401193.9155673322,2010-08-24 05:48:24,2731.366844647429,2,33,0.5501165986061096,3.9161911010742183,35.65572510876339,35.18612357666039,141.46767560426616,129.30178696835378,3.237724376958795e-05,0.0856727808713913,0,0,0
12028,401223.9306006456,2010-08-24 05:48:54,2761.3818779658536,2,33,0.5501165986061096,3.917648077011109,35.66031182715099,35.18612357666039,141.4856413027834,129.30178696835378,3.237724376958795e-05,0.0856727808713913,0,0,0
12029,401253.9457489255,2010-08-24 05:49:24,2791.39702627086,2,33,0.550297200679779,3.918781280517578,35.664898533307706,35.18612357666039,141.50361289457305,129.30178696835378,3.237724376958795e-05,0.0856727808713913,0,0,0
12030,401283.96093298966,2010-08-24 05:49:54,2821.412210304913,2,33,0.5501165986061096,3.920238256454468,35.669485241298595,35.18612357666039,141.52159055565235,129.30178696835378,3.237724376958795e-05,0.0856727808713913,0,0,0
12031,401313.9759973705,2010-08-24 05:50:24,2851.427274710817,2,33,0.550297200679779,3.921533346176148,35.67407198051239,35.18612357666039,141.539574428643,129.30178696835378,3.237724376958795e-05,0.0856727808713913,0,0,0
12032,401343.99123031646,2010-08-24 05:50:54,2881.442507656775,2,33,0.5501165986061096,3.922990322113037,35.67865874983414,35.18612357666039,141.55756460911982,129.30178696835378,6.47544875391759e-05,0.0856727808713913,0,0,0
12033,401374.0063982353,2010-08-24 05:51:24,2911.4576755506027,2,33,0.5501165986061096,3.924285411834717,35.68324549444127,35.18612357666039,141.57556094886948,129.30178696835378,6.47544875391759e-05,0.0856727808713913,0,0,0
12034,401404.0216014873,2010-08-24 05:51:54,2941.472878832629,2,33,0.5499359965324402,3.925580501556397,35.68783218726768,35.18612357666039,141.593563427382,129.30178696835378,3.237724376958795e-05,0.0856727808713913,0,0,0
12035,401434.03678212286,2010-08-24 05:52:24,2971.4880594381384,2,33,0.550297200679779,3.927037477493286,35.69241890195305,35.18612357666039,141.61157227204518,129.30178696835378,3.237724376958795e-05,0.0856727808713913,0,0,0
12036,401464.0521032236,2010-08-24 05:52:54,3001.503380533792,2,33,0.550297200679779,3.928494453430176,35.69700558148247,35.18612357666039,141.6295874479813,129.30178696835378,6.47544875391759e-05,0.0856727808713913,0,0,0
12037,401494.0671431835,2010-08-24 05:53:24,3031.518420503794,2,33,0.550297200679779,3.9299514293670654,35.70159231578171,35.18612357666039,141.647609298232,129.30178696835378,6.47544875391759e-05,0.0856727808713913,0,0,0
12038,401524.082454174,2010-08-24 05:53:54,3061.5337314992757,2,33,0.5501165986061096,3.931408405303955,35.70617909879438,35.18612357666039,141.66563793494268,129.30178696835378,3.237724376958795e-05,0.0856727808713913,0,0,0
12039,401554.09752277535,2010-08-24 05:54:24,3091.5488000906107,2,33,0.5501165986061096,3.9328653812408447,35.710765803215885,35.18612357666039,141.6836728397761,129.30178696835378,6.47544875391759e-05,0.0856727808713913,0,0,0
12040,401584.1127220574,2010-08-24 05:54:54,3121.5639993726672,2,33,0.5501165986061096,3.9343223571777344,35.71535254764997,35.18612357666039,141.70171454248427,129.30178696835378,9.713172767078504e-05,0.0856727808713913,0,0,0
12041,401614.1279288682,2010-08-24 05:55:24,3151.57920620855,2,33,0.5501165986061096,3.935617446899414,35.71993938187238,35.18612357666039,141.71976331058545,129.30178696835378,6.47544875391759e-05,0.0856727808713913,0,0,0
12042,401644.1430983009,2010-08-24 05:55:54,3181.594375646226,2,33,0.5501165986061096,3.937074422836304,35.72452622009937,35.18612357666039,141.73781874713094,129.30178696835378,3.237724376958795e-05,0.0856727808713913,0,0,0
12043,401674.15837254975,2010-08-24 05:56:24,3211.609649985348,2,33,0.550297200679779,3.938531398773194,35.72911301844528,35.18612357666039,141.75588093580748,129.30178696835378,3.237724376958795e-05,0.0856727808713913,0,0,0
12044,401704.1734994114,2010-08-24 05:56:54,3241.6247767516734,2,33,0.5499359965324402,3.939988374710083,35.73369972185905,35.18612357666039,141.77394960918082,129.30178696835378,0.0,0.0856727808713913,0,0,0
12045,401734.18862525537,2010-08-24 05:57:24,3271.6399025706373,2,33,0.5499359965324402,3.9414453506469727,35.73828650771361,35.18612357666039,141.79202559543288,129.30178696835378,0.0,0.0856727808713913,0,0,0
12046,401764.20395150885,2010-08-24 05:57:54,3301.655228834172,2,33,0.5501165986061096,3.943226099014282,35.74287330639032,35.18612357666039,141.81010857009903,129.30178696835378,3.237724376958795e-05,0.0856727808713913,0,0,0
12047,401794.21900092746,2010-08-24 05:58:24,3331.670278242697,2,33,0.5501165986061096,3.944683074951172,35.74746004141278,35.18612357666039,141.828198449174,129.30178696835378,3.237724376958795e-05,0.0856727808713913,0,0,0
12048,401824.2342055428,2010-08-24 05:58:54,3361.6854828831088,2,33,0.5501165986061096,3.946301937103272,35.75204678603449,35.18612357666039,141.8462955818199,129.30178696835378,3.237724376958795e-05,0.0856727808713913,0,0,0
12049,401854.2493642086,2010-08-24 05:59:24,3391.7006415238748,2,33,0.5499359965324402,3.947920799255371,35.75663351621449,35.18612357666039,141.86439985839058,129.30178696835378,6.47544875391759e-05,0.0856727808713913,0,0,0
12050,401884.2645511649,2010-08-24 05:59:54,3421.715828485225,2,33,0.550297200679779,3.949539661407471,35.761220209106675,35.18612357666039,141.88251145570274,129.30178696835378,3.237724376958795e-05,0.0856727808713913,0,0,0
12051,401914.2797344672,2010-08-24 06:00:24,3451.731011787455,2,33,0.5501165986061096,3.95132040977478,35.76580691332427,35.18612357666039,141.90063064277172,129.30178696835378,6.47544875391759e-05,0.0856727808713913,0,0,0
12052,401944.29518220347,2010-08-24 06:00:54,3481.7464595487986,2,33,0.5501165986061096,3.95277738571167,35.770393732866694,35.18612357666039,141.9187578937427,129.30178696835378,3.237724376958795e-05,0.0856727808713913,0,0,0
12053,401974.3102421082,2010-08-24 06:01:24,3511.761519433434,2,33,0.5501165986061096,3.95455813407898,35.7749804799165,35.18612357666039,141.93689260678144,129.30178696835378,3.237724376958795e-05,0.0856727808713913,0,0,0
12054,402004.3252930154,2010-08-24 06:01:54,3541.776570360745,2,33,0.5501165986061096,3.956338882446289,35.779567292563364,35.18612357666039,141.9550354892665,129.30178696835378,6.47544875391759e-05,0.0856727808713913,0,0,0
12055,402034.3405046633,2010-08-24 06:02:24,3571.7917819785466,2,33,0.5501165986061096,3.9579577445983887,35.784154174209625,35.18612357666039,141.97318651072564,129.30178696835378,0.0,0.0856727808713913,0,0,0
12056,402064.3558286912,2010-08-24 06:02:54,3601.807106026559,2,33,0.5501165986061096,3.959738492965698,35.78874096230795,35.18612357666039,141.9913452493817,129.30178696835378,3.237724376958795e-05,0.0856727808713913,0,0,0
12057,402094.3708542403,2010-08-24 06:03:24,3631.8221315605815,2,33,0.5501165986061096,3.9616811275482178,35.79332771768575,35.18612357666039,142.00951211618627,129.30178696835378,6.47544875391759e-05,0.0856727808713913,0,0,0
12058,402124.3860290414,2010-08-24 06:03:54,3661.837306361625,2,33,0.5501165986061096,3.9634618759155273,35.797914516059194,35.18612357666039,142.02768736987497,129.30178696835378,9.713172767078504e-05,0.0856727808713913,0,0,0
12059,402154.4012135466,2010-08-24 06:04:24,3691.85249086184,2,33,0.5501165986061096,3.965404510498047,35.80250130398424,35.18612357666039,142.04587099779792,129.30178696835378,6.47544875391759e-05,0.0856727808713913,0,0,0
12060,402184.4164312194,2010-08-24 06:04:54,3721.8677085347326,2,33,0.5501165986061096,3.967185258865357,35.807088093337,35.18612357666039,142.06406315756757,129.30178696835378,6.47544875391759e-05,0.0856727808713913,0,0,0
12061,402214.4315817501,2010-08-24 06:05:24,3751.8828590702974,2,33,0.5501165986061096,3.968966007232666,35.81167483347372,35.18612357666039,142.0822635946381,129.30178696835378,3.237724376958795e-05,0.0856727808713913,0,0,0
12062,402244.44692465,2010-08-24 06:05:54,3781.8982019702944,2,33,0.550297200679779,3.971070528030396,35.816261607704874,35.18612357666039,142.10047290697335,129.30178696835378,9.713172767078504e-05,0.0856727808713913,0,0,0
12063,402274.46194803366,2010-08-24 06:06:24,3811.9132253489465,2,33,0.5501165986061096,3.972851276397705,35.82084833907174,35.18612357666039,142.1186908316875,129.30178696835378,6.47544875391759e-05,0.0856727808713913,0,0,0
12064,402304.4771447092,2010-08-24 06:06:54,3841.928422024507,2,33,0.5501165986061096,3.974632024765015,35.82543516522961,35.18612357666039,142.13691789127242,129.30178696835378,3.237724376958795e-05,0.0856727808713913,0,0,0
12065,402334.4923279313,2010-08-24 06:07:24,3871.9436052515503,2,33,0.5501165986061096,3.976574659347534,35.830021924305555,35.18612357666039,142.15515346543793,129.30178696835378,3.237724376958795e-05,0.0856727808713913,0,0,0
12066,402364.5074979955,2010-08-24 06:07:54,3901.9587753408496,2,33,0.5501165986061096,3.9785172939300537,35.83460880215293,35.18612357666039,142.17339797111262,129.30178696835378,6.47544875391759e-05,0.0856727808713913,0,0,0
12067,402394.52268585406,2010-08-24 06:08:24,3931.973963194423,2,33,0.550297200679779,3.980621814727783,35.83919547909624,35.18612357666039,142.191651003507,129.30178696835378,6.47544875391759e-05,0.0856727808713913,0,0,0
12068,402424.53802383685,2010-08-24 06:08:54,3961.9893011470895,2,33,0.5501165986061096,3.9824025630950928,35.84378217533542,35.18612357666039,142.20991308170863,129.30178696835378,3.237724376958795e-05,0.0856727808713913,0,0,0
12069,402454.5531929888,2010-08-24 06:09:24,3992.00447031409,2,33,0.5501165986061096,3.984668970108032,35.84836883826973,35.18612357666039,142.2281839806381,129.30178696835378,6.47544875391759e-05,0.0856727808713913,0,0,0
12070,402484.5682390239,2010-08-24 06:09:54,4022.019516344196,2,33,0.5501165986061096,3.986449718475342,35.85295547313582,35.18612357666039,142.24646385209832,129.30178696835378,3.237724376958795e-05,0.0856727808713913,0,0,0
12071,402514.5834140856,2010-08-24 06:10:24,4052.0346913958633,2,33,0.5499359965324402,3.9882304668426514,35.85754213522755,35.18612357666039,142.2647528853676,129.30178696835378,3.237724376958795e-05,0.0856727808713913,0,0,0
12072,402544.59865495126,2010-08-24 06:10:54,4082.0499322816095,2,33,0.5501165986061096,3.990496873855591,35.86212881652672,35.18612357666039,142.28305106557855,129.30178696835378,9.713172767078504e-05,0.0856727808713913,0,0,0
12073,402574.61379707087,2010-08-24 06:11:24,4112.065074386162,2,33,0.550297200679779,3.9924395084381104,35.86671545623198,35.18612357666039,142.3013582225065,129.30178696835378,6.47544875391759e-05,0.0856727808713913,0,0,0
12074,402604.6289950397,2010-08-24 06:11:54,4142.080272385021,2,33,0.5499359965324402,3.994381904602051,35.87130214634404,35.18612357666039,142.31967483962978,129.30178696835378,6.47544875391759e-05,0.0856727808713913,0,0,0
12075,402634.644158713,2010-08-24 06:12:24,4172.0954360182295,2,33,0.550297200679779,3.9966483116149902,35.875888792345805,35.18612357666039,142.33800062698475,129.30178696835378,9.713172767078504e-05,0.0856727808713913,0,0,0
12076,402664.6593596542,2010-08-24 06:12:54,4202.110636994509,2,33,0.5501165986061096,3.9984290599823,35.88047549000262,35.18612357666039,142.3563360336469,129.30178696835378,6.47544875391759e-05,0.0856727808713913,0,0,0
12077,402694.67464428896,2010-08-24 06:13:24,4232.125921619267,2,33,0.5501165986061096,4.000533580780029,35.88506212253812,35.18612357666039,142.37468055974304,129.30178696835378,3.23295607813634e-05,0.0856727808713913,0,0,0
12078,402724.6897110006,2010-08-24 06:13:54,4262.140988320892,2,33,0.550297200679779,4.002638339996338,35.88964872382752,35.18612357666039,142.39303463330634,129.30178696835378,3.24249267578125e-05,0.0856727808713913,0,0,0
12079,402754.7048876864,2010-08-24 06:14:24,4292.156165001619,2,33,0.5501165986061096,4.004904747009277,35.89423537139163,35.18612357666039,142.41139860198768,129.30178696835378,6.47544875391759e-05,0.0856727808713913,0,0,0
12080,402784.722755379,2010-08-24 06:14:54,4322.174032714226,2,33,0.5501165986061096,4.006847381591797,35.89882240604657,35.18612357666039,142.4297738973033,129.30178696835378,3.24249267578125e-05,0.0856727808713913,0,0,0
12081,402814.7352884159,2010-08-24 06:15:24,4352.18656573113,2,33,0.5501165986061096,4.009113788604736,35.90340862912959,35.18612357666039,142.4481558050192,129.30178696835378,3.24249267578125e-05,0.0856727808713913,0,0,0
12082,402844.7504465153,2010-08-24 06:15:54,4382.201723820522,2,33,0.5501165986061096,4.011218070983887,35.90799524307047,35.18612357666039,142.46654924895407,129.30178696835378,0.0,0.0856727808713913,0,0,0
12083,402874.7657793452,2010-08-24 06:16:24,4412.217056670471,2,33,0.5499359965324402,4.013322830200195,35.91258195541769,35.18612357666039,142.4849532560456,129.30178696835378,3.24249267578125e-05,0.0856727808713913,0,0,0
12084,402904.7811538539,2010-08-24 06:16:54,4442.232431189272,2,33,0.5501165986061096,4.015913009643555,35.91716861091129,35.18612357666039,142.5033672290555,129.30178696835378,9.71794142969884e-05,0.0856727808713913,0,0,0
12085,402934.79601486295,2010-08-24 06:17:24,4472.247292173185,2,33,0.5501165986061096,4.018179416656494,35.921755145345095,35.18612357666039,142.52179102868956,129.30178696835378,9.71794142969884e-05,0.0856727808713913,0,0,0
12086,402964.8111374488,2010-08-24 06:17:54,4502.262414789167,2,33,0.550297200679779,4.0202836990356445,35.926342530687315,35.18612357666039,142.54022863352756,129.30178696835378,3.23295607813634e-05,0.0856727808713913,0,0,0
12087,402994.8263118489,2010-08-24 06:18:24,4532.277589169161,2,33,0.550297200679779,4.022712230682373,35.93093002976843,35.18612357666039,142.5586773181613,129.30178696835378,6.47544875391759e-05,0.0856727808713913,0,0,0
12088,403024.8415381683,2010-08-24 06:18:54,4562.292815488602,2,33,0.550297200679779,4.025140285491943,35.93551746718232,35.18612357666039,142.57713643245964,129.30178696835378,9.70840483205393e-05,0.0856727808713913,0,0,0
12089,403054.85670243314,2010-08-24 06:19:24,4592.3079797784485,2,33,0.550297200679779,4.027245044708252,35.94010500948443,35.18612357666039,142.59560669486055,129.30178696835378,3.24249267578125e-05,0.0856727808713913,0,0,0
12090,403084.87193128886,2010-08-24 06:19:55,4622.323208664286,2,33,0.550297200679779,4.029673099517822,35.94469259570125,35.18612357666039,142.61408800632773,129.30178696835378,3.23295607813634e-05,0.0856727808713913,0,0,0
12091,403114.8874715106,2010-08-24 06:20:25,4652.33874884597,2,33,0.550297200679779,4.032101631164551,35.949280214606915,35.18612357666039,142.63258034807302,129.30178696835378,6.47544875391759e-05,0.0856727808713913,0,0,0
12092,403144.9024090854,2010-08-24 06:20:55,4682.353686400722,2,33,0.550297200679779,4.034691333770752,35.953867190903146,35.18612357666039,142.65108117853288,129.30178696835378,9.70840483205393e-05,0.0856727808713913,0,0,0
12093,403174.9174429903,2010-08-24 06:21:25,4712.368720305608,2,33,0.5501165986061096,4.0371198654174805,35.958453950106744,35.18612357666039,142.66959230901034,129.30178696835378,6.47544875391759e-05,0.0856727808713913,0,0,0
12094,403204.9326330794,2010-08-24 06:21:55,4742.383910389741,2,33,0.5499359965324402,4.039547920227051,35.96304075590829,35.18612357666039,142.68811492756316,129.30178696835378,9.70840483205393e-05,0.0856727808713913,0,0,0
12095,403234.9479921147,2010-08-24 06:22:25,4772.399269470064,2,33,0.5501165986061096,4.04213809967041,35.96762757772764,35.18612357666039,142.70664888545403,129.30178696835378,9.70840483205393e-05,0.0856727808713913,0,0,0
12096,403264.9629936239,2010-08-24 06:22:55,4802.41427093911,2,33,0.5501165986061096,4.04440450668335,35.972214374664354,35.18612357666039,142.72519426663888,129.30178696835378,6.47544875391759e-05,0.0856727808713913,0,0,0
12097,403294.9781626806,2010-08-24 06:23:25,4832.429440020898,2,33,0.5501165986061096,4.046994686126709,35.976801182131084,35.18612357666039,142.74375129296072,129.30178696835378,9.70840483205393e-05,0.0856727808713913,0,0,0
12098,403324.99333240895,2010-08-24 06:23:55,4862.444609729248,2,33,0.550297200679779,4.049746990203857,35.98138786757859,35.18612357666039,142.76231954489313,129.30178696835378,9.71794142969884e-05,0.0856727808713913,0,0,0
12099,403355.0086024424,2010-08-24 06:24:25,4892.459879792715,2,33,0.5499359965324402,4.052175045013428,35.98597462562892,35.18612357666039,142.7808998842411,129.30178696835378,6.47544875391759e-05,0.0856727808713913,0,0,0
12100,403385.0238774281,2010-08-24 06:24:55,4922.475154768423,2,33,0.5499359965324402,4.054765224456787,35.990560585197976,35.18612357666039,142.79948879448466,129.30178696835378,6.47544875391759e-05,0.0856727808713913,0,0,0
12101,403415.03896525735,2010-08-24 06:25:25,4952.490242612743,2,33,0.5499359965324402,4.057193756103516,35.99514647389824,35.18612357666039,142.81808946381426,129.30178696835378,0.0,0.0856727808713913,0,0,0
12102,403445.0541063544,2010-08-24 06:25:55,4982.50538367971,2,33,0.5501165986061096,4.060269355773926,35.999732419341164,35.18612357666039,142.83670259180224,129.30178696835378,9.70840483205393e-05,0.0856727808713913,0,0,0
12103,403475.069207136,2010-08-24 06:26:25,5012.520484471298,2,33,0.5501165986061096,4.062859535217285,36.004318359005104,35.18612357666039,142.85532755946278,129.30178696835378,0.0001295089750783,0.0856727808713913,0,0,0
12104,403505.0844977807,2010-08-24 06:26:55,5042.535775111046,2,33,0.5501165986061096,4.065288066864014,36.00890423642012,35.18612357666039,142.87396470806314,129.30178696835378,6.47544875391759e-05,0.0856727808713913,0,0,0
12105,403535.09959445207,2010-08-24 06:27:25,5072.550871767328,2,33,0.550297200679779,4.068202018737793,36.01349004464506,35.18612357666039,142.89261405821344,129.30178696835378,6.47544875391759e-05,0.0856727808713913,0,0,0
12106,403565.1148711972,2010-08-24 06:27:55,5102.566148512447,2,33,0.550297200679779,4.070953845977783,36.01807670764986,35.18612357666039,142.911279765649,129.30178696835378,9.70840483205393e-05,0.0856727808713913,0,0,0
12107,403595.1300652662,2010-08-24 06:28:25,5132.581342586523,2,33,0.5499359965324402,4.073706150054932,36.022663363052615,35.18612357666039,142.92995812692993,129.30178696835378,6.47544875391759e-05,0.0856727808713913,0,0,0
12108,403625.1452434005,2010-08-24 06:28:55,5162.596520720874,2,33,0.5501165986061096,4.076457977294922,36.02725003711863,35.18612357666039,142.9486494932859,129.30178696835378,6.47544875391759e-05,0.0856727808713913,0,0,0
12109,403655.160543945,2010-08-24 06:29:25,5192.611821255283,2,33,0.5501165986061096,4.079371929168701,36.03183673280214,35.18612357666039,142.96735397310297,129.30178696835378,6.47544875391759e-05,0.0856727808713913,0,0,0
12110,403685.1756032181,2010-08-24 06:29:55,5222.626880538419,2,33,0.5501165986061096,4.0822858810424805,36.0364234231054,35.18612357666039,142.9860715424689,129.30178696835378,9.70840483205393e-05,0.0856727808713913,0,0,0
12111,403715.1908055178,2010-08-24 06:30:25,5252.642082858047,2,33,0.550297200679779,4.08519983291626,36.04101013252236,35.18612357666039,143.00480243967306,129.30178696835378,3.23295607813634e-05,0.0856727808713913,0,0,0
12112,403745.2059687901,2010-08-24 06:30:55,5282.657246115318,2,33,0.5501165986061096,4.088113784790039,36.045596837621765,35.18612357666039,143.0235466833619,129.30178696835378,6.47544875391759e-05,0.0856727808713913,0,0,0
12113,403775.2211397715,2010-08-24 06:31:25,5312.672417091829,2,33,0.5501165986061096,4.091027736663818,36.05018353652362,35.18612357666039,143.04230437336676,129.30178696835378,9.70840483205393e-05,0.0856727808713913,0,0,0
12114,403805.2363275048,2010-08-24 06:31:55,5342.68760482009,2,33,0.550297200679779,4.094103813171387,36.054770240599225,35.18612357666039,143.06107565246464,129.30178696835378,9.71794142969884e-05,0.0856727808713913,0,0,0
12115,403835.2515170176,2010-08-24 06:32:25,5372.702794362874,2,33,0.550297200679779,4.097017765045166,36.059356939171465,35.18612357666039,143.07986060601425,129.30178696835378,9.71794142969884e-05,0.0856727808713913,0,0,0
12116,403865.2669114058,2010-08-24 06:32:55,5402.718188746183,2,33,0.5501165986061096,4.100093364715576,36.06394368425169,35.18612357666039,143.09865964536112,129.30178696835378,9.70840483205393e-05,0.0856727808713913,0,0,0
12117,403895.2820004983,2010-08-24 06:33:25,5432.733277813552,2,33,0.550297200679779,4.103331089019775,36.068530486840295,35.18612357666039,143.11747295631082,129.30178696835378,9.70840483205393e-05,0.0856727808713913,0,0,0
12118,403925.29709317465,2010-08-24 06:33:55,5462.748370489913,2,33,0.550297200679779,4.106245040893555,36.0731171236302,35.18612357666039,143.13629975567997,129.30178696835378,9.70840483205393e-05,0.0856727808713913,0,0,0
12119,403955.31223663257,2010-08-24 06:34:25,5492.763513977914,2,33,0.5501165986061096,4.109482765197754,36.07770377788505,35.18612357666039,143.1551409689546,129.30178696835378,9.70840483205393e-05,0.0856727808713913,0,0,0
12120,403985.3274668066,2010-08-24 06:34:55,5522.778744131913,2,33,0.550297200679779,4.112558841705322,36.08229041717076,35.18612357666039,143.1739965195597,129.30178696835378,6.47544875391759e-05,0.0856727808713913,0,0,0
12121,404015.3427441633,2010-08-24 06:35:25,5552.794021478531,2,33,0.5499359965324402,4.115634441375732,36.08687714761556,35.18612357666039,143.1928669418487,129.30178696835378,9.71794142969884e-05,0.0856727808713913,0,0,0
12122,404045.35778622347,2010-08-24 06:35:55,5582.809063538743,2,33,0.5499359965324402,4.118872165679932,36.091463814623765,35.18612357666039,143.21175176209684,129.30178696835378,3.24249267578125e-05,0.0856727808713913,0,0,0
12123,404075.37309239694,2010-08-24 06:36:25,5612.824369717218,2,33,0.5501165986061096,4.122271537780762,36.09605052269698,35.18612357666039,143.23065157045886,129.30178696835378,0.0001295089750783,0.0856727808713913,0,0,0
12124,404105.38830664125,2010-08-24 06:36:55,5642.839583956554,2,33,0.5501165986061096,4.12534761428833,36.10063716589164,35.18612357666039,143.24956599249754,129.30178696835378,6.47544875391759e-05,0.0856727808713913,0,0,0
12125,404135.4033594432,2010-08-24 06:37:25,5672.854636763549,2,33,0.5501165986061096,4.12874698638916,36.10522380097204,35.18612357666039,143.26849549038045,129.30178696835378,0.0001295089750783,0.0856727808713913,0,0,0
12126,404165.41851620434,2010-08-24 06:37:55,5702.869793519618,2,33,0.550297200679779,4.132146835327148,36.10981042917048,35.18612357666039,143.287440174745,129.30178696835378,9.71794142969884e-05,0.0856727808713913,0,0,0
12127,404195.4336942084,2010-08-24 06:38:25,5732.884971553719,2,33,0.5501165986061096,4.1355462074279785,36.114397098264575,35.18612357666039,143.30640032859893,129.30178696835378,9.70840483205393e-05,0.0856727808713913,0,0,0
12128,404225.448930212,2010-08-24 06:38:55,5762.900207532234,2,33,0.5501165986061096,4.138783931732178,36.1189837604733,35.18612357666039,143.32537591749974,129.30178696835378,9.70840483205393e-05,0.0856727808713913,0,0,0
12129,404255.4640924166,2010-08-24 06:39:25,5792.915369741895,2,33,0.5499359965324402,4.142183780670166,36.12357045536835,35.18612357666039,143.34436731233652,129.30178696835378,6.47544875391759e-05,0.0856727808713913,0,0,0
12130,404285.4792278746,2010-08-24 06:39:55,5822.930505189857,2,33,0.5501165986061096,4.145906925201416,36.12815724520357,35.18612357666039,143.3633750153496,129.30178696835378,9.70840483205393e-05,0.0856727808713913,0,0,0
12131,404315.4943958386,2010-08-24 06:40:25,5852.945673178923,2,33,0.5504778623580933,4.149468421936035,36.13274402278053,35.18612357666039,143.38239877093713,129.30178696835378,0.0001618385285837,0.0856727808713913,0,0,0
12132,404345.50973483885,2010-08-24 06:40:55,5882.961012184213,2,33,0.5501165986061096,4.152868270874023,36.13733080732092,35.18612357666039,143.4014385953259,129.30178696835378,9.71794142969884e-05,0.0856727808713913,0,0,0
12133,404375.524881976,2010-08-24 06:41:25,5912.976159296246,2,33,0.5499359965324402,4.1562676429748535,36.14191763112346,35.18612357666039,143.42049473528917,129.30178696835378,9.70840483205393e-05,0.0856727808713913,0,0,0
12134,404405.53995395073,2010-08-24 06:41:55,5942.991231266001,2,33,0.5499359965324402,4.159829139709473,36.14650433487534,35.18612357666039,143.43956660337733,129.30178696835378,9.70840483205393e-05,0.0856727808713913,0,0,0
12135,404435.5551224561,2010-08-24 06:42:25,5973.006399771353,2,33,0.550297200679779,4.163390636444092,36.151091050207256,35.18612357666039,143.4586549695746,129.30178696835378,6.47544875391759e-05,0.0856727808713913,0,0,0
12136,404465.5703175778,2010-08-24 06:42:55,6003.021594893041,2,33,0.5501165986061096,4.166952133178711,36.15567781211164,35.18612357666039,143.47775997274795,129.30178696835378,9.70840483205393e-05,0.0856727808713913,0,0,0
12137,404495.5854847648,2010-08-24 06:43:25,6033.03676208512,2,33,0.550297200679779,4.17083740234375,36.16026459390211,35.18612357666039,143.496881771093,129.30178696835378,9.70840483205393e-05,0.0856727808713913,0,0,0
12138,404525.6006692801,2010-08-24 06:43:55,6063.05194659536,2,33,0.5501165986061096,4.174398899078369,36.16485136540109,35.18612357666039,143.51602034952984,129.30178696835378,9.70840483205393e-05,0.0856727808713913,0,0,0
12139,404555.61588876747,2010-08-24 06:44:25,6093.067166087788,2,33,0.5501165986061096,4.178122520446777,36.169438123471465,35.18612357666039,143.53517574272706,129.30178696835378,9.71794142969884e-05,0.0856727808713913,0,0,0
12140,404585.6310700096,2010-08-24 06:44:55,6123.082347324871,2,33,0.550297200679779,4.181845664978027,36.17402495494582,35.18612357666039,143.55434857917115,129.30178696835378,9.70840483205393e-05,0.0856727808713913,0,0,0
12141,404615.6463430956,2010-08-24 06:45:25,6153.097620420896,2,33,0.5501165986061096,4.185569286346436,36.17861180740126,35.18612357666039,143.57353871831285,129.30178696835378,9.71794142969884e-05,0.0856727808713913,0,0,0
12142,404645.66140414815,2010-08-24 06:45:55,6183.112681468429,2,33,0.5501165986061096,4.189454555511475,36.18319850807147,35.18612357666039,143.5927455895696,129.30178696835378,9.71794142969884e-05,0.0856727808713913,0,0,0
12143,404675.6765736711,2010-08-24 06:46:25,6213.127850986305,2,33,0.550297200679779,4.1935014724731445,36.18778533687822,35.18612357666039,143.61197053912647,129.30178696835378,0.0001295089750783,0.0856727808713913,0,0,0
12144,404705.6917756248,2010-08-24 06:46:55,6243.14305294002,2,33,0.5499359965324402,4.197062969207764,36.19237214991698,35.18612357666039,143.63121305191868,129.30178696835378,9.71794142969884e-05,0.0856727808713913,0,0,0
12145,404727.1603203739,2010-08-24 06:47:17,6264.6115976892415,2,33,0.550297200679779,4.200138568878174,36.195652898162905,35.18612357666039,143.64498729172257,129.30178696835378,0.0001618385285837,0.0856727808713913,0,0,0
12146,404757.17122857145,2010-08-24 06:47:47,30.01516394899596,3,33,0.0,4.122433662414551,36.195652898162905,35.18612357666039,143.64498729172257,129.30178696835378,-0.0003885269106831,0.0856727808713913,0,0,0
12147,404787.18638419965,2010-08-24 06:48:17,60.03031957224158,3,33,0.0,4.112720489501953,36.195652898162905,35.18612357666039,143.64498729172257,129.30178696835378,-0.0001942634553415,0.0856727808713913,0,0,0
12148,404817.2018338658,2010-08-24 06:48:47,90.04576926339492,3,33,0.0,4.1068925857543945,36.195652898162905,35.18612357666039,143.64498729172257,129.30178696835378,-9.71794142969884e-05,0.0856727808713913,0,0,0
12149,404847.16988607286,2010-08-24 06:49:17,120.01382144537156,3,33,0.0,4.103331089019775,36.195652898162905,35.18612357666039,143.64498729172257,129.30178696835378,-6.47544875391759e-05,0.0856727808713913,0,0,0
12150,404847.18317784165,2010-08-24 06:49:17,0.015626661448533,4,33,1.0032652616500854,4.200138568878174,36.19565726640571,35.18612357666039,143.64500563824143,129.30178696835378,6.47544875391759e-05,0.0856727808713913,0,0,0
12151,404848.2144084707,2010-08-24 06:49:18,1.046857290477806,4,33,0.9523334503173828,4.199814796447754,36.19593592407215,35.18612357666039,143.6461759400464,129.30178696835378,0.0,0.0856727808713913,0,0,0
12152,404850.3862626296,2010-08-24 06:49:20,3.21871144930442,4,33,0.9019435048103333,4.199653148651123,36.196494166900514,35.18612357666039,143.64852042962184,129.30178696835378,-3.23295607813634e-05,0.0856727808713913,0,0,0
12153,404853.5580779993,2010-08-24 06:49:23,6.390526819149264,4,33,0.8519147038459778,4.199814796447754,36.197265779019375,35.18612357666039,143.65176101552578,129.30178696835378,0.0,0.0856727808713913,0,0,0
12154,404857.77679330105,2010-08-24 06:49:28,10.609242105709614,4,33,0.8018859624862671,4.199814796447754,36.19823374115481,35.18612357666039,143.65582624123596,129.30178696835378,3.23295607813634e-05,0.0856727808713913,0,0,0
12155,404863.1516774262,2010-08-24 06:49:33,15.984126240784724,4,33,0.7516765594482422,4.199814796447754,36.199392208471366,35.18612357666039,143.66069152813515,129.30178696835378,0.0,0.0856727808713913,0,0,0
12156,404870.0109738784,2010-08-24 06:49:40,22.843422678059163,4,33,0.7014672160148621,4.199653148651123,36.20077483459979,35.18612357666039,143.6664982516978,129.30178696835378,-3.23295607813634e-05,0.0856727808713913,0,0,0
12157,404878.9014595091,2010-08-24 06:49:49,31.733908333847435,4,33,0.6514384150505066,4.199814796447754,36.20244288897511,35.18612357666039,143.6735037238192,129.30178696835378,0.0,0.0856727808713913,0,0,0
12158,404891.05752769136,2010-08-24 06:50:01,43.8899764860113,4,33,0.6014096736907959,4.199814796447754,36.20455374902514,35.18612357666039,143.682368881332,129.30178696835378,0.0,0.0856727808713913,0,0,0
12159,404908.4947595284,2010-08-24 06:50:18,61.327208323051295,4,33,0.5513808727264404,4.199653148651123,36.20733860612796,35.18612357666039,143.69406472137354,129.30178696835378,-6.47544875391759e-05,0.0856727808713913,0,0,0
12160,404936.2443576603,2010-08-24 06:50:46,89.07680645493383,4,33,0.5013521313667297,4.199814796447754,36.2113820464393,35.18612357666039,143.71104633306564,129.30178696835378,0.0,0.0856727808713913,0,0,0
12161,404983.2905487994,2010-08-24 06:51:33,136.1229975940035,4,33,0.4513233304023742,4.199653148651123,36.21758101101651,35.18612357666039,143.73708071358834,129.30178696835378,-6.47544875391759e-05,0.0856727808713913,0,0,0
12162,405058.6487900537,2010-08-24 06:52:49,211.4812388583855,4,33,0.4012945592403412,4.199814796447754,36.226478728829065,35.18612357666039,143.77444926609252,129.30178696835378,0.0,0.0856727808713913,0,0,0
12163,405162.0067773555,2010-08-24 06:54:32,314.8392261501743,4,33,0.3512657880783081,4.199653148651123,36.237260314693486,35.18612357666039,143.81972961703275,129.30178696835378,-3.23295607813634e-05,0.0856727808713913,0,0,0
12164,405286.67681109457,2010-08-24 06:56:37,439.5092598992874,4,33,0.301237016916275,4.199814796447754,36.24854195141173,35.18612357666039,143.86710999826056,129.30178696835378,0.0,0.0856727808713913,0,0,0
12165,405438.2525859744,2010-08-24 06:59:08,591.0850347739752,4,33,0.2508470416069031,4.199491024017334,36.26015375266184,35.18612357666039,143.9158771274234,129.30178696835378,-3.24249267578125e-05,0.0856727808713913,0,0,0
12166,405626.671684513,2010-08-24 07:02:17,779.5041333076282,4,33,0.2006376683712005,4.199814796447754,36.271943061870914,35.18612357666039,143.96538984904544,129.30178696835378,0.0,0.0856727808713913,0,0,0
12167,405872.82433245087,2010-08-24 07:06:23,1025.6567812455658,4,33,0.1502476781606674,4.199653148651123,36.283886489521095,35.18612357666039,144.0155498394036,129.30178696835378,0.0,0.0856727808713913,0,0,0
12168,406232.0533995832,2010-08-24 07:12:22,1384.8858483828928,4,33,0.1002189069986343,4.199814796447754,36.2962455404603,35.18612357666039,144.06745526582736,129.30178696835378,-3.24249267578125e-05,0.0856727808713913,0,0,0
12169,406891.5436212357,2010-08-24 07:23:22,2044.376070035319,4,33,0.0501901358366012,4.199814796447754,36.30949632197432,35.18612357666039,144.12310580370206,129.30178696835378,0.0,0.0856727808713913,0,0,0
12170,406897.7778979815,2010-08-24 07:23:28,2050.6103468012584,4,33,0.0498289167881011,4.199653148651123,36.30958367172665,35.18612357666039,144.12347265509104,129.30178696835378,-6.47544875391759e-05,0.0856727808713913,0,0,0
12171,406927.8053601943,2010-08-24 07:23:58,30.015147683457236,5,33,0.0,4.192530155181885,36.30958367172665,35.18612357666039,144.12347265509104,129.30178696835378,-3.24249267578125e-05,0.0856727808713913,0,0,0
12172,406957.80491012335,2010-08-24 07:24:28,60.01469762253617,5,33,0.0,4.191397190093994,36.30958367172665,35.18612357666039,144.12347265509104,129.30178696835378,-3.23295607813634e-05,0.0856727808713913,0,0,0
12173,406958.0055998125,2010-08-24 07:24:28,0.187472278602054,6,33,-1.9243103452026844e-05,4.191235065460205,36.30958367172665,35.18612357766249,144.12347265509104,129.30178697255388,-3.24249267578125e-05,0.0906857252120971,0,0,0
12174,406962.8336555179,2010-08-24 07:24:33,5.015527988987939,6,33,0.0005225847125984,4.191235065460205,36.30958464431104,35.18612357782964,144.12347673162938,129.3017869732544,-6.47544875391759e-05,0.0906857252120971,0,0,0
12175,406992.8465090788,2010-08-24 07:25:03,30.01521108146457,7,33,-1.099568486213684,4.029673099517822,36.30958464431104,35.195291754219085,144.12347673162938,129.33891748637788,-0.0008742332574911,0.0906857252120971,0,0,0
12176,407022.8616572886,2010-08-24 07:25:33,60.03035929123354,7,33,-1.099568486213684,4.004904747009277,36.30958464431104,35.204459960936795,144.12347673162938,129.37573952013355,-0.0005180359003134,0.0906857252120971,0,0,0
12177,407052.8769792013,2010-08-24 07:26:03,90.04568121394861,7,33,-1.099568486213684,3.9877448081970215,36.30958464431104,35.213628223909865,144.12347673162938,129.41237436307298,-0.0003885269106831,0.0906857252120971,0,0,0
12178,407082.89202545193,2010-08-24 07:26:33,120.06072745457908,7,33,-1.0997490882873535,3.974632024765015,36.30958464431104,35.22279625028063,144.12347673162938,129.44887166138892,-0.0002913951757363,0.0906857252120971,0,0,0
12179,407112.9072082329,2010-08-24 07:27:03,150.07591024052252,7,33,-1.099568486213684,3.9634618759155273,36.30958464431104,35.231964336788344,144.12347673162938,129.48525840009805,-0.0002913951757363,0.0906857252120971,0,0,0
12180,407142.9223843472,2010-08-24 07:27:33,180.09108634982573,7,33,-1.099568486213684,3.9534249305725098,36.30958464431104,35.24113238992169,144.12347673162938,129.5215483685262,-0.0002590179501567,0.0906857252120971,0,0,0
12181,407172.9375522059,2010-08-24 07:28:03,210.1062542286159,7,33,-1.0997490882873535,3.943873643875122,36.30958464431104,35.25030046134859,144.12347673162938,129.55775002946257,-0.0002913951757363,0.0906857252120971,0,0,0
12182,407202.95286096085,2010-08-24 07:28:33,240.12156297348776,7,33,-1.0997490882873535,3.935131788253784,36.30958464431104,35.25946855766757,144.12347673162938,129.5938687829784,-0.0002266406954731,0.0906857252120971,0,0,0
12183,407232.9679099735,2010-08-24 07:29:03,270.1366119760017,7,33,-1.0993878841400146,3.926875591278076,36.30958464431104,35.26863660416044,144.12347673162938,129.62990820714134,-0.0001942634553415,0.0906857252120971,0,0,0
12184,407262.9830873559,2010-08-24 07:29:33,300.1517893835405,7,33,-1.099568486213684,3.918457508087158,36.30958464431104,35.277804710836655,144.12347673162938,129.66587158539983,-0.0002266406954731,0.0906857252120971,0,0,0
12185,407292.9982785427,2010-08-24 07:30:03,330.1669805553842,7,33,-1.0997490882873535,3.9103634357452393,36.30958464431104,35.286972822388414,144.12347673162938,129.7017607781521,-0.0002266406954731,0.0906857252120971,0,0,0
12186,407323.0134426822,2010-08-24 07:30:33,360.18214468984235,7,33,-1.099568486213684,3.902754783630371,36.30958464431104,35.29614094450918,144.12347673162938,129.73757752916114,-0.0001942634553415,0.0906857252120971,0,0,0
12187,407353.0286312727,2010-08-24 07:31:03,390.19733328025234,7,33,-1.099568486213684,3.894984245300293,36.30958464431104,35.3053090304268,144.12347673162938,129.77332304621447,-0.0002266406954731,0.0906857252120971,0,0,0
12188,407383.0439506841,2010-08-24 07:31:33,420.2126527067461,7,33,-1.099568486213684,3.8876993656158447,36.30958464431104,35.314477137238285,144.12347673162938,129.8089994886229,-0.0001942634553415,0.0906857252120971,0,0,0
12189,407413.0616471749,2010-08-24 07:32:03,450.2303491976156,7,33,-1.099568486213684,3.880090713500977,36.30958464431104,35.32364599648539,144.12347673162938,129.84461028114333,-0.0002266406954731,0.0906857252120971,0,0,0
12190,407443.0742210236,2010-08-24 07:32:33,480.2429230262346,7,33,-1.099568486213684,3.872805833816528,36.30958464431104,35.33281328212649,144.12347673162938,129.88014755063475,-0.0001942634553415,0.0906857252120971,0,0,0
12191,407473.0893580856,2010-08-24 07:33:03,510.2580600932323,7,33,-1.0997490882873535,3.86568284034729,36.30958464431104,35.34198140510456,144.12347673162938,129.91562142217094,-0.0001942634553415,0.0906857252120971,0,0,0
12192,407503.104532235,2010-08-24 07:33:33,540.2732342376385,7,33,-1.0997490882873535,3.858559846878052,36.30958464431104,35.35114951938658,144.12347673162938,129.95102949407905,-0.0001942634553415,0.0906857252120971,0,0,0
12193,407533.12005855714,2010-08-24 07:34:03,570.2887605898546,7,33,-1.099568486213684,3.8514368534088135,36.30958464431104,35.36031772374816,144.12347673162938,129.98637305803487,-0.0001942634553415,0.0906857252120971,0,0,0
12194,407563.13492752094,2010-08-24 07:34:33,600.3036295235818,7,33,-1.099568486213684,3.844637632369995,36.30958464431104,35.36948568870489,144.12347673162938,130.02165201343138,-0.0001942634553415,0.0906857252120971,0,0,0
12195,407593.1501054597,2010-08-24 07:35:03,630.3188074674574,7,33,-1.099568486213684,3.837676525115967,36.30958464431104,35.37865384333163,144.12347673162938,130.0568687349096,-0.0002266406954731,0.0906857252120971,0,0,0
12196,407623.1652915941,2010-08-24 07:35:33,660.3339936017459,7,33,-1.0997490882873535,3.8310394287109375,36.30958464431104,35.38782195982769,144.12347673162938,130.09202332064302,-0.0001942634553415,0.0906857252120971,0,0,0
12197,407653.1804449968,2010-08-24 07:36:03,690.3491470044573,7,33,-1.099568486213684,3.824402093887329,36.30958464431104,35.39699007475687,144.12347673162938,130.12711695387395,-0.0001942634553415,0.0906857252120971,0,0,0
12198,407683.1956263041,2010-08-24 07:36:33,720.3643283067029,7,33,-1.099568486213684,3.8180885314941406,36.30958464431104,35.40615821643842,144.12347673162938,130.1621505502527,-0.0001618862152099,0.0906857252120971,0,0,0
12199,407713.2108017266,2010-08-24 07:37:04,750.379503734307,7,33,-1.099568486213684,3.811613082885742,36.30958464431104,35.415326297515925,144.12347673162938,130.197124741243,-0.0001618862152099,0.0906857252120971,0,0,0
12200,407743.22625595913,2010-08-24 07:37:34,780.3949579667787,7,33,-1.099568486213684,3.8052995204925537,36.30958464431104,35.424494476679,144.12347673162938,130.23204075949954,-0.0001295089750783,0.0906857252120971,0,0,0
12201,407773.2413499738,2010-08-24 07:38:04,810.4100519764645,7,33,-1.099568486213684,3.7988240718841553,36.30958464431104,35.43366248036554,144.12347673162938,130.26689891392542,-0.0002266406954731,0.0906857252120971,0,0,0
12202,407803.2563409567,2010-08-24 07:38:34,840.4250429593757,7,33,-1.0993878841400146,3.793158054351807,36.30958464431104,35.442830507985754,144.12347673162938,130.30170096353064,-0.0001295089750783,0.0906857252120971,0,0,0
12203,407833.2715444843,2010-08-24 07:39:04,870.4402465120762,7,33,-1.0997490882873535,3.787006378173828,36.30958464431104,35.45199863315288,144.12347673162938,130.33644817462172,-0.0001618862152099,0.0906857252120971,0,0,0
12204,407863.28672396205,2010-08-24 07:39:34,900.4554259697245,7,33,-1.099568486213684,3.78101658821106,36.30958464431104,35.46116672777467,144.12347673162938,130.3711411566575,-0.0001942634553415,0.0906857252120971,0,0,0
12205,407893.3019230386,2010-08-24 07:40:04,930.4706250412568,7,33,-1.0993878841400146,3.775512456893921,36.30958464431104,35.470334872445704,144.12347673162938,130.4057812530309,-0.0001618862152099,0.0906857252120971,0,0,0
12206,407923.3171904104,2010-08-24 07:40:34,960.485892413014,7,33,-1.0997490882873535,3.7696845531463614,36.30958464431104,35.47950302307582,144.12347673162938,130.44036933078067,-0.0001618862152099,0.0906857252120971,0,0,0
12207,407953.3322416184,2010-08-24 07:41:04,990.5009436210248,7,33,-1.0997490882873535,3.7643423080444336,36.30958464431104,35.48867109177436,144.12347673162938,130.47490608486348,-0.0001618862152099,0.0906857252120971,0,0,0
12208,407983.3475497968,2010-08-24 07:41:34,1020.5162517994848,7,33,-1.099568486213684,3.758838176727295,36.30958464431104,35.497839232905,144.12347673162938,130.5093930451851,-0.0001618862152099,0.0906857252120971,0,0,0
12209,408013.3627441566,2010-08-24 07:42:04,1050.531446159274,7,33,-1.0997490882873535,3.753495931625366,36.30958464431104,35.5070074363188,144.12347673162938,130.543831184732,-0.0001942634553415,0.0906857252120971,0,0,0
12210,408043.37780628685,2010-08-24 07:42:34,1080.5465082995313,7,33,-1.0997490882873535,3.748477697372437,36.30958464431104,35.516175566829546,144.12347673162938,130.57822090831053,-0.0001295089750783,0.0906857252120971,0,0,0
12211,408073.3929633186,2010-08-24 07:43:04,1110.5616653262748,7,33,-1.0997490882873535,3.7432973384857178,36.30958464431104,35.52534363042939,144.12347673162938,130.61256359937764,-0.0001618862152099,0.0906857252120971,0,0,0
12212,408103.40813885647,2010-08-24 07:43:34,1140.5768408641538,7,33,-1.099568486213684,3.738278865814209,36.30958464431104,35.53451176460064,144.12347673162938,130.64686041066636,-0.0001618862152099,0.0906857252120971,0,0,0
12213,408133.4233610606,2010-08-24 07:44:04,1170.5920630984149,7,33,-1.099568486213684,3.73358416557312,36.30958464431104,35.54367993436378,144.12347673162938,130.6811117624688,-9.713172767078504e-05,0.0906857252120971,0,0,0
12214,408163.4385014209,2010-08-24 07:44:34,1200.6072034285453,7,33,-1.099568486213684,3.728727579116821,36.30958464431104,35.55284800949634,144.12347673162938,130.71531716231627,-6.47544875391759e-05,0.0906857252120971,0,0,0
12215,408193.45367901394,2010-08-24 07:45:04,1230.6223810165336,7,33,-1.099568486213684,3.7238709926605225,36.30958464431104,35.56201612634941,144.12347673162938,130.7494788198999,-0.0001295089750783,0.0906857252120971,0,0,0
12216,408223.4688601858,2010-08-24 07:45:34,1260.6375621884542,7,33,-1.099568486213684,3.7188525199890137,36.30958464431104,35.57118423113369,144.12347673162938,130.78359650624407,-0.0001618862152099,0.0906857252120971,0,0,0
12217,408253.48405858566,2010-08-24 07:46:04,1290.6527606183872,7,33,-1.0997490882873535,3.714319705963135,36.30958464431104,35.580352346857545,144.12347673162938,130.81767174370415,-9.713172767078504e-05,0.0906857252120971,0,0,0
12218,408283.4992062039,2010-08-24 07:46:34,1320.6679082066073,7,33,-1.0997490882873535,3.709948778152466,36.30958464431104,35.5895204719685,144.12347673162938,130.85170506825864,-0.0001295089750783,0.0906857252120971,0,0,0
12219,408313.5143932606,2010-08-24 07:47:04,1350.6830952631944,7,33,-1.099568486213684,3.705415964126587,36.30958464431104,35.598688565021824,144.12347673162938,130.88569738734913,-0.0001295089750783,0.0906857252120971,0,0,0
12220,408343.529572628,2010-08-24 07:47:34,1380.6982746356305,7,33,-1.099568486213684,3.701045036315918,36.30958464431104,35.607856685823855,144.12347673162938,130.91964913761632,-9.713172767078504e-05,0.0906857252120971,0,0,0
12221,408373.5447554139,2010-08-24 07:48:04,1410.7134574165611,7,33,-1.099568486213684,3.696997880935669,36.30958464431104,35.61702477718207,144.12347673162938,130.95356104038896,-6.47544875391759e-05,0.0906857252120971,0,0,0
12222,408403.55993335776,2010-08-24 07:48:34,1440.7286353604368,7,33,-1.0997490882873535,3.69246506690979,36.30958464431104,35.62619287102339,144.12347673162938,130.98743403813856,-0.0001295089750783,0.0906857252120971,0,0,0
12223,408433.57510254986,2010-08-24 07:49:04,1470.7438045525,7,33,-1.099568486213684,3.688417911529541,36.30958464431104,35.635361022789205,144.12347673162938,131.0212686454617,-0.0001295089750783,0.0906857252120971,0,0,0
12224,408463.5903028244,2010-08-24 07:49:34,1500.7590048270304,7,33,-1.099568486213684,3.684370756149292,36.30958464431104,35.64452904343203,144.12347673162938,131.05506506576052,-9.713172767078504e-05,0.0906857252120971,0,0,0
12225,408493.6057691821,2010-08-24 07:50:04,1530.7744713300842,7,33,-1.099568486213684,3.680161714553833,36.30958464431104,35.65369721985086,144.12347673162938,131.0888247106713,-0.0001618862152099,0.0906857252120971,0,0,0
12226,408523.62063961953,2010-08-24 07:50:34,1560.7893416221968,7,33,-1.099568486213684,3.676438331604004,36.30958464431104,35.662865209757534,144.12347673162938,131.12254703202612,-6.47544875391759e-05,0.0906857252120971,0,0,0
12227,408553.63583162846,2010-08-24 07:51:04,1590.8045336361392,7,33,-1.099568486213684,3.672391414642334,36.30958464431104,35.67203329353753,144.12347673162938,131.15623373329,-9.70840483205393e-05,0.0906857252120971,0,0,0
12228,408583.6510195373,2010-08-24 07:51:34,1620.8197215398377,7,33,-1.0997490882873535,3.668506145477295,36.30958464431104,35.68120138280939,144.12347673162938,131.18988560514555,-0.0001295089750783,0.0906857252120971,0,0,0
12229,408613.66622324026,2010-08-24 07:52:04,1650.8349252429132,7,33,-1.0997490882873535,3.664944648742676,36.30958464431104,35.690369432634746,144.12347673162938,131.2235030858084,-6.47544875391759e-05,0.0906857252120971,0,0,0
12230,408643.68149389024,2010-08-24 07:52:34,1680.8501959128905,7,33,-1.099568486213684,3.6613831520080566,36.30958464431104,35.69953758111158,144.12347673162938,131.25708712696968,-9.713172767078504e-05,0.0906857252120971,0,0,0
12231,408673.6965515694,2010-08-24 07:53:04,1710.8652535970418,7,33,-1.0997490882873535,3.657659769058228,36.30958464431104,35.7087057106878,144.12347673162938,131.29063813906353,-6.47544875391759e-05,0.0906857252120971,0,0,0
12232,408703.7118317981,2010-08-24 07:53:34,1740.8805338007803,7,33,-1.099568486213684,3.6542601585388175,36.30958464431104,35.7178738133965,144.12347673162938,131.32415673643376,-6.47544875391759e-05,0.0906857252120971,0,0,0
12233,408733.7270277469,2010-08-24 07:54:04,1770.8957297495297,7,33,-1.099568486213684,3.651022434234619,36.30958464431104,35.72704195798989,144.12347673162938,131.35764346166073,-6.47544875391759e-05,0.0906857252120971,0,0,0
12234,408763.7420587496,2010-08-24 07:54:34,1800.9107607571948,7,33,-1.0997490882873535,3.64729905128479,36.30958464431104,35.736210059922904,144.12347673162938,131.3910988845836,-9.713172767078504e-05,0.0906857252120971,0,0,0
12235,408793.7572423024,2010-08-24 07:55:04,1830.925944310049,7,33,-1.0997490882873535,3.644223213195801,36.30958464431104,35.745378132879964,144.12347673162938,131.42452366083216,-6.47544875391759e-05,0.0906857252120971,0,0,0
12236,408823.7725469621,2010-08-24 07:55:34,1860.94124896974,7,33,-1.099568486213684,3.640823602676392,36.30958464431104,35.75454618398555,144.12347673162938,131.45791943983386,-9.713172767078504e-05,0.0906857252120971,0,0,0
12237,408853.7876073279,2010-08-24 07:56:04,1890.9563093305624,7,33,-1.099568486213684,3.637909650802612,36.30958464431104,35.76371424706654,144.12347673162938,131.491286580228,-9.713172767078504e-05,0.0906857252120971,0,0,0
12238,408883.80280823406,2010-08-24 07:56:34,1920.9715102567168,7,33,-1.0997490882873535,3.634833812713623,36.30958464431104,35.77288233350517,144.12347673162938,131.52462567829795,-9.713172767078504e-05,0.0906857252120971,0,0,0
12239,408913.817954118,2010-08-24 07:57:04,1950.9866561256515,7,33,-1.0997490882873535,3.631919860839844,36.30958464431104,35.78205043160188,144.12347673162938,131.5579370630009,-9.713172767078504e-05,0.0906857252120971,0,0,0
12240,408943.8331286133,2010-08-24 07:57:34,1981.001830620932,7,33,-1.099568486213684,3.6291677951812735,36.30958464431104,35.79121852640929,144.12347673162938,131.5912214044693,-3.237724376958795e-05,0.0906857252120971,0,0,0
12241,408973.8484464809,2010-08-24 07:58:04,2011.0171485085907,7,33,-1.099568486213684,3.626253843307495,36.30958464431104,35.80038671912426,144.12347673162938,131.62447968277905,-6.47544875391759e-05,0.0906857252120971,0,0,0
12242,409003.86348769895,2010-08-24 07:58:34,2041.0321897066533,7,33,-1.0997490882873535,3.623339891433716,36.30958464431104,35.809554730013815,144.12347673162938,131.65771138669467,-6.47544875391759e-05,0.0906857252120971,0,0,0
12243,409033.87868824427,2010-08-24 07:59:04,2071.047390246846,7,33,-1.099568486213684,3.6205878257751465,36.30958464431104,35.81872284581914,144.12347673162938,131.69091818647152,-9.713172767078504e-05,0.0906857252120971,0,0,0
12244,409063.8938445442,2010-08-24 07:59:34,2101.0625465467783,7,33,-1.0997490882873535,3.617997646331787,36.30958464431104,35.82789093252426,144.12347673162938,131.72409998801558,-6.47544875391759e-05,0.0906857252120971,0,0,0
12245,409093.90918579,2010-08-24 08:00:04,2131.077887802677,7,33,-1.099568486213684,3.6152455806732178,36.30958464431104,35.837059094177334,144.12347673162938,131.75725718545598,-6.47544875391759e-05,0.0906857252120971,0,0,0
12246,409123.9242014794,2010-08-24 08:00:34,2161.092903492165,7,33,-1.0997490882873535,3.612493515014648,36.30958464431104,35.846227123316226,144.12347673162938,131.7903896507694,-9.713172767078504e-05,0.0906857252120971,0,0,0
12247,409153.9394155484,2010-08-24 08:01:04,2191.1081175610752,7,33,-1.0997490882873535,3.609903335571289,36.30958464431104,35.855395224766205,144.12347673162938,131.82349772685592,-6.47544875391759e-05,0.0906857252120971,0,0,0
12248,409183.9545503748,2010-08-24 08:01:34,2221.1232523824765,7,33,-1.099568486213684,3.6073131561279297,36.30958464431104,35.864563236308534,144.12347673162938,131.85658093078462,-3.237724376958795e-05,0.0906857252120971,0,0,0
12249,409213.9697658724,2010-08-24 08:02:04,2251.138467879947,7,33,-1.0997490882873535,3.604237318038941,36.30958464431104,35.87373128071121,144.12347673162938,131.88963932734154,-9.713172767078504e-05,0.0906857252120971,0,0,0
12250,409243.9848754057,2010-08-24 08:02:34,2281.153577418335,7,33,-1.099568486213684,3.601809024810791,36.30958464431104,35.882899258766045,144.12347673162938,131.92267258472242,-6.47544875391759e-05,0.0906857252120971,0,0,0
12251,409274.0002592076,2010-08-24 08:03:04,2311.168961220272,7,33,-1.0997490882873535,3.5990569591522217,36.30958464431104,35.89206712016563,144.12347673162938,131.95568026442,-6.47544875391759e-05,0.0906857252120971,0,0,0
12252,409304.01525526313,2010-08-24 08:03:34,2341.183957265801,7,33,-1.099568486213684,3.5963048934936523,36.30958464431104,35.90123483328102,144.12347673162938,131.98866217701044,-6.47544875391759e-05,0.0906857252120971,0,0,0
12253,409334.0304215079,2010-08-24 08:04:04,2371.199123535581,7,33,-1.099568486213684,3.593390941619873,36.30958464431104,35.910402564758826,144.12347673162938,132.02161825823936,-9.713172767078504e-05,0.0906857252120971,0,0,0
12254,409364.0457648089,2010-08-24 08:04:34,2401.21446682154,7,33,-1.099568486213684,3.590477228164673,36.30958464431104,35.91957045050498,144.12347673162938,132.05454909958317,-0.0001295089750783,0.0906857252120971,0,0,0
12255,409394.06077215256,2010-08-24 08:05:04,2431.2294741552014,7,33,-1.099568486213684,3.5877251625061035,36.30958464431104,35.92873846407681,144.12347673162938,132.0874540191002,-6.47544875391759e-05,0.0906857252120971,0,0,0
12256,409424.0759437907,2010-08-24 08:05:34,2461.244645798374,7,33,-1.099568486213684,3.5846493244171143,36.30958464431104,35.93790656285947,144.12347673162938,132.1203325094161,-6.47544875391759e-05,0.0906857252120971,0,0,0
12257,409454.0913275025,2010-08-24 08:06:04,2491.260029535149,7,33,-1.099568486213684,3.581573486328125,36.30958464431104,35.947074661397274,144.12347673162938,132.15318339220363,-0.0001295089750783,0.0906857252120971,0,0,0
12258,409484.10630387394,2010-08-24 08:06:34,2521.275005876569,7,33,-1.099568486213684,3.578497648239136,36.30958464431104,35.956242619134066,144.12347673162938,132.18600576103498,-9.713172767078504e-05,0.0906857252120971,0,0,0
12259,409514.12162066886,2010-08-24 08:07:04,2551.2903227015795,7,33,-1.0997490882873535,3.5752599239349365,36.30958464431104,35.96541072624367,144.12347673162938,132.2188000829299,-9.713172767078504e-05,0.0906857252120971,0,0,0
12260,409544.13665463385,2010-08-24 08:07:34,2581.305356641553,7,33,-1.099568486213684,3.5720221996307373,36.30958464431104,35.97457871203955,144.12347673162938,132.25156449565344,-0.0001295089750783,0.0906857252120971,0,0,0
12261,409574.1518550086,2010-08-24 08:08:04,2611.320557011321,7,33,-1.0993878841400146,3.568784475326538,36.30958464431104,35.98374608189135,144.12347673162938,132.28429613617476,-6.47544875391759e-05,0.0906857252120971,0,0,0
12262,409604.1670442457,2010-08-24 08:08:34,2641.335746278417,7,33,-1.099568486213684,3.565222978591919,36.30958464431104,35.99291338662452,144.12347673162938,132.31699620690534,-9.713172767078504e-05,0.0906857252120971,0,0,0
12263,409634.1821663855,2010-08-24 08:09:05,2671.3508683881364,7,33,-1.099568486213684,3.5616614818573,36.30958464431104,36.00208069220221,144.12347673162938,132.3496643986284,-0.0001295089750783,0.0906857252120971,0,0,0
12264,409664.19776336366,2010-08-24 08:09:35,2701.3664653663745,7,33,-1.0993878841400146,3.55826187133789,36.30958464431104,36.01124808219277,144.12347673162938,132.38230092745948,-9.713172767078504e-05,0.0906857252120971,0,0,0
12265,409694.2126612245,2010-08-24 08:10:05,2731.3813632171723,7,33,-1.099568486213684,3.5547003746032715,36.30958464431104,36.02041599005347,144.12347673162938,132.41490588109136,-6.47544875391759e-05,0.0906857252120971,0,0,0
12266,409724.2277185778,2010-08-24 08:10:35,2761.3964206055866,7,33,-1.099568486213684,3.5508151054382324,36.30958464431104,36.02958397884188,144.12347673162938,132.4474770320427,-0.0001295089750783,0.0906857252120971,0,0,0
12267,409754.2429461855,2010-08-24 08:11:05,2791.4116482934387,7,33,-1.0997490882873535,3.5470917224884038,36.30958464431104,36.03875204615713,144.12347673162938,132.4800130702443,-6.47544875391759e-05,0.0906857252120971,0,0,0
12268,409784.25804411,2010-08-24 08:11:35,2821.426746137681,7,33,-1.099568486213684,3.5427207946777344,36.30958464431104,36.047920050908445,144.12347673162938,132.51251179285646,-0.0001295089750783,0.0906857252120971,0,0,0
12269,409814.27336497005,2010-08-24 08:12:05,2851.442066992736,7,33,-1.099568486213684,3.538349866867065,36.30958464431104,36.05708819073909,144.12347673162938,132.54497248487664,-0.0001618862152099,0.0906857252120971,0,0,0
12270,409844.2884051506,2010-08-24 08:12:35,2881.4571071532127,7,33,-1.099568486213684,3.5339789390563965,36.30958464431104,36.06625619468674,144.12347673162938,132.5773929441114,-0.0001295089750783,0.0906857252120971,0,0,0
12271,409874.30358076864,2010-08-24 08:13:05,2911.472282786329,7,33,-1.099568486213684,3.5296080112457275,36.30958464431104,36.07542429666096,144.12347673162938,132.60977270698496,-9.713172767078504e-05,0.0906857252120971,0,0,0
12272,409904.3187511236,2010-08-24 08:13:35,2941.487453156328,7,33,-1.099568486213684,3.5247514247894287,36.30958464431104,36.08459239781505,144.12347673162938,132.64211012888333,-0.0001295089750783,0.0906857252120971,0,0,0
12273,409934.33407841466,2010-08-24 08:14:05,2971.502780427373,7,33,-1.099568486213684,3.51989483833313,36.30958464431104,36.09376055357437,144.12347673162938,132.67440324908412,-9.713172767078504e-05,0.0906857252120971,0,0,0
12274,409964.3491078134,2010-08-24 08:14:35,3001.517809846078,7,33,-1.099568486213684,3.514714479446411,36.30958464431104,36.10292865441589,144.12347673162938,132.70665040703685,-0.0001295089750783,0.0906857252120971,0,0,0
12275,409994.3643760973,2010-08-24 08:15:05,3031.533078145146,7,33,-1.0993878841400146,3.509210586547852,36.30958464431104,36.11209682639188,144.12347673162938,132.7388490082598,-0.0001295089750783,0.0906857252120971,0,0,0
12276,410024.3794583528,2010-08-24 08:15:35,3061.548160380487,7,33,-1.0997490882873535,3.503382682800293,36.30958464431104,36.12126491292543,144.12347673162938,132.7709960707744,-0.0001942634553415,0.0906857252120971,0,0,0
12277,410054.394646081,2010-08-24 08:16:05,3091.56334811376,7,33,-1.0997490882873535,3.4972310066223145,36.30958464431104,36.13043306143523,144.12347673162938,132.80308885513753,-0.0001942634553415,0.0906857252120971,0,0,0
12278,410084.40981246607,2010-08-24 08:16:35,3121.578514498828,7,33,-1.099568486213684,3.490431785583496,36.30958464431104,36.13960112013227,144.12347673162938,132.8351210296863,-0.0001618862152099,0.0906857252120971,0,0,0
12279,410114.42499041,2010-08-24 08:17:05,3151.5936924376906,7,33,-1.0993878841400146,3.482661247253418,36.30958464431104,36.14876919088671,144.12347673162938,132.86708625762543,-0.0002590179501567,0.0906857252120971,0,0,0
12280,410144.4403238915,2010-08-24 08:17:35,3181.6090259041766,7,33,-1.099568486213684,3.47375750541687,36.30958464431104,36.15793730927529,144.12347673162938,132.89897495501808,-0.0002266406954731,0.0906857252120971,0,0,0
12281,410174.45531311,2010-08-24 08:18:05,3211.6240151226903,7,33,-1.0997490882873535,3.4632349014282227,36.30958464431104,36.16710597419526,144.12347673162938,132.93077753955384,-0.0002913951757363,0.0906857252120971,0,0,0
12282,410204.4704878008,2010-08-24 08:18:35,3241.63918981847,7,33,-1.0997490882873535,3.451093435287476,36.30958464431104,36.17627484999797,144.12347673162938,132.96247750998918,-0.0003237724304199,0.0906857252120971,0,0,0
12283,410234.48568685225,2010-08-24 08:19:05,3271.6543888499027,7,33,-1.0997490882873535,3.4357142448425293,36.30958464431104,36.18544360079992,144.12347673162938,132.99405131126883,-0.0004209041653666,0.0906857252120971,0,0,0
12284,410264.5008943448,2010-08-24 08:19:35,3301.66959637751,7,33,-1.0997490882873535,3.415640592575073,36.30958464431104,36.19461243714434,144.12347673162938,133.02546497553732,-0.0006151676061563,0.0906857252120971,0,0,0
12285,410294.51617766125,2010-08-24 08:20:05,3331.6848798092938,7,33,-1.0997490882873535,3.38876748085022,36.30958464431104,36.20378127062284,144.12347673162938,133.0566669336738,-0.0008418083307333,0.0906857252120971,0,0,0
12286,410324.5313217307,2010-08-24 08:20:35,3361.700023763457,7,33,-1.099568486213684,3.351209878921509,36.30958464431104,36.2129500508139,144.12347673162938,133.0875755401673,-0.0011332035064697,0.0906857252120971,0,0,0
12287,410354.5464093295,2010-08-24 08:21:05,3391.7151113621644,7,33,-1.099568486213684,3.297140121459961,36.30958464431104,36.22211834445984,144.12347673162938,133.11806731985843,-0.0016512393485754,0.0906857252120971,0,0,0
12288,410384.5615762107,2010-08-24 08:21:35,3421.7302782133934,7,33,-1.0997490882873535,3.2168447971343994,36.30958464431104,36.23128634223066,144.12347673162938,133.14795052431364,-0.0024930476211011,0.0906857252120971,0,0,0
12289,410414.5769662984,2010-08-24 08:22:05,3451.7456683009964,7,33,-1.099568486213684,3.0896027088165283,36.30958464431104,36.24045439295686,144.12347673162938,133.17690837149016,-0.0042413710616528,0.0906857252120971,0,0,0
12290,410439.5766461427,2010-08-24 08:22:30,3476.7453482606647,7,33,-1.0997490882873535,2.889349937438965,36.30958464431104,36.24809047793585,144.12347673162938,133.19983997840012,-0.0089361192658543,0.0906857252120971,0,0,0
12291,410452.57639621984,2010-08-24 08:22:43,3489.745098222493,7,33,-1.099568486213684,2.699781894683838,36.30958464431104,36.25206121876193,144.12347673162938,133.2109565582303,-0.0128860948607325,0.0906857252120971,0,0,0
12292,410512.5781298598,2010-08-24 08:23:43,60.01479401778278,8,33,0.0,3.421468496322632,36.30958464431104,36.25206121876193,144.12347673162938,133.2109565582303,0.0011655807029455,0.0906857252120971,0,0,0
12293,410512.753498645,2010-08-24 08:23:43,0.187369407214905,9,33,-1.9243103452026844e-05,3.421468496322632,36.30958464431104,36.25206121976347,144.12347673162938,133.21095656165707,0.0,0.0867155864834785,0,0,0
12294,410517.5815663553,2010-08-24 08:23:48,5.015437097458281,9,33,0.0007031940040178,3.42842960357666,36.30958559777886,36.25206121993056,144.12347999776338,133.21095656222874,0.0010036944877356,0.0867155864834785,0,0,0
