Data_Point,Test_Time(s),Date_Time,Step_Time(s),Step_Index,Cycle_Index,Current(A),Voltage(V),Charge_Capacity(Ah),Discharge_Capacity(Ah),Charge_Energy(Wh),Discharge_Energy(Wh),dV/dt(V/s),Internal_Resistance(Ohm),Is_FC_Data,AC_Impedance(Ohm),ACI_Phase_Angle(Deg)
16983,567755.3854777114,2010-08-26 04:04:42,30.015224910931863,1,47,0.0,3.408841371536255,50.11919434062645,50.06051221203949,199.0354430039878,183.89873139474244,0.0006799221155233,0.0842081755399704,0,0,0
16984,567785.4009282998,2010-08-26 04:05:12,60.03067558453376,1,47,0.0,3.4290771484375,50.11919434062645,50.06051221203949,199.0354430039878,183.89873139474244,0.0004856586456298,0.0842081755399704,0,0,0
16985,567815.4159606408,2010-08-26 04:05:42,90.04570783529722,1,47,0.0,3.4436466693878174,50.11919434062645,50.06051221203949,199.0354430039878,183.89873139474244,0.0003885269106831,0.0842081755399704,0,0,0
16986,567845.3843268604,2010-08-26 04:06:12,120.01407407500233,1,47,0.0,3.4546549320220947,50.11919434062645,50.06051221203949,199.0354430039878,183.89873139474244,0.0001942634553415,0.0842081755399704,0,0,0
16987,567875.380626581,2010-08-26 04:06:42,30.01536297503008,2,47,0.550297200679779,3.585944414138794,50.12378105731102,50.06051221203949,199.05175075994097,183.89873139474244,0.0014245987404137,0.0842081755399704,0,0,0
16988,567905.3957515629,2010-08-26 04:07:12,60.03048796192048,2,47,0.5499359965324402,3.6280345916748047,50.1283677251823,50.06051221203949,199.06830029383548,183.89873139474244,0.0009713172912597,0.0842081755399704,0,0,0
16989,567935.411122994,2010-08-26 04:07:42,90.04585941307568,2,47,0.5501165986061096,3.660088062286377,50.1329544410489,50.06051221203949,199.08501738009528,183.89873139474244,0.0007770538213662,0.0842081755399704,0,0,0
16990,567965.4262289335,2010-08-26 04:08:12,120.06096532241897,2,47,0.5499359965324402,3.685665845870972,50.13754095261722,50.06051221203949,199.10186522807092,183.89873139474244,0.0006151676061563,0.0842081755399704,0,0,0
16991,567995.4414415087,2010-08-26 04:08:42,150.07617790763132,2,47,0.5499359965324402,3.7073585987091056,50.14212750215846,50.06051221203949,199.11882147571447,183.89873139474244,0.0005504131549969,0.0842081755399704,0,0,0
16992,568025.4569197109,2010-08-26 04:09:12,180.09165611485548,2,47,0.5499359965324402,3.725004196166992,50.14671411287412,50.06051221203949,199.13586775743275,183.89873139474244,0.0003885269106831,0.0842081755399704,0,0,0
16993,568055.4719313452,2010-08-26 04:09:42,210.10666774422407,2,47,0.5501165986061096,3.738764524459839,50.15130067721357,50.06051221203949,199.1529860340549,183.89873139474244,0.0003237724304199,0.0842081755399704,0,0,0
16994,568085.4871158805,2010-08-26 04:10:12,240.12185227952745,2,47,0.5499359965324402,3.747992038726807,50.15588732050244,50.06051221203949,199.1701576066237,183.89873139474244,0.0001942634553415,0.0842081755399704,0,0,0
16995,568115.5023389468,2010-08-26 04:10:42,270.13707533583704,2,47,0.5501165986061096,3.753495931625366,50.16047388334876,50.06051221203949,199.18736202955992,183.89873139474244,9.713172767078504e-05,0.0842081755399704,0,0,0
16996,568145.5176007798,2010-08-26 04:11:12,300.15233718382734,2,47,0.5501165986061096,3.7572193145751953,50.16506049182835,50.06051221203949,199.2045869443021,183.89873139474244,9.713172767078504e-05,0.0842081755399704,0,0,0
16997,568175.5327919266,2010-08-26 04:11:42,330.16752832058364,2,47,0.5501165986061096,3.760295152664185,50.169647111787896,50.06051221203949,199.221827208632,183.89873139474244,3.237724376958795e-05,0.0842081755399704,0,0,0
16998,568205.5479993338,2010-08-26 04:12:12,360.18273573290355,2,47,0.5499359965324402,3.762885332107544,50.17423366920099,50.06051221203949,199.23908068003885,183.89873139474244,3.237724376958795e-05,0.0842081755399704,0,0,0
16999,568235.5632256984,2010-08-26 04:12:42,390.1979620924458,2,47,0.5501165986061096,3.765961170196533,50.17882024159819,50.06051221203949,199.2563472504444,183.89873139474244,9.713172767078504e-05,0.0842081755399704,0,0,0
17000,568265.5784580528,2010-08-26 04:13:12,420.2131944519418,2,47,0.5499359965324402,3.768875122070313,50.18340684877382,50.06051221203949,199.2736269593752,183.89873139474244,9.713172767078504e-05,0.0842081755399704,0,0,0
17001,568295.5936766231,2010-08-26 04:13:42,450.2284130220704,2,47,0.5501165986061096,3.771627187728882,50.18799346221402,50.06051221203949,199.290919526758,183.89873139474244,6.47544875391759e-05,0.0842081755399704,0,0,0
17002,568325.6090239842,2010-08-26 04:14:12,480.2437603831858,2,47,0.5501165986061096,3.774379253387451,50.1925800377705,50.06051221203949,199.30822483479847,183.89873139474244,3.237724376958795e-05,0.0842081755399704,0,0,0
17003,568355.6241109113,2010-08-26 04:14:42,510.2588473152318,2,47,0.5501165986061096,3.777131319046021,50.19716657072799,50.06051221203949,199.32554283325004,183.89873139474244,6.47544875391759e-05,0.0842081755399704,0,0,0
17004,568385.6393296769,2010-08-26 04:15:12,540.2740660958851,2,47,0.5501165986061096,3.7802071571350098,50.20175328173528,50.06051221203949,199.34287427376,183.89873139474244,0.0001295089750783,0.0842081755399704,0,0,0
17005,568415.6545129088,2010-08-26 04:15:42,570.2892492978655,2,47,0.5501165986061096,3.782797336578369,50.20633989982647,50.06051221203949,199.3602179529655,183.89873139474244,9.713172767078504e-05,0.0842081755399704,0,0,0
17006,568445.6697187072,2010-08-26 04:16:12,600.3044551011752,2,47,0.5499359965324402,3.785387516021729,50.21092648214297,50.06051221203949,199.37757412172795,183.89873139474244,3.237724376958795e-05,0.0842081755399704,0,0,0
17007,568475.6850536473,2010-08-26 04:16:42,630.3197900363213,2,47,0.5501165986061096,3.788301467895508,50.21551309216296,50.06051221203949,199.3949430160343,183.89873139474244,6.47544875391759e-05,0.0842081755399704,0,0,0
17008,568505.7001614715,2010-08-26 04:17:12,660.3348978604369,2,47,0.5501165986061096,3.791053533554077,50.220099650681135,50.06051221203949,199.4123245974956,183.89873139474244,9.713172767078504e-05,0.0842081755399704,0,0,0
17009,568535.7153552147,2010-08-26 04:17:43,690.3500916337641,2,47,0.5501165986061096,3.793967485427856,50.224686240876856,50.06051221203949,199.42971929287933,183.89873139474244,6.47544875391759e-05,0.0842081755399704,0,0,0
17010,568565.7307427259,2010-08-26 04:18:13,720.3654791399333,2,47,0.5501165986061096,3.7970433235168457,50.22927281700441,50.06051221203949,199.4471273192319,183.89873139474244,9.713172767078504e-05,0.0842081755399704,0,0,0
17011,568595.7458939633,2010-08-26 04:18:43,750.3806303622104,2,47,0.5499359965324402,3.799795389175415,50.23385940413159,50.06051221203949,199.4645491695232,183.89873139474244,6.47544875391759e-05,0.0842081755399704,0,0,0
17012,568625.7609848853,2010-08-26 04:19:13,780.3957212842007,2,47,0.5501165986061096,3.8030331134796143,50.238446018408894,50.06051221203949,199.4819852843492,183.89873139474244,6.47544875391759e-05,0.0842081755399704,0,0,0
17013,568655.7763037803,2010-08-26 04:19:43,810.41104017937,2,47,0.5499359965324402,3.806432723999024,50.24303270563198,50.06051221203949,199.49943644984123,183.89873139474244,6.47544875391759e-05,0.0842081755399704,0,0,0
17014,568685.791380101,2010-08-26 04:20:13,840.4261164949567,2,47,0.5501165986061096,3.809670448303223,50.24761931708628,50.06051221203949,199.5169024809492,183.89873139474244,9.713172767078504e-05,0.0842081755399704,0,0,0
17015,568715.8065838743,2010-08-26 04:20:43,870.4413202732194,2,47,0.5499359965324402,3.813231945037842,50.25220591684612,50.06051221203949,199.5343841617944,183.89873139474244,0.0001295089750783,0.0842081755399704,0,0,0
17016,568745.8219254559,2010-08-26 04:21:13,900.456661844906,2,47,0.550297200679779,3.816631555557251,50.25679253761379,50.06051221203949,199.55188214860792,183.89873139474244,6.47544875391759e-05,0.0842081755399704,0,0,0
17017,568775.8370175158,2010-08-26 04:21:43,930.4717539348068,2,47,0.5501165986061096,3.82035493850708,50.26137914198012,50.06051221203949,199.56939601487008,183.89873139474244,0.0001295089750783,0.0842081755399704,0,0,0
17018,568805.8523168522,2010-08-26 04:22:13,960.4870532411549,2,47,0.5497553944587708,3.8235926628112793,50.26596578892293,50.06051221203949,199.58692595313232,183.89873139474244,6.47544875391759e-05,0.0842081755399704,0,0,0
17019,568835.8675157032,2010-08-26 04:22:43,990.5022521021624,2,47,0.5499359965324402,3.826992273330689,50.27055236754481,50.06051221203949,199.6044713167092,183.89873139474244,3.237724376958795e-05,0.0842081755399704,0,0,0
17020,568865.8826067103,2010-08-26 04:23:13,1020.5173431043524,2,47,0.5499359965324402,3.830229997634888,50.27513889625613,50.06051221203949,199.6220319445424,183.89873139474244,6.47544875391759e-05,0.0842081755399704,0,0,0
17021,568895.8977968396,2010-08-26 04:23:43,1050.5325332335976,2,47,0.550297200679779,3.8336293697357178,50.279725449139136,50.06051221203949,199.63960783804927,183.89873139474244,6.47544875391759e-05,0.0842081755399704,0,0,0
17022,568925.9131395741,2010-08-26 04:24:13,1080.5478759731948,2,47,0.5501165986061096,3.836867094039917,50.28431200673244,50.06051221203949,199.6571986401035,183.89873139474244,6.47544875391759e-05,0.0842081755399704,0,0,0
17023,568955.9282156691,2010-08-26 04:24:43,1110.5629520582063,2,47,0.5501165986061096,3.840104818344116,50.28889858657621,50.06051221203949,199.67480416384555,183.89873139474244,6.47544875391759e-05,0.0842081755399704,0,0,0
17024,568985.9437623922,2010-08-26 04:25:13,1140.5784987862055,2,47,0.5501165986061096,3.8431806564331055,50.29348514392882,50.06051221203949,199.69242395930743,183.89873139474244,6.47544875391759e-05,0.0842081755399704,0,0,0
17025,569015.9585934365,2010-08-26 04:25:43,1170.5933298555633,2,47,0.550297200679779,3.846256494522095,50.29807163012365,50.06051221203949,199.71005753275963,183.89873139474244,9.713172767078504e-05,0.0842081755399704,0,0,0
17026,569045.9738242722,2010-08-26 04:26:13,1200.6085606661989,2,47,0.5501165986061096,3.849170446395874,50.30265822942499,50.06051221203949,199.72770537369524,183.89873139474244,6.47544875391759e-05,0.0842081755399704,0,0,0
17027,569075.9889843765,2010-08-26 04:26:43,1230.6237207756255,2,47,0.5501165986061096,3.852084398269653,50.307244789981176,50.06051221203949,199.745366389886,183.89873139474244,6.47544875391759e-05,0.0842081755399704,0,0,0
17028,569106.0042012174,2010-08-26 04:27:13,1260.638937616444,2,47,0.5501165986061096,3.854836463928223,50.31183139734759,50.06051221203949,199.76304043541683,183.89873139474244,9.713172767078504e-05,0.0842081755399704,0,0,0
17029,569136.0193894319,2010-08-26 04:27:43,1290.6541258509671,2,47,0.5499359965324402,3.857264757156372,50.31641798645641,50.06051221203949,199.78072667631687,183.89873139474244,3.237724376958795e-05,0.0842081755399704,0,0,0
17030,569166.0345836363,2010-08-26 04:28:13,1320.6693200353188,2,47,0.5501165986061096,3.859854936599731,50.32100452094125,50.06051221203949,199.7984242518297,183.89873139474244,6.47544875391759e-05,0.0842081755399704,0,0,0
17031,569196.0502892152,2010-08-26 04:28:43,1350.6850256192356,2,47,0.5501165986061096,3.862121343612671,50.32559114444015,50.06051221203949,199.81613297952043,183.89873139474244,3.237724376958795e-05,0.0842081755399704,0,0,0
17032,569226.0650115937,2010-08-26 04:29:13,1380.6997479826646,2,47,0.5501165986061096,3.8642258644104,50.33017757533964,50.06051221203949,199.83385100505316,183.89873139474244,6.47544875391759e-05,0.0842081755399704,0,0,0
17033,569256.0685336726,2010-08-26 04:29:43,1410.703270071563,2,47,0.550297200679779,3.86616849899292,50.33476229981981,50.06051221203949,199.8515717070151,183.89873139474244,3.237724376958795e-05,0.0842081755399704,0,0,0
17034,569286.0798025187,2010-08-26 04:30:13,1440.714538907739,2,47,0.5501165986061096,3.8679492473602295,50.33934818860615,50.06051221203949,199.8693054280889,183.89873139474244,6.47544875391759e-05,0.0842081755399704,0,0,0
17035,569316.094938879,2010-08-26 04:30:43,1470.7296752830132,2,47,0.5501165986061096,3.869568109512329,50.34393474148911,50.06051221203949,199.88704958038772,183.89873139474244,6.47544875391759e-05,0.0842081755399704,0,0,0
17036,569346.1101671533,2010-08-26 04:31:13,1500.744903552315,2,47,0.5497553944587708,3.870863199234009,50.348521194270354,50.06051221203949,199.90480050434493,183.89873139474244,0.0,0.0842081755399704,0,0,0
17037,569376.1253446359,2010-08-26 04:31:43,1530.7600810550912,2,47,0.5501165986061096,3.872482061386109,50.35310765800396,50.06051221203949,199.9225581596444,183.89873139474244,6.47544875391759e-05,0.0842081755399704,0,0,0
17038,569406.1405334269,2010-08-26 04:32:13,1560.7752698259508,2,47,0.5499359965324402,3.873777151107788,50.35769419923469,50.06051221203949,199.94032234805528,183.89873139474244,6.47544875391759e-05,0.0842081755399704,0,0,0
17039,569436.1557420724,2010-08-26 04:32:43,1590.7904784663317,2,47,0.550297200679779,3.874910354614258,50.36228073022339,50.06051221203949,199.95809211631027,183.89873139474244,3.237724376958795e-05,0.0842081755399704,0,0,0
17040,569466.1709054098,2010-08-26 04:33:13,1620.8056418088158,2,47,0.5499359965324402,3.876043558120728,50.3668672674481,50.06051221203949,199.975867441307,183.89873139474244,0.0,0.0842081755399704,0,0,0
17041,569496.1861543556,2010-08-26 04:33:43,1650.8208907496376,2,47,0.5501165986061096,3.8773386478424072,50.3714537841632,50.06051221203949,199.99364787457324,183.89873139474244,6.47544875391759e-05,0.0842081755399704,0,0,0
17042,569526.2013118034,2010-08-26 04:34:13,1680.836048222493,2,47,0.5501165986061096,3.878309965133667,50.37604030485512,50.06051221203949,200.0114334349885,183.89873139474244,3.237724376958795e-05,0.0842081755399704,0,0,0
17043,569556.2166448288,2010-08-26 04:34:43,1710.8513812278293,2,47,0.5501165986061096,3.879281282424927,50.38062689148403,50.06051221203949,200.0292242062325,183.89873139474244,0.0,0.0842081755399704,0,0,0
17044,569586.2317004277,2010-08-26 04:35:13,1740.8664368468335,2,47,0.5501165986061096,3.880414485931397,50.38521344285651,50.06051221203949,200.04701960089332,183.89873139474244,3.237724376958795e-05,0.0842081755399704,0,0,0
17045,569616.2469139653,2010-08-26 04:35:43,1770.8816503643695,2,47,0.5501165986061096,3.881547689437866,50.38980000959605,50.06051221203949,200.0648198758861,183.89873139474244,6.47544875391759e-05,0.0842081755399704,0,0,0
17046,569646.2620683104,2010-08-26 04:36:13,1800.8968047094295,2,47,0.5501165986061096,3.882519006729126,50.39438651294358,50.06051221203949,200.08262456389903,183.89873139474244,3.237724376958795e-05,0.0842081755399704,0,0,0
17047,569676.2772511716,2010-08-26 04:36:43,1830.9119875705603,2,47,0.550297200679779,3.883652210235596,50.39897308521924,50.06051221203949,200.100434308198,183.89873139474244,6.47544875391759e-05,0.0842081755399704,0,0,0
17048,569706.2924442531,2010-08-26 04:37:13,1860.927180647151,2,47,0.5501165986061096,3.8844616413116455,50.40355963851322,50.06051221203949,200.11824860484847,183.89873139474244,3.237724376958795e-05,0.0842081755399704,0,0,0
17049,569736.3076537957,2010-08-26 04:37:43,1890.9423901897808,2,47,0.5501165986061096,3.885756731033325,50.40814618112677,50.06051221203949,200.1360673607641,183.89873139474244,6.47544875391759e-05,0.0842081755399704,0,0,0
17050,569766.3228673735,2010-08-26 04:38:13,1920.957603802554,2,47,0.5501165986061096,3.886566162109375,50.41273279025428,50.06051221203949,200.15389107018476,183.89873139474244,6.47544875391759e-05,0.0842081755399704,0,0,0
17051,569796.3380249566,2010-08-26 04:38:43,1950.9727613505968,2,47,0.5501165986061096,3.887375593185425,50.417319309671335,50.06051221203949,200.17171907743585,183.89873139474244,0.0,0.0842081755399704,0,0,0
17052,569826.3533378267,2010-08-26 04:39:13,1980.9880742157377,2,47,0.5499359965324402,3.8885087966918954,50.42190585735259,50.06051221203949,200.1895519017177,183.89873139474244,3.237724376958795e-05,0.0842081755399704,0,0,0
17053,569856.3684162326,2010-08-26 04:39:43,2011.003152626546,2,47,0.5501165986061096,3.8894801139831534,50.42649235871989,50.06051221203949,200.20738928941844,183.89873139474244,0.0,0.0842081755399704,0,0,0
17054,569886.3837223508,2010-08-26 04:40:13,2041.0184587498843,2,47,0.5501165986061096,3.890613317489624,50.431078979026665,50.06051221203949,200.2252318004004,183.89873139474244,0.0,0.0842081755399704,0,0,0
17055,569916.3987799147,2010-08-26 04:40:43,2071.033516313736,2,47,0.5501165986061096,3.8917465209960938,50.4356655123222,50.06051221203949,200.243078783577,183.89873139474244,6.47544875391759e-05,0.0842081755399704,0,0,0
17056,569946.4140265096,2010-08-26 04:41:13,2101.0487629036984,2,47,0.5501165986061096,3.892879724502564,50.44025210929659,50.06051221203949,200.2609307936741,183.89873139474244,9.713172767078504e-05,0.0842081755399704,0,0,0
17057,569976.4295095591,2010-08-26 04:41:43,2131.0642459780533,2,47,0.550297200679779,3.8938510417938232,50.4448393704809,50.06051221203949,200.2787903290753,183.89873139474244,3.237724376958795e-05,0.0842081755399704,0,0,0
17058,570006.4443245884,2010-08-26 04:42:13,2161.0790610124463,2,47,0.550297200679779,3.894822359085083,50.449426869484846,50.06051221203949,200.29665574167984,183.89873139474244,0.0,0.0842081755399704,0,0,0
17059,570036.4595276699,2010-08-26 04:42:43,2191.09426408896,2,47,0.5501165986061096,3.895793676376343,50.454014270422725,50.06051221203949,200.3145250617896,183.89873139474244,-3.237724376958795e-05,0.0842081755399704,0,0,0
17060,570066.4747063958,2010-08-26 04:43:13,2221.1094427897224,2,47,0.5501165986061096,3.896926879882813,50.45860170185204,50.06051221203949,200.3323997385637,183.89873139474244,3.237724376958795e-05,0.0842081755399704,0,0,0
17061,570096.489911397,2010-08-26 04:43:43,2251.124647791033,2,47,0.5501165986061096,3.897898197174072,50.46318913275215,50.06051221203949,200.35027940909524,183.89873139474244,3.237724376958795e-05,0.0842081755399704,0,0,0
17062,570126.5052074803,2010-08-26 04:44:13,2281.1399438943986,2,47,0.550297200679779,3.899193286895752,50.46777653410699,50.06051221203949,200.36816407664045,183.89873139474244,0.0,0.0842081755399704,0,0,0
17063,570156.5202776456,2010-08-26 04:44:43,2311.155014044619,2,47,0.5501165986061096,3.900488376617432,50.47236352775672,50.06051221203949,200.386052259039,183.89873139474244,6.47544875391759e-05,0.0842081755399704,0,0,0
17064,570186.5354795142,2010-08-26 04:45:13,2341.170215908109,2,47,0.5501165986061096,3.9014596939086914,50.476950198481966,50.06051221203949,200.40394435775835,183.89873139474244,3.237724376958795e-05,0.0842081755399704,0,0,0
17065,570216.5507880686,2010-08-26 04:45:43,2371.1855244574945,2,47,0.5499359965324402,3.902592897415161,50.48153689855735,50.06051221203949,200.4218418944084,183.89873139474244,3.237724376958795e-05,0.0842081755399704,0,0,0
17066,570246.5658375322,2010-08-26 04:46:13,2401.20057392617,2,47,0.5501165986061096,3.903726100921631,50.48612359879958,50.06051221203949,200.439744737174,183.89873139474244,0.0,0.0842081755399704,0,0,0
17067,570276.5810962373,2010-08-26 04:46:43,2431.215832646365,2,47,0.5501165986061096,3.905021190643311,50.490710360534486,50.06051221203949,200.45765328682413,183.89873139474244,3.237724376958795e-05,0.0842081755399704,0,0,0
17068,570306.5963440002,2010-08-26 04:47:13,2461.231080399226,2,47,0.5501165986061096,3.90615439414978,50.495297129091135,50.06051221203949,200.4755671858329,183.89873139474244,3.237724376958795e-05,0.0842081755399704,0,0,0
17069,570336.6114254536,2010-08-26 04:47:43,2491.246161852617,2,47,0.5499359965324402,3.90744948387146,50.4998837764174,50.06051221203949,200.493486241507,183.89873139474244,3.237724376958795e-05,0.0842081755399704,0,0,0
17070,570366.6265852823,2010-08-26 04:48:13,2521.261321676332,2,47,0.550297200679779,3.90874457359314,50.50447048616165,50.06051221203949,200.51141110071407,183.89873139474244,6.47544875391759e-05,0.0842081755399704,0,0,0
17071,570396.6417954315,2010-08-26 04:48:43,2551.276531830485,2,47,0.5501165986061096,3.90987777709961,50.50905723466752,50.06051221203949,200.52934187551017,183.89873139474244,3.237724376958795e-05,0.0842081755399704,0,0,0
17072,570426.656970418,2010-08-26 04:49:13,2581.291706832028,2,47,0.5501165986061096,3.911172866821289,50.51364394818091,50.06051221203949,200.54727819937676,183.89873139474244,6.47544875391759e-05,0.0842081755399704,0,0,0
17073,570456.6721699657,2010-08-26 04:49:43,2611.3069063496714,2,47,0.550297200679779,3.9124679565429688,50.51823061057805,50.06051221203949,200.5652201763961,183.89873139474244,3.237724376958795e-05,0.0842081755399704,0,0,0
17074,570486.6873397792,2010-08-26 04:50:14,2641.322076178322,2,47,0.5501165986061096,3.913762807846069,50.52281730102058,50.06051221203949,200.5831681406184,183.89873139474244,3.23295607813634e-05,0.0842081755399704,0,0,0
17075,570516.7028883719,2010-08-26 04:50:44,2671.3376247609426,2,47,0.5499359965324402,3.915057897567749,50.52740402544404,50.06051221203949,200.6011221932515,183.89873139474244,6.47544875391759e-05,0.0842081755399704,0,0,0
17076,570546.7178441873,2010-08-26 04:51:14,2701.352580581218,2,47,0.5501165986061096,3.9161911010742183,50.53199072709405,50.06051221203949,200.61908209444067,183.89873139474244,0.0,0.0842081755399704,0,0,0
17077,570576.7329091895,2010-08-26 04:51:44,2731.367645583608,2,47,0.5499359965324402,3.917648077011109,50.53657738871799,50.06051221203949,200.63704793387583,183.89873139474244,3.237724376958795e-05,0.0842081755399704,0,0,0
17078,570606.7481053438,2010-08-26 04:52:14,2761.382841742882,2,47,0.5501165986061096,3.918943166732788,50.54116412150219,50.06051221203949,200.65502016777708,183.89873139474244,3.237724376958795e-05,0.0842081755399704,0,0,0
17079,570636.7632695134,2010-08-26 04:52:44,2791.398005912428,2,47,0.5501165986061096,3.920238256454468,50.54575079073249,50.06051221203949,200.67299841538048,183.89873139474244,0.0,0.0842081755399704,0,0,0
17080,570666.7784580337,2010-08-26 04:53:14,2821.4131944326627,2,47,0.550297200679779,3.921695232391357,50.5503374733476,50.06051221203949,200.69098287677127,183.89873139474244,3.237724376958795e-05,0.0842081755399704,0,0,0
17081,570696.793659842,2010-08-26 04:53:44,2851.4283962410163,2,47,0.5499359965324402,3.922990322113037,50.55492406103189,50.06051221203949,200.7089732974804,183.89873139474244,0.0,0.0842081755399704,0,0,0
17082,570726.8088312746,2010-08-26 04:54:14,2881.443567668651,2,47,0.5501165986061096,3.924447298049927,50.55951070904685,50.06051221203949,200.72697029457927,183.89873139474244,3.237724376958795e-05,0.0842081755399704,0,0,0
17083,570756.8240248425,2010-08-26 04:54:44,2911.458761241479,2,47,0.550297200679779,3.9257423877716064,50.56409743153613,50.06051221203949,200.744974063503,183.89873139474244,3.237724376958795e-05,0.0842081755399704,0,0,0
17084,570786.8394488847,2010-08-26 04:55:14,2941.474185283707,2,47,0.550297200679779,3.927361249923706,50.56868417594696,50.06051221203949,200.76298427989417,183.89873139474244,3.237724376958795e-05,0.0842081755399704,0,0,0
17085,570816.8544205443,2010-08-26 04:55:44,2971.489156943459,2,47,0.5501165986061096,3.928818225860596,50.57327080889023,50.06051221203949,200.78100061235656,183.89873139474244,9.713172767078504e-05,0.0842081755399704,0,0,0
17086,570846.8696198916,2010-08-26 04:56:14,3001.5043562906785,2,47,0.5501165986061096,3.9301133155822754,50.57785752113078,50.06051221203949,200.7990238443357,183.89873139474244,3.237724376958795e-05,0.0842081755399704,0,0,0
17087,570876.8847790789,2010-08-26 04:56:44,3031.519515477806,2,47,0.5501165986061096,3.931570291519165,50.58244426642631,50.06051221203949,200.8170538794641,183.89873139474244,3.237724376958795e-05,0.0842081755399704,0,0,0
17088,570906.8999665615,2010-08-26 04:57:14,3061.534702960455,2,47,0.5499359965324402,3.933027267456055,50.5870309673003,50.06051221203949,200.83509040792973,183.89873139474244,0.0,0.0842081755399704,0,0,0
17089,570936.9154925728,2010-08-26 04:57:44,3091.550228961797,2,47,0.550297200679779,3.9346461296081534,50.59161776500186,50.06051221203949,200.8531340565288,183.89873139474244,6.47544875391759e-05,0.0842081755399704,0,0,0
17090,570966.9303258827,2010-08-26 04:58:14,3121.565062271739,2,47,0.5501165986061096,3.936103105545044,50.59620445149763,50.06051221203949,200.8711840932961,183.89873139474244,6.47544875391759e-05,0.0842081755399704,0,0,0
17091,570996.9455381522,2010-08-26 04:58:44,3151.5802745411643,2,47,0.5501165986061096,3.9375600814819336,50.60079120171432,50.06051221203949,200.88924105016528,183.89873139474244,3.237724376958795e-05,0.0842081755399704,0,0,0
17092,571026.9608435086,2010-08-26 04:59:14,3181.595579907616,2,47,0.5501165986061096,3.9390170574188232,50.60537787618873,50.06051221203949,200.9073046819705,183.89873139474244,3.237724376958795e-05,0.0842081755399704,0,0,0
17093,571056.9758912078,2010-08-26 04:59:44,3211.6106275968564,2,47,0.5501165986061096,3.940635919570923,50.60996461502835,50.06051221203949,200.92537555435476,183.89873139474244,6.47544875391759e-05,0.0842081755399704,0,0,0
17094,571086.991068044,2010-08-26 05:00:14,3241.625804437984,2,47,0.550297200679779,3.942092895507813,50.6145514042907,50.06051221203949,200.94345364777345,183.89873139474244,6.47544875391759e-05,0.0842081755399704,0,0,0
17095,571117.006270489,2010-08-26 05:00:44,3271.641006882924,2,47,0.550297200679779,3.943873643875122,50.61913816455972,50.06051221203949,200.9615387203065,183.89873139474244,9.713172767078504e-05,0.0842081755399704,0,0,0
17096,571147.0214486283,2010-08-26 05:01:14,3301.656185037324,2,47,0.5499359965324402,3.9451687335968018,50.62372488741462,50.06051221203949,200.97963079964876,183.89873139474244,3.237724376958795e-05,0.0842081755399704,0,0,0
17097,571177.0366332438,2010-08-26 05:01:44,3331.671369662852,2,47,0.5501165986061096,3.946787595748901,50.62831165538475,50.06051221203949,200.99773036167704,183.89873139474244,3.237724376958795e-05,0.0842081755399704,0,0,0
17098,571207.0402884695,2010-08-26 05:02:14,3361.6750248685184,2,47,0.5501165986061096,3.948730230331421,50.63289665497426,50.06051221203949,201.01583025160053,183.89873139474244,9.713172767078504e-05,0.0842081755399704,0,0,0
17099,571237.0513835778,2010-08-26 05:02:44,3391.686119976711,2,47,0.5501165986061096,3.950187206268311,50.637482773820366,50.06051221203949,201.03394203113643,183.89873139474244,6.47544875391759e-05,0.0842081755399704,0,0,0
17100,571267.0665573763,2010-08-26 05:03:14,3421.701293775255,2,47,0.550297200679779,3.95180606842041,50.64206947648255,50.06051221203949,201.05206375756907,183.89873139474244,6.47544875391759e-05,0.0842081755399704,0,0,0
17101,571297.0817390694,2010-08-26 05:03:44,3451.716475488525,2,47,0.5501165986061096,3.9534249305725098,50.646656186234445,50.06051221203949,201.07019311135176,183.89873139474244,6.47544875391759e-05,0.0842081755399704,0,0,0
17102,571327.0969309079,2010-08-26 05:04:14,3481.7316673069804,2,47,0.550297200679779,3.95504379272461,50.65124294558284,50.06051221203949,201.0883305085776,183.89873139474244,6.47544875391759e-05,0.0842081755399704,0,0,0
17103,571357.1121102654,2010-08-26 05:04:44,3511.7468466593664,2,47,0.550297200679779,3.956986427307129,50.65582969351089,50.06051221203949,201.10647580182652,183.89873139474244,6.47544875391759e-05,0.0842081755399704,0,0,0
17104,571387.1273111213,2010-08-26 05:05:14,3541.7620475203585,2,47,0.5501165986061096,3.958605289459229,50.66041641646741,50.06051221203949,201.1246288480865,183.89873139474244,6.47544875391759e-05,0.0842081755399704,0,0,0
17105,571417.142476579,2010-08-26 05:05:44,3571.7772129680898,2,47,0.5501165986061096,3.960547924041748,50.6650030943699,50.06051221203949,201.14278990699847,183.89873139474244,9.713172767078504e-05,0.0842081755399704,0,0,0
17106,571447.1576922421,2010-08-26 05:06:14,3601.7924286359853,2,47,0.5501165986061096,3.9623286724090576,50.66958978796088,50.06051221203949,201.1609593094384,183.89873139474244,6.47544875391759e-05,0.0842081755399704,0,0,0
17107,571477.1728462463,2010-08-26 05:06:44,3631.807582665258,2,47,0.5501165986061096,3.964109420776367,50.674176514963655,50.06051221203949,201.1791371444862,183.89873139474244,6.47544875391759e-05,0.0842081755399704,0,0,0
17108,571507.1884966125,2010-08-26 05:07:14,3661.823232986443,2,47,0.5501165986061096,3.965728282928467,50.67876334169979,50.06051221203949,201.19732386693647,183.89873139474244,3.237724376958795e-05,0.0842081755399704,0,0,0
17109,571537.2033748744,2010-08-26 05:07:44,3691.8381112684688,2,47,0.5499359965324402,3.9676709175109854,50.6833501396797,50.06051221203949,201.2155190184928,183.89873139474244,6.47544875391759e-05,0.0842081755399704,0,0,0
17110,571567.2184152454,2010-08-26 05:08:14,3721.853151644483,2,47,0.5501165986061096,3.969775438308716,50.68793691473768,50.06051221203949,201.2337226712156,183.89873139474244,6.47544875391759e-05,0.0842081755399704,0,0,0
17111,571597.2336018711,2010-08-26 05:08:44,3751.868338264984,2,47,0.550297200679779,3.9717180728912354,50.69252364204262,50.06051221203949,201.2519348395684,183.89873139474244,9.713172767078504e-05,0.0842081755399704,0,0,0
17112,571627.2487684666,2010-08-26 05:09:14,3781.883504860576,2,47,0.550297200679779,3.973498821258545,50.6971104402004,50.06051221203949,201.2701561099452,183.89873139474244,3.237724376958795e-05,0.0842081755399704,0,0,0
17113,571657.2639481347,2010-08-26 05:09:44,3811.898684533761,2,47,0.5499359965324402,3.9752795696258554,50.70169716918902,50.06051221203949,201.2883859114823,183.89873139474244,3.237724376958795e-05,0.0842081755399704,0,0,0
17114,571687.2791465395,2010-08-26 05:10:14,3841.913882928606,2,47,0.550297200679779,3.977384090423584,50.70628400387923,50.06051221203949,201.3066250920534,183.89873139474244,3.237724376958795e-05,0.0842081755399704,0,0,0
17115,571717.2943217817,2010-08-26 05:10:44,3871.929058200824,2,47,0.5501165986061096,3.979326725006104,50.71087075215766,50.06051221203949,201.32487247632164,183.89873139474244,6.47544875391759e-05,0.0842081755399704,0,0,0
17116,571747.3094963422,2010-08-26 05:11:14,3901.944232746229,2,47,0.5501165986061096,3.981431245803833,50.715457463772815,50.06051221203949,201.3431291946959,183.89873139474244,6.47544875391759e-05,0.0842081755399704,0,0,0
17117,571777.3248093176,2010-08-26 05:11:44,3931.959545706607,2,47,0.5501165986061096,3.983211994171143,50.72004420127751,50.06051221203949,201.36139512006667,183.89873139474244,0.0,0.0842081755399704,0,0,0
17118,571807.3399010866,2010-08-26 05:12:14,3961.9746374807214,2,47,0.5501165986061096,3.985316514968872,50.72463092431409,50.06051221203949,201.37967013107908,183.89873139474244,6.47544875391759e-05,0.0842081755399704,0,0,0
17119,571837.3550526649,2010-08-26 05:12:44,3991.989789058885,2,47,0.5501165986061096,3.987259149551392,50.729217570068485,50.06051221203949,201.39795403155657,183.89873139474244,3.237724376958795e-05,0.0842081755399704,0,0,0
17120,571867.3701453863,2010-08-26 05:13:14,4022.004881494648,2,47,0.5499359965324402,3.989201784133911,50.73380424093402,50.06051221203949,201.4162471785679,183.89873139474244,3.237724376958795e-05,0.0842081755399704,0,0,0
17121,571897.3854682263,2010-08-26 05:13:44,4052.0202046353984,2,47,0.5501165986061096,3.9913063049316406,50.738390912447606,50.06051221203949,201.43454961521545,183.89873139474244,3.237724376958795e-05,0.0842081755399704,0,0,0
17122,571927.4008651109,2010-08-26 05:14:14,4082.035601519942,2,47,0.550297200679779,3.99341082572937,50.74297760010924,50.06051221203949,201.4528615314916,183.89873139474244,3.237724376958795e-05,0.0842081755399704,0,0,0
17123,571957.4157934376,2010-08-26 05:14:44,4112.05052983667,2,47,0.5501165986061096,3.995515108108521,50.74756426675227,50.06051221203949,201.47118276403413,183.89873139474244,3.237724376958795e-05,0.0842081755399704,0,0,0
17124,571987.4309990205,2010-08-26 05:15:14,4142.0657354094055,2,47,0.5501165986061096,3.99761962890625,50.75215091790264,50.06051221203949,201.48951344906413,183.89873139474244,9.713172767078504e-05,0.0842081755399704,0,0,0
17125,572017.4463030285,2010-08-26 05:15:44,4172.081039427496,2,47,0.5499359965324402,3.9995622634887695,50.7567375898541,50.06051221203949,201.5078536931408,183.89873139474244,3.237724376958795e-05,0.0842081755399704,0,0,0
17126,572047.4614945411,2010-08-26 05:16:14,4202.096230930165,2,47,0.5501165986061096,4.001828670501709,50.76132427625639,50.06051221203949,201.52620368582785,183.89873139474244,3.23295607813634e-05,0.0842081755399704,0,0,0
17127,572077.4765487767,2010-08-26 05:16:44,4232.111285170733,2,47,0.550297200679779,4.003933429718018,50.7659108942466,50.06051221203949,201.54456319548908,183.89873139474244,6.47544875391759e-05,0.0842081755399704,0,0,0
17128,572107.4917078988,2010-08-26 05:17:14,4262.126444292699,2,47,0.550297200679779,4.006037712097168,50.770497619592106,50.06051221203949,201.562933057626,183.89873139474244,3.23295607813634e-05,0.0842081755399704,0,0,0
17129,572137.5068875367,2010-08-26 05:17:44,4292.141623930797,2,47,0.550297200679779,4.008304119110107,50.77508433519873,50.06051221203949,201.58131282287653,183.89873139474244,9.70840483205393e-05,0.0842081755399704,0,0,0
17130,572167.5220788489,2010-08-26 05:18:14,4322.156815237978,2,47,0.5501165986061096,4.010570526123047,50.77967102206605,50.06051221203949,201.59970242876483,183.89873139474244,9.70840483205393e-05,0.0842081755399704,0,0,0
17131,572197.5372831485,2010-08-26 05:18:44,4352.17201955759,2,47,0.550297200679779,4.012675285339356,50.78425769516471,50.06051221203949,201.6181021800965,183.89873139474244,6.47544875391759e-05,0.0842081755399704,0,0,0
17132,572227.5525150519,2010-08-26 05:19:14,4382.187251460949,2,47,0.5499359965324402,4.014941692352295,50.78884431328886,50.06051221203949,201.6365119005288,183.89873139474244,6.47544875391759e-05,0.0842081755399704,0,0,0
17133,572257.5677702032,2010-08-26 05:19:44,4412.202506602224,2,47,0.5499359965324402,4.017045974731445,50.79343101266543,50.06051221203949,201.65493235058383,183.89873139474244,3.23295607813634e-05,0.0842081755399704,0,0,0
17134,572287.5828214112,2010-08-26 05:20:14,4442.217557805223,2,47,0.5499359965324402,4.019312381744385,50.7980176546892,50.06051221203949,201.6733629352868,183.89873139474244,3.23295607813634e-05,0.0842081755399704,0,0,0
17135,572317.5979862924,2010-08-26 05:20:44,4472.232722691555,2,47,0.5501165986061096,4.021740913391113,50.80260425147689,50.06051221203949,201.69180384313125,183.89873139474244,6.47544875391759e-05,0.0842081755399704,0,0,0
17136,572347.6131641812,2010-08-26 05:21:14,4502.2479005802925,2,47,0.5501165986061096,4.024007320404053,50.80719082873005,50.06051221203949,201.7102553893411,183.89873139474244,3.24249267578125e-05,0.0842081755399704,0,0,0
17137,572377.6283499998,2010-08-26 05:21:44,4532.263086398794,2,47,0.5499359965324402,4.026435375213623,50.81177743874127,50.06051221203949,201.7287178447927,183.89873139474244,3.23295607813634e-05,0.0842081755399704,0,0,0
17138,572407.6435582592,2010-08-26 05:22:14,4562.2782946532125,2,47,0.550297200679779,4.028863906860352,50.81636403200118,50.06051221203949,201.747191111601,183.89873139474244,3.24249267578125e-05,0.0842081755399704,0,0,0
17139,572437.6587474812,2010-08-26 05:22:45,4592.293483915297,2,47,0.5501165986061096,4.031130313873291,50.82095064858698,50.06051221203949,201.7656753638128,183.89873139474244,3.24249267578125e-05,0.0842081755399704,0,0,0
17140,572467.6740655794,2010-08-26 05:23:15,4622.308801988417,2,47,0.550297200679779,4.03372049331665,50.82553719658346,50.06051221203949,201.7841704310779,183.89873139474244,6.47544875391759e-05,0.0842081755399704,0,0,0
17141,572497.6891977591,2010-08-26 05:23:45,4652.323934148185,2,47,0.5501165986061096,4.035986423492432,50.83012381277155,50.06051221203949,201.80267698183897,183.89873139474244,6.47544875391759e-05,0.0842081755399704,0,0,0
17142,572527.7042720147,2010-08-26 05:24:15,4682.339008408649,2,47,0.5501165986061096,4.038576602935791,50.83471049220541,50.06051221203949,201.8211951263568,183.89873139474244,6.47544875391759e-05,0.0842081755399704,0,0,0
17143,572557.7194409762,2010-08-26 05:24:45,4712.354177390188,2,47,0.5499359965324402,4.04116678237915,50.83929715168508,50.06051221203949,201.83972448290675,183.89873139474244,6.47544875391759e-05,0.0842081755399704,0,0,0
17144,572587.734619341,2010-08-26 05:25:15,4742.369355735063,2,47,0.5499359965324402,4.04343318939209,50.84388382981723,50.06051221203949,201.85826543575635,183.89873139474244,3.23295607813634e-05,0.0842081755399704,0,0,0
17145,572617.7498012698,2010-08-26 05:25:45,4772.384537663869,2,47,0.5501165986061096,4.046023368835449,50.84847040433835,50.06051221203949,201.8768175525619,183.89873139474244,6.47544875391759e-05,0.0842081755399704,0,0,0
17146,572647.7650228024,2010-08-26 05:26:15,4802.399759221444,2,47,0.5501165986061096,4.048775672912598,50.853057037339646,50.06051221203949,201.8953816275447,183.89873139474244,3.24249267578125e-05,0.0842081755399704,0,0,0
17147,572677.7801705009,2010-08-26 05:26:45,4832.414906894876,2,47,0.550297200679779,4.051365852355957,50.85764376204986,50.06051221203949,201.91395790467732,183.89873139474244,3.24249267578125e-05,0.0842081755399704,0,0,0
17148,572707.7954810403,2010-08-26 05:27:15,4862.430217429209,2,47,0.5501165986061096,4.053793907165527,50.86223045180535,50.06051221203949,201.9325459268968,183.89873139474244,3.23295607813634e-05,0.0842081755399704,0,0,0
17149,572737.8106600567,2010-08-26 05:27:45,4892.445396455782,2,47,0.5501165986061096,4.056707859039307,50.86681709923933,50.06051221203949,201.95114589709817,183.89873139474244,9.70840483205393e-05,0.0842081755399704,0,0,0
17150,572767.8258515194,2010-08-26 05:28:15,4922.460587913338,2,47,0.5501165986061096,4.059136390686035,50.87140379532017,50.06051221203949,201.9697581933324,183.89873139474244,3.24249267578125e-05,0.0842081755399704,0,0,0
17151,572797.8409024216,2010-08-26 05:28:45,4952.4756388155865,2,47,0.5501165986061096,4.061888217926025,50.875990433132266,50.06051221203949,201.9883822843487,183.89873139474244,9.70840483205393e-05,0.0842081755399704,0,0,0
17152,572827.8560785209,2010-08-26 05:29:15,4982.490814914864,2,47,0.5501165986061096,4.064478397369385,50.88057707168004,50.06051221203949,202.00701868100427,183.89873139474244,9.70840483205393e-05,0.0842081755399704,0,0,0
17153,572857.8712960634,2010-08-26 05:29:45,5012.50603245242,2,47,0.5501165986061096,4.067392349243164,50.88516372862421,50.06051221203949,202.02566764316276,183.89873139474244,9.70840483205393e-05,0.0842081755399704,0,0,0
17154,572887.8866613492,2010-08-26 05:30:15,5042.521397768284,2,47,0.5501165986061096,4.069982528686523,50.8897503363788,50.06051221203949,202.04432905495,183.89873139474244,6.47544875391759e-05,0.0842081755399704,0,0,0
17155,572917.9016272045,2010-08-26 05:30:45,5072.536363598507,2,47,0.5501165986061096,4.072734832763672,50.89433697041421,50.06051221203949,202.0630032833353,183.89873139474244,3.24249267578125e-05,0.0842081755399704,0,0,0
17156,572947.9168135292,2010-08-26 05:31:15,5102.55154992327,2,47,0.5501165986061096,4.075810432434082,50.89892357375527,50.06051221203949,202.08169026909692,183.89873139474244,9.70840483205393e-05,0.0842081755399704,0,0,0
17157,572977.9319913578,2010-08-26 05:31:45,5132.566727756871,2,47,0.5501165986061096,4.078400611877441,50.90351024977896,50.06051221203949,202.10039048697664,183.89873139474244,6.47544875391759e-05,0.0842081755399704,0,0,0
17158,573007.9471858079,2010-08-26 05:32:15,5162.581922206885,2,47,0.550297200679779,4.081314563751221,50.9080969268888,50.06051221203949,202.1191037800417,183.89873139474244,3.23295607813634e-05,0.0842081755399704,0,0,0
17159,573037.9625116553,2010-08-26 05:32:45,5192.597248054381,2,47,0.550297200679779,4.084228515625,50.91268355453358,50.06051221203949,202.13782993398056,183.89873139474244,6.47544875391759e-05,0.0842081755399704,0,0,0
17160,573067.9776045223,2010-08-26 05:33:15,5222.61234092122,2,47,0.5499359965324402,4.086980819702148,50.91727026123191,50.06051221203949,202.15656978910417,183.89873139474244,3.24249267578125e-05,0.0842081755399704,0,0,0
17161,573097.9927284365,2010-08-26 05:33:45,5252.627464830423,2,47,0.5499359965324402,4.090056419372559,50.921856879591466,50.06051221203949,202.175322703129,183.89873139474244,9.70840483205393e-05,0.0842081755399704,0,0,0
17162,573128.0119321387,2010-08-26 05:34:15,5282.64666863799,2,47,0.5501165986061096,4.092970371246338,50.92644417262243,50.06051221203949,202.19409193737235,183.89873139474244,9.70840483205393e-05,0.0842081755399704,0,0,0
17163,573158.0230901337,2010-08-26 05:34:45,5312.657826527653,2,47,0.5501165986061096,4.096208095550537,50.93103020717224,50.06051221203949,202.2128696676216,183.89873139474244,9.70840483205393e-05,0.0842081755399704,0,0,0
17164,573188.0382270102,2010-08-26 05:35:15,5342.6729633991645,2,47,0.5501165986061096,4.0989603996276855,50.93561689058532,50.06051221203949,202.2316639046018,183.89873139474244,6.47544875391759e-05,0.0842081755399704,0,0,0
17165,573218.0534209991,2010-08-26 05:35:45,5372.688157398054,2,47,0.5501165986061096,4.102035999298096,50.94020349248966,50.06051221203949,202.25047171085288,183.89873139474244,6.47544875391759e-05,0.0842081755399704,0,0,0
17166,573248.0686139804,2010-08-26 05:36:15,5402.703350379407,2,47,0.5501165986061096,4.105273723602295,50.94479014826699,50.06051221203949,202.2692937413076,183.89873139474244,9.70840483205393e-05,0.0842081755399704,0,0,0
17167,573278.0838079342,2010-08-26 05:36:45,5432.718544323159,2,47,0.5499359965324402,4.108187675476074,50.94937683310614,50.06051221203949,202.2881301495281,183.89873139474244,3.23295607813634e-05,0.0842081755399704,0,0,0
17168,573308.098942114,2010-08-26 05:37:15,5462.7336785129855,2,47,0.5501165986061096,4.111425399780273,50.95396345281548,50.06051221203949,202.3069805878077,183.89873139474244,6.47544875391759e-05,0.0842081755399704,0,0,0
17169,573338.1142643575,2010-08-26 05:37:45,5492.749000751488,2,47,0.550297200679779,4.114663124084473,50.958550166617975,50.06051221203949,202.3258457867304,183.89873139474244,9.70840483205393e-05,0.0842081755399704,0,0,0
17170,573368.1293465127,2010-08-26 05:38:15,5522.764082911642,2,47,0.550297200679779,4.117900848388672,50.96313678530248,50.06051221203949,202.34472517365697,183.89873139474244,0.0001295089750783,0.0842081755399704,0,0,0
17171,573398.1445127673,2010-08-26 05:38:45,5552.779249156359,2,47,0.550297200679779,4.121300220489502,50.96772346422267,50.06051221203949,202.36361953798965,183.89873139474244,0.0001295089750783,0.0842081755399704,0,0,0
17172,573428.1596857038,2010-08-26 05:39:15,5582.794422097767,2,47,0.5501165986061096,4.12437629699707,50.97231016158861,50.06051221203949,202.3825288190153,183.89873139474244,0.0001295089750783,0.0842081755399704,0,0,0
17173,573458.174891853,2010-08-26 05:39:45,5612.809628251951,2,47,0.550297200679779,4.1276140213012695,50.9768969175461,50.06051221203949,202.40145333900892,183.89873139474244,9.71794142969884e-05,0.0842081755399704,0,0,0
17174,573488.1900825336,2010-08-26 05:40:15,5642.82481893257,2,47,0.5501165986061096,4.130851745605469,50.98148368004792,50.06051221203949,202.42039298441364,183.89873139474244,9.71794142969884e-05,0.0842081755399704,0,0,0
17175,573518.2052373749,2010-08-26 05:40:45,5672.839973773867,2,47,0.5501165986061096,4.134251117706299,50.98607035334842,50.06051221203949,202.43934746794667,183.89873139474244,0.0001295089750783,0.0842081755399704,0,0,0
17176,573548.2204049779,2010-08-26 05:41:15,5702.85514137697,2,47,0.5501165986061096,4.137488842010498,50.990657060648864,50.06051221203949,202.4583174286228,183.89873139474244,9.70840483205393e-05,0.0842081755399704,0,0,0
17177,573578.2356032575,2010-08-26 05:41:45,5732.870339651516,2,47,0.5501165986061096,4.140888690948486,50.995243819605,50.06051221203949,202.477303125682,183.89873139474244,6.47544875391759e-05,0.0842081755399704,0,0,0
17178,573608.2507801638,2010-08-26 05:42:15,5762.885516562818,2,47,0.5501165986061096,4.144288063049316,50.99983056795797,50.06051221203949,202.49630433067188,183.89873139474244,6.47544875391759e-05,0.0842081755399704,0,0,0
17179,573638.2659575864,2010-08-26 05:42:45,5792.900693985394,2,47,0.5501165986061096,4.147849559783936,51.00441718685217,50.06051221203949,202.5153211093404,183.89873139474244,9.70840483205393e-05,0.0842081755399704,0,0,0
17180,573668.2811623972,2010-08-26 05:43:15,5822.915898791218,2,47,0.5501165986061096,4.151411056518555,51.00900389219675,50.06051221203949,202.53435416628497,183.89873139474244,9.70840483205393e-05,0.0842081755399704,0,0,0
17181,573698.2964588915,2010-08-26 05:43:45,5852.931195275533,2,47,0.5501165986061096,4.154972553253174,51.01359064296345,50.06051221203949,202.55340343128492,183.89873139474244,0.0001295089750783,0.0842081755399704,0,0,0
17182,573728.3115165206,2010-08-26 05:44:15,5882.946252929609,2,47,0.5501165986061096,4.158372402191162,51.018177317966185,50.06051221203949,202.57246850472583,183.89873139474244,6.47544875391759e-05,0.0842081755399704,0,0,0
17183,573758.3266777378,2010-08-26 05:44:45,5912.961414126747,2,47,0.5501165986061096,4.161933898925781,51.02276402101171,50.06051221203949,202.59155001624632,183.89873139474244,9.71794142969884e-05,0.0842081755399704,0,0,0
17184,573788.341842609,2010-08-26 05:45:15,5942.976579008066,2,47,0.5499359965324402,4.1654953956604,51.02735066930957,50.06051221203949,202.6106476854578,183.89873139474244,9.71794142969884e-05,0.0842081755399704,0,0,0
17185,573818.357027395,2010-08-26 05:45:45,5972.991763788981,2,47,0.5501165986061096,4.16921854019165,51.031937284813885,50.06051221203949,202.6297618084912,183.89873139474244,0.0001295089750783,0.0842081755399704,0,0,0
17186,573848.3724175377,2010-08-26 05:46:15,6003.007153956785,2,47,0.5501165986061096,4.1727800369262695,51.03652401261756,50.06051221203949,202.6488931080563,183.89873139474244,6.47544875391759e-05,0.0842081755399704,0,0,0
17187,573878.3873933528,2010-08-26 05:46:45,6033.022129746831,2,47,0.550297200679779,4.176665306091309,51.04111063333528,50.06051221203949,202.66804078681312,183.89873139474244,9.70840483205393e-05,0.0842081755399704,0,0,0
17188,573908.4026056022,2010-08-26 05:47:15,6063.037341996206,2,47,0.5501165986061096,4.180226802825928,51.04569729555895,50.06051221203949,202.6872055880627,183.89873139474244,9.70840483205393e-05,0.0842081755399704,0,0,0
17189,573938.4177464887,2010-08-26 05:47:45,6093.052482882723,2,47,0.5501165986061096,4.183950424194336,51.05028397371701,50.06051221203949,202.70638762259023,183.89873139474244,9.71794142969884e-05,0.0842081755399704,0,0,0
17190,573968.4330629779,2010-08-26 05:48:15,6123.067799371896,2,47,0.5501165986061096,4.187835693359375,51.05487071655648,50.06051221203949,202.7255871708408,183.89873139474244,9.71794142969884e-05,0.0842081755399704,0,0,0
17191,573998.4481100005,2010-08-26 05:48:45,6153.082846394475,2,47,0.5501165986061096,4.191558837890625,51.05945738928524,50.06051221203949,202.744803951228,183.89873139474244,9.70840483205393e-05,0.0842081755399704,0,0,0
17192,574028.4632926913,2010-08-26 05:49:15,6183.098029085181,2,47,0.5501165986061096,4.195444107055664,51.06404407271705,50.06051221203949,202.7640383754723,183.89873139474244,9.71794142969884e-05,0.0842081755399704,0,0,0
17193,574058.4784878279,2010-08-26 05:49:45,6213.113224226919,2,47,0.550297200679779,4.199491024017334,51.06863078145955,50.06051221203949,202.78329063828417,183.89873139474244,9.70840483205393e-05,0.0842081755399704,0,0,0
17194,574062.5721556878,2010-08-26 05:49:49,6217.206892076792,2,47,0.5501165986061096,4.200138568878174,51.06925633385465,50.06051221203949,202.78591771631253,183.89873139474244,0.0001295089750783,0.0842081755399704,0,0,0
17195,574092.5957560674,2010-08-26 05:50:20,30.015179212036152,3,47,0.0,4.122433662414551,51.06925633385465,50.06051221203949,202.78591771631253,183.89873139474244,-0.0003885269106831,0.0842081755399704,0,0,0
17196,574122.6109210991,2010-08-26 05:50:50,60.03034425375552,3,47,0.0,4.112558841705322,51.06925633385465,50.06051221203949,202.78591771631253,183.89873139474244,-0.0002265930233988,0.0842081755399704,0,0,0
17197,574152.626140777,2010-08-26 05:51:20,90.04556393164502,3,47,0.0,4.1068925857543945,51.06925633385465,50.06051221203949,202.78591771631253,183.89873139474244,-9.71794142969884e-05,0.0842081755399704,0,0,0
17198,574182.5944017142,2010-08-26 05:51:50,120.01382486389154,3,47,0.0,4.1031694412231445,51.06925633385465,50.06051221203949,202.78591771631253,183.89873139474244,-9.70840483205393e-05,0.0842081755399704,0,0,0
17199,574182.6046068695,2010-08-26 05:51:50,2.561383756e-06,4,47,1.0126569271087646,4.199814796447754,51.06925633457515,50.06051221203949,202.78591771933856,183.89873139474244,0.0,0.0842081755399704,0,0,0
17200,574183.3233411013,2010-08-26 05:51:50,0.71873678822604,4,47,0.962628185749054,4.199653148651123,51.06945196436264,50.06051221203949,202.78673931623507,183.89873139474244,-3.23295607813634e-05,0.0842081755399704,0,0,0
17201,574185.2452026214,2010-08-26 05:51:52,2.640598308476511,4,47,0.9124188423156738,4.199653148651123,51.069951247573606,50.06051221203949,202.7888361598337,183.89873139474244,-3.23295607813634e-05,0.0842081755399704,0,0,0
17202,574188.1514339943,2010-08-26 05:51:55,5.546829686295074,4,47,0.8623900413513184,4.199653148651123,51.07066649169108,50.06051221203949,202.79184000199177,183.89873139474244,-3.23295607813634e-05,0.0842081755399704,0,0,0
17203,574192.1203069319,2010-08-26 05:51:59,9.51570261382214,4,47,0.8121806979179382,4.199653148651123,51.07158843800361,50.06051221203949,202.79571194015267,183.89873139474244,0.0,0.0842081755399704,0,0,0
17204,574197.2450226102,2010-08-26 05:52:04,14.640418297140569,4,47,0.7616100907325745,4.199653148651123,51.07270730810527,50.06051221203949,202.80041092122423,183.89873139474244,-3.23295607813634e-05,0.0842081755399704,0,0,0
17205,574203.7489660985,2010-08-26 05:52:11,21.14436179053949,4,47,0.711581289768219,4.199814796447754,51.07403619419927,50.06051221203949,202.8059919273029,183.89873139474244,3.23295607813634e-05,0.0842081755399704,0,0,0
17206,574212.1200050534,2010-08-26 05:52:19,29.51540073529412,4,47,0.6615525484085083,4.199814796447754,51.07562981860583,50.06051221203949,202.81268474217617,183.89873139474244,0.0,0.0842081755399704,0,0,0
17207,574223.3852416943,2010-08-26 05:52:31,40.78063738625497,4,47,0.6115237474441528,4.199653148651123,51.077617953787566,50.06051221203949,202.8210344303523,183.89873139474244,0.0,0.0842081755399704,0,0,0
17208,574239.5413848542,2010-08-26 05:52:47,56.93678053109287,4,47,0.5614950060844421,4.199653148651123,51.08024384100227,50.06051221203949,202.8320625483788,183.89873139474244,-3.23295607813634e-05,0.0842081755399704,0,0,0
17209,574264.6034057015,2010-08-26 05:53:12,81.99880139347297,4,47,0.5114662051200867,4.199976921081543,51.08396569119061,50.06051221203949,202.8476933958682,183.89873139474244,3.24249267578125e-05,0.0842081755399704,0,0,0
17210,574306.9621338454,2010-08-26 05:53:54,124.3575295474876,4,47,0.4612568616867065,4.199814796447754,51.08966415586562,50.06051221203949,202.8716255276471,183.89873139474244,0.0,0.0842081755399704,0,0,0
17211,574377.1798449219,2010-08-26 05:55:04,194.57524060388968,4,47,0.4110474586486816,4.199653148651123,51.09814287771032,50.06051221203949,202.90723405576563,183.89873139474244,0.0,0.0842081755399704,0,0,0
17212,574474.865970865,2010-08-26 05:56:42,292.26136664224686,4,47,0.3610186874866485,4.199814796447754,51.10859812895433,50.06051221203949,202.95114359066943,183.89873139474244,3.23295607813634e-05,0.0842081755399704,0,0,0
17213,574594.78595539,2010-08-26 05:58:42,412.1813510819272,4,47,0.3109899461269378,4.199491024017334,51.11976942953415,50.06051221203949,202.9980598147283,183.89873139474244,-3.24249267578125e-05,0.0842081755399704,0,0,0
17214,574740.5806828055,2010-08-26 06:01:08,557.9760785126007,4,47,0.2609611749649048,4.199814796447754,51.13133300969236,50.06051221203949,203.04662364660905,183.89873139474244,0.0,0.0842081755399704,0,0,0
17215,574919.4217930302,2010-08-26 06:04:07,736.8171887222769,4,47,0.2109323889017105,4.199653148651123,51.14302416185247,50.06051221203949,203.09572360594052,183.89873139474244,0.0,0.0842081755399704,0,0,0
17216,575151.0747108895,2010-08-26 06:07:58,968.470106571378,4,47,0.1609036177396774,4.199653148651123,51.15492660823468,50.06051221203949,203.1457110444314,183.89873139474244,0.0,0.0842081755399704,0,0,0
17217,575476.5072309625,2010-08-26 06:13:24,1293.902626654508,4,47,0.1108748540282249,4.199814796447754,51.167095039348645,50.06051221203949,203.1968155694941,183.89873139474244,0.0,0.0842081755399704,0,0,0
17218,576039.6394748257,2010-08-26 06:22:47,1857.034870512662,4,47,0.0608460828661918,4.199814796447754,51.180160343467904,50.06051221203949,203.2516868516561,183.89873139474244,0.0,0.0842081755399704,0,0,0
17219,576240.0272489566,2010-08-26 06:26:07,2057.422644648586,4,47,0.0498289167881011,4.199814796447754,51.18325116721356,50.06051221203949,203.2646676118338,183.89873139474244,3.23295607813634e-05,0.0842081755399704,0,0,0
17220,576270.0365080241,2010-08-26 06:26:37,30.015450904176564,5,47,0.0,4.192530155181885,51.18325116721356,50.06051221203949,203.2646676118338,183.89873139474244,-3.24249267578125e-05,0.0842081755399704,0,0,0
17221,576300.0358222808,2010-08-26 06:27:07,60.01476515083747,5,47,0.0,4.191558837890625,51.18325116721356,50.06051221203949,203.2646676118338,183.89873139474244,0.0,0.0842081755399704,0,0,0
17222,576300.2182807823,2010-08-26 06:27:08,0.187647184521423,6,47,-1.9243103452026844e-05,4.191235065460205,51.18325116721356,50.060512213042514,203.2646676118338,183.8987313989464,0.0,0.0906038731336593,0,0,0
17223,576305.0461786945,2010-08-26 06:27:12,5.015545101637929,6,47,0.0007031940040178,4.191235065460205,51.18325216369253,50.060512213125406,203.2646717885309,183.89873139929372,-6.47544875391759e-05,0.0906038731336593,0,0,0
17224,576335.087411864,2010-08-26 06:27:43,30.01506372921743,7,47,-1.099568486213684,4.029349327087402,51.18325216369253,50.06968015765641,203.2646717885309,183.9358593375653,-0.0009065627818927,0.0906038731336593,0,0,0
17225,576365.1025790611,2010-08-26 06:28:13,60.03023092129616,7,47,-1.099568486213684,4.0042572021484375,51.18325216369253,50.07884810339416,203.2646717885309,183.9726770239759,-0.0005503654247149,0.0906038731336593,0,0,0
17226,576395.1177528796,2010-08-26 06:28:43,90.04540473989019,7,47,-1.0993878841400146,3.987259149551392,51.18325216369253,50.08801598487003,203.2646717885309,184.00930547162773,-0.0003885269106831,0.0906038731336593,0,0,0
17227,576425.1330627572,2010-08-26 06:29:13,120.06071462259789,7,47,-1.0993878841400146,3.973822593688965,51.18325216369253,50.097183877490814,203.2646717885309,184.04579584281657,-0.0003561496851034,0.0906038731336593,0,0,0
17228,576455.1481335041,2010-08-26 06:29:43,150.07578536930504,7,47,-1.099568486213684,3.962490558624268,51.18325216369253,50.106351646202505,203.2646717885309,184.08217363227644,-0.0002913951757363,0.0906038731336593,0,0,0
17229,576485.1632969618,2010-08-26 06:30:13,180.09094882707672,7,47,-1.0997490882873535,3.95245361328125,51.18325216369253,50.11551945807483,203.2646717885309,184.1184538110452,-0.0002266406954731,0.0906038731336593,0,0,0
17230,576515.1785874261,2010-08-26 06:30:43,210.10623929138777,7,47,-1.099568486213684,3.943064212799072,51.18325216369253,50.12468736792728,203.2646717885309,184.15464519880825,-0.0002266406954731,0.0906038731336593,0,0,0
17231,576545.1937630591,2010-08-26 06:31:13,240.12141491447915,7,47,-1.0993878841400146,3.934160470962525,51.18325216369253,50.13385478112853,203.2646717885309,184.1907510603101,-0.0002266406954731,0.0906038731336593,0,0,0
17232,576575.2088257859,2010-08-26 06:31:43,270.1364776411981,7,47,-1.099568486213684,3.9257423877716064,51.18325216369253,50.14302187852144,203.2646717885309,184.2267760634086,-0.0001942634553415,0.0906038731336593,0,0,0
17233,576605.2239955845,2010-08-26 06:32:13,300.15164744478545,7,47,-1.0997490882873535,3.917324304580689,51.18325216369253,50.15218905182422,203.2646717885309,184.26272456075836,-0.0002266406954731,0.0906038731336593,0,0,0
17234,576635.2391754983,2010-08-26 06:32:43,330.1668273585706,7,47,-1.099568486213684,3.9092302322387695,51.18325216369253,50.16135624206677,203.2646717885309,184.2985984583963,-0.0002266406954731,0.0906038731336593,0,0,0
17235,576665.2543768554,2010-08-26 06:33:13,360.1820287157994,7,47,-1.0997490882873535,3.9012978076934814,51.18325216369253,50.17052385789624,203.2646717885309,184.33440086824663,-0.0002266406954731,0.0906038731336593,0,0,0
17236,576695.2695877865,2010-08-26 06:33:43,390.1972396869891,7,47,-1.0997490882873535,3.893689155578613,51.18325216369253,50.179691720403774,203.2646717885309,184.37013256329084,-0.0002266406954731,0.0906038731336593,0,0,0
17237,576725.2847057008,2010-08-26 06:34:13,420.2123575611524,7,47,-1.099568486213684,3.886080503463745,51.18325216369253,50.188859545115164,203.2646717885309,184.40579445528903,-0.0001942634553415,0.0906038731336593,0,0,0
17238,576755.3000046713,2010-08-26 06:34:43,450.2276565316636,7,47,-1.099568486213684,3.878633737564087,51.18325216369253,50.19802745064212,203.2646717885309,184.44138759078652,-0.0001942634553415,0.0906038731336593,0,0,0
17239,576785.3150596587,2010-08-26 06:35:13,480.2427115140813,7,47,-1.099568486213684,3.8711869716644287,51.18325216369253,50.20719535957812,203.2646717885309,184.4769123874156,-0.0001942634553415,0.0906038731336593,0,0,0
17240,576815.3302613217,2010-08-26 06:35:43,510.25791318208456,7,47,-1.099568486213684,3.8640639781951904,51.18325216369253,50.21636326494493,203.2646717885309,184.51236990974417,-0.0001618862152099,0.0906038731336593,0,0,0
17241,576845.3455616606,2010-08-26 06:36:13,540.2732135109811,7,47,-1.0997490882873535,3.856779098510742,51.18325216369253,50.225531173374094,203.2646717885309,184.54776118723208,-0.0001942634553415,0.0906038731336593,0,0,0
17242,576875.3606416153,2010-08-26 06:36:43,570.288293480675,7,47,-1.099568486213684,3.849817991256714,51.18325216369253,50.23469908532859,203.2646717885309,184.58308687346425,-0.0001618862152099,0.0906038731336593,0,0,0
17243,576905.3758015643,2010-08-26 06:37:13,600.3034534497517,7,47,-1.099568486213684,3.8428568840026855,51.18325216369253,50.243867002239575,203.2646717885309,184.6183481728825,-0.0001618862152099,0.0906038731336593,0,0,0
17244,576935.3909627915,2010-08-26 06:37:43,630.3186146519016,7,47,-1.0997490882873535,3.835895776748657,51.18325216369253,50.25303497427604,203.2646717885309,184.65354641926828,-0.0001942634553415,0.0906038731336593,0,0,0
17245,576965.3944704395,2010-08-26 06:38:13,660.3221223048213,7,47,-1.099568486213684,3.829096794128418,51.18325216369253,50.26219937051021,203.2646717885309,184.68866853743992,-0.0001618862152099,0.0906038731336593,0,0,0
17246,576995.4056934715,2010-08-26 06:38:43,690.3333453368396,7,47,-1.099568486213684,3.8224594593048096,51.18325216369253,50.27136609168467,203.2646717885309,184.7237381571421,-0.0001618862152099,0.0906038731336593,0,0,0
17247,577025.4209215854,2010-08-26 06:39:13,720.3485734507542,7,47,-1.099568486213684,3.815984010696411,51.18325216369253,50.28053399077996,203.2646717885309,184.75875183320264,-0.0001942634553415,0.0906038731336593,0,0,0
17248,577055.4360445273,2010-08-26 06:39:43,750.3636963925475,7,47,-1.0997490882873535,3.8093466758728023,51.18325216369253,50.2897018505052,203.2646717885309,184.79370554049896,-0.0001618862152099,0.0906038731336593,0,0,0
17249,577085.4512267718,2010-08-26 06:40:13,780.3788786371417,7,47,-1.099568486213684,3.8030331134796143,51.18325216369253,50.2988697472556,203.2646717885309,184.8286007592881,-0.0001942634553415,0.0906038731336593,0,0,0
17250,577115.466410841,2010-08-26 06:40:43,810.3940627413707,7,47,-1.0997490882873535,3.796719551086426,51.18325216369253,50.30803769238412,203.2646717885309,184.86343869059257,-0.0001942634553415,0.0906038731336593,0,0,0
17251,577145.4815639629,2010-08-26 06:41:13,840.4092158182701,7,47,-1.099568486213684,3.790891647338867,51.18325216369253,50.31720561613226,203.2646717885309,184.89822001364792,-0.0001295089750783,0.0906038731336593,0,0,0
17252,577175.496744343,2010-08-26 06:41:43,870.424396208242,7,47,-1.0993878841400146,3.784901857376098,51.18325216369253,50.32637353022275,203.2646717885309,184.93294585589572,-0.0001295089750783,0.0906038731336593,0,0,0
17253,577205.5119383017,2010-08-26 06:42:13,900.4395901570067,7,47,-1.099568486213684,3.77891206741333,51.18325216369253,50.33554146344305,203.2646717885309,184.9676172726575,-0.0001618862152099,0.0906038731336593,0,0,0
17254,577235.527123659,2010-08-26 06:42:43,930.454775524384,7,47,-1.099568486213684,3.773084163665772,51.18325216369253,50.34470935859462,203.2646717885309,185.0022351482264,-0.0001618862152099,0.0906038731336593,0,0,0
17255,577265.5422771621,2010-08-26 06:43:13,960.4699290223324,7,47,-1.099568486213684,3.767580032348633,51.18325216369253,50.35387726170173,203.2646717885309,185.03680055536623,-0.0001295089750783,0.0906038731336593,0,0,0
17256,577295.5574722787,2010-08-26 06:43:43,990.4851241540456,7,47,-1.099568486213684,3.761914014816284,51.18325216369253,50.36304512515786,203.2646717885309,185.0713143650216,-0.0001295089750783,0.0906038731336593,0,0,0
17257,577325.5726467188,2010-08-26 06:44:13,1020.5002985791511,7,47,-1.099568486213684,3.756571769714356,51.18325216369253,50.3722130785,203.2646717885309,185.1057780488005,-0.0001295089750783,0.0906038731336593,0,0,0
17258,577355.5879001409,2010-08-26 06:44:43,1050.5155521164288,7,47,-1.0993878841400146,3.751391649246216,51.18325216369253,50.381381051735545,203.2646717885309,185.1401924607437,-9.713172767078504e-05,0.0906038731336593,0,0,0
17259,577385.6029913034,2010-08-26 06:45:13,1080.5306431637312,7,47,-1.099568486213684,3.745887517929077,51.18325216369253,50.390548924687934,203.2646717885309,185.1745579178981,-0.0001295089750783,0.0906038731336593,0,0,0
17260,577415.6181823199,2010-08-26 06:45:43,1110.5458341852,7,47,-1.099568486213684,3.7407071590423584,51.18325216369253,50.39971686845897,203.2646717885309,185.2088760940485,-0.0001295089750783,0.0906038731336593,0,0,0
17261,577445.6334329849,2010-08-26 06:46:13,1140.5610849355317,7,47,-1.099568486213684,3.7356886863708496,51.18325216369253,50.40888476992952,203.2646717885309,185.2431475613488,-0.0001295089750783,0.0906038731336593,0,0,0
17262,577475.6485084033,2010-08-26 06:46:43,1170.576160258645,7,47,-1.0997490882873535,3.730832099914551,51.18325216369253,50.418052700976,203.2646717885309,185.2773733835884,-9.713172767078504e-05,0.0906038731336593,0,0,0
17263,577505.6636831593,2010-08-26 06:47:13,1200.5913350195874,7,47,-1.0997490882873535,3.726137399673462,51.18325216369253,50.42722056671911,203.2646717885309,185.31155437467828,-6.47544875391759e-05,0.0906038731336593,0,0,0
17264,577535.6789876886,2010-08-26 06:47:43,1230.6066395439402,7,47,-1.099568486213684,3.721280813217163,51.18325216369253,50.43638845851109,203.2646717885309,185.3456917468197,-9.713172767078504e-05,0.0906038731336593,0,0,0
17265,577565.694177041,2010-08-26 06:48:13,1260.6218289012616,7,47,-1.099568486213684,3.716586112976074,51.18325216369253,50.44555635173858,203.2646717885309,185.3797856410114,-9.713172767078504e-05,0.0906038731336593,0,0,0
17266,577595.7092192465,2010-08-26 06:48:43,1290.636871111848,7,47,-1.099568486213684,3.711891412734986,51.18325216369253,50.454724283102784,203.2646717885309,185.4138369871604,-0.0001295089750783,0.0906038731336593,0,0,0
17267,577625.7243892156,2010-08-26 06:49:13,1320.6520410708226,7,47,-1.099568486213684,3.7073585987091056,51.18325216369253,50.46389218224646,203.2646717885309,185.4478462784528,-0.0001295089750783,0.0906038731336593,0,0,0
17268,577655.7397103312,2010-08-26 06:49:43,1350.667362191539,7,47,-1.099568486213684,3.702825784683228,51.18325216369253,50.47306016872029,203.2646717885309,185.48181487627664,-0.0001618862152099,0.0906038731336593,0,0,0
17269,577685.7549869661,2010-08-26 06:50:13,1380.6826388263826,7,47,-1.0993878841400146,3.698616743087769,51.18325216369253,50.4822281826586,203.2646717885309,185.51574330927136,-6.47544875391759e-05,0.0906038731336593,0,0,0
17270,577715.769936611,2010-08-26 06:50:43,1410.697588471267,7,47,-1.099568486213684,3.6944077014923096,51.18325216369253,50.4913960016595,203.2646717885309,185.54963139781964,-6.47544875391759e-05,0.0906038731336593,0,0,0
17271,577745.7851171362,2010-08-26 06:51:13,1440.7127689965762,7,47,-1.0997490882873535,3.689874887466431,51.18325216369253,50.50056397379314,203.2646717885309,185.5834809372566,-0.0001618862152099,0.0906038731336593,0,0,0
17272,577775.8002770953,2010-08-26 06:51:43,1470.7279289606404,7,47,-1.099568486213684,3.6861515045166016,51.18325216369253,50.509731872589626,203.2646717885309,185.61729159240755,-6.47544875391759e-05,0.0906038731336593,0,0,0
17273,577805.815584968,2010-08-26 06:52:13,1500.7432368233135,7,47,-1.0997490882873535,3.6817805767059326,51.18325216369253,50.518899859613086,203.2646717885309,185.65106464653687,-0.0001295089750783,0.0906038731336593,0,0,0
17274,577835.8306281561,2010-08-26 06:52:43,1530.758280011336,7,47,-1.099568486213684,3.677733421325684,51.18325216369253,50.52806774342071,203.2646717885309,185.6848002580826,-9.713172767078504e-05,0.0906038731336593,0,0,0
17275,577865.8458500996,2010-08-26 06:53:13,1560.7735019598845,7,47,-1.099568486213684,3.673848152160645,51.18325216369253,50.53723569950149,203.2646717885309,185.71849953852984,-9.713172767078504e-05,0.0906038731336593,0,0,0
17276,577895.8611018173,2010-08-26 06:53:43,1590.788753672615,7,47,-1.099568486213684,3.669963121414185,51.18325216369253,50.54640366068607,203.2646717885309,185.7521628529177,-9.713172767078504e-05,0.0906038731336593,0,0,0
17277,577925.8761598424,2010-08-26 06:54:13,1620.8038116976156,7,47,-1.099568486213684,3.6660778522491455,51.18325216369253,50.55557159181898,203.2646717885309,185.7857906793042,-0.0001295089750783,0.0906038731336593,0,0,0
17278,577955.8913291346,2010-08-26 06:54:43,1650.8189809949413,7,47,-1.099568486213684,3.662354469299317,51.18325216369253,50.56473952739863,203.2646717885309,185.8193839904027,-9.713172767078504e-05,0.0906038731336593,0,0,0
17279,577985.9065573286,2010-08-26 06:55:13,1680.8342092091057,7,47,-1.099568486213684,3.6586310863494873,51.18325216369253,50.5739075193906,203.2646717885309,185.85294337605612,-9.713172767078504e-05,0.0906038731336593,0,0,0
17280,578015.9216779699,2010-08-26 06:55:43,1710.8493298351275,7,47,-1.0997490882873535,3.655069589614868,51.18325216369253,50.58307544257231,203.2646717885309,185.886469112469,-9.713172767078504e-05,0.0906038731336593,0,0,0
17281,578045.9370193861,2010-08-26 06:56:13,1740.864671251427,7,47,-1.099568486213684,3.651669979095459,51.18325216369253,50.59224340347566,203.2646717885309,185.9199623809722,-6.47544875391759e-05,0.0906038731336593,0,0,0
17282,578075.9520559225,2010-08-26 06:56:43,1770.8797077878714,7,47,-1.099568486213684,3.64810848236084,51.18325216369253,50.60141130649144,203.2646717885309,185.9534234755432,-9.713172767078504e-05,0.0906038731336593,0,0,0
17283,578105.9672099919,2010-08-26 06:57:13,1800.8948618522318,7,47,-1.0997490882873535,3.644708871841431,51.18325216369253,50.610579173179474,203.2646717885309,185.98685289931296,-6.47544875391759e-05,0.0906038731336593,0,0,0
17284,578135.9824131036,2010-08-26 06:57:43,1830.9100649688453,7,47,-1.099568486213684,3.6413092613220215,51.18325216369253,50.6197470137726,203.2646717885309,186.0202518829045,-0.0001295089750783,0.0906038731336593,0,0,0
17285,578165.9975698947,2010-08-26 06:58:13,1860.925221760002,7,47,-1.0997490882873535,3.6380715370178223,51.18325216369253,50.62891488061602,203.2646717885309,186.05362117129943,-9.713172767078504e-05,0.0906038731336593,0,0,0
17286,578196.0127843396,2010-08-26 06:58:44,1890.9404362449493,7,47,-1.0997490882873535,3.634995698928833,51.18325216369253,50.63808276698244,203.2646717885309,186.08696174248064,-9.713172767078504e-05,0.0906038731336593,0,0,0
17287,578226.0280803577,2010-08-26 06:59:14,1920.9557322280143,7,47,-1.099568486213684,3.6320817470550537,51.18325216369253,50.64725071336144,203.2646717885309,186.12027442060523,-6.47544875391759e-05,0.0906038731336593,0,0,0
17288,578256.0432054298,2010-08-26 06:59:44,1950.970857290092,7,47,-1.0993878841400146,3.6291677951812735,51.18325216369253,50.65641865276943,203.2646717885309,186.1535594402481,-9.713172767078504e-05,0.0906038731336593,0,0,0
17289,578286.0582852742,2010-08-26 07:00:14,1980.9859371394864,7,47,-1.099568486213684,3.626253843307495,51.18325216369253,50.66558649578202,203.2646717885309,186.18681702555617,-6.47544875391759e-05,0.0906038731336593,0,0,0
17290,578316.0734299051,2010-08-26 07:00:44,2011.0010817603104,7,47,-1.099568486213684,3.623339891433716,51.18325216369253,50.67475431305094,203.2646717885309,186.2200481726588,-6.47544875391759e-05,0.0906038731336593,0,0,0
17291,578346.0886009717,2010-08-26 07:01:14,2041.016252827046,7,47,-1.099568486213684,3.620425939559937,51.18325216369253,50.68392222490771,203.2646717885309,186.25325362686468,-9.713172767078504e-05,0.0906038731336593,0,0,0
17292,578376.1039186288,2010-08-26 07:01:44,2071.0315704841296,7,47,-1.099568486213684,3.617673873901367,51.18325216369253,50.69309014003134,203.2646717885309,186.2864334562597,-9.713172767078504e-05,0.0906038731336593,0,0,0
17293,578406.1189881375,2010-08-26 07:02:14,2101.046639997764,7,47,-1.099929690361023,3.614759922027588,51.18325216369253,50.70225807867007,203.2646717885309,186.31958804158583,-9.713172767078504e-05,0.0906038731336593,0,0,0
17294,578436.1341373096,2010-08-26 07:02:44,2131.061789164919,7,47,-1.099568486213684,3.6123316287994394,51.18325216369253,50.71142600244978,203.2646717885309,186.35271794151683,-3.237724376958795e-05,0.0906038731336593,0,0,0
17295,578466.149451423,2010-08-26 07:03:14,2161.0771032731577,7,47,-1.099568486213684,3.609741449356079,51.18325216369253,50.720593969121225,203.2646717885309,186.3858231197911,-3.237724376958795e-05,0.0906038731336593,0,0,0
17296,578496.1646216575,2010-08-26 07:03:44,2191.0922735078198,7,47,-1.099568486213684,3.6068274974823,51.18325216369253,50.72976186563594,203.2646717885309,186.41890326257104,-9.713172767078504e-05,0.0906038731336593,0,0,0
17297,578526.1798020977,2010-08-26 07:04:14,2221.107453977992,7,47,-1.0997490882873535,3.604237318038941,51.18325216369253,50.73892980096947,203.2646717885309,186.45195858391952,-6.47544875391759e-05,0.0906038731336593,0,0,0
17298,578556.1948560976,2010-08-26 07:04:44,2251.122507962923,7,47,-1.099568486213684,3.601485252380371,51.18325216369253,50.74809770920259,203.2646717885309,186.48498920638696,-6.47544875391759e-05,0.0906038731336593,0,0,0
17299,578586.2100225178,2010-08-26 07:05:14,2281.137674383078,7,47,-1.099568486213684,3.598895072937012,51.18325216369253,50.75726561997266,203.2646717885309,186.51799506760165,-6.47544875391759e-05,0.0906038731336593,0,0,0
17300,578616.2253154783,2010-08-26 07:05:44,2311.152967333585,7,47,-1.099568486213684,3.5959811210632324,51.18325216369253,50.7664335637251,203.2646717885309,186.5509760056195,-6.47544875391759e-05,0.0906038731336593,0,0,0
17301,578646.2405842235,2010-08-26 07:06:14,2341.168236098816,7,47,-1.0993878841400146,3.593229055404663,51.18325216369253,50.77560153592278,203.2646717885309,186.5839314454704,-6.47544875391759e-05,0.0906038731336593,0,0,0
17302,578676.2555296778,2010-08-26 07:06:44,2371.1831815332057,7,47,-1.099568486213684,3.590315341949463,51.18325216369253,50.78476943905312,203.2646717885309,186.61686079179165,-9.713172767078504e-05,0.0906038731336593,0,0,0
17303,578706.2707274512,2010-08-26 07:07:14,2401.198379311515,7,47,-1.099568486213684,3.5875632762908936,51.18325216369253,50.79393737447116,203.2646717885309,186.6497637010936,-3.237724376958795e-05,0.0906038731336593,0,0,0
17304,578736.2858809541,2010-08-26 07:07:44,2431.2135328144764,7,47,-1.099568486213684,3.5844874382019043,51.18325216369253,50.80310536328456,203.2646717885309,186.68263981289977,-9.713172767078504e-05,0.0906038731336593,0,0,0
17305,578766.3010701962,2010-08-26 07:08:14,2461.22872207656,7,47,-1.099568486213684,3.581573486328125,51.18325216369253,50.81227330862941,203.2646717885309,186.71548855185705,-6.47544875391759e-05,0.0906038731336593,0,0,0
17306,578796.3163598885,2010-08-26 07:08:44,2491.2440117488973,7,47,-1.099568486213684,3.578497648239136,51.18325216369253,50.82144131173074,203.2646717885309,186.74830941063968,-6.47544875391759e-05,0.0906038731336593,0,0,0
17307,578826.3314292468,2010-08-26 07:09:14,2521.259081127194,7,47,-1.099568486213684,3.5750980377197266,51.18325216369253,50.83060925566999,203.2646717885309,186.78110133072025,-0.0001295089750783,0.0906038731336593,0,0,0
17308,578856.3465902585,2010-08-26 07:09:44,2551.2742421338567,7,47,-1.099568486213684,3.5720221996307373,51.18325216369253,50.839777192875104,203.2646717885309,186.81386377661076,-6.47544875391759e-05,0.0906038731336593,0,0,0
17309,578886.3658671633,2010-08-26 07:10:14,2581.293519028579,7,47,-1.099568486213684,3.568622589111328,51.18325216369253,50.84894643198798,203.2646717885309,186.84660092385676,-9.713172767078504e-05,0.0906038731336593,0,0,0
17310,578916.3769717652,2010-08-26 07:10:44,2611.304623630433,7,47,-1.099568486213684,3.565222978591919,51.18325216369253,50.8581131494154,203.2646717885309,186.87929820015648,-0.0001295089750783,0.0906038731336593,0,0,0
17311,578946.3921197043,2010-08-26 07:11:14,2641.3197715645147,7,47,-1.099568486213684,3.5618233680725098,51.18325216369253,50.86728106762584,203.2646717885309,186.91196818928236,-9.713172767078504e-05,0.0906038731336593,0,0,0
17312,578976.4072847359,2010-08-26 07:11:44,2671.3349366012217,7,47,-1.0993878841400146,3.5580999851226807,51.18325216369253,50.8764490111964,203.2646717885309,186.9446060915405,-0.0001295089750783,0.0906038731336593,0,0,0
17313,579006.4225925385,2010-08-26 07:12:14,2701.3502444237947,7,47,-1.099568486213684,3.554538488388061,51.18325216369253,50.88561696835521,203.2646717885309,186.97721049368977,-6.47544875391759e-05,0.0906038731336593,0,0,0
17314,579036.4376338167,2010-08-26 07:12:44,2731.365285676995,7,47,-1.099568486213684,3.5506532192230225,51.18325216369253,50.89478486283352,203.2646717885309,187.00978021710108,-9.713172767078504e-05,0.0906038731336593,0,0,0
17315,579066.4528086979,2010-08-26 07:13:14,2761.3804605582377,7,47,-1.0997490882873535,3.5467679500579834,51.18325216369253,50.90395281213984,203.2646717885309,187.0423147231624,-9.713172767078504e-05,0.0906038731336593,0,0,0
17316,579096.4679767572,2010-08-26 07:13:44,2791.395628617477,7,47,-1.0997490882873535,3.5427207946777344,51.18325216369253,50.91312078236808,203.2646717885309,187.07481266786075,-9.713172767078504e-05,0.0906038731336593,0,0,0
17317,579126.4831895729,2010-08-26 07:14:14,2821.4108414332645,7,47,-1.0997490882873535,3.538349866867065,51.18325216369253,50.92228869251516,203.2646717885309,187.10727249408075,-0.0001618862152099,0.0906038731336593,0,0,0
17318,579156.4983298079,2010-08-26 07:14:44,2851.425981663145,7,47,-1.099568486213684,3.5341408252716064,51.18325216369253,50.93145666515613,203.2646717885309,187.1396930277434,-0.0001295089750783,0.0906038731336593,0,0,0
17319,579186.5135076917,2010-08-26 07:15:14,2881.441159551883,7,47,-1.099568486213684,3.5296080112457275,51.18325216369253,50.94062465784723,203.2646717885309,187.1720728500308,-0.0001295089750783,0.0906038731336593,0,0,0
17320,579216.5286874198,2010-08-26 07:15:44,2911.456339280206,7,47,-1.0997490882873535,3.5247514247894287,51.18325216369253,50.94979262277977,203.2646717885309,187.20441004744703,-0.0001618862152099,0.0906038731336593,0,0,0
17321,579246.5438892934,2010-08-26 07:16:14,2941.471541168759,7,47,-1.0993878841400146,3.51989483833313,51.18325216369253,50.958960610557824,203.2646717885309,187.236702763633,-9.713172767078504e-05,0.0906038731336593,0,0,0
17322,579276.5589754786,2010-08-26 07:16:44,2971.4866273589564,7,47,-1.099568486213684,3.514714479446411,51.18325216369253,50.96812850156394,203.2646717885309,187.2689489088731,-0.0001295089750783,0.0906038731336593,0,0,0
17323,579306.5741957179,2010-08-26 07:17:14,3001.5018475731827,7,47,-1.099568486213684,3.5090487003326416,51.18325216369253,50.977295769162815,203.2646717885309,187.30114415693768,-0.0001942634553415,0.0906038731336593,0,0,0
17324,579336.5894915306,2010-08-26 07:17:44,3031.517143395848,7,47,-1.099568486213684,3.503058910369873,51.18325216369253,50.986463127075496,203.2646717885309,187.33328705122412,-0.0002266406954731,0.0906038731336593,0,0,0
17325,579366.6045953096,2010-08-26 07:18:14,3061.5322471748814,7,47,-1.0997490882873535,3.496745347976685,51.18325216369253,50.99563115697102,203.2646717885309,187.36537544189787,-0.0001618862152099,0.0906038731336593,0,0,0
17326,579396.6197708977,2010-08-26 07:18:44,3091.5474227578734,7,47,-1.0993878841400146,3.4896223545074463,51.18325216369253,51.004799172141205,203.2646717885309,187.3974018577258,-0.0002266406954731,0.0906038731336593,0,0,0
17327,579426.6349313628,2010-08-26 07:19:14,3121.5625832231867,7,47,-1.099568486213684,3.481689929962158,51.18325216369253,51.01396720742133,203.2646717885309,187.42935907857984,-0.0001942634553415,0.0906038731336593,0,0,0
17328,579456.650225351,2010-08-26 07:19:44,3151.577877201255,7,47,-1.099568486213684,3.4721386432647705,51.18325216369253,51.023135142539935,203.2646717885309,187.46123610030045,-0.0002913951757363,0.0906038731336593,0,0,0
17329,579486.665293401,2010-08-26 07:20:14,3181.592945266279,7,47,-1.099568486213684,3.461130380630493,51.18325216369253,51.03230305251981,203.2646717885309,187.4930196847247,-0.0003237724304199,0.0906038731336593,0,0,0
17330,579516.6805762362,2010-08-26 07:20:44,3211.608228101576,7,47,-1.099568486213684,3.4475319385528564,51.18325216369253,51.04147108723279,203.2646717885309,187.52469173333915,-0.0003885269106831,0.0906038731336593,0,0,0
17331,579546.6956666871,2010-08-26 07:21:14,3241.623318552392,7,47,-1.099568486213684,3.43037223815918,51.18325216369253,51.05063911527754,203.2646717885309,187.556224181322,-0.0005179882282391,0.0906038731336593,0,0,0
17332,579576.7109173773,2010-08-26 07:21:44,3271.6385693528487,7,47,-1.099568486213684,3.407546281814575,51.18325216369253,51.059807186851295,203.2646717885309,187.5875749099804,-0.0007122993702068,0.0906038731336593,0,0,0
17333,579606.7261766689,2010-08-26 07:22:14,3301.6538285291804,7,47,-1.0993878841400146,3.3764641284942627,51.18325216369253,51.06897524818108,203.2646717885309,187.6186807359244,-0.0009389400365762,0.0906038731336593,0,0,0
17334,579636.7411488198,2010-08-26 07:22:44,3331.668800685169,7,47,-1.0997490882873535,3.3322694301605225,51.18325216369253,51.07814323631845,203.2646717885309,187.6494450196889,-0.0013598442310467,0.0906038731336593,0,0,0
17335,579666.756446482,2010-08-26 07:23:14,3361.684098342407,7,47,-1.0997490882873535,3.268000841140747,51.18325216369253,51.087311305522086,203.2646717885309,187.679719722593,-0.0020073414780199,0.0906038731336593,0,0,0
17336,579696.7714910186,2010-08-26 07:23:44,3391.699142883803,7,47,-1.099568486213684,3.1723263263702397,51.18325216369253,51.09647928454999,203.2646717885309,187.70927502052675,-0.0031082152854651,0.0906038731336593,0,0,0
17337,579726.7868070866,2010-08-26 07:24:14,3421.714458951926,7,47,-1.0993878841400146,3.0107643604278564,51.18325216369253,51.105647453966256,203.2646717885309,187.737699058387,-0.0057631013914942,0.0906038731336593,0,0,0
17338,579744.8020441707,2010-08-26 07:24:32,3439.729696050927,7,47,-1.0993878841400146,2.810673475265503,51.18325216369253,51.11115014810216,203.2646717885309,187.7537761788596,-0.0112349037081003,0.0906038731336593,0,0,0
17339,579751.8488329664,2010-08-26 07:24:39,3446.7764848217867,7,47,-1.099568486213684,2.699943780899048,51.18325216369253,51.11330261337935,203.2646717885309,187.75970883628423,-0.0128213409334421,0.0906038731336593,0,0,0
17340,579811.8475632197,2010-08-26 07:25:39,60.01479275463463,8,47,0.0,3.4276201725006104,51.18325216369253,51.11330261337935,203.2646717885309,187.75970883628423,0.0011979580158367,0.0906038731336593,0,0,0
17341,579812.0354756165,2010-08-26 07:25:40,0.187478794842531,9,47,-1.9243103452026844e-05,3.4277820587158203,51.18325216369253,51.11330261438148,203.2646717885309,187.75970883971937,0.0,0.0865590572357177,0,0,0
17342,579816.8635815219,2010-08-26 07:25:45,5.01558458003023,9,47,0.0007031940040178,3.435066699981689,51.18325301816826,51.11330261454823,203.2646747210288,187.75970884029087,0.0010360240703448,0.0865590572357177,0,0,0
