Data_Point,Test_Time(s),Date_Time,Step_Time(s),Step_Index,Cycle_Index,Current(A),Voltage(V),Charge_Capacity(Ah),Discharge_Capacity(Ah),Charge_Energy(Wh),Discharge_Energy(Wh),dV/dt(V/s),Internal_Resistance(Ohm),Is_FC_Data,AC_Impedance(Ohm),ACI_Phase_Angle(Deg)
6392,214119.74333564093,2010-08-22 01:50:11,30.015314519263395,1,18,0.0,3.352181196212769,18.9066816254796,18.87695178791707,75.06083269325491,69.32224695769577,0.0007122516399249,0.0833984836935997,0,0,0
6393,214149.75864531312,2010-08-22 01:50:41,60.03062422152133,1,18,0.0,3.374521493911743,18.9066816254796,18.87695178791707,75.06083269325491,69.32224695769577,0.0005180359003134,0.0833984836935997,0,0,0
6394,214179.77394177736,2010-08-22 01:51:11,90.04592068077362,1,18,0.0,3.391195774078369,18.9066816254796,18.87695178791707,75.06083269325491,69.32224695769577,0.0003885269106831,0.0833984836935997,0,0,0
6395,214209.74237804665,2010-08-22 01:51:41,120.01435695502636,1,18,0.0,3.404470443725586,18.9066816254796,18.87695178791707,75.06083269325491,69.32224695769577,0.0003561496851034,0.0833984836935997,0,0,0
6396,214239.7574694473,2010-08-22 01:52:11,30.01542866875906,2,18,0.5501165986061096,3.540778160095215,18.911268700531604,18.87695178791707,75.0769195349976,69.32224695769577,0.0014893531333655,0.0833984836935997,0,0,0
6397,214269.77265644376,2010-08-22 01:52:41,60.03061565015886,2,18,0.5501165986061096,3.5877251625061035,18.91585570296301,18.87695178791707,75.09327472231384,69.32224695769577,0.0010684489971026,0.0833984836935997,0,0,0
6398,214299.78810001965,2010-08-22 01:53:11,90.04605923609611,2,18,0.5501165986061096,3.623663663864136,18.920442705320127,18.87695178791707,75.1098171566968,69.32224695769577,0.0008741855854168,0.0833984836935997,0,0,0
6399,214329.80337839384,2010-08-22 01:53:41,120.06133760024986,2,18,0.5501165986061096,3.653288841247559,18.925029737499813,18.87695178791707,75.12650877890917,69.32224695769577,0.0007446765666827,0.0833984836935997,0,0,0
6400,214359.8185564129,2010-08-22 01:54:11,150.07651561931277,2,18,0.5501165986061096,3.6782190799713135,18.92961668014277,18.87695178791707,75.14332513719233,69.32224695769577,0.0005827903514727,0.0833984836935997,0,0,0
6401,214389.8338797792,2010-08-22 01:54:41,180.0918389906382,2,18,0.550297200679779,3.699911832809448,18.93420366410237,18.87695178791707,75.16024872400965,69.32224695769577,0.0004856586456298,0.0833984836935997,0,0,0
6402,214419.8491706295,2010-08-22 01:55:11,210.1071298409112,2,18,0.550297200679779,3.7185287475585938,18.938790671648857,18.87695178791707,75.1772643665596,69.32224695769577,0.0004532813909463,0.0833984836935997,0,0,0
6403,214449.86461462648,2010-08-22 01:55:41,240.12257386293533,2,18,0.5501165986061096,3.7332603931427,18.94337773980702,18.87695178791707,75.19435657875935,69.32224695769577,0.0003561496851034,0.0833984836935997,0,0,0
6404,214479.86465160944,2010-08-22 01:56:11,270.12261082081494,2,18,0.5501165986061096,3.743135452270508,18.947962395988647,18.87695178791707,75.21149672154817,69.32224695769577,0.0001942634553415,0.0833984836935997,0,0,0
6405,214509.8794680423,2010-08-22 01:56:41,300.13742727875626,2,18,0.5501165986061096,3.748801469802856,18.952549295081845,18.87695178791707,75.22868041903948,69.32224695769577,0.0001295089750783,0.0833984836935997,0,0,0
6406,214539.89500124656,2010-08-22 01:57:11,330.1529604830501,2,18,0.5501165986061096,3.752039194107056,18.95713631735407,18.87695178791707,75.24588392006726,69.32224695769577,9.713172767078504e-05,0.0833984836935997,0,0,0
6407,214569.91007367749,2010-08-22 01:57:41,360.16803288387985,2,18,0.5501165986061096,3.754629135131836,18.96172326591497,18.87695178791707,75.26310026651223,69.32224695769577,6.47544875391759e-05,0.0833984836935997,0,0,0
6408,214599.92550234124,2010-08-22 01:58:11,390.1834615476264,2,18,0.550297200679779,3.757057428359986,18.96631026460211,18.87695178791707,75.28032807007591,69.32224695769577,6.47544875391759e-05,0.0833984836935997,0,0,0
6409,214629.9406812976,2010-08-22 01:58:41,420.19864050903794,2,18,0.5501165986061096,3.759323835372925,18.970897250112603,18.87695178791707,75.2975667107565,69.32224695769577,0.0,0.0833984836935997,0,0,0
6410,214659.95865807703,2010-08-22 01:59:11,450.2166173736851,2,18,0.5501165986061096,3.761590242385864,18.975484672450072,18.87695178791707,75.31481770418543,69.32224695769577,3.237724376958795e-05,0.0833984836935997,0,0,0
6411,214689.9713392532,2010-08-22 01:59:41,480.2292993067337,2,18,0.5501165986061096,3.7640185356140137,18.98007126572327,18.87695178791707,75.33207642665968,69.32224695769577,6.47544875391759e-05,0.0833984836935997,0,0,0
6412,214719.98658493592,2010-08-22 02:00:11,510.244544142324,2,18,0.5501165986061096,3.766446828842163,18.98465830198496,18.87695178791707,75.34934767614402,69.32224695769577,6.47544875391759e-05,0.0833984836935997,0,0,0
6413,214750.00194338968,2010-08-22 02:00:41,540.2599026010981,2,18,0.550297200679779,3.768713235855103,18.989245289520937,18.87695178791707,75.36662963514037,69.32224695769577,3.237724376958795e-05,0.0833984836935997,0,0,0
6414,214780.01731275563,2010-08-22 02:01:11,570.2752721074062,2,18,0.5499359965324402,3.771141529083252,18.99383235347731,18.87695178791707,75.38392281264532,69.32224695769577,6.47544875391759e-05,0.0833984836935997,0,0,0
6415,214810.0325145439,2010-08-22 02:01:41,600.290473750347,2,18,0.5501165986061096,3.773569822311402,18.998419348967893,18.87695178791707,75.40122672780163,69.32224695769577,9.713172767078504e-05,0.0833984836935997,0,0,0
6416,214840.0478006424,2010-08-22 02:02:11,630.3057598537895,2,18,0.5501165986061096,3.775998115539551,19.003006344029053,18.87695178791707,75.41854159037501,69.32224695769577,6.47544875391759e-05,0.0833984836935997,0,0,0
6417,214870.0631328858,2010-08-22 02:02:41,660.3210920922144,2,18,0.5501165986061096,3.7784264087677,19.007593283492312,18.87695178791707,75.43586726248321,69.32224695769577,6.47544875391759e-05,0.0833984836935997,0,0,0
6418,214900.07842501428,2010-08-22 02:03:11,690.3363842256855,2,18,0.5501165986061096,3.7808547019958496,19.012180333321293,18.87695178791707,75.45320457330195,69.32224695769577,6.47544875391759e-05,0.0833984836935997,0,0,0
6419,214930.09371811012,2010-08-22 02:03:41,720.3516773165427,2,18,0.5501165986061096,3.783282995223999,19.0167673598399,18.87695178791707,75.47055315434535,69.32224695769577,3.237724376958795e-05,0.0833984836935997,0,0,0
6420,214960.10905227336,2010-08-22 02:04:11,750.3670114597148,2,18,0.5501165986061096,3.7858731746673584,19.02135444106818,18.87695178791707,75.4879137199321,69.32224695769577,6.47544875391759e-05,0.0833984836935997,0,0,0
6421,214990.12434312364,2010-08-22 02:04:42,780.3823023400629,2,18,0.5501165986061096,3.788625240325928,19.02594146526596,18.87695178791707,75.50528623323343,69.32224695769577,6.47544875391759e-05,0.0833984836935997,0,0,0
6422,215020.1399367435,2010-08-22 02:05:12,810.3978959549185,2,18,0.550297200679779,3.791377305984497,19.03052863410685,18.87695178791707,75.52267208841457,69.32224695769577,3.237724376958795e-05,0.0833984836935997,0,0,0
6423,215050.1550727629,2010-08-22 02:05:42,840.4130319793178,2,18,0.5501165986061096,3.7944531440734863,19.0351155759146,18.87695178791707,75.54007041814529,69.32224695769577,9.713172767078504e-05,0.0833984836935997,0,0,0
6424,215080.17026571417,2010-08-22 02:06:12,870.4282249456338,2,18,0.550297200679779,3.797852754592896,19.03970250270268,18.87695178791707,75.55748275239196,69.32224695769577,0.0001295089750783,0.0833984836935997,0,0,0
6425,215110.18567128532,2010-08-22 02:06:42,900.443630521839,2,18,0.5501165986061096,3.8009285926818848,19.044289582551503,18.87695178791707,75.57491031982603,69.32224695769577,9.713172767078504e-05,0.0833984836935997,0,0,0
6426,215140.20086567025,2010-08-22 02:07:12,930.458824881628,2,18,0.550297200679779,3.804166316986084,19.04887657742017,18.87695178791707,75.59235261959316,69.32224695769577,6.47544875391759e-05,0.0833984836935997,0,0,0
6427,215170.21616806427,2010-08-22 02:07:42,960.4741272756715,2,18,0.550297200679779,3.807727813720703,19.05346364452858,18.87695178791707,75.60981064812269,69.32224695769577,9.713172767078504e-05,0.0833984836935997,0,0,0
6428,215200.23160576556,2010-08-22 02:08:12,990.4895649969924,2,18,0.5501165986061096,3.8109655380249023,19.05805072445169,18.87695178791707,75.62728438269603,69.32224695769577,6.47544875391759e-05,0.0833984836935997,0,0,0
6429,215230.2468908364,2010-08-22 02:08:42,1020.504850042799,2,18,0.5501165986061096,3.8145270347595215,19.062637769575257,18.87695178791707,75.64477376988799,69.32224695769577,6.47544875391759e-05,0.0833984836935997,0,0,0
6430,215260.2622056514,2010-08-22 02:09:12,1050.5201648577995,2,18,0.5501165986061096,3.81792664527893,19.06722477193793,18.87695178791707,75.66227862930273,69.32224695769577,9.713172767078504e-05,0.0833984836935997,0,0,0
6431,215290.27751679724,2010-08-22 02:09:42,1080.5354759986428,2,18,0.5501165986061096,3.82116436958313,19.071811760518315,18.87695178791707,75.67979870568733,69.32224695769577,9.713172767078504e-05,0.0833984836935997,0,0,0
6432,215320.2926779142,2010-08-22 02:10:12,1110.550637120593,2,18,0.5501165986061096,3.824563980102539,19.076398765598185,18.87695178791707,75.69733374873624,69.32224695769577,0.0001295089750783,0.0833984836935997,0,0,0
6433,215350.30798545107,2010-08-22 02:10:42,1140.565944657454,2,18,0.550297200679779,3.827639818191528,19.08098580752628,18.87695178791707,75.7148835648237,69.32224695769577,6.47544875391759e-05,0.0833984836935997,0,0,0
6434,215380.3232628077,2010-08-22 02:11:12,1170.5812220391592,2,18,0.550297200679779,3.8307156562805176,19.085572776930587,18.87695178791707,75.7324474474142,69.32224695769577,9.713172767078504e-05,0.0833984836935997,0,0,0
6435,215410.3385658784,2010-08-22 02:11:42,1200.5965250898391,2,18,0.5501165986061096,3.833791255950928,19.09015979433407,18.87695178791707,75.75002569064331,69.32224695769577,9.713172767078504e-05,0.0833984836935997,0,0,0
6436,215440.3539982815,2010-08-22 02:12:12,1230.6119575029304,2,18,0.5501165986061096,3.836705207824707,19.09474670894631,18.87695178791707,75.76761757518432,69.32224695769577,9.713172767078504e-05,0.0833984836935997,0,0,0
6437,215470.36917063143,2010-08-22 02:12:42,1260.6271298278016,2,18,0.5501165986061096,3.839781045913696,19.09933372006663,18.87695178791707,75.78522371618752,69.32224695769577,6.47544875391759e-05,0.0833984836935997,0,0,0
6438,215500.384866045,2010-08-22 02:13:12,1290.642825276458,2,18,0.5501165986061096,3.842694997787476,19.103920799185115,18.87695178791707,75.80284380882635,69.32224695769577,9.713172767078504e-05,0.0833984836935997,0,0,0
6439,215530.3997702366,2010-08-22 02:13:42,1320.6577294680587,2,18,0.550297200679779,3.845608949661255,19.10850779086865,18.87695178791707,75.82047686759388,69.32224695769577,6.47544875391759e-05,0.0833984836935997,0,0,0
6440,215560.41509244,2010-08-22 02:14:12,1350.6730516714736,2,18,0.550297200679779,3.848361015319824,19.11309488962552,18.87695178791707,75.8381232324433,69.32224695769577,9.713172767078504e-05,0.0833984836935997,0,0,0
6441,215590.4305384119,2010-08-22 02:14:42,1380.6884976383449,2,18,0.5501165986061096,3.8507893085479736,19.11768196732864,18.87695178791707,75.855781851202,69.32224695769577,6.47544875391759e-05,0.0833984836935997,0,0,0
6442,215620.44571482195,2010-08-22 02:15:12,1410.7036740534102,2,18,0.5501165986061096,3.853379487991333,19.122268990319256,18.87695178791707,75.87345193733866,69.32224695769577,3.237724376958795e-05,0.0833984836935997,0,0,0
6443,215650.46137521823,2010-08-22 02:15:42,1440.719334434668,2,18,0.5501165986061096,3.855645895004273,19.12685606544061,18.87695178791707,75.89113301975735,69.32224695769577,3.237724376958795e-05,0.0833984836935997,0,0,0
6444,215680.47644207525,2010-08-22 02:16:12,1470.7344013167433,2,18,0.550297200679779,3.857912302017212,19.13144305783768,18.87695178791707,75.90882396113517,69.32224695769577,6.47544875391759e-05,0.0833984836935997,0,0,0
6445,215710.4916280492,2010-08-22 02:16:42,1500.7495872555444,2,18,0.5501165986061096,3.859854936599731,19.136030141123204,18.87695178791707,75.92652457461598,69.32224695769577,6.47544875391759e-05,0.0833984836935997,0,0,0
6446,215740.5069298467,2010-08-22 02:17:12,1530.764889058114,2,18,0.550297200679779,3.861473798751831,19.140617170995338,18.87695178791707,75.94423347352887,69.32224695769577,3.237724376958795e-05,0.0833984836935997,0,0,0
6447,215770.522217494,2010-08-22 02:17:42,1560.7801767304668,2,18,0.550297200679779,3.8632545471191406,19.14520415832221,18.87695178791707,75.9619500430288,69.32224695769577,6.47544875391759e-05,0.0833984836935997,0,0,0
6448,215800.537513442,2010-08-22 02:18:12,1590.795472653382,2,18,0.5501165986061096,3.86454963684082,19.14979118258457,18.87695178791707,75.9796737511214,69.32224695769577,3.237724376958795e-05,0.0833984836935997,0,0,0
6449,215830.55282731465,2010-08-22 02:18:42,1620.8107865210216,2,18,0.5501165986061096,3.86600661277771,19.154378180847218,18.87695178791707,75.9974039242913,69.32224695769577,0.0,0.0833984836935997,0,0,0
6450,215860.56813881136,2010-08-22 02:19:12,1650.826098017752,2,18,0.550297200679779,3.8673017024993896,19.158965159206076,18.87695178791707,76.01513996284314,69.32224695769577,6.47544875391759e-05,0.0833984836935997,0,0,0
6451,215890.58343720544,2010-08-22 02:19:42,1680.8413964118265,2,18,0.5501165986061096,3.868596792221069,19.16355214196767,18.87695178791707,76.0328816055865,69.32224695769577,9.713172767078504e-05,0.0833984836935997,0,0,0
6452,215920.59890439012,2010-08-22 02:20:12,1710.8568635965792,2,18,0.550297200679779,3.869406223297119,19.16813920509615,18.87695178791707,76.05062870555085,69.32224695769577,0.0,0.0833984836935997,0,0,0
6453,215950.6140408757,2010-08-22 02:20:42,1740.8720000821277,2,18,0.550297200679779,3.870539426803589,19.172726176521447,18.87695178791707,76.06838041603325,69.32224695769577,3.237724376958795e-05,0.0833984836935997,0,0,0
6454,215980.62939606133,2010-08-22 02:21:12,1770.8873552727566,2,18,0.550297200679779,3.8715107440948486,19.17731320556499,18.87695178791707,76.08613711038606,69.32224695769577,0.0,0.0833984836935997,0,0,0
6455,216010.64465514745,2010-08-22 02:21:42,1800.9026143538513,2,18,0.5501165986061096,3.8726439476013184,19.181900265752727,18.87695178791707,76.10389850124157,69.32224695769577,3.237724376958795e-05,0.0833984836935997,0,0,0
6456,216040.66002219263,2010-08-22 02:22:12,1830.9179813890005,2,18,0.550297200679779,3.873615264892578,19.186487335545557,18.87695178791707,76.12166438596388,69.32224695769577,3.237724376958795e-05,0.0833984836935997,0,0,0
6457,216070.6753868268,2010-08-22 02:22:42,1860.9333460632656,2,18,0.5501165986061096,3.874424695968628,19.191074428287024,18.87695178791707,76.13943457217763,69.32224695769577,3.237724376958795e-05,0.0833984836935997,0,0,0
6458,216100.6905802091,2010-08-22 02:23:12,1890.948539415543,2,18,0.5501165986061096,3.8752341270446777,19.19566146001134,18.87695178791707,76.15720875321547,69.32224695769577,0.0,0.0833984836935997,0,0,0
6459,216130.7058950392,2010-08-22 02:23:42,1920.963854270644,2,18,0.550297200679779,3.8762054443359375,19.200248475342807,18.87695178791707,76.17498702011035,69.32224695769577,0.0,0.0833984836935997,0,0,0
6460,216160.7211750825,2010-08-22 02:24:12,1950.97913428892,2,18,0.5501165986061096,3.8770148754119873,19.204835469251915,18.87695178791707,76.19276932409404,69.32224695769577,0.0,0.0833984836935997,0,0,0
6461,216190.73647702043,2010-08-22 02:24:42,1980.9944362268268,2,18,0.5501165986061096,3.877986192703247,19.20942254531522,18.87695178791707,76.21055603674019,69.32224695769577,3.237724376958795e-05,0.0833984836935997,0,0,0
6462,216220.7519308068,2010-08-22 02:25:12,2011.009890018199,2,18,0.5501165986061096,3.878957509994507,19.214009604346884,18.87695178791707,76.22834675626594,69.32224695769577,6.47544875391759e-05,0.0833984836935997,0,0,0
6463,216250.7672639024,2010-08-22 02:25:42,2041.0252231137604,2,18,0.550297200679779,3.8797669410705566,19.2185966315273,18.87695178791707,76.24614128813015,69.32224695769577,6.47544875391759e-05,0.0833984836935997,0,0,0
6464,216280.7823995408,2010-08-22 02:26:12,2071.0403587772603,2,18,0.550297200679779,3.880738258361816,19.22318359303971,18.87695178791707,76.26393964521473,69.32224695769577,6.47544875391759e-05,0.0833984836935997,0,0,0
6465,216310.79783081604,2010-08-22 02:26:42,2101.0557900224408,2,18,0.5501165986061096,3.881547689437866,19.227770542977684,18.87695178791707,76.28174197411965,69.32224695769577,3.237724376958795e-05,0.0833984836935997,0,0,0
6466,216340.8130605891,2010-08-22 02:27:12,2131.071019820553,2,18,0.5501165986061096,3.882357120513916,19.232357500475903,18.87695178791707,76.29954834051965,69.32224695769577,3.237724376958795e-05,0.0833984836935997,0,0,0
6467,216370.8283051089,2010-08-22 02:27:42,2161.0862643152936,2,18,0.550297200679779,3.883328437805176,19.23694456413022,18.87695178791707,76.31735925860573,69.32224695769577,3.237724376958795e-05,0.0833984836935997,0,0,0
6468,216400.84360679617,2010-08-22 02:28:12,2191.1015660025755,2,18,0.5499359965324402,3.8841378688812256,19.241531667161503,18.87695178791707,76.33517443875965,69.32224695769577,0.0,0.0833984836935997,0,0,0
6469,216430.8589212252,2010-08-22 02:28:42,2221.116880486752,2,18,0.5501165986061096,3.885109186172485,19.24611883347292,18.87695178791707,76.3529938427824,69.32224695769577,3.237724376958795e-05,0.0833984836935997,0,0,0
6470,216460.87445151224,2010-08-22 02:29:12,2251.13241072365,2,18,0.5501165986061096,3.885918617248535,19.250705912084207,18.87695178791707,76.37081708346247,69.32224695769577,0.0,0.0833984836935997,0,0,0
6471,216490.88954191297,2010-08-22 02:29:42,2281.1475011193284,2,18,0.5501165986061096,3.886889934539795,19.25529298607477,18.87695178791707,76.38864460603385,69.32224695769577,0.0,0.0833984836935997,0,0,0
6472,216520.904852748,2010-08-22 02:30:12,2311.1628119544093,2,18,0.5501165986061096,3.887861251831055,19.2598800308222,18.87695178791707,76.40647617002351,69.32224695769577,0.0,0.0833984836935997,0,0,0
6473,216550.92016168835,2010-08-22 02:30:42,2341.178120894768,2,18,0.5501165986061096,3.8888325691223145,19.264466961435065,18.87695178791707,76.42431163368076,69.32224695769577,0.0,0.0833984836935997,0,0,0
6474,216580.9380288496,2010-08-22 02:31:12,2371.1959880710383,2,18,0.5501165986061096,3.889642000198364,19.269054372620005,18.87695178791707,76.44215338144768,69.32224695769577,0.0,0.0833984836935997,0,0,0
6475,216610.95085573892,2010-08-22 02:31:42,2401.2088149553506,2,18,0.550297200679779,3.890775203704834,19.27364105667311,18.87695178791707,76.45999670689405,69.32224695769577,3.237724376958795e-05,0.0833984836935997,0,0,0
6476,216640.966069452,2010-08-22 02:32:12,2431.2240286583487,2,18,0.5504778623580933,3.8917465209960938,19.27822807607353,18.87695178791707,76.47784589490271,69.32224695769577,3.237724376958795e-05,0.0833984836935997,0,0,0
6477,216670.98137028716,2010-08-22 02:32:42,2461.239329498519,2,18,0.550297200679779,3.892879724502564,19.282815121512165,18.87695178791707,76.49569972887336,69.32224695769577,0.0,0.0833984836935997,0,0,0
6478,216700.99677058012,2010-08-22 02:33:12,2491.25472981662,2,18,0.5501165986061096,3.893689155578613,19.287402184676782,18.87695178791707,76.51355830191049,69.32224695769577,0.0,0.0833984836935997,0,0,0
6479,216731.0119789599,2010-08-22 02:33:42,2521.269938176301,2,18,0.550297200679779,3.894822359085083,19.29198925108849,18.87695178791707,76.53142161838356,69.32224695769577,0.0,0.0833984836935997,0,0,0
6480,216761.02731041133,2010-08-22 02:34:12,2551.285269642802,2,18,0.5501165986061096,3.895793676376343,19.29657637532364,18.87695178791707,76.54928935649954,69.32224695769577,0.0,0.0833984836935997,0,0,0
6481,216791.04271495497,2010-08-22 02:34:42,2581.3006741613717,2,18,0.5499359965324402,3.8967649936676025,19.30116336072457,18.87695178791707,76.5671615889157,69.32224695769577,3.237724376958795e-05,0.0833984836935997,0,0,0
6482,216821.0579362068,2010-08-22 02:35:12,2611.315895418196,2,18,0.550297200679779,3.897898197174072,19.305750329651225,18.87695178791707,76.58503867392166,69.32224695769577,3.237724376958795e-05,0.0833984836935997,0,0,0
6483,216851.0731997039,2010-08-22 02:35:42,2641.331158915297,2,18,0.5501165986061096,3.899031400680542,19.31033732229051,18.87695178791707,76.6029208288491,69.32224695769577,3.237724376958795e-05,0.0833984836935997,0,0,0
6484,216881.0885063736,2010-08-22 02:36:12,2671.346465579984,2,18,0.5501165986061096,3.9000027179718018,19.31492434495629,18.87695178791707,76.62080821784187,69.32224695769577,3.237724376958795e-05,0.0833984836935997,0,0,0
6485,216911.10381009596,2010-08-22 02:36:43,2701.361769327401,2,18,0.550297200679779,3.9012978076934814,19.319511356247965,18.87695178791707,76.63870060224126,69.32224695769577,6.47544875391759e-05,0.0833984836935997,0,0,0
6486,216941.11952550936,2010-08-22 02:37:13,2731.377484725778,2,18,0.5501165986061096,3.902431011199951,19.32409843189939,18.87695178791707,76.6565985111228,69.32224695769577,3.237724376958795e-05,0.0833984836935997,0,0,0
6487,216971.13456436657,2010-08-22 02:37:43,2761.3925235779943,2,18,0.5501165986061096,3.903564214706421,19.328685381851457,18.87695178791707,76.67450118417908,69.32224695769577,3.237724376958795e-05,0.0833984836935997,0,0,0
6488,217001.14984871063,2010-08-22 02:38:13,2791.407807922052,2,18,0.5501165986061096,3.9045355319976807,19.333272411235004,18.87695178791707,76.69240959916638,69.32224695769577,0.0,0.0833984836935997,0,0,0
6489,217031.1650304289,2010-08-22 02:38:43,2821.4229896353218,2,18,0.5499359965324402,3.9056687355041504,19.33785942888945,18.87695178791707,76.71032332248443,69.32224695769577,-3.237724376958795e-05,0.0833984836935997,0,0,0
6490,217061.1803433843,2010-08-22 02:39:13,2851.4383025957,2,18,0.5499359965324402,3.90712571144104,19.342446437589548,18.87695178791707,76.72824255364421,69.32224695769577,0.0,0.0833984836935997,0,0,0
6491,217091.19578785743,2010-08-22 02:39:43,2881.453747063836,2,18,0.550297200679779,3.90842080116272,19.347033413748505,18.87695178791707,76.74616724616402,69.32224695769577,3.237724376958795e-05,0.0833984836935997,0,0,0
6492,217121.2109465233,2010-08-22 02:40:13,2911.4689057346773,2,18,0.5501165986061096,3.9095540046691895,19.35162035342467,18.87695178791707,76.76409750679292,69.32224695769577,0.0,0.0833984836935997,0,0,0
6493,217151.22625175945,2010-08-22 02:40:43,2941.4842109958663,2,18,0.5501165986061096,3.910849094390869,19.35620735824001,18.87695178791707,76.7820337751302,69.32224695769577,6.47544875391759e-05,0.0833984836935997,0,0,0
6494,217181.24158348152,2010-08-22 02:41:13,2971.4995427129925,2,18,0.5501165986061096,3.912144184112549,19.36079439103823,18.87695178791707,76.79997603981292,69.32224695769577,3.237724376958795e-05,0.0833984836935997,0,0,0
6495,217211.2569948472,2010-08-22 02:41:43,3001.514954083639,2,18,0.5499359965324402,3.913439273834229,19.365381433081904,18.87695178791707,76.81792425510504,69.32224695769577,3.237724376958795e-05,0.0833984836935997,0,0,0
6496,217241.27229095556,2010-08-22 02:42:13,3031.5302501870046,2,18,0.5501165986061096,3.914896011352539,19.369968466227192,18.87695178791707,76.8358784685925,69.32224695769577,6.47544875391759e-05,0.0833984836935997,0,0,0
6497,217271.2876754943,2010-08-22 02:42:43,3061.545634730791,2,18,0.5501165986061096,3.915867328643799,19.37455550680005,18.87695178791707,76.85383869580177,69.32224695769577,0.0,0.0833984836935997,0,0,0
6498,217301.30279043617,2010-08-22 02:43:13,3091.560749647583,2,18,0.5501165986061096,3.9174861907958975,19.37914247425284,18.87695178791707,76.87180484687859,69.32224695769577,6.47544875391759e-05,0.0833984836935997,0,0,0
6499,217331.31809914092,2010-08-22 02:43:43,3121.576058357368,2,18,0.5501165986061096,3.918943166732788,19.383729498048197,18.87695178791707,76.88977747785577,69.32224695769577,3.237724376958795e-05,0.0833984836935997,0,0,0
6500,217361.3333888384,2010-08-22 02:44:13,3151.5913480497547,2,18,0.550297200679779,3.920238256454468,19.38831650613923,18.87695178791707,76.90775640653733,69.32224695769577,0.0,0.0833984836935997,0,0,0
6501,217391.3487304752,2010-08-22 02:44:43,3181.606689686603,2,18,0.5499359965324402,3.921533346176148,19.392903562696617,18.87695178791707,76.92574186592329,69.32224695769577,3.237724376958795e-05,0.0833984836935997,0,0,0
6502,217421.364334501,2010-08-22 02:45:13,3211.6222937374687,2,18,0.550297200679779,3.923152208328247,19.39749055490587,18.87695178791707,76.94373360638151,69.32224695769577,6.47544875391759e-05,0.0833984836935997,0,0,0
6503,217451.3793532531,2010-08-22 02:45:43,3241.637312474552,2,18,0.5501165986061096,3.924447298049927,19.402077473626928,18.87695178791707,76.96173159266127,69.32224695769577,3.237724376958795e-05,0.0833984836935997,0,0,0
6504,217481.3947034513,2010-08-22 02:46:13,3271.652662687776,2,18,0.550297200679779,3.925904273986816,19.406664394935824,18.87695178791707,76.97973624079567,69.32224695769577,3.237724376958795e-05,0.0833984836935997,0,0,0
6505,217511.40991948516,2010-08-22 02:46:43,3301.667878691508,2,18,0.5499359965324402,3.927361249923706,19.411251368862956,18.87695178791707,76.99774770219688,69.32224695769577,3.237724376958795e-05,0.0833984836935997,0,0,0
6506,217541.42525794904,2010-08-22 02:47:13,3331.683217160461,2,18,0.5501165986061096,3.928818225860596,19.415838410805723,18.87695178791707,77.01576624235727,69.32224695769577,3.237724376958795e-05,0.0833984836935997,0,0,0
6507,217571.4405245539,2010-08-22 02:47:43,3361.698483760295,2,18,0.550297200679779,3.9304370880126953,19.42042545421178,18.87695178791707,77.03379162908458,69.32224695769577,3.237724376958795e-05,0.0833984836935997,0,0,0
6508,217601.4558702559,2010-08-22 02:48:13,3391.7138294622755,2,18,0.550297200679779,3.931894063949585,19.425012546115045,18.87695178791707,77.05182408130013,69.32224695769577,6.47544875391759e-05,0.0833984836935997,0,0,0
6509,217631.4711262543,2010-08-22 02:48:43,3421.729085465699,2,18,0.550297200679779,3.933512926101685,19.42959955185477,18.87695178791707,77.0698631704733,69.32224695769577,6.47544875391759e-05,0.0833984836935997,0,0,0
6510,217661.4864047237,2010-08-22 02:49:13,3451.7443639351154,2,18,0.5497553944587708,3.934969902038574,19.43418643399796,18.87695178791707,77.0879088338681,69.32224695769577,3.237724376958795e-05,0.0833984836935997,0,0,0
6511,217691.501696381,2010-08-22 02:49:43,3481.759655587387,2,18,0.5501165986061096,3.936426877975464,19.438772623995167,18.87695178791707,77.10595879554086,69.32224695769577,3.237724376958795e-05,0.0833984836935997,0,0,0
6512,217721.51697893057,2010-08-22 02:50:13,3511.774938141985,2,18,0.5501165986061096,3.938045740127564,19.443358923866448,18.87695178791707,77.12401643188828,69.32224695769577,3.237724376958795e-05,0.0833984836935997,0,0,0
6513,217751.53232435687,2010-08-22 02:50:43,3541.790283563266,2,18,0.5499359965324402,3.939664602279663,19.44794502633972,18.87695178791707,77.14208064365305,69.32224695769577,3.237724376958795e-05,0.0833984836935997,0,0,0
6514,217781.5476518184,2010-08-22 02:51:13,3571.80561105486,2,18,0.5501165986061096,3.9414453506469727,19.452531123685212,18.87695178791707,77.1601523302139,69.32224695769577,6.47544875391759e-05,0.0833984836935997,0,0,0
6515,217811.5630863668,2010-08-22 02:51:43,3601.821045583223,2,18,0.5501165986061096,3.943064212799072,19.457117279945983,18.87695178791707,77.1782317416663,69.32224695769577,3.237724376958795e-05,0.0833984836935997,0,0,0
6516,217841.5782056946,2010-08-22 02:52:13,3631.836164931059,2,18,0.5501165986061096,3.944521188735962,19.46170347233366,18.87695178791707,77.19631903115545,69.32224695769577,0.0,0.0833984836935997,0,0,0
6517,217871.59356147167,2010-08-22 02:52:43,3661.851520683087,2,18,0.550297200679779,3.9466257095336914,19.466290556062717,18.87695178791707,77.21441782763782,69.32224695769577,9.713172767078504e-05,0.0833984836935997,0,0,0
6518,217901.6088605525,2010-08-22 02:53:13,3691.866819758861,2,18,0.550297200679779,3.948244571685791,19.47087770816405,18.87695178791707,77.23252470535573,69.32224695769577,6.47544875391759e-05,0.0833984836935997,0,0,0
6519,217931.624151914,2010-08-22 02:53:43,3721.882111130433,2,18,0.550297200679779,3.9500253200531006,19.475464736396717,18.87695178791707,77.2506391506609,69.32224695769577,9.713172767078504e-05,0.0833984836935997,0,0,0
6520,217961.6394676363,2010-08-22 02:54:13,3751.897426847682,2,18,0.5501165986061096,3.9516441822052,19.48005183680372,18.87695178791707,77.268762073335,69.32224695769577,3.237724376958795e-05,0.0833984836935997,0,0,0
6521,217991.6548909617,2010-08-22 02:54:43,3781.912850173124,2,18,0.5501165986061096,3.9534249305725098,19.48463903396851,18.87695178791707,77.28689361787568,69.32224695769577,6.47544875391759e-05,0.0833984836935997,0,0,0
6522,218021.67009324624,2010-08-22 02:55:13,3811.9280524777137,2,18,0.5501165986061096,3.955367565155029,19.48922607272953,18.87695178791707,77.30503291125703,69.32224695769577,0.0,0.0833984836935997,0,0,0
6523,218051.68538794617,2010-08-22 02:55:43,3841.943347152519,2,18,0.5501165986061096,3.956986427307129,19.4938132039404,18.87695178791707,77.32318103396885,69.32224695769577,-3.237724376958795e-05,0.0833984836935997,0,0,0
6524,218081.7006827563,2010-08-22 02:56:13,3871.9586419676734,2,18,0.5501165986061096,3.9590909481048575,19.49840030606765,18.87695178791707,77.34133750373175,69.32224695769577,3.237724376958795e-05,0.0833984836935997,0,0,0
6525,218111.71599251867,2010-08-22 02:56:43,3901.973951730082,2,18,0.5501165986061096,3.960871696472168,19.50298743629615,18.87695178791707,77.35950271485531,69.32224695769577,3.237724376958795e-05,0.0833984836935997,0,0,0
6526,218141.73132455652,2010-08-22 02:57:13,3931.9892837680063,2,18,0.5501165986061096,3.962814331054688,19.507574531700747,18.87695178791707,77.3776764045988,69.32224695769577,3.237724376958795e-05,0.0833984836935997,0,0,0
6527,218171.74673107013,2010-08-22 02:57:43,3962.0046902765353,2,18,0.5504778623580933,3.964918851852417,19.51216165603921,18.87695178791707,77.39585891361972,69.32224695769577,9.713172767078504e-05,0.0833984836935997,0,0,0
6528,218201.7619231392,2010-08-22 02:58:13,3992.0198823456153,2,18,0.5501165986061096,3.966699600219727,19.51674877958736,18.87695178791707,77.41405015543293,69.32224695769577,6.47544875391759e-05,0.0833984836935997,0,0,0
6529,218231.77723870607,2010-08-22 02:58:43,4022.035197937552,2,18,0.5501165986061096,3.968642234802246,19.52133594292869,18.87695178791707,77.43225027880966,69.32224695769577,6.47544875391759e-05,0.0833984836935997,0,0,0
6530,218261.79252442857,2010-08-22 02:59:13,4052.0504836600458,2,18,0.5501165986061096,3.970422983169556,19.52592306159525,18.87695178791707,77.45045900342939,69.32224695769577,6.47544875391759e-05,0.0833984836935997,0,0,0
6531,218291.80794936809,2010-08-22 02:59:43,4082.065908589485,2,18,0.5501165986061096,3.972365617752075,19.53051020826665,18.87695178791707,77.46867673062793,69.32224695769577,3.237724376958795e-05,0.0833984836935997,0,0,0
6532,218321.8231327104,2010-08-22 03:00:13,4112.081091921789,2,18,0.550297200679779,3.9744701385498047,19.535097331398944,18.87695178791707,77.48690318966212,69.32224695769577,6.47544875391759e-05,0.0833984836935997,0,0,0
6533,218351.8384369891,2010-08-22 03:00:43,4142.096396205543,2,18,0.550297200679779,3.976412773132324,19.53968451400871,18.87695178791707,77.50513880731006,69.32224695769577,6.47544875391759e-05,0.0833984836935997,0,0,0
6534,218381.853754536,2010-08-22 03:01:13,4172.111713767389,2,18,0.550297200679779,3.978193521499634,19.544271690521995,18.87695178791707,77.52338311005079,69.32224695769577,6.47544875391759e-05,0.0833984836935997,0,0,0
6535,218411.86906208785,2010-08-22 03:01:43,4202.127021294226,2,18,0.5501165986061096,3.980136156082153,19.54885872548331,18.87695178791707,77.54163596654574,69.32224695769577,6.47544875391759e-05,0.0833984836935997,0,0,0
6536,218441.88437626124,2010-08-22 03:02:13,4232.142335492689,2,18,0.5501165986061096,3.982078790664673,19.553445769692303,18.87695178791707,77.5598980449378,69.32224695769577,3.237724376958795e-05,0.0833984836935997,0,0,0
6537,218471.8998068598,2010-08-22 03:02:43,4262.157766071208,2,18,0.5501165986061096,3.9841833114624015,19.558032908672462,18.87695178791707,77.5781695705922,69.32224695769577,6.47544875391759e-05,0.0833984836935997,0,0,0
6538,218501.91760808672,2010-08-22 03:03:13,4292.1755672931,2,18,0.5501165986061096,3.986287832260132,19.56262034634392,18.87695178791707,77.59645141113029,69.32224695769577,6.47544875391759e-05,0.0833984836935997,0,0,0
6539,218531.9302932829,2010-08-22 03:03:43,4322.188252489281,2,18,0.5501165986061096,3.9882304668426514,19.567207014892897,18.87695178791707,77.61473945747498,69.32224695769577,3.237724376958795e-05,0.0833984836935997,0,0,0
6540,218561.94558315072,2010-08-22 03:04:13,4352.203542382168,2,18,0.5501165986061096,3.990173101425171,19.571794116779703,18.87695178791707,77.63303842571348,69.32224695769577,6.47544875391759e-05,0.0833984836935997,0,0,0
6541,218591.96089417627,2010-08-22 03:04:43,4382.218853382661,2,18,0.550297200679779,3.9924395084381104,19.576381065086576,18.87695178791707,77.65134616482656,69.32224695769577,9.713172767078504e-05,0.0833984836935997,0,0,0
6542,218621.9763307447,2010-08-22 03:05:13,4412.2342899511095,2,18,0.5501165986061096,3.994220018386841,19.580968108820635,18.87695178791707,77.66966377093043,69.32224695769577,0.0,0.0833984836935997,0,0,0
6543,218651.9915292448,2010-08-22 03:05:43,4442.249488451217,2,18,0.550297200679779,3.9966483116149902,19.5855551411758,18.87695178791707,77.68799087129831,69.32224695769577,9.713172767078504e-05,0.0833984836935997,0,0,0
6544,218682.0068013534,2010-08-22 03:06:13,4472.264760564792,2,18,0.550297200679779,3.9985909461975098,19.590142236144963,18.87695178791707,77.70632789344627,69.32224695769577,6.47544875391759e-05,0.0833984836935997,0,0,0
6545,218712.02208440425,2010-08-22 03:06:43,4502.280043610614,2,18,0.5501165986061096,4.000695705413818,19.59472929741088,18.87695178791707,77.72467436332518,69.32224695769577,6.47544875391759e-05,0.0833984836935997,0,0,0
6546,218742.0374008733,2010-08-22 03:07:13,4532.295360079737,2,18,0.550297200679779,4.002962112426758,19.59931643556884,18.87695178791707,77.74303106039903,69.32224695769577,9.71794142969884e-05,0.0833984836935997,0,0,0
6547,218772.0527448059,2010-08-22 03:07:43,4562.310704012308,2,18,0.5501165986061096,4.004904747009277,19.603903558770657,18.87695178791707,77.76139762307538,69.32224695769577,3.24249267578125e-05,0.0833984836935997,0,0,0
6548,218802.0680917159,2010-08-22 03:08:13,4592.326050927311,2,18,0.5499359965324402,4.007009029388428,19.60849057982276,18.87695178791707,77.77977379819515,69.32224695769577,3.23295607813634e-05,0.0833984836935997,0,0,0
6549,218832.08334745365,2010-08-22 03:08:44,4622.341306670086,2,18,0.550297200679779,4.009437561035156,19.613077606304785,18.87695178791707,77.79816013562963,69.32224695769577,9.71794142969884e-05,0.0833984836935997,0,0,0
6550,218862.09915157311,2010-08-22 03:09:14,4652.357110879808,2,18,0.5501165986061096,4.011541843414307,19.617664664139628,18.87695178791707,77.81655679961581,69.32224695769577,0.0,0.0833984836935997,0,0,0
6551,218892.1141240449,2010-08-22 03:09:44,4682.372083251334,2,18,0.550297200679779,4.013970375061035,19.622251609231437,18.87695178791707,77.83496336045057,69.32224695769577,3.24249267578125e-05,0.0833984836935997,0,0,0
6552,218922.12926965824,2010-08-22 03:10:14,4712.387228894707,2,18,0.5501165986061096,4.016236782073975,19.62683860571564,18.87695178791707,77.85338054140857,69.32224695769577,6.47544875391759e-05,0.0833984836935997,0,0,0
6553,218952.14470262773,2010-08-22 03:10:44,4742.4026618341095,2,18,0.550297200679779,4.018664836883545,19.631425697321436,18.87695178791707,77.87180871004469,69.32224695769577,9.70840483205393e-05,0.0833984836935997,0,0,0
6554,218982.15991064656,2010-08-22 03:11:14,4772.417869862967,2,18,0.5501165986061096,4.0207695960998535,19.636012725729383,18.87695178791707,77.8902471744081,69.32224695769577,0.0,0.0833984836935997,0,0,0
6555,219012.17519365728,2010-08-22 03:11:44,4802.433152868688,2,18,0.550297200679779,4.023359775543213,19.640599720429066,18.87695178791707,77.9086963130203,69.32224695769577,6.47544875391759e-05,0.0833984836935997,0,0,0
6556,219042.1904942368,2010-08-22 03:12:14,4832.448453443197,2,18,0.550297200679779,4.025626182556152,19.64518682290603,18.87695178791707,77.92715679852384,69.32224695769577,6.47544875391759e-05,0.0833984836935997,0,0,0
6557,219072.205842014,2010-08-22 03:12:44,4862.463801230374,2,18,0.5499359965324402,4.027892589569092,19.64977383827065,18.87695178791707,77.9456278608421,69.32224695769577,0.0,0.0833984836935997,0,0,0
6558,219102.22126318904,2010-08-22 03:13:14,4892.479222405457,2,18,0.5501165986061096,4.030482769012451,19.65436092131584,18.87695178791707,77.96411027789992,69.32224695769577,6.47544875391759e-05,0.0833984836935997,0,0,0
6559,219132.2365436835,2010-08-22 03:13:44,4922.494502904932,2,18,0.5501165986061096,4.0329108238220215,19.6589479174892,18.87695178791707,77.98260346183497,69.32224695769577,6.47544875391759e-05,0.0833984836935997,0,0,0
6560,219162.25183892972,2010-08-22 03:14:14,4952.5097981461495,2,18,0.5501165986061096,4.035338878631592,19.66353496694287,18.87695178791707,78.00110816429311,69.32224695769577,6.47544875391759e-05,0.0833984836935997,0,0,0
6561,219192.2670241868,2010-08-22 03:14:44,4982.524983398239,2,18,0.5501165986061096,4.03776741027832,19.66812193484425,18.87695178791707,78.0196239191664,69.32224695769577,6.47544875391759e-05,0.0833984836935997,0,0,0
6562,219222.282340681,2010-08-22 03:15:14,5012.540299892425,2,18,0.550297200679779,4.04035758972168,19.672708993510508,18.87695178791707,78.03815151297339,69.32224695769577,9.71794142969884e-05,0.0833984836935997,0,0,0
6563,219252.2976531101,2010-08-22 03:15:44,5042.555612316466,2,18,0.5501165986061096,4.04278564453125,19.677296041245626,18.87695178791707,78.05669063364229,69.32224695769577,6.47544875391759e-05,0.0833984836935997,0,0,0
6564,219282.31295367453,2010-08-22 03:16:14,5072.570912900999,2,18,0.550297200679779,4.045537948608398,19.68188306399142,18.87695178791707,78.07524138379063,69.32224695769577,0.0001295089750783,0.0833984836935997,0,0,0
6565,219312.3282502842,2010-08-22 03:16:44,5102.586209515639,2,18,0.5501165986061096,4.048128128051758,19.68647010676172,18.87695178791707,78.09380402480485,69.32224695769577,9.71794142969884e-05,0.0833984836935997,0,0,0
6566,219342.34380103723,2010-08-22 03:17:14,5132.601760298745,2,18,0.550297200679779,4.050879955291748,19.69105716965668,18.87695178791707,78.11237867944108,69.32224695769577,0.0001295089750783,0.0833984836935997,0,0,0
6567,219372.3588675484,2010-08-22 03:17:44,5162.61682677982,2,18,0.5501165986061096,4.053308486938477,19.69564418318144,18.87695178791707,78.13096511727666,69.32224695769577,9.71794142969884e-05,0.0833984836935997,0,0,0
6568,219402.3742850393,2010-08-22 03:18:14,5192.6322442456585,2,18,0.5501165986061096,4.056060314178467,19.700231211570035,18.87695178791707,78.14956380022204,69.32224695769577,6.47544875391759e-05,0.0833984836935997,0,0,0
6569,219432.3894740056,2010-08-22 03:18:44,5222.647433217018,2,18,0.5501165986061096,4.058650493621826,19.70481825992669,18.87695178791707,78.16817485140741,69.32224695769577,9.70840483205393e-05,0.0833984836935997,0,0,0
6570,219462.40481598832,2010-08-22 03:19:14,5252.662775194715,2,18,0.5501165986061096,4.061079025268555,19.709405394520303,18.87695178791707,78.18679847682489,69.32224695769577,6.47544875391759e-05,0.0833984836935997,0,0,0
6571,219492.4201227633,2010-08-22 03:19:44,5282.678081969679,2,18,0.5501165986061096,4.063992977142334,19.713992386170773,18.87695178791707,78.20543379247059,69.32224695769577,6.47544875391759e-05,0.0833984836935997,0,0,0
6572,219522.43560820853,2010-08-22 03:20:14,5312.693567455042,2,18,0.5501165986061096,4.066906929016113,19.71857943442513,18.87695178791707,78.22408193902181,69.32224695769577,9.71794142969884e-05,0.0833984836935997,0,0,0
6573,219552.4506836269,2010-08-22 03:20:44,5342.7086428383045,2,18,0.5501165986061096,4.069497108459473,19.72316638647326,18.87695178791707,78.2427424286197,69.32224695769577,6.47544875391759e-05,0.0833984836935997,0,0,0
6574,219582.46613554863,2010-08-22 03:21:14,5372.724094755005,2,18,0.5501165986061096,4.072411060333252,19.727753389225068,18.87695178791707,78.26141591975242,69.32224695769577,9.71794142969884e-05,0.0833984836935997,0,0,0
6575,219612.48130167305,2010-08-22 03:21:44,5402.739260879423,2,18,0.5501165986061096,4.075325012207031,19.73234037611646,18.87695178791707,78.2801023368485,69.32224695769577,0.0001295089750783,0.0833984836935997,0,0,0
6576,219642.496730427,2010-08-22 03:22:14,5432.7546896634685,2,18,0.550297200679779,4.0780768394470215,19.736927436714875,18.87695178791707,78.29880210934716,69.32224695769577,9.70840483205393e-05,0.0833984836935997,0,0,0
6577,219672.51191213523,2010-08-22 03:22:44,5462.769871366714,2,18,0.5501165986061096,4.08082914352417,19.74151445842705,18.87695178791707,78.31751496075228,69.32224695769577,6.47544875391759e-05,0.0833984836935997,0,0,0
6578,219702.52724275965,2010-08-22 03:23:14,5492.785201966054,2,18,0.5501165986061096,4.08390474319458,19.74610154274933,18.87695178791707,78.33624126822494,69.32224695769577,9.70840483205393e-05,0.0833984836935997,0,0,0
6579,219732.54252266264,2010-08-22 03:23:44,5522.800481869042,2,18,0.550297200679779,4.086818695068359,19.750688567041458,18.87695178791707,78.35498082685811,69.32224695769577,6.47544875391759e-05,0.0833984836935997,0,0,0
6580,219762.55786612903,2010-08-22 03:24:14,5552.815825340464,2,18,0.5499359965324402,4.089732646942139,19.75527561511993,18.87695178791707,78.37373404359076,69.32224695769577,6.47544875391759e-05,0.0833984836935997,0,0,0
6581,219792.5731222428,2010-08-22 03:24:44,5582.831081474213,2,18,0.550297200679779,4.092646598815918,19.759862698233025,18.87695178791707,78.39250110807122,69.32224695769577,6.47544875391759e-05,0.0833984836935997,0,0,0
6582,219822.58844597,2010-08-22 03:25:14,5612.846405201425,2,18,0.5501165986061096,4.095722675323486,19.764449711733302,18.87695178791707,78.4112816386233,69.32224695769577,3.24249267578125e-05,0.0833984836935997,0,0,0
6583,219852.60374308587,2010-08-22 03:25:44,5642.861702292252,2,18,0.5501165986061096,4.098636627197266,19.769036784843173,18.87695178791707,78.43007636415018,69.32224695769577,0.0,0.0833984836935997,0,0,0
6584,219882.61903919923,2010-08-22 03:26:14,5672.876998430704,2,18,0.5501165986061096,4.102035999298096,19.773623816278644,18.87695178791707,78.44888496665847,69.32224695769577,0.0001295089750783,0.0833984836935997,0,0,0
6585,219912.6344863792,2010-08-22 03:26:44,5702.892445615611,2,18,0.550297200679779,4.105112075805664,19.77821084660019,18.87695178791707,78.46770768943745,69.32224695769577,0.0001295089750783,0.0833984836935997,0,0,0
6586,219942.64966020777,2010-08-22 03:27:14,5732.907619439218,2,18,0.550297200679779,4.108187675476074,19.78279782631162,18.87695178791707,78.48654458503133,69.32224695769577,6.47544875391759e-05,0.0833984836935997,0,0,0
6587,219972.6650827713,2010-08-22 03:27:44,5762.923041987724,2,18,0.550297200679779,4.111263751983643,19.787384818495724,18.87695178791707,78.50539598898791,69.32224695769577,6.47544875391759e-05,0.0833984836935997,0,0,0
6588,220002.6802651212,2010-08-22 03:28:14,5792.938224342592,2,18,0.5501165986061096,4.114501476287842,19.791971843759537,18.87695178791707,78.52426209843418,69.32224695769577,6.47544875391759e-05,0.0833984836935997,0,0,0
6589,220032.69557415176,2010-08-22 03:28:44,5822.953533358139,2,18,0.5501165986061096,4.117738723754883,19.79655891444299,18.87695178791707,78.5431431516849,69.32224695769577,9.70840483205393e-05,0.0833984836935997,0,0,0
6590,220062.71092418453,2010-08-22 03:29:14,5852.968883395925,2,18,0.5501165986061096,4.120976448059082,19.801145979377853,18.87695178791707,78.56203896838038,69.32224695769577,6.47544875391759e-05,0.0833984836935997,0,0,0
6591,220092.72645124848,2010-08-22 03:29:44,5882.984410464927,2,18,0.5501165986061096,4.12437629699707,19.805733106705997,18.87695178791707,78.58094999160167,69.32224695769577,9.71794142969884e-05,0.0833984836935997,0,0,0
6592,220122.74166381868,2010-08-22 03:30:14,5912.999623035104,2,18,0.550297200679779,4.1277756690979,19.810320123840107,18.87695178791707,78.59987564331537,69.32224695769577,9.70840483205393e-05,0.0833984836935997,0,0,0
6593,220152.7568582988,2010-08-22 03:30:44,5943.014817530228,2,18,0.5501165986061096,4.130851745605469,19.814907232329585,18.87695178791707,78.61881686855185,69.32224695769577,9.71794142969884e-05,0.0833984836935997,0,0,0
6594,220182.77209273344,2010-08-22 03:31:14,5973.030051964896,2,18,0.550297200679779,4.134413242340088,19.819494264723076,18.87695178791707,78.63777308997216,69.32224695769577,0.0001295089750783,0.0833984836935997,0,0,0
6595,220212.7873900498,2010-08-22 03:31:44,6003.045349281286,2,18,0.550297200679779,4.137650966644287,19.824081302564306,18.87695178791707,78.65674475333074,69.32224695769577,9.71794142969884e-05,0.0833984836935997,0,0,0
6596,220242.80269802772,2010-08-22 03:32:14,6033.060657234184,2,18,0.5504778623580933,4.141050338745117,19.82866842340811,18.87695178791707,78.6757323321545,69.32224695769577,9.70840483205393e-05,0.0833984836935997,0,0,0
6597,220272.81795654245,2010-08-22 03:32:44,6063.075915753879,2,18,0.5501165986061096,4.1444501876831055,19.833255601520293,18.87695178791707,78.69473587423816,69.32224695769577,6.47544875391759e-05,0.0833984836935997,0,0,0
6598,220302.83354306463,2010-08-22 03:33:14,6093.091502296107,2,18,0.5501165986061096,4.148173332214356,19.83784267037893,18.87695178791707,78.71375515913854,69.32224695769577,0.0001295089750783,0.0833984836935997,0,0,0
6599,220332.84864325976,2010-08-22 03:33:44,6123.106602481184,2,18,0.5501165986061096,4.151411056518555,19.842429698900396,18.87695178791707,78.73279021663956,69.32224695769577,6.47544875391759e-05,0.0833984836935997,0,0,0
6600,220362.86392311763,2010-08-22 03:34:14,6153.121882313999,2,18,0.550297200679779,4.154972553253174,19.84701672289284,18.87695178791707,78.75184135202916,69.32224695769577,9.70840483205393e-05,0.0833984836935997,0,0,0
6601,220392.87923648904,2010-08-22 03:34:44,6183.137195695425,2,18,0.550297200679779,4.158696174621582,19.85160375294883,18.87695178791707,78.77090871245068,69.32224695769577,0.0001295089750783,0.0833984836935997,0,0,0
6602,220422.8951622166,2010-08-22 03:35:14,6213.153121423008,2,18,0.550297200679779,4.162257671356201,19.85619093559086,18.87695178791707,78.78999307238092,69.32224695769577,6.47544875391759e-05,0.0833984836935997,0,0,0
6603,220452.8968870161,2010-08-22 03:35:44,6243.154846222509,2,18,0.5499359965324402,4.165657043457031,19.86077599047394,18.87695178791707,78.80908500428764,69.32224695769577,0.0001295089750783,0.0833984836935997,0,0,0
6604,220482.90970020628,2010-08-22 03:36:14,6273.1676594427645,2,18,0.5501165986061096,4.16938066482544,19.86536265827973,18.87695178791707,78.82820027345666,69.32224695769577,9.71794142969884e-05,0.0833984836935997,0,0,0
6605,220512.92482717813,2010-08-22 03:36:44,6303.182786384527,2,18,0.5501165986061096,4.1731038093566895,19.869949629162207,18.87695178791707,78.84733351643727,69.32224695769577,0.0001295089750783,0.0833984836935997,0,0,0
6606,220542.94012363732,2010-08-22 03:37:14,6333.19808284378,2,18,0.5501165986061096,4.176665306091309,19.87453667108247,18.87695178791707,78.86648393875136,69.32224695769577,9.70840483205393e-05,0.0833984836935997,0,0,0
6607,220572.9554441566,2010-08-22 03:37:44,6363.213403388059,2,18,0.550297200679779,4.180550575256348,19.87912372048117,18.87695178791707,78.88565139490436,69.32224695769577,0.0001295089750783,0.0833984836935997,0,0,0
6608,220602.9708612515,2010-08-22 03:38:14,6393.228820462922,2,18,0.5501165986061096,4.184274196624756,19.883710865401177,18.87695178791707,78.9048364125183,69.32224695769577,9.71794142969884e-05,0.0833984836935997,0,0,0
6609,220632.9860481076,2010-08-22 03:38:44,6423.244007313999,2,18,0.550297200679779,4.187997341156006,19.88829789422187,18.87695178791707,78.92403813907283,69.32224695769577,0.0001295089750783,0.0833984836935997,0,0,0
6610,220663.0013491984,2010-08-22 03:39:14,6453.259308404793,2,18,0.5501165986061096,4.191720962524414,19.892884937691715,18.87695178791707,78.94325738185819,69.32224695769577,9.71794142969884e-05,0.0833984836935997,0,0,0
6611,220693.0166840383,2010-08-22 03:39:44,6483.274643269764,2,18,0.5499359965324402,4.195444107055664,19.897471969871848,18.87695178791707,78.96249415511122,69.32224695769577,3.24249267578125e-05,0.0833984836935997,0,0,0
6612,220723.0319579614,2010-08-22 03:40:14,6513.289917197862,2,18,0.5499359965324402,4.199491024017334,19.902058999269588,18.87695178791707,78.9817486150927,69.32224695769577,9.70840483205393e-05,0.0833984836935997,0,0,0
6613,220726.17254875,2010-08-22 03:40:18,6516.4305079613805,2,18,0.5501165986061096,4.200138568878174,19.902538933315025,18.87695178791707,78.98376420212509,69.32224695769577,0.0001618385285837,0.0833984836935997,0,0,0
6614,220756.19466696883,2010-08-22 03:40:48,30.015447946805885,3,18,0.0,4.1274518966674805,19.902538933315025,18.87695178791707,78.98376420212509,69.32224695769577,-0.0002914428769145,0.0833984836935997,0,0,0
6615,220786.2098523362,2010-08-22 03:41:18,60.03063331919554,3,18,0.0,4.118548393249512,19.902538933315025,18.87695178791707,78.98376420212509,69.32224695769577,-0.0001295089750783,0.0833984836935997,0,0,0
6616,220816.22548888804,2010-08-22 03:41:48,90.04626988108825,3,18,0.0,4.113044261932373,19.902538933315025,18.87695178791707,78.98376420212509,69.32224695769577,-0.0001295089750783,0.0833984836935997,0,0,0
6617,220846.19356398712,2010-08-22 03:42:18,120.0143449601314,3,18,0.0,4.109644889831543,19.902538933315025,18.87695178791707,78.98376420212509,69.32224695769577,-6.47544875391759e-05,0.0833984836935997,0,0,0
6618,220846.20150807407,2010-08-22 03:42:18,2.651608625e-06,4,18,1.0001949071884155,4.199653148651123,19.902538934051723,18.87695178791707,78.98376420521898,69.32224695769577,0.0,0.0833984836935997,0,0,0
6619,220847.04522593852,2010-08-22 03:42:19,0.843720496082544,4,18,0.949804961681366,4.199653148651123,19.9027658126945,18.87695178791707,78.98471701273495,69.32224695769577,0.0,0.0833984836935997,0,0,0
6620,220849.09209642463,2010-08-22 03:42:21,2.890590992165088,4,18,0.8992343544960022,4.199491024017334,19.903290377185847,18.87695178791707,78.98691998875982,69.32224695769577,-3.24249267578125e-05,0.0833984836935997,0,0,0
6621,220852.2014371334,2010-08-22 03:42:24,5.999931700931553,4,18,0.8492055535316467,4.199653148651123,19.904044376221137,18.87695178791707,78.9900865133997,69.32224695769577,0.0,0.0833984836935997,0,0,0
6622,220856.35763244092,2010-08-22 03:42:28,10.156127038542213,4,18,0.7989962100982666,4.199653148651123,19.90499459567335,18.87695178791707,78.99407711335301,69.32224695769577,3.24249267578125e-05,0.0833984836935997,0,0,0
6623,220861.6414687117,2010-08-22 03:42:33,15.439963279249824,4,18,0.7489674091339111,4.199491024017334,19.90612924809728,18.87695178791707,78.99884226287435,69.32224695769577,0.0,0.0833984836935997,0,0,0
6624,220868.357519582,2010-08-22 03:42:40,22.15601415450816,4,18,0.6989386677742004,4.199653148651123,19.90747803394856,18.87695178791707,79.00450670372685,69.32224695769577,0.0,0.0833984836935997,0,0,0
6625,220877.1231801452,2010-08-22 03:42:49,30.9216747227706,4,18,0.648909866809845,4.199491024017334,19.90911654472515,18.87695178791707,79.01138789710905,69.32224695769577,-3.24249267578125e-05,0.0833984836935997,0,0,0
6626,220889.09181162756,2010-08-22 03:43:01,42.89030620006786,4,18,0.5988811254501343,4.199653148651123,19.911186789812877,18.87695178791707,79.02008226216529,69.32224695769577,0.0,0.0833984836935997,0,0,0
6627,220906.27898000448,2010-08-22 03:43:18,60.077474577022734,4,18,0.5488523244857788,4.199653148651123,19.91391886842156,18.87695178791707,79.03155612292284,69.32224695769577,0.0,0.0833984836935997,0,0,0
6628,220932.87243633525,2010-08-22 03:43:45,86.67093090780098,4,18,0.4988235831260681,4.199653148651123,19.917774191940428,18.87695178791707,79.0477472201911,69.32224695769577,0.0,0.0833984836935997,0,0,0
6629,220976.77821807784,2010-08-22 03:44:28,130.5767126503748,4,18,0.448794811964035,4.199653148651123,19.923528872853687,18.87695178791707,79.07191498913701,69.32224695769577,3.24249267578125e-05,0.0833984836935997,0,0,0
6630,221046.63947210365,2010-08-22 03:45:38,200.43796667116504,4,18,0.3987660408020019,4.199653148651123,19.93172550065775,18.87695178791707,79.10633816901226,69.32224695769577,0.0,0.0833984836935997,0,0,0
6631,221142.37020809835,2010-08-22 03:47:14,296.16870266587495,4,18,0.3487372696399688,4.199653148651123,19.941643204478197,18.87695178791707,79.14798925675575,69.32224695769577,0.0,0.0833984836935997,0,0,0
6632,221260.1346027099,2010-08-22 03:49:12,413.9330972824578,4,18,0.2985278964042663,4.199814796447754,19.952214565389276,18.87695178791707,79.19238548032082,69.32224695769577,0.0,0.0833984836935997,0,0,0
6633,221402.976848949,2010-08-22 03:51:35,556.7753435466085,4,18,0.2484991252422332,4.199814796447754,19.9630500592662,18.87695178791707,79.23789101531642,69.32224695769577,3.23295607813634e-05,0.0833984836935997,0,0,0
6634,221579.45990794952,2010-08-22 03:54:31,733.2584025170424,4,18,0.1984703540802002,4.199491024017334,19.973978667982035,18.87695178791707,79.28378770588418,69.32224695769577,-3.24249267578125e-05,0.0833984836935997,0,0,0
6635,221810.11308158343,2010-08-22 03:58:22,963.9115761609704,4,18,0.1484415829181671,4.199653148651123,19.985037968219213,18.87695178791707,79.33023320629559,69.32224695769577,3.24249267578125e-05,0.0833984836935997,0,0,0
6636,222147.3907429533,2010-08-22 04:03:59,1301.1892375208213,4,18,0.098412811756134,4.199491024017334,19.996467262127485,18.87695178791707,79.37823248227487,69.32224695769577,-3.24249267578125e-05,0.0833984836935997,0,0,0
6637,222746.63436320765,2010-08-22 04:13:58,1900.432857775147,4,18,0.0498289167881011,4.199653148651123,20.008352258331776,18.87695178791707,79.4281455963162,69.32224695769577,-3.23295607813634e-05,0.0833984836935997,0,0,0
6638,222776.6466344847,2010-08-22 04:14:28,30.0153238224498,5,18,0.0,4.192853927612305,20.008352258331776,18.87695178791707,79.4281455963162,69.32224695769577,-3.24249267578125e-05,0.0833984836935997,0,0,0
6639,222806.646324147,2010-08-22 04:14:58,60.01501349979949,5,18,0.0,4.191882610321045,20.008352258331776,18.87695178791707,79.4281455963162,69.32224695769577,0.0,0.0833984836935997,0,0,0
6640,222806.83175755944,2010-08-22 04:14:59,0.187862365819427,6,18,-1.9243103452026844e-05,4.191720962524414,20.008352258331776,18.87695178892125,79.4281455963162,69.32224696190501,0.0,0.086637258529663,0,0,0
6641,222811.6594700394,2010-08-22 04:15:04,5.0155748156945,6,18,0.0008838032954372,4.191882610321045,20.008353206433316,18.876951789003137,79.42814957073846,69.32224696224826,-3.24249267578125e-05,0.086637258529663,0,0,0
6642,222841.6723849493,2010-08-22 04:15:34,30.01528814853944,7,18,-1.0997490882873535,4.04149055480957,20.008353206433316,18.88612154139958,79.42814957073846,69.3594767223262,-0.0007770538213662,0.086637258529663,0,0,0
6643,222871.68770520287,2010-08-22 04:16:04,60.03060840710694,7,18,-1.099929690361023,4.018988609313965,20.008353206433316,18.895291226221023,79.42814957073846,69.39642409540195,-0.0004857063177041,0.086637258529663,0,0,0
6644,222901.7030149001,2010-08-22 04:16:34,90.04591809933989,7,18,-1.099929690361023,4.003447532653809,20.008353206433316,18.90446088345062,79.42814957073846,69.43320148254165,-0.0003561973571777,0.086637258529663,0,0,0
6645,222931.71840592005,2010-08-22 04:17:04,120.061309114254,7,18,-1.099929690361023,3.9909825325012207,20.008353206433316,18.913630629786745,79.42814957073846,69.46985388558794,-0.0003237724304199,0.086637258529663,0,0,0
6646,222961.7335901897,2010-08-22 04:17:34,150.07649338890775,7,18,-1.099929690361023,3.980459928512573,20.008353206433316,18.92280024357005,79.42814957073846,69.50640236793201,-0.0002913951757363,0.086637258529663,0,0,0
6647,222991.7491236296,2010-08-22 04:18:04,180.0920268237762,7,18,-1.099568486213684,3.9712324142456055,20.008353206433316,18.931969884606584,79.42814957073846,69.54285889161952,-0.0002266406954731,0.086637258529663,0,0,0
6648,223021.76425343347,2010-08-22 04:18:34,210.1071566226596,7,18,-1.0997490882873535,3.962166786193848,20.008353206433316,18.941139471115708,79.42814957073846,69.57923061224572,-0.0002590179501567,0.086637258529663,0,0,0
6649,223051.77955147668,2010-08-22 04:19:04,240.1224546758845,7,18,-1.099929690361023,3.95358681678772,20.008353206433316,18.95030913623401,79.42814957073846,69.61552244717473,-0.0002266406954731,0.086637258529663,0,0,0
6650,223081.79484986071,2010-08-22 04:19:34,270.1377530549215,7,18,-1.0997490882873535,3.945330619812012,20.008353206433316,18.959478701732586,79.42814957073846,69.65173696993888,-0.0001942634553415,0.086637258529663,0,0,0
6651,223111.81023839445,2010-08-22 04:20:04,300.1531416036892,7,18,-1.0997490882873535,3.937398195266724,20.008353206433316,18.968648357211222,79.42814957073846,69.68787732687926,-0.0001942634553415,0.086637258529663,0,0,0
6652,223141.82547577645,2010-08-22 04:20:34,330.16837897567785,7,18,-1.0997490882873535,3.9296276569366455,20.008353206433316,18.97781794434214,79.42814957073846,69.72394469784511,-0.0001618862152099,0.086637258529663,0,0,0
6653,223171.8408091277,2010-08-22 04:21:04,360.1837123268762,7,18,-1.0997490882873535,3.921695232391357,20.008353206433316,18.98698755050344,79.42814957073846,69.75994099515738,-0.0002590179501567,0.086637258529663,0,0,0
6654,223201.85609525617,2010-08-22 04:21:34,390.1989985405935,7,18,-1.099568486213684,3.914248466491699,20.008353206433316,18.99615720435744,79.42814957073846,69.7958675738745,-0.0002266406954731,0.086637258529663,0,0,0
6655,223231.8713865726,2010-08-22 04:22:04,420.21428976680346,7,18,-1.099929690361023,3.90680193901062,20.008353206433316,19.00532682571708,79.42814957073846,69.83172552523827,-0.0001942634553415,0.086637258529663,0,0,0
6656,223261.88682333656,2010-08-22 04:22:34,450.22972652572565,7,18,-1.0997490882873535,3.899678945541382,20.008353206433316,19.01449648070269,79.42814957073846,69.86751587979322,-0.0001618862152099,0.086637258529663,0,0,0
6657,223291.90199034315,2010-08-22 04:23:04,480.2448935373546,7,18,-1.0997490882873535,3.8923940658569336,20.008353206433316,19.02366611530521,79.42814957073846,69.90323944219858,-0.0001618862152099,0.086637258529663,0,0,0
6658,223321.91734526312,2010-08-22 04:23:34,510.2602485024214,7,18,-1.099929690361023,3.885109186172485,20.008353206433316,19.03283574529307,79.42814957073846,69.93889746214879,-0.0001942634553415,0.086637258529663,0,0,0
6659,223351.93264909572,2010-08-22 04:24:04,540.275552289938,7,18,-1.099929690361023,3.877986192703247,20.008353206433316,19.04200536024895,79.42814957073846,69.97449028019693,-0.0002266406954731,0.086637258529663,0,0,0
6660,223381.9479128986,2010-08-22 04:24:34,570.2908160978129,7,18,-1.099929690361023,3.8711869716644287,20.008353206433316,19.051174997389893,79.42814957073846,70.01001891446894,-0.0001618862152099,0.086637258529663,0,0,0
6661,223411.9632335331,2010-08-22 04:25:04,600.306136727305,7,18,-1.0997490882873535,3.8642258644104,20.008353206433316,19.060344674560667,79.42814957073846,70.04548435458868,-0.0001942634553415,0.086637258529663,0,0,0
6662,223441.97852086963,2010-08-22 04:25:34,630.3214240738456,7,18,-1.0997490882873535,3.857588529586792,20.008353206433316,19.069514376927103,79.42814957073846,70.08088733548688,-0.0001942634553415,0.086637258529663,0,0,0
6663,223471.9938407372,2010-08-22 04:26:04,660.3367439364262,7,18,-1.099929690361023,3.850627422332764,20.008353206433316,19.07868407662314,79.42814957073846,70.11622847115812,-0.0001942634553415,0.086637258529663,0,0,0
6664,223502.0091423844,2010-08-22 04:26:34,690.3520455785958,7,18,-1.099929690361023,3.844313859939575,20.008353206433316,19.08785375451207,79.42814957073846,70.15150869642717,-0.0001295089750783,0.086637258529663,0,0,0
6665,223532.0244519513,2010-08-22 04:27:04,720.3673551806039,7,18,-1.0997490882873535,3.8378384113311768,20.008353206433316,19.097023453328788,79.42814957073846,70.18672898073937,-0.0001618862152099,0.086637258529663,0,0,0
6666,223562.03974626012,2010-08-22 04:27:34,750.3826494594219,7,18,-1.0997490882873535,3.831363201141357,20.008353206433316,19.106193136351635,79.42814957073846,70.22189008699789,-0.0001618862152099,0.086637258529663,0,0,0
6667,223592.05505870428,2010-08-22 04:28:04,780.397961898501,7,18,-1.099929690361023,3.824887752532959,20.008353206433316,19.11536284061665,79.42814957073846,70.25699311177893,-0.0001942634553415,0.086637258529663,0,0,0
6668,223622.0703506874,2010-08-22 04:28:34,810.4132538815971,7,18,-1.0997490882873535,3.8188979625701904,20.008353206433316,19.12453252408394,79.42814957073846,70.29203866534161,-0.0001618862152099,0.086637258529663,0,0,0
6669,223652.08578833356,2010-08-22 04:29:04,840.4286915327432,7,18,-1.0997490882873535,3.812746286392212,20.008353206433316,19.133702281598524,79.42814957073846,70.3270280372216,-0.0001295089750783,0.086637258529663,0,0,0
6670,223682.10099602657,2010-08-22 04:29:34,870.4438992107252,7,18,-1.0997490882873535,3.8065946102142334,20.008353206433316,19.142871949554703,79.42814957073846,70.36196075723578,-0.0001618862152099,0.086637258529663,0,0,0
6671,223712.11630865108,2010-08-22 04:30:04,900.4592118703538,7,18,-1.099568486213684,3.800766706466675,20.008353206433316,19.152041599616997,79.42814957073846,70.39683880180213,-0.0001295089750783,0.086637258529663,0,0,0
6672,223742.13174125465,2010-08-22 04:30:34,930.4746444689072,7,18,-1.0997490882873535,3.794938802719116,20.008353206433316,19.16121126943905,79.42814957073846,70.43166325787024,-0.0001295089750783,0.086637258529663,0,0,0
6673,223772.14689141928,2010-08-22 04:31:04,960.4897946134982,7,18,-1.099929690361023,3.7891108989715576,20.008353206433316,19.170380883012072,79.42814957073846,70.4664348122268,-0.0001942634553415,0.086637258529663,0,0,0
6674,223802.16221077065,2010-08-22 04:31:34,990.5051139648044,7,18,-1.0997490882873535,3.783606767654419,20.008353206433316,19.17955054116756,79.42814957073846,70.50115492453526,-0.0001295089750783,0.086637258529663,0,0,0
6675,223832.1775243375,2010-08-22 04:32:04,1020.5204275316944,7,18,-1.0997490882873535,3.77826452255249,20.008353206433316,19.18872024749825,79.42814957073846,70.53582451447264,-0.0001295089750783,0.086637258529663,0,0,0
6676,223862.192810471,2010-08-22 04:32:34,1050.5357136752368,7,18,-1.0997490882873535,3.772760391235352,20.008353206433316,19.19788990467915,79.42814957073846,70.57044414831674,-0.0001295089750783,0.086637258529663,0,0,0
6677,223892.20825643287,2010-08-22 04:33:04,1080.5511596270703,7,18,-1.1001102924346924,3.767256259918213,20.008353206433316,19.20705964005141,79.42814957073846,70.60501507142189,-0.0001942634553415,0.086637258529663,0,0,0
6678,223922.2235851024,2010-08-22 04:33:34,1110.5664883367008,7,18,-1.0997490882873535,3.762237787246704,20.008353206433316,19.216229404664507,79.42814957073846,70.63953826380786,-0.0001942634553415,0.086637258529663,0,0,0
6679,223952.23898556587,2010-08-22 04:34:04,1140.5818887600635,7,18,-1.0997490882873535,3.7572193145751953,20.008353206433316,19.225399161506324,79.42814957073846,70.67401433877153,-0.0001295089750783,0.086637258529663,0,0,0
6680,223982.2540607236,2010-08-22 04:34:34,1170.5969639277894,7,18,-1.099929690361023,3.752039194107056,20.008353206433316,19.234568899796205,79.42814957073846,70.70844404312982,-0.0001618862152099,0.086637258529663,0,0,0
6681,224012.2693481954,2010-08-22 04:35:04,1200.612251399642,7,18,-1.099929690361023,3.747344493865967,20.008353206433316,19.24373859538695,79.42814957073846,70.74282829515805,-0.0001295089750783,0.086637258529663,0,0,0
6682,224042.28473475424,2010-08-22 04:35:34,1230.6276379785002,7,18,-1.0997490882873535,3.742649793624878,20.008353206433316,19.252908312122543,79.42814957073846,70.77716816953662,-0.0001295089750783,0.086637258529663,0,0,0
6683,224072.3026581707,2010-08-22 04:36:04,1260.6455613648634,7,18,-1.099568486213684,3.737793207168579,20.008353206433316,19.26207877134421,79.42814957073846,70.81146709225646,-0.0001295089750783,0.086637258529663,0,0,0
6684,224102.31527938737,2010-08-22 04:36:34,1290.6581825866006,7,18,-1.0997490882873535,3.7332603931427,20.008353206433316,19.271247633524688,79.42814957073846,70.84571728496651,-0.0001295089750783,0.086637258529663,0,0,0
6685,224132.3305977512,2010-08-22 04:37:04,1320.6735009504455,7,18,-1.0997490882873535,3.728727579116821,20.008353206433316,19.28041730603774,79.42814957073846,70.87992834006447,-9.713172767078504e-05,0.086637258529663,0,0,0
6686,224162.34593767385,2010-08-22 04:37:34,1350.6888408730222,7,18,-1.0997490882873535,3.724032878875733,20.008353206433316,19.289586918119458,79.42814957073846,70.9140987092426,-0.0001618862152099,0.086637258529663,0,0,0
6687,224192.3612241582,2010-08-22 04:38:04,1380.7041273524014,7,18,-1.0997490882873535,3.7198238372802734,20.008353206433316,19.29875655537757,79.42814957073846,70.94822852523959,-0.0001295089750783,0.086637258529663,0,0,0
6688,224222.37664522804,2010-08-22 04:38:34,1410.7195484522963,7,18,-1.0997490882873535,3.7156147956848153,20.008353206433316,19.30792628139642,79.42814957073846,70.98231875047044,-0.0001295089750783,0.086637258529663,0,0,0
6689,224252.3918125053,2010-08-22 04:39:04,1440.7347157045251,7,18,-1.099929690361023,3.7112438678741455,20.008353206433316,19.317095913293663,79.42814957073846,71.01636952212041,-0.0001295089750783,0.086637258529663,0,0,0
6690,224282.4071177765,2010-08-22 04:39:34,1470.7500209757395,7,18,-1.0997490882873535,3.707196712493897,20.008353206433316,19.32626561324088,79.42814957073846,71.05038199521573,-9.713172767078504e-05,0.086637258529663,0,0,0
6691,224312.42257531223,2010-08-22 04:40:04,1500.765478511444,7,18,-1.0997490882873535,3.7029876708984375,20.008353206433316,19.33543531151035,79.42814957073846,71.0843567837466,-0.0001295089750783,0.086637258529663,0,0,0
6692,224342.43772714605,2010-08-22 04:40:34,1530.7806303452453,7,18,-1.0997490882873535,3.6991024017333984,20.008353206433316,19.34460496293686,79.42814957073846,71.11829424524286,-9.713172767078504e-05,0.086637258529663,0,0,0
6693,224372.4530662365,2010-08-22 04:41:04,1560.7959694557974,7,18,-1.099929690361023,3.695055246353149,20.008353206433316,19.353774609931165,79.42814957073846,71.15219516978837,-6.47544875391759e-05,0.086637258529663,0,0,0
6694,224402.4683498488,2010-08-22 04:41:35,1590.8112530429687,7,18,-1.0997490882873535,3.69133186340332,20.008353206433316,19.362944314904347,79.42814957073846,71.18606048733284,-6.47544875391759e-05,0.086637258529663,0,0,0
6695,224432.48395606503,2010-08-22 04:42:05,1620.826859254218,7,18,-1.099929690361023,3.687446594238281,20.008353206433316,19.37211401764612,79.42814957073846,71.21989037643823,-6.47544875391759e-05,0.086637258529663,0,0,0
6696,224462.49908966332,2010-08-22 04:42:35,1650.8419928575836,7,18,-1.099568486213684,3.683723211288452,20.008353206433316,19.381283623719185,79.42814957073846,71.25368543000029,-6.47544875391759e-05,0.086637258529663,0,0,0
6697,224492.5142696624,2010-08-22 04:43:05,1680.857172866606,7,18,-1.0997490882873535,3.679999828338623,20.008353206433316,19.39045328145556,79.42814957073846,71.2874466495527,-9.713172767078504e-05,0.086637258529663,0,0,0
6698,224522.51429178327,2010-08-22 04:43:35,1710.8571950175822,7,18,-1.099929690361023,3.676438331604004,20.008353206433316,19.399618360394363,79.42814957073846,71.32115750069289,-9.713172767078504e-05,0.086637258529663,0,0,0
6699,224552.5292683653,2010-08-22 04:44:05,1740.8721715595022,7,18,-1.0997490882873535,3.6728768348693848,20.008353206433316,19.408788007965843,79.42814957073846,71.35485250420489,-9.713172767078504e-05,0.086637258529663,0,0,0
6700,224582.54470910417,2010-08-22 04:44:35,1770.887612303356,7,18,-1.0997490882873535,3.6694774627685542,20.008353206433316,19.417957781890653,79.42814957073846,71.38851590776252,-9.713172767078504e-05,0.086637258529663,0,0,0
6701,224612.55986459204,2010-08-22 04:45:05,1800.9027678163268,7,18,-1.0997490882873535,3.666239738464356,20.008353206433316,19.427127566999346,79.42814957073846,71.42214785752374,-3.237724376958795e-05,0.086637258529663,0,0,0
6702,224642.57517940705,2010-08-22 04:45:35,1830.9180826062648,7,18,-1.099929690361023,3.6625163555145264,20.008353206433316,19.43629817530163,79.42814957073846,71.45575192875464,-0.0001295089750783,0.086637258529663,0,0,0
6703,224672.5904907133,2010-08-22 04:46:05,1860.933393942596,7,18,-1.099929690361023,3.659278631210327,20.008353206433316,19.44546877183945,79.42814957073846,71.48932589232041,-9.713172767078504e-05,0.086637258529663,0,0,0
6704,224702.6058198941,2010-08-22 04:46:35,1890.9487231083624,7,18,-1.099929690361023,3.656202793121338,20.008353206433316,19.45463937912023,79.42814957073846,71.52287050569518,-9.713172767078504e-05,0.086637258529663,0,0,0
6705,224732.62126175076,2010-08-22 04:47:05,1920.964164975015,7,18,-1.0997490882873535,3.653288841247559,20.008353206433316,19.463809908705493,79.42814957073846,71.55638639869782,-6.47544875391759e-05,0.086637258529663,0,0,0
6706,224762.6364224416,2010-08-22 04:47:35,1950.979325640828,7,18,-1.0997490882873535,3.650213003158569,20.008353206433316,19.472979536123965,79.42814957073846,71.58987141839299,-6.47544875391759e-05,0.086637258529663,0,0,0
6707,224792.6516960289,2010-08-22 04:48:05,1980.9945992130383,7,18,-1.0997490882873535,3.6474609375,20.008353206433316,19.48214923945736,79.42814957073846,71.62332963781785,-6.47544875391759e-05,0.086637258529663,0,0,0
6708,224822.6671709078,2010-08-22 04:48:35,2011.0100740969804,7,18,-1.0997490882873535,3.6445469856262207,20.008353206433316,19.49131894396652,79.42814957073846,71.6567611198382,-3.237724376958795e-05,0.086637258529663,0,0,0
6709,224852.68236537284,2010-08-22 04:49:05,2041.025268567044,7,18,-1.0997490882873535,3.6417949199676514,20.008353206433316,19.50048852946865,79.42814957073846,71.69016680361865,-6.47544875391759e-05,0.086637258529663,0,0,0
6710,224882.6976628647,2010-08-22 04:49:35,2071.04056605887,7,18,-1.099929690361023,3.638880968093872,20.008353206433316,19.509658153589843,79.42814957073846,71.72354773630909,-9.713172767078504e-05,0.086637258529663,0,0,0
6711,224912.71303601508,2010-08-22 04:50:05,2101.0559392543723,7,18,-1.099568486213684,3.636452674865722,20.008353206433316,19.518827843801127,79.42814957073846,71.75690451392224,-6.47544875391759e-05,0.086637258529663,0,0,0
6712,224942.72850421732,2010-08-22 04:50:35,2131.071407466686,7,18,-1.0997490882873535,3.6338624954223633,20.008353206433316,19.52799760202851,79.42814957073846,71.79023792959292,-9.713172767078504e-05,0.086637258529663,0,0,0
6713,224972.7435948135,2010-08-22 04:51:05,2161.0864980077267,7,18,-1.099929690361023,3.631272315979004,20.008353206433316,19.53716719337709,79.42814957073846,71.82354741219719,-9.713172767078504e-05,0.086637258529663,0,0,0
6714,225002.75891514728,2010-08-22 04:51:35,2191.1018183414826,7,18,-1.0997490882873535,3.6288440227508554,20.008353206433316,19.546336875001646,79.42814957073846,71.85683440942157,-3.237724376958795e-05,0.086637258529663,0,0,0
6715,225032.77419993244,2010-08-22 04:52:05,2221.1171031266385,7,18,-1.0997490882873535,3.626577615737915,20.008353206433316,19.55550656691613,79.42814957073846,71.89009873508992,-3.237724376958795e-05,0.086637258529663,0,0,0
6716,225062.7896956583,2010-08-22 04:52:35,2251.13259886255,7,18,-1.099929690361023,3.623987436294556,20.008353206433316,19.56467624532818,79.42814957073846,71.92334069235486,-6.47544875391759e-05,0.086637258529663,0,0,0
6717,225092.8048194573,2010-08-22 04:53:05,2281.147722656467,7,18,-1.099929690361023,3.6215591430664062,20.008353206433316,19.57384588155148,79.42814957073846,71.95656021142858,-6.47544875391759e-05,0.086637258529663,0,0,0
6718,225122.8201350041,2010-08-22 04:53:35,2311.163038198278,7,18,-1.099929690361023,3.618968963623047,20.008353206433316,19.583015615116825,79.42814957073846,71.98975787423257,-9.713172767078504e-05,0.086637258529663,0,0,0
6719,225152.8354601248,2010-08-22 04:54:05,2341.178363323977,7,18,-1.099929690361023,3.6165406703948975,20.008353206433316,19.592185380104684,79.42814957073846,72.02293327970015,-9.713172767078504e-05,0.086637258529663,0,0,0
6720,225182.8507767643,2010-08-22 04:54:35,2371.1936799835744,7,18,-1.0997490882873535,3.614274263381958,20.008353206433316,19.60135507579882,79.42814957073846,72.05608607753501,-6.47544875391759e-05,0.086637258529663,0,0,0
6721,225212.86617741323,2010-08-22 04:55:05,2401.2090806124493,7,18,-1.0997490882873535,3.6118459701538086,20.008353206433316,19.61052476501127,79.42814957073846,72.08921640501107,-3.237724376958795e-05,0.086637258529663,0,0,0
6722,225242.88135256013,2010-08-22 04:55:35,2431.224255759354,7,18,-1.0997490882873535,3.609255790710449,20.008353206433316,19.619694469535293,79.42814957073846,72.12232386346558,-3.237724376958795e-05,0.086637258529663,0,0,0
6723,225272.89665437271,2010-08-22 04:56:05,2461.2395575719484,7,18,-1.0997490882873535,3.6068274974823,20.008353206433316,19.62886424604498,79.42814957073846,72.15540845231067,-6.47544875391759e-05,0.086637258529663,0,0,0
6724,225302.91198585427,2010-08-22 04:56:35,2491.254889048475,7,18,-1.099929690361023,3.604237318038941,20.008353206433316,19.638033937729688,79.42814957073846,72.1884691949625,-6.47544875391759e-05,0.086637258529663,0,0,0
6725,225332.9272713011,2010-08-22 04:57:05,2521.270174495281,7,18,-1.099929690361023,3.601485252380371,20.008353206433316,19.64720362770389,79.42814957073846,72.22150608237723,-9.713172767078504e-05,0.086637258529663,0,0,0
6726,225362.94261029636,2010-08-22 04:57:35,2551.285513490546,7,18,-1.0997490882873535,3.5987331867218018,20.008353206433316,19.6563733594123,79.42814957073846,72.25451869399923,-9.713172767078504e-05,0.086637258529663,0,0,0
6727,225392.9578954775,2010-08-22 04:58:05,2581.3007986716893,7,18,-1.099929690361023,3.5959811210632324,20.008353206433316,19.665543167918965,79.42814957073846,72.28750649247328,-9.713172767078504e-05,0.086637258529663,0,0,0
6728,225422.9732078464,2010-08-22 04:58:35,2611.316111045606,7,18,-1.099568486213684,3.593229055404663,20.008353206433316,19.67471286651462,79.42814957073846,72.32046808792958,-9.713172767078504e-05,0.086637258529663,0,0,0
6729,225452.98851767892,2010-08-22 04:59:05,2641.3314208731763,7,18,-1.0997490882873535,3.590315341949463,20.008353206433316,19.683882627387785,79.42814957073846,72.35340350080628,-6.47544875391759e-05,0.086637258529663,0,0,0
6730,225483.00381595275,2010-08-22 04:59:35,2671.3467191519635,7,18,-1.0997490882873535,3.5872395038604736,20.008353206433316,19.69305241357331,79.42814957073846,72.38631182265365,-9.713172767078504e-05,0.086637258529663,0,0,0
6731,225513.01912226155,2010-08-22 05:00:05,2701.3620254407138,7,18,-1.0997490882873535,3.5841636657714844,20.008353206433316,19.70222218041152,79.42814957073846,72.41919185262344,-9.713172767078504e-05,0.086637258529663,0,0,0
6732,225543.0344638934,2010-08-22 05:00:35,2731.377367087588,7,18,-1.0997490882873535,3.580925941467285,20.008353206433316,19.711391936519828,79.42814957073846,72.45204296516998,-9.713172767078504e-05,0.086637258529663,0,0,0
6733,225573.04974727504,2010-08-22 05:01:05,2761.392650494309,7,18,-1.0997490882873535,3.577688217163086,20.008353206433316,19.72056171647619,79.42814957073846,72.4848640926598,-9.713172767078504e-05,0.086637258529663,0,0,0
6734,225603.06503902256,2010-08-22 05:01:35,2791.407942216756,7,18,-1.0997490882873535,3.574126720428467,20.008353206433316,19.72973154055455,79.42814957073846,72.51765426476635,-6.47544875391759e-05,0.086637258529663,0,0,0
6735,225633.0803525544,2010-08-22 05:02:05,2821.42325575357,7,18,-1.099929690361023,3.570565223693848,20.008353206433316,19.738901333912057,79.42814957073846,72.55041226324518,-9.713172767078504e-05,0.086637258529663,0,0,0
6736,225663.09566732924,2010-08-22 05:02:35,2851.4385705234586,7,18,-1.0997490882873535,3.5668418407440186,20.008353206433316,19.748071073074037,79.42814957073846,72.5831366260811,-9.713172767078504e-05,0.086637258529663,0,0,0
6737,225693.11122087424,2010-08-22 05:03:05,2881.4541240784724,7,18,-1.099929690361023,3.5629565715789795,20.008353206433316,19.75724087030957,79.42814957073846,72.61582619580093,-9.713172767078504e-05,0.086637258529663,0,0,0
6738,225723.12630252316,2010-08-22 05:03:35,2911.4692057223383,7,18,-1.0997490882873535,3.5589094161987305,20.008353206433316,19.76641059849612,79.42814957073846,72.64848000435978,-0.0001295089750783,0.086637258529663,0,0,0
6739,225753.14158235097,2010-08-22 05:04:05,2941.4844855451274,7,18,-1.099929690361023,3.554862260818481,20.008353206433316,19.775580349517824,79.42814957073846,72.68109606759694,-9.713172767078504e-05,0.086637258529663,0,0,0
6740,225783.15691349664,2010-08-22 05:04:35,2971.49981671088,7,18,-1.099929690361023,3.5503294467926025,20.008353206433316,19.784750124436705,79.42814957073846,72.71367302623892,-0.0001618862152099,0.086637258529663,0,0,0
6741,225813.1721942417,2010-08-22 05:05:05,3001.515097435917,7,18,-1.0997490882873535,3.5459585189819336,20.008353206433316,19.793919885728236,79.42814957073846,72.74620929902983,-0.0001295089750783,0.086637258529663,0,0,0
6742,225843.1874983099,2010-08-22 05:05:35,3031.530401504134,7,18,-1.0997490882873535,3.5412638187408447,20.008353206433316,19.803089629482766,79.42814957073846,72.77870337159351,-0.0001618862152099,0.086637258529663,0,0,0
6743,225873.20294441213,2010-08-22 05:06:05,3061.545847616367,7,18,-1.099929690361023,3.536407232284546,20.008353206433316,19.81225942643712,79.42814957073846,72.81115438009354,-0.0001618862152099,0.086637258529663,0,0,0
6744,225903.21833292584,2010-08-22 05:06:35,3091.5612361200224,7,18,-1.0997490882873535,3.531712532043457,20.008353206433316,19.821429257054163,79.42814957073846,72.84356094801406,-9.713172767078504e-05,0.086637258529663,0,0,0
6745,225933.23343512596,2010-08-22 05:07:05,3121.5763383201206,7,18,-1.099929690361023,3.526694059371948,20.008353206433316,19.83059895602718,79.42814957073846,72.87592154665207,-9.713172767078504e-05,0.086637258529663,0,0,0
6746,225963.24885952903,2010-08-22 05:07:35,3151.5917627332738,7,18,-1.099929690361023,3.5213518142700195,20.008353206433316,19.839768765109607,79.42814957073846,72.90823522686054,-9.713172767078504e-05,0.086637258529663,0,0,0
6747,225993.2640573625,2010-08-22 05:08:05,3181.6069605566954,7,18,-1.099929690361023,3.515685796737671,20.008353206433316,19.848938507173205,79.42814957073846,72.94049936186472,-0.0001618862152099,0.086637258529663,0,0,0
6748,226023.28195706985,2010-08-22 05:08:35,3211.624860354268,7,18,-1.099929690361023,3.509696245193481,20.008353206433316,19.858109065262227,79.42814957073846,72.97271388915227,-0.0002266406954731,0.086637258529663,0,0,0
6749,226053.29465418577,2010-08-22 05:09:05,3241.637557379932,7,18,-1.099929690361023,3.503220796585083,20.008353206433316,19.86727808499952,79.42814957073846,73.00486639719522,-0.0001942634553415,0.086637258529663,0,0,0
6750,226083.3099580384,2010-08-22 05:09:35,3271.652861237623,7,18,-1.099929690361023,3.4962596893310547,20.008353206433316,19.876447814751103,79.42814957073846,73.03695923213216,-0.0001618862152099,0.086637258529663,0,0,0
6751,226113.3252667332,2010-08-22 05:10:05,3301.668169927357,7,18,-1.099929690361023,3.4881653785705566,20.008353206433316,19.88561753986292,79.42814957073846,73.06898196187439,-0.0001942634553415,0.086637258529663,0,0,0
6752,226143.3405890268,2010-08-22 05:10:35,3331.683492220997,7,18,-1.099929690361023,3.478290319442749,20.008353206433316,19.89478729109199,79.42814957073846,73.1009236525096,-0.0002913951757363,0.086637258529663,0,0,0
6753,226173.35600772573,2010-08-22 05:11:05,3361.698910919908,7,18,-1.1001102924346924,3.466796398162842,20.008353206433316,19.903957035846545,79.42814957073846,73.1327686472313,-0.0003561496851034,0.086637258529663,0,0,0
6754,226203.37121402024,2010-08-22 05:11:35,3391.714117214442,7,18,-1.0997490882873535,3.4523885250091557,20.008353206433316,19.913126762465986,79.42814957073846,73.1644946739774,-0.0004209041653666,0.086637258529663,0,0,0
6755,226233.38649483048,2010-08-22 05:12:05,3421.7293980297045,7,18,-1.099929690361023,3.43280029296875,20.008353206433316,19.92229651492597,79.42814957073846,73.19606681763878,-0.0006151676061563,0.086637258529663,0,0,0
6756,226263.4018243722,2010-08-22 05:12:35,3451.7447275663963,7,18,-1.099929690361023,3.405603647232056,20.008353206433316,19.9314662631112,79.42814957073846,73.22742812741522,-0.0008741855854168,0.086637258529663,0,0,0
6757,226293.4171316033,2010-08-22 05:13:05,3481.760034802508,7,18,-1.0997490882873535,3.366103410720825,20.008353206433316,19.940636042111763,79.42814957073846,73.25848829332696,-0.0012303352123126,0.086637258529663,0,0,0
6758,226323.4323618876,2010-08-22 05:13:35,3511.7752651068818,7,18,-1.0997490882873535,3.308310270309448,20.008353206433316,19.94980576930527,79.42814957073846,73.28910683417168,-0.0017807483673095,0.086637258529663,0,0,0
6759,226353.4477332335,2010-08-22 05:14:06,3541.7906364527744,7,18,-1.0997490882873535,3.223158359527588,20.008353206433316,19.958975233163603,79.42814957073846,73.31907648056361,-0.0026225566398352,0.086637258529663,0,0,0
6760,226383.46331540987,2010-08-22 05:14:36,3571.8062186040597,7,18,-1.0997490882873535,3.087498188018799,20.008353206433316,19.968144703456947,79.42814957073846,73.34806371396823,-0.0045651434920728,0.086637258529663,0,0,0
6761,226405.7909283764,2010-08-22 05:14:58,3594.133831595669,7,18,-1.099929690361023,2.8874073028564453,20.008353206433316,19.974965609830797,79.42814957073846,73.3685471475509,-0.0105226039886474,0.086637258529663,0,0,0
6762,226416.2128960616,2010-08-22 05:15:08,3604.5557992859126,7,18,-1.099929690361023,2.699296236038208,20.008353206433316,19.978149451246896,79.42814957073846,73.37745752063142,-0.0158000476658344,0.086637258529663,0,0,0
6763,226476.23235028904,2010-08-22 05:16:08,60.01512150899164,8,18,0.0,3.3123574256896973,20.008353206433316,19.978149451246896,79.42814957073846,73.37745752063142,0.0012627125252038,0.086637258529663,0,0,0
6764,226476.42453129048,2010-08-22 05:16:09,0.187134221058638,9,18,0.0014256311114877,3.312681198120117,20.00835328054008,19.978149451246896,79.42814981623054,73.37745752063142,0.0,0.0842843055725097,0,0,0
6765,226481.2527259221,2010-08-22 05:16:14,5.01532886270397,9,18,0.0007031940040178,3.3198041915893555,20.008354148510357,19.978149451246896,79.42815269509018,73.37745752063142,0.0011008263099938,0.0842843055725097,0,0,0
