Data_Point,Test_Time(s),Date_Time,Step_Time(s),Step_Index,Cycle_Index,Current(A),Voltage(V),Charge_Capacity(Ah),Discharge_Capacity(Ah),Charge_Energy(Wh),Discharge_Energy(Wh),dV/dt(V/s),Internal_Resistance(Ohm),Is_FC_Data,AC_Impedance(Ohm),ACI_Phase_Angle(Deg)
9004,300626.13767274795,2010-08-23 01:52:06,30.01527484037139,1,25,0.0,3.3520193099975586,26.603219758656248,26.570463348438157,105.56736118951328,97.66238273951272,0.000679874443449,0.0858275592327117,0,0,0
9005,300656.15301646,2010-08-23 01:52:36,60.03061855239211,1,25,0.0,3.3727407455444336,26.603219758656248,26.570463348438157,105.56736118951328,97.66238273951272,0.0004532813909463,0.0858275592327117,0,0,0
9006,300686.168373816,2010-08-23 01:53:06,90.04597592846787,1,25,0.0,3.3884437084198,26.603219758656248,26.570463348438157,105.56736118951328,97.66238273951272,0.0003885269106831,0.0858275592327117,0,0,0
9007,300716.1368209273,2010-08-23 01:53:36,120.0144230397298,1,25,0.0,3.400585174560547,26.603219758656248,26.570463348438157,105.56736118951328,97.66238273951272,0.0003237724304199,0.0858275592327117,0,0,0
9008,300746.1439990832,2010-08-23 01:54:06,30.01531864955736,2,25,0.5501165986061096,3.537216663360596,26.60780692913331,26.570463348438157,105.58343152831328,97.66238273951272,0.0015541076427325,0.0858275592327117,0,0,0
9009,300776.1593328656,2010-08-23 01:54:36,60.03065244185508,2,25,0.5501165986061096,3.5843255519866943,26.612394125712264,26.570463348438157,105.59977143152508,97.66238273951272,0.0011008263099938,0.0858275592327117,0,0,0
9010,300806.17503099586,2010-08-23 01:55:06,90.0463505822203,2,25,0.550297200679779,3.620425939559937,26.616981433918017,26.570463348438157,105.61629948565329,97.66238273951272,0.0008741855854168,0.0858275592327117,0,0,0
9011,300836.1903122321,2010-08-23 01:55:36,120.0616319288072,2,25,0.550297200679779,3.650213003158569,26.621568581603785,26.570463348438157,105.63297658086854,97.66238273951272,0.0007770538213662,0.0858275592327117,0,0,0
9012,300866.2053156611,2010-08-23 01:56:06,150.07663522741294,2,25,0.5501165986061096,3.675305128097534,26.62615563332472,26.570463348438157,105.64977890107969,97.66238273951272,0.0006474971887655,0.0858275592327117,0,0,0
9013,300896.2206695384,2010-08-23 01:56:36,180.0919891097813,2,25,0.550297200679779,3.696997880935669,26.630742742346456,26.570463348438157,105.6666889142056,97.66238273951272,0.0005180359003134,0.0858275592327117,0,0,0
9014,300926.2359802232,2010-08-23 01:57:06,210.10729979950028,2,25,0.5499359965324402,3.715452909469605,26.635329816447097,26.570463348438157,105.68369118104256,97.66238273951272,0.0003885269106831,0.0858275592327117,0,0,0
9015,300956.2512916547,2010-08-23 01:57:36,240.1226112260557,2,25,0.5501165986061096,3.730508327484131,26.63991693130193,26.570463348438157,105.70077068881317,97.66238273951272,0.0003237724304199,0.0858275592327117,0,0,0
9016,300986.2666265197,2010-08-23 01:58:06,270.1379460860144,2,25,0.5501165986061096,3.741192817687988,26.64450413118253,26.570463348438157,105.71790925559966,97.66238273951272,0.0002590179501567,0.0858275592327117,0,0,0
9017,301016.28195838217,2010-08-23 01:58:36,300.1532779485024,2,25,0.5501165986061096,3.747182607650757,26.6490913091227,26.570463348438157,105.73508574260576,97.66238273951272,0.0001295089750783,0.0858275592327117,0,0,0
9018,301046.29729713686,2010-08-23 01:59:06,330.1686167081804,2,25,0.5501165986061096,3.750905990600586,26.653678492062618,26.570463348438157,105.75228367379792,97.66238273951272,9.713172767078504e-05,0.0858275592327117,0,0,0
9019,301076.3126086536,2010-08-23 01:59:36,360.1839282199482,2,25,0.550297200679779,3.753495931625366,26.65826569574434,26.570463348438157,105.7694959200936,97.66238273951272,6.47544875391759e-05,0.0858275592327117,0,0,0
9020,301106.327963739,2010-08-23 02:00:06,390.1992833303772,2,25,0.550297200679779,3.755924224853516,26.662852853231733,26.570463348438157,105.78671989575332,97.66238273951272,6.47544875391759e-05,0.0858275592327117,0,0,0
9021,301136.3432663486,2010-08-23 02:00:36,420.2145859199081,2,25,0.5501165986061096,3.758514404296875,26.66743998576023,26.570463348438157,105.80395504547792,97.66238273951272,6.47544875391759e-05,0.0858275592327117,0,0,0
9022,301166.358620236,2010-08-23 02:01:06,450.2299398022764,2,25,0.550297200679779,3.7611045837402335,26.672027107746853,26.570463348438157,105.82120121759384,97.66238273951272,0.0001295089750783,0.0858275592327117,0,0,0
9023,301196.3739429607,2010-08-23 02:01:36,480.2452625320028,2,25,0.5501165986061096,3.763209104537964,26.676614193286007,26.570463348438157,105.83845827808572,97.66238273951272,6.47544875391759e-05,0.0858275592327117,0,0,0
9024,301226.3892578859,2010-08-23 02:02:06,510.26057746229066,2,25,0.550297200679779,3.765637397766113,26.681201306149752,26.570463348438157,105.85572650843665,97.66238273951272,6.47544875391759e-05,0.0858275592327117,0,0,0
9025,301256.4045792172,2010-08-23 02:02:36,540.275898788519,2,25,0.550297200679779,3.768065690994263,26.685788438144627,26.570463348438157,105.87300580803448,97.66238273951272,6.47544875391759e-05,0.0858275592327117,0,0,0
9026,301286.4199235007,2010-08-23 02:03:06,570.2912430669516,2,25,0.5501165986061096,3.770493984222412,26.69037563842376,26.570463348438157,105.89029637217315,97.66238273951272,3.237724376958795e-05,0.0858275592327117,0,0,0
9027,301316.4352543857,2010-08-23 02:03:36,600.306573977066,2,25,0.550297200679779,3.7729222774505615,26.694962829644997,26.570463348438157,105.90759778442062,97.66238273951272,6.47544875391759e-05,0.0858275592327117,0,0,0
9028,301346.4505546244,2010-08-23 02:04:06,630.3218741956877,2,25,0.5501165986061096,3.775188684463501,26.699549991640808,26.570463348438157,105.924910105632,97.66238273951272,3.237724376958795e-05,0.0858275592327117,0,0,0
9029,301376.4658920056,2010-08-23 02:04:36,660.3372115719178,2,25,0.550297200679779,3.7776169776916495,26.704137138009457,26.570463348438157,105.94223333853448,97.66238273951272,6.47544875391759e-05,0.0858275592327117,0,0,0
9030,301406.4812260034,2010-08-23 02:05:06,690.3525455697277,2,25,0.5501165986061096,3.7802071571350098,26.708724265801056,26.570463348438157,105.95956768170048,97.66238273951272,6.47544875391759e-05,0.0858275592327117,0,0,0
9031,301436.496618507,2010-08-23 02:05:36,720.3679381034269,2,25,0.550297200679779,3.782635450363159,26.71331144058125,26.570463348438157,105.9769135749964,97.66238273951272,6.47544875391759e-05,0.0858275592327117,0,0,0
9032,301466.51186945784,2010-08-23 02:06:06,750.3831890291958,2,25,0.550297200679779,3.785387516021729,26.717898590533085,26.570463348438157,105.99427109132472,97.66238273951272,9.713172767078504e-05,0.0858275592327117,0,0,0
9033,301496.5271976813,2010-08-23 02:06:36,780.3985172476017,2,25,0.5501165986061096,3.787977695465088,26.722485782901508,26.570463348438157,106.01164094955466,97.66238273951272,6.47544875391759e-05,0.0858275592327117,0,0,0
9034,301526.54256536305,2010-08-23 02:07:06,810.4138849544249,2,25,0.5501165986061096,3.790729761123657,26.72707293713492,26.570463348438157,106.02902340226716,97.66238273951272,6.47544875391759e-05,0.0858275592327117,0,0,0
9035,301556.55798303435,2010-08-23 02:07:36,840.429302605725,2,25,0.5499359965324402,3.793643712997437,26.731660115299167,26.570463348438157,106.0464192025476,97.66238273951272,3.237724376958795e-05,0.0858275592327117,0,0,0
9036,301586.5731810533,2010-08-23 02:08:06,870.4445006246337,2,25,0.550297200679779,3.7970433235168457,26.73624720115664,26.570463348438157,106.06382861693,97.66238273951272,9.713172767078504e-05,0.0858275592327117,0,0,0
9037,301616.5885145248,2010-08-23 02:08:36,900.4598341011443,2,25,0.550297200679779,3.800119161605835,26.740834382389306,26.570463348438157,106.08125296726152,97.66238273951272,9.713172767078504e-05,0.0858275592327117,0,0,0
9038,301646.60431341623,2010-08-23 02:09:06,930.4756329825874,2,25,0.5501165986061096,3.803518772125244,26.74542163732009,26.570463348438157,106.09869261106084,97.66238273951272,0.0001295089750783,0.0858275592327117,0,0,0
9039,301676.6191813976,2010-08-23 02:09:36,960.4905009990284,2,25,0.5501165986061096,3.8065946102142334,26.750008749582868,26.570463348438157,106.11614710372092,97.66238273951272,9.713172767078504e-05,0.0858275592327117,0,0,0
9040,301706.63448912493,2010-08-23 02:10:06,990.5058086912768,2,25,0.5501165986061096,3.810156106948853,26.754595954107103,26.570463348438157,106.13361747600652,97.66238273951272,6.47544875391759e-05,0.0858275592327117,0,0,0
9041,301736.649852506,2010-08-23 02:10:36,1020.5211721023936,2,25,0.5504778623580933,3.813717603683472,26.7591831368496,26.570463348438157,106.1511033705686,97.66238273951272,9.713172767078504e-05,0.0858275592327117,0,0,0
9042,301766.6655279949,2010-08-23 02:11:06,1050.5368475712544,2,25,0.550297200679779,3.817117214202881,26.763770390169903,26.570463348438157,106.16860519813004,97.66238273951272,0.0001295089750783,0.0858275592327117,0,0,0
9043,301796.68060075666,2010-08-23 02:11:36,1080.5519203229587,2,25,0.550297200679779,3.82019305229187,26.768357500538592,26.570463348438157,106.18612162550345,97.66238273951272,9.713172767078504e-05,0.0858275592327117,0,0,0
9044,301826.69580997346,2010-08-23 02:12:06,1110.5671295447885,2,25,0.550297200679779,3.8235926628112793,26.77294463388251,26.570463348438157,106.2036530635355,97.66238273951272,9.713172767078504e-05,0.0858275592327117,0,0,0
9045,301856.71113717934,2010-08-23 02:12:36,1140.5824567506709,2,25,0.5501165986061096,3.826668500900269,26.777531790432576,26.570463348438157,106.22119917532244,97.66238273951272,6.47544875391759e-05,0.0858275592327117,0,0,0
9046,301886.7291597579,2010-08-23 02:13:06,1170.600479444539,2,25,0.550297200679779,3.829744338989258,26.78211940201732,26.570463348438157,106.2387614034508,97.66238273951272,6.47544875391759e-05,0.0858275592327117,0,0,0
9047,301916.7417809245,2010-08-23 02:13:36,1200.6131004958513,2,25,0.5501165986061096,3.832658290863037,26.78670622977025,26.570463348438157,106.25633478258251,97.66238273951272,6.47544875391759e-05,0.0858275592327117,0,0,0
9048,301946.7571333432,2010-08-23 02:14:06,1230.6284529346217,2,25,0.550297200679779,3.835895776748657,26.791293381872503,26.570463348438157,106.27392328885291,97.66238273951272,0.0001295089750783,0.0858275592327117,0,0,0
9049,301976.7724529602,2010-08-23 02:14:36,1260.6437725265278,2,25,0.5499359965324402,3.8386478424072266,26.79588057198258,26.570463348438157,106.29152579318432,97.66238273951272,3.237724376958795e-05,0.0858275592327117,0,0,0
9050,302006.78779743914,2010-08-23 02:15:06,1290.6591170104723,2,25,0.5501165986061096,3.841723680496216,26.80046771033638,26.570463348438157,106.30914159036956,97.66238273951272,6.47544875391759e-05,0.0858275592327117,0,0,0
9051,302036.8031030813,2010-08-23 02:15:36,1320.6744226526112,2,25,0.5501165986061096,3.844313859939575,26.80505485360801,26.570463348438157,106.32677053152888,97.66238273951272,0.0,0.0858275592327117,0,0,0
9052,302066.8184157409,2010-08-23 02:16:06,1350.6897353122397,2,25,0.5499359965324402,3.8472278118133545,26.809641998437872,26.570463348438157,106.34441214908423,97.66238273951272,9.713172767078504e-05,0.0858275592327117,0,0,0
9053,302096.83374903194,2010-08-23 02:16:36,1380.705068603288,2,25,0.550297200679779,3.849817991256714,26.81422917941225,26.570463348438157,106.36206600587268,97.66238273951272,6.47544875391759e-05,0.0858275592327117,0,0,0
9054,302126.84908506984,2010-08-23 02:17:06,1410.7204046512077,2,25,0.5501165986061096,3.8522462844848633,26.818816366183423,26.570463348438157,106.37973128942755,97.66238273951272,6.47544875391759e-05,0.0858275592327117,0,0,0
9055,302156.8644423808,2010-08-23 02:17:36,1440.7357619721458,2,25,0.5501165986061096,3.8545126914978023,26.823403549860693,26.570463348438157,106.39740717561536,97.66238273951272,6.47544875391759e-05,0.0858275592327117,0,0,0
9056,302186.8797875364,2010-08-23 02:18:06,1470.7511071277645,2,25,0.5501165986061096,3.856455326080322,26.827990752550143,26.570463348438157,106.41509305442098,97.66238273951272,6.47544875391759e-05,0.0858275592327117,0,0,0
9057,302216.8950589181,2010-08-23 02:18:37,1500.7663784844535,2,25,0.550297200679779,3.858397960662842,26.832577881219,26.570463348438157,106.43278774468438,97.66238273951272,3.237724376958795e-05,0.0858275592327117,0,0,0
9058,302246.910666177,2010-08-23 02:19:07,1530.781985763364,2,25,0.550297200679779,3.860178709030152,26.837165119071965,26.570463348438157,106.45049112087972,97.66238273951272,6.47544875391759e-05,0.0858275592327117,0,0,0
9059,302276.9257883519,2010-08-23 02:19:37,1560.7971079232086,2,25,0.5504778623580933,3.861797571182251,26.841752736493778,26.570463348438157,106.46820365653262,97.66238273951272,3.237724376958795e-05,0.0858275592327117,0,0,0
9060,302306.9414066432,2010-08-23 02:20:07,1590.8127262446403,2,25,0.5504778623580933,3.8632545471191406,26.846340785078976,26.570463348438157,106.48592491544524,97.66238273951272,6.47544875391759e-05,0.0858275592327117,0,0,0
9061,302336.9564651545,2010-08-23 02:20:37,1620.827784725778,2,25,0.550297200679779,3.86454963684082,26.85092860327188,26.570463348438157,106.5036516177952,97.66238273951272,3.237724376958795e-05,0.0858275592327117,0,0,0
9062,302366.9717128973,2010-08-23 02:21:07,1650.8430324636015,2,25,0.550297200679779,3.8658447265625,26.85551659408368,26.570463348438157,106.52138496277196,97.66238273951272,3.237724376958795e-05,0.0858275592327117,0,0,0
9063,302396.9871078821,2010-08-23 02:21:37,1680.8584275386347,2,25,0.5501165986061096,3.86681604385376,26.86010457064411,26.570463348438157,106.5391238068822,97.66238273951272,0.0,0.0858275592327117,0,0,0
9064,302427.0023161315,2010-08-23 02:22:07,1710.873635697816,2,25,0.5501165986061096,3.86811113357544,26.864692532212807,26.570463348438157,106.55686781795846,97.66238273951272,3.237724376958795e-05,0.0858275592327117,0,0,0
9065,302457.01764958294,2010-08-23 02:22:37,1740.8889691492643,2,25,0.5501165986061096,3.869244337081909,26.869280208649123,26.570463348438157,106.5746156817396,97.66238273951272,6.47544875391759e-05,0.0858275592327117,0,0,0
9066,302487.03301432234,2010-08-23 02:23:07,1770.9043338886918,2,25,0.5501165986061096,3.870053768157959,26.873867488704303,26.570463348438157,106.59236673595328,97.66238273951272,0.0,0.0858275592327117,0,0,0
9067,302517.0484624747,2010-08-23 02:23:37,1800.9197820510349,2,25,0.5501165986061096,3.8711869716644287,26.878454801081705,26.570463348438157,106.61012254177514,97.66238273951272,3.237724376958795e-05,0.0858275592327117,0,0,0
9068,302547.0636572856,2010-08-23 02:24:07,1830.9349768469108,2,25,0.5501165986061096,3.8719964027404794,26.883042031178302,26.570463348438157,106.62788247161492,97.66238273951272,3.237724376958795e-05,0.0858275592327117,0,0,0
9069,302577.0789963209,2010-08-23 02:24:37,1860.950315917364,2,25,0.5501165986061096,3.8729677200317374,26.887629374677168,26.570463348438157,106.64564728949844,97.66238273951272,0.0,0.0858275592327117,0,0,0
9070,302607.094302319,2010-08-23 02:25:07,1890.965621885314,2,25,0.5501165986061096,3.873939037322998,26.89221667502864,26.570463348438157,106.66341627173335,97.66238273951272,0.0,0.0858275592327117,0,0,0
9071,302637.1096127481,2010-08-23 02:25:37,1920.980932339446,2,25,0.550297200679779,3.875072240829468,26.896804032563452,26.570463348438157,106.68118949433088,97.66238273951272,6.47544875391759e-05,0.0858275592327117,0,0,0
9072,302667.12494155293,2010-08-23 02:26:07,1950.996261124264,2,25,0.5499359965324402,3.875719785690308,26.90139129817156,26.570463348438157,106.6989666714164,97.66238273951272,0.0,0.0858275592327117,0,0,0
9073,302697.14027254324,2010-08-23 02:26:37,1981.0115921095653,2,25,0.550297200679779,3.876691102981568,26.90597857649709,26.570463348438157,106.71674810516566,97.66238273951272,3.237724376958795e-05,0.0858275592327117,0,0,0
9074,302727.1557435976,2010-08-23 02:27:07,2011.027063168975,2,25,0.550297200679779,3.877662420272827,26.91056595108613,26.570463348438157,106.73453399728864,97.66238273951272,3.237724376958795e-05,0.0858275592327117,0,0,0
9075,302757.17106981605,2010-08-23 02:27:37,2041.0423893924087,2,25,0.5501165986061096,3.878471851348877,26.915153238034424,26.570463348438157,106.75232374752125,97.66238273951272,0.0,0.0858275592327117,0,0,0
9076,302787.18640948803,2010-08-23 02:28:07,2071.057729054336,2,25,0.5501165986061096,3.879281282424927,26.91974054606917,26.570463348438157,106.77011773717236,97.66238273951272,0.0,0.0858275592327117,0,0,0
9077,302817.2017151251,2010-08-23 02:28:37,2101.0730347014864,2,25,0.5501165986061096,3.880414485931397,26.924327972253188,26.570463348438157,106.78791633454408,97.66238273951272,6.47544875391759e-05,0.0858275592327117,0,0,0
9078,302847.2169567978,2010-08-23 02:29:07,2131.088276404269,2,25,0.550297200679779,3.8812239170074463,26.92891528331988,26.570463348438157,106.80571866327776,97.66238273951272,3.237724376958795e-05,0.0858275592327117,0,0,0
9079,302877.2322484601,2010-08-23 02:29:37,2161.1035680264654,2,25,0.550297200679779,3.882033348083496,26.933502630563584,26.570463348438157,106.8235253033102,97.66238273951272,0.0,0.0858275592327117,0,0,0
9080,302907.2475578867,2010-08-23 02:30:07,2191.118877468074,2,25,0.550297200679779,3.883004665374756,26.93808996988318,26.570463348438157,106.84133618048634,97.66238273951272,0.0,0.0858275592327117,0,0,0
9081,302937.26289556373,2010-08-23 02:30:37,2221.134215155079,2,25,0.550297200679779,3.8838140964508057,26.942677283938103,26.570463348438157,106.85915128315352,97.66238273951272,-6.47544875391759e-05,0.0858275592327117,0,0,0
9082,302967.2782322733,2010-08-23 02:31:07,2251.149551844597,2,25,0.5501165986061096,3.8849472999572754,26.947264676952617,26.570463348438157,106.87697088363213,97.66238273951272,3.237724376958795e-05,0.0858275592327117,0,0,0
9083,302997.2935651182,2010-08-23 02:31:37,2281.164884684521,2,25,0.550297200679779,3.886080503463745,26.951851967038888,26.570463348438157,106.89479442925452,97.66238273951272,6.47544875391759e-05,0.0858275592327117,0,0,0
9084,303027.3088581138,2010-08-23 02:32:07,2311.180177710216,2,25,0.550297200679779,3.886889934539795,26.956439262264595,26.570463348438157,106.912622433444,97.66238273951272,3.237724376958795e-05,0.0858275592327117,0,0,0
9085,303057.3241862621,2010-08-23 02:32:37,2341.195505838398,2,25,0.550297200679779,3.8880231380462646,26.961026552337103,26.570463348438157,106.93045483857524,97.66238273951272,6.47544875391759e-05,0.0858275592327117,0,0,0
9086,303087.3395252423,2010-08-23 02:33:07,2371.2108448086,2,25,0.550297200679779,3.888994455337525,26.96561390271959,26.570463348438157,106.94829204473844,97.66238273951272,3.237724376958795e-05,0.0858275592327117,0,0,0
9087,303117.3549154301,2010-08-23 02:33:37,2401.22623511174,2,25,0.550297200679779,3.889803886413574,26.970201262101043,26.570463348438157,106.96613383467034,97.66238273951272,0.0,0.0858275592327117,0,0,0
9088,303147.3701926364,2010-08-23 02:34:07,2431.241512207733,2,25,0.5501165986061096,3.890775203704834,26.974788686727457,26.570463348438157,106.9839804738929,97.66238273951272,3.237724376958795e-05,0.0858275592327117,0,0,0
9089,303177.38559401216,2010-08-23 02:34:37,2461.256913608532,2,25,0.5501165986061096,3.891908407211304,26.97937608769102,26.570463348438157,107.00183173723237,97.66238273951272,0.0,0.0858275592327117,0,0,0
9090,303207.4010037888,2010-08-23 02:35:07,2491.272323355131,2,25,0.5501165986061096,3.893041610717773,26.98396353448028,26.570463348438157,107.0196879272566,97.66238273951272,6.47544875391759e-05,0.0858275592327117,0,0,0
9091,303237.41628194245,2010-08-23 02:35:37,2521.2876015087604,2,25,0.550297200679779,3.894012928009033,26.9885508963051,26.570463348438157,107.0375486383902,97.66238273951272,3.237724376958795e-05,0.0858275592327117,0,0,0
9092,303267.43150431203,2010-08-23 02:36:07,2551.302823883371,2,25,0.5504778623580933,3.894984245300293,26.99313825398537,26.570463348438157,107.05541416177664,97.66238273951272,3.237724376958795e-05,0.0858275592327117,0,0,0
9093,303297.44682102173,2010-08-23 02:36:37,2581.318140588081,2,25,0.550297200679779,3.8961174488067623,26.997725676255605,26.570463348438157,107.07328445008967,97.66238273951272,6.47544875391759e-05,0.0858275592327117,0,0,0
9094,303327.4621454106,2010-08-23 02:37:07,2611.333464981955,2,25,0.550297200679779,3.897250652313232,27.00231302543329,26.570463348438157,107.09115966154998,97.66238273951272,3.237724376958795e-05,0.0858275592327117,0,0,0
9095,303357.4774641003,2010-08-23 02:37:37,2641.348783676625,2,25,0.550297200679779,3.898383855819702,27.006900341604148,26.570463348438157,107.10903981252866,97.66238273951272,3.237724376958795e-05,0.0858275592327117,0,0,0
9096,303387.492794875,2010-08-23 02:38:07,2671.3641144413773,2,25,0.550297200679779,3.899517059326172,27.011487637463805,26.570463348438157,107.1269251105352,97.66238273951272,3.237724376958795e-05,0.0858275592327117,0,0,0
9097,303417.5082159148,2010-08-23 02:38:37,2701.3795355061848,2,25,0.5501165986061096,3.900488376617432,27.01607497742267,26.570463348438157,107.1448157867372,97.66238273951272,0.0,0.0858275592327117,0,0,0
9098,303447.52358747623,2010-08-23 02:39:07,2731.394907052577,2,25,0.550297200679779,3.9017834663391113,27.02066227876923,26.570463348438157,107.16271163017042,97.66238273951272,3.237724376958795e-05,0.0858275592327117,0,0,0
9099,303477.53890282253,2010-08-23 02:39:37,2761.410222388877,2,25,0.550297200679779,3.902916669845581,27.025249538379065,26.570463348438157,107.18061265804172,97.66238273951272,3.237724376958795e-05,0.0858275592327117,0,0,0
9100,303507.5541075632,2010-08-23 02:40:07,2791.4254271546006,2,25,0.5501165986061096,3.9042117595672607,27.029836838191866,26.570463348438157,107.1985193585591,97.66238273951272,3.237724376958795e-05,0.0858275592327117,0,0,0
9101,303537.5695581817,2010-08-23 02:40:37,2821.4408777580275,2,25,0.550297200679779,3.9053449630737305,27.034424269219382,26.570463348438157,107.2164321261977,97.66238273951272,3.237724376958795e-05,0.0858275592327117,0,0,0
9102,303567.58476651635,2010-08-23 02:41:07,2851.4560861177088,2,25,0.550297200679779,3.90664005279541,27.03901157813304,26.570463348438157,107.2343499196654,97.66238273951272,3.237724376958795e-05,0.0858275592327117,0,0,0
9103,303597.60008351674,2010-08-23 02:41:37,2881.4714030930936,2,25,0.5501165986061096,3.90777325630188,27.043598953325382,26.570463348438157,107.25227377401444,97.66238273951272,3.237724376958795e-05,0.0858275592327117,0,0,0
9104,303627.6154363666,2010-08-23 02:42:07,2911.4867559228387,2,25,0.5499359965324402,3.90906834602356,27.048186291991,26.570463348438157,107.27020323413235,97.66238273951272,3.237724376958795e-05,0.0858275592327117,0,0,0
9105,303657.63075825415,2010-08-23 02:42:37,2941.5020778255034,2,25,0.5501165986061096,3.910201549530029,27.052773596743585,26.570463348438157,107.28813848371982,97.66238273951272,0.0,0.0858275592327117,0,0,0
9106,303687.64628592966,2010-08-23 02:43:07,2971.517605511043,2,25,0.5501165986061096,3.911658525466919,27.05736094466003,26.570463348438157,107.30607975823948,97.66238273951272,0.0,0.0858275592327117,0,0,0
9107,303717.6614061597,2010-08-23 02:43:37,3001.532725731053,2,25,0.5501165986061096,3.9131155014038086,27.06194819699803,26.570463348438157,107.32402670449925,97.66238273951272,6.47544875391759e-05,0.0858275592327117,0,0,0
9108,303747.6767302228,2010-08-23 02:44:07,3031.548049779065,2,25,0.5499359965324402,3.914410352706909,27.06653557405139,26.570463348438157,107.3419802435132,97.66238273951272,6.47544875391759e-05,0.0858275592327117,0,0,0
9109,303777.69205946376,2010-08-23 02:44:37,3061.563379020019,2,25,0.550297200679779,3.915705442428589,27.07112292674053,26.570463348438157,107.35993987545432,97.66238273951272,3.237724376958795e-05,0.0858275592327117,0,0,0
9110,303807.71010504966,2010-08-23 02:45:07,3091.5814246159666,2,25,0.550297200679779,3.917000532150269,27.07571069072537,26.570463348438157,107.37790723722593,97.66238273951272,3.237724376958795e-05,0.0858275592327117,0,0,0
9111,303837.7227319355,2010-08-23 02:45:37,3121.594051491795,2,25,0.5501165986061096,3.918457508087158,27.08029759860047,26.570463348438157,107.39587763922164,97.66238273951272,3.237724376958795e-05,0.0858275592327117,0,0,0
9112,303867.7380348659,2010-08-23 02:46:07,3151.609354422176,2,25,0.5501165986061096,3.919914484024048,27.084884926376947,26.570463348438157,107.41385606008691,97.66238273951272,3.237724376958795e-05,0.0858275592327117,0,0,0
9113,303897.753344488,2010-08-23 02:46:37,3181.6246640743084,2,25,0.550297200679779,3.921209573745728,27.08947222283092,26.570463348438157,107.43184082424116,97.66238273951272,3.237724376958795e-05,0.0858275592327117,0,0,0
9114,303927.7686866411,2010-08-23 02:47:07,3211.6400062324565,2,25,0.550297200679779,3.922666549682617,27.094059450125737,26.570463348438157,107.44983181998964,97.66238273951272,3.237724376958795e-05,0.0858275592327117,0,0,0
9115,303957.7840458116,2010-08-23 02:47:37,3241.655365377942,2,25,0.5501165986061096,3.923961639404297,27.098646779037853,26.570463348438157,107.46782980877114,97.66238273951272,3.237724376958795e-05,0.0858275592327117,0,0,0
9116,303987.79937918286,2010-08-23 02:48:07,3271.6706987491903,2,25,0.5501165986061096,3.925580501556397,27.103234131250645,26.570463348438157,107.48583457830324,97.66238273951272,6.47544875391759e-05,0.0858275592327117,0,0,0
9117,304017.8148227387,2010-08-23 02:48:37,3301.6861423050523,2,25,0.5501165986061096,3.927037477493286,27.10782145010476,26.570463348438157,107.50384585758604,97.66238273951272,3.237724376958795e-05,0.0858275592327117,0,0,0
9118,304047.8301337041,2010-08-23 02:49:07,3331.7014532854964,2,25,0.5501165986061096,3.928494453430176,27.11240879935897,26.570463348438157,107.52186408723686,97.66238273951272,3.237724376958795e-05,0.0858275592327117,0,0,0
9119,304077.8453512016,2010-08-23 02:49:37,3361.716670767914,2,25,0.550297200679779,3.9301133155822754,27.11699615448192,26.570463348438157,107.5398892069023,97.66238273951272,6.47544875391759e-05,0.0858275592327117,0,0,0
9120,304107.8606808435,2010-08-23 02:50:07,3391.7320004098674,2,25,0.550297200679779,3.931732177734375,27.121583521343165,26.570463348438157,107.55792135578216,97.66238273951272,3.237724376958795e-05,0.0858275592327117,0,0,0
9121,304137.87601663586,2010-08-23 02:50:38,3421.7473362021497,2,25,0.5504778623580933,3.933027267456055,27.12617086724236,26.570463348438157,107.57596045130192,97.66238273951272,3.237724376958795e-05,0.0858275592327117,0,0,0
9122,304167.8916475236,2010-08-23 02:51:08,3451.7629670949136,2,25,0.5501165986061096,3.934808015823364,27.13075830560272,26.570463348438157,107.59400702625072,97.66238273951272,6.47544875391759e-05,0.0858275592327117,0,0,0
9123,304197.9068016782,2010-08-23 02:51:38,3481.778121249499,2,25,0.5501165986061096,3.936264991760254,27.135345667686693,26.570463348438157,107.61206058753248,97.66238273951272,3.237724376958795e-05,0.0858275592327117,0,0,0
9124,304227.9220311705,2010-08-23 02:52:08,3511.793350741849,2,25,0.5501165986061096,3.9378838539123535,27.13993297235989,26.570463348438157,107.63012109449728,97.66238273951272,3.237724376958795e-05,0.0858275592327117,0,0,0
9125,304257.9373702961,2010-08-23 02:52:38,3541.808689877464,2,25,0.5504778623580933,3.939664602279663,27.144520320976525,26.570463348438157,107.64818930214366,97.66238273951272,6.47544875391759e-05,0.0858275592327117,0,0,0
9126,304287.9526647253,2010-08-23 02:53:08,3571.823984296632,2,25,0.550297200679779,3.9412834644317623,27.149107711626492,26.570463348438157,107.66626526701344,97.66238273951272,9.713172767078504e-05,0.0858275592327117,0,0,0
9127,304317.96797824703,2010-08-23 02:53:38,3601.839297823421,2,25,0.550297200679779,3.9429023265838623,27.153695101375288,26.570463348438157,107.68434885044093,97.66238273951272,6.47544875391759e-05,0.0858275592327117,0,0,0
9128,304347.9833085908,2010-08-23 02:54:08,3631.8546281570993,2,25,0.550297200679779,3.944683074951172,27.158282511255777,26.570463348438157,107.7024403291084,97.66238273951272,9.713172767078504e-05,0.0858275592327117,0,0,0
9129,304377.9986538116,2010-08-23 02:54:38,3661.869973382893,2,25,0.5499359965324402,3.946301937103272,27.16286991245027,26.570463348438157,107.72053976001028,97.66238273951272,3.237724376958795e-05,0.0858275592327117,0,0,0
9130,304408.01400599466,2010-08-23 02:55:08,3691.885325561014,2,25,0.550297200679779,3.947920799255371,27.16745724970273,26.570463348438157,107.7386468456346,97.66238273951272,0.0,0.0858275592327117,0,0,0
9131,304438.0294197964,2010-08-23 02:55:38,3721.90073936272,2,25,0.550297200679779,3.94986343383789,27.172044597517488,26.570463348438157,107.75676215737062,97.66238273951272,6.47544875391759e-05,0.0858275592327117,0,0,0
9132,304468.0446592135,2010-08-23 02:56:08,3751.915978804868,2,25,0.5501165986061096,3.9516441822052,27.176631938736243,26.570463348438157,107.774885747502,97.66238273951272,3.237724376958795e-05,0.0858275592327117,0,0,0
9133,304498.05995330185,2010-08-23 02:56:38,3781.931272868149,2,25,0.550297200679779,3.95358681678772,27.18121926382773,26.570463348438157,107.79301757460316,97.66238273951272,3.237724376958795e-05,0.0858275592327117,0,0,0
9134,304528.07528714923,2010-08-23 02:57:08,3811.946606720596,2,25,0.5499359965324402,3.955367565155029,27.18580662556598,26.570463348438157,107.81115801811158,97.66238273951272,6.47544875391759e-05,0.0858275592327117,0,0,0
9135,304558.09072805353,2010-08-23 02:57:38,3841.962047619837,2,25,0.550297200679779,3.957148313522339,27.190393999794868,26.570463348438157,107.82930706909274,97.66238273951272,3.237724376958795e-05,0.0858275592327117,0,0,0
9136,304588.10592816764,2010-08-23 02:58:08,3871.977247733968,2,25,0.550297200679779,3.959252834320069,27.19498135393209,26.570463348438157,107.84746458445392,97.66238273951272,6.47544875391759e-05,0.0858275592327117,0,0,0
9137,304618.1212696942,2010-08-23 02:58:38,3901.992589265554,2,25,0.5501165986061096,3.961033582687378,27.199568669116925,26.570463348438157,107.86563060535568,97.66238273951272,3.237724376958795e-05,0.0858275592327117,0,0,0
9138,304648.13694957405,2010-08-23 02:59:08,3932.0082691454086,2,25,0.550297200679779,3.962814331054688,27.204156067271565,26.570463348438157,107.88380570040086,97.66238273951272,3.237724376958795e-05,0.0858275592327117,0,0,0
9139,304678.15193876246,2010-08-23 02:59:38,3962.0232583538977,2,25,0.550297200679779,3.964756965637207,27.208743363200902,26.570463348438157,107.9019891792628,97.66238273951272,0.0,0.0858275592327117,0,0,0
9140,304708.167426298,2010-08-23 03:00:08,3992.0387458943824,2,25,0.550297200679779,3.966861486434937,27.21333076385532,26.570463348438157,107.92018188078968,97.66238273951272,6.47544875391759e-05,0.0858275592327117,0,0,0
9141,304738.1825782521,2010-08-23 03:00:38,4022.053897818409,2,25,0.5501165986061096,3.968642234802246,27.217918124015487,26.570463348438157,107.93838323250132,97.66238273951272,6.47544875391759e-05,0.0858275592327117,0,0,0
9142,304768.19794215943,2010-08-23 03:01:08,4052.069261725763,2,25,0.5501165986061096,3.9705848693847656,27.22250546624297,26.570463348438157,107.9565934808886,97.66238273951272,3.237724376958795e-05,0.0858275592327117,0,0,0
9143,304798.2133594549,2010-08-23 03:01:38,4082.084679026189,2,25,0.550297200679779,3.972689390182495,27.22709277911243,26.570463348438157,107.97481253697762,97.66238273951272,6.47544875391759e-05,0.0858275592327117,0,0,0
9144,304828.2285568522,2010-08-23 03:02:08,4112.099876423548,2,25,0.550297200679779,3.9747939109802246,27.231680140403988,26.570463348438157,107.99304071835977,97.66238273951272,9.713172767078504e-05,0.0858275592327117,0,0,0
9145,304858.24387942656,2010-08-23 03:02:38,4142.115198992875,2,25,0.550297200679779,3.976574659347534,27.236267531831366,26.570463348438157,108.0112780729772,97.66238273951272,6.47544875391759e-05,0.0858275592327117,0,0,0
9146,304888.25924263214,2010-08-23 03:03:08,4172.130562198479,2,25,0.550297200679779,3.978355407714844,27.240854961637027,26.570463348438157,108.02952432273992,97.66238273951272,9.713172767078504e-05,0.0858275592327117,0,0,0
9147,304918.27459794306,2010-08-23 03:03:38,4202.145917539483,2,25,0.550297200679779,3.980459928512573,27.245442237344367,26.570463348438157,108.04777944049869,97.66238273951272,3.237724376958795e-05,0.0858275592327117,0,0,0
9148,304948.2898705529,2010-08-23 03:04:08,4232.16119011922,2,25,0.5501165986061096,3.982564449310303,27.250029534123104,26.570463348438157,108.0660438366325,97.66238273951272,3.237724376958795e-05,0.0858275592327117,0,0,0
9149,304978.30520550814,2010-08-23 03:04:38,4262.176525074416,2,25,0.550297200679779,3.984668970108032,27.254616864751185,26.570463348438157,108.08431755804034,97.66238273951272,9.713172767078504e-05,0.0858275592327117,0,0,0
9150,305008.32053217763,2010-08-23 03:05:08,4292.191851743962,2,25,0.5499359965324402,3.986449718475342,27.259204251835367,26.570463348438157,108.10260082671212,97.66238273951272,0.0,0.0858275592327117,0,0,0
9151,305038.33585092745,2010-08-23 03:05:38,4322.20717049377,2,25,0.5501165986061096,3.9885542392730713,27.263791665421373,26.570463348438157,108.12089356890056,97.66238273951272,6.47544875391759e-05,0.0858275592327117,0,0,0
9152,305068.35118652927,2010-08-23 03:06:08,4352.222506100589,2,25,0.5504778623580933,3.9908206462860103,27.268378999555058,26.570463348438157,108.13919542361758,97.66238273951272,9.713172767078504e-05,0.0858275592327117,0,0,0
9153,305098.36652514857,2010-08-23 03:06:38,4382.237844714905,2,25,0.5501165986061096,3.9927632808685294,27.27296636801416,26.570463348438157,108.15750695032293,97.66238273951272,6.47544875391759e-05,0.0858275592327117,0,0,0
9154,305128.3819829249,2010-08-23 03:07:08,4412.253302516271,2,25,0.5499359965324402,3.994705677032471,27.27755366734136,26.570463348438157,108.17582776555224,97.66238273951272,6.47544875391759e-05,0.0858275592327117,0,0,0
9155,305158.39718751016,2010-08-23 03:07:38,4442.268507076483,2,25,0.550297200679779,3.99697208404541,27.28214092276535,26.570463348438157,108.19415816370102,97.66238273951272,3.237724376958795e-05,0.0858275592327117,0,0,0
9156,305188.412491012,2010-08-23 03:08:08,4472.283810578288,2,25,0.5501165986061096,3.99907660484314,27.28672822646132,26.570463348438157,108.21249847624368,97.66238273951272,6.47544875391759e-05,0.0858275592327117,0,0,0
9157,305218.4278184584,2010-08-23 03:08:38,4502.2991380247695,2,25,0.5501165986061096,4.001181125640869,27.29131544468819,26.570463348438157,108.2308483447317,97.66238273951272,3.23295607813634e-05,0.0858275592327117,0,0,0
9158,305248.4431508423,2010-08-23 03:09:08,4532.314470408557,2,25,0.5501165986061096,4.003447532653809,27.295902761188703,26.570463348438157,108.24920866938466,97.66238273951272,6.47544875391759e-05,0.0858275592327117,0,0,0
9159,305278.4584621285,2010-08-23 03:09:38,4562.329781699775,2,25,0.5501165986061096,4.005876064300537,27.30049007360055,26.570463348438157,108.26757903036048,97.66238273951272,6.47544875391759e-05,0.0858275592327117,0,0,0
9160,305308.4738159607,2010-08-23 03:10:08,4592.345135527005,2,25,0.5501165986061096,4.007980346679688,27.305077429537597,26.570463348438157,108.28595982025622,97.66238273951272,6.47544875391759e-05,0.0858275592327117,0,0,0
9161,305338.4891148811,2010-08-23 03:10:38,4622.360434457417,2,25,0.550297200679779,4.010246753692627,27.3096647554772,26.570463348438157,108.30435073487644,97.66238273951272,6.47544875391759e-05,0.0858275592327117,0,0,0
9162,305368.5044603775,2010-08-23 03:11:08,4652.37577994386,2,25,0.550297200679779,4.012675285339356,27.314252059983776,26.570463348438157,108.32275201491532,97.66238273951272,9.71794142969884e-05,0.0858275592327117,0,0,0
9163,305398.51990382315,2010-08-23 03:11:38,4682.391223389448,2,25,0.550297200679779,4.014779567718506,27.318839443127388,26.570463348438157,108.34116410368676,97.66238273951272,6.47544875391759e-05,0.0858275592327117,0,0,0
9164,305428.53523424704,2010-08-23 03:12:08,4712.406553818363,2,25,0.5504778623580933,4.017369747161865,27.32342679127601,26.570463348438157,108.35958665705614,97.66238273951272,0.0001295089750783,0.0858275592327117,0,0,0
9165,305458.55056505185,2010-08-23 03:12:38,4742.421884618202,2,25,0.5501165986061096,4.019312381744385,27.32801419356361,26.570463348438157,108.37802016563842,97.66238273951272,3.23295607813634e-05,0.0858275592327117,0,0,0
9166,305488.56577761204,2010-08-23 03:13:08,4772.437097178352,2,25,0.5501165986061096,4.021740913391113,27.332601506758035,26.570463348438157,108.39646409401826,97.66238273951272,6.47544875391759e-05,0.0858275592327117,0,0,0
9167,305518.58113243175,2010-08-23 03:13:38,4802.452452023119,2,25,0.5501165986061096,4.024168968200684,27.337188843559925,26.570463348438157,108.41491908271398,97.66238273951272,3.23295607813634e-05,0.0858275592327117,0,0,0
9168,305548.5964942389,2010-08-23 03:14:08,4832.467813835251,2,25,0.5501165986061096,4.026597499847412,27.341776141286463,26.570463348438157,108.43338491578584,97.66238273951272,9.71794142969884e-05,0.0858275592327117,0,0,0
9169,305578.6117546032,2010-08-23 03:14:38,4862.483074169468,2,25,0.550297200679779,4.029187679290772,27.34636343952083,26.570463348438157,108.45186191287075,97.66238273951272,9.71794142969884e-05,0.0858275592327117,0,0,0
9170,305608.6274338815,2010-08-23 03:15:08,4892.498753437799,2,25,0.5501165986061096,4.031454086303711,27.350950768577245,26.570463348438157,108.47035023396418,97.66238273951272,6.47544875391759e-05,0.0858275592327117,0,0,0
9171,305638.64240209764,2010-08-23 03:15:38,4922.513721669006,2,25,0.550297200679779,4.03404426574707,27.35553793312137,26.570463348438157,108.48884925483776,97.66238273951272,0.0001295089750783,0.0858275592327117,0,0,0
9172,305668.65785998927,2010-08-23 03:16:08,4952.529179560597,2,25,0.550297200679779,4.036633968353272,27.3601253251532,26.570463348438157,108.50736065402208,97.66238273951272,9.70840483205393e-05,0.0858275592327117,0,0,0
9173,305698.6730613064,2010-08-23 03:16:38,4982.544380872713,2,25,0.5501165986061096,4.038900375366211,27.36471262882293,26.570463348438157,108.52588329495153,97.66238273951272,3.23295607813634e-05,0.0858275592327117,0,0,0
9174,305728.6910438552,2010-08-23 03:17:08,5012.562363421528,2,25,0.5501165986061096,4.04149055480957,27.36930039905961,26.570463348438157,108.54441942380852,97.66238273951272,3.23295607813634e-05,0.0858275592327117,0,0,0
9175,305758.70372462535,2010-08-23 03:17:38,5042.57504419669,2,25,0.5501165986061096,4.04408073425293,27.37388731542858,26.570463348438157,108.5629638934784,97.66238273951272,3.23295607813634e-05,0.0858275592327117,0,0,0
9176,305788.7190971191,2010-08-23 03:18:08,5072.590416715507,2,25,0.5501165986061096,4.046833038330078,27.378474670746304,26.570463348438157,108.5815220340368,97.66238273951272,9.71794142969884e-05,0.0858275592327117,0,0,0
9177,305818.7343708317,2010-08-23 03:18:38,5102.605690403004,2,25,0.550297200679779,4.0494232177734375,27.383062011680178,26.570463348438157,108.60009213985492,97.66238273951272,9.71794142969884e-05,0.0858275592327117,0,0,0
9178,305848.749712263,2010-08-23 03:19:08,5132.621031829328,2,25,0.5499359965324402,4.052013397216797,27.38764939450017,26.570463348438157,108.6186744800798,97.66238273951272,6.47544875391759e-05,0.0858275592327117,0,0,0
9179,305878.765023444,2010-08-23 03:19:38,5162.636343010272,2,25,0.5501165986061096,4.054765224456787,27.39223677294149,26.570463348438157,108.63726906274582,97.66238273951272,6.47544875391759e-05,0.0858275592327117,0,0,0
9180,305908.7804814809,2010-08-23 03:20:08,5192.65180105725,2,25,0.550297200679779,4.057517528533936,27.39682416381133,26.570463348438157,108.65587600340416,97.66238273951272,6.47544875391759e-05,0.0858275592327117,0,0,0
9181,305938.7957078656,2010-08-23 03:20:38,5222.667027456892,2,25,0.550297200679779,4.060269355773926,27.40141150060582,26.570463348438157,108.67449520420207,97.66238273951272,9.70840483205393e-05,0.0858275592327117,0,0,0
9182,305968.81102525693,2010-08-23 03:21:08,5252.682344828264,2,25,0.550297200679779,4.062859535217285,27.405998873477557,26.570463348438157,108.69312673944444,97.66238273951272,6.47544875391759e-05,0.0858275592327117,0,0,0
9183,305998.8264625873,2010-08-23 03:21:38,5282.697782163623,2,25,0.5501165986061096,4.0657734870910645,27.41058620065219,26.570463348438157,108.71177077110852,97.66238273951272,6.47544875391759e-05,0.0858275592327117,0,0,0
9184,306028.84166632046,2010-08-23 03:22:08,5312.712985886749,2,25,0.550297200679779,4.068525791168213,27.415173511075704,26.570463348438157,108.73042750669426,97.66238273951272,0.0001295089750783,0.0858275592327117,0,0,0
9185,306058.8569928396,2010-08-23 03:22:39,5342.728312415945,2,25,0.5501165986061096,4.071115970611572,27.41976082012236,26.570463348438157,108.74909716174936,97.66238273951272,6.47544875391759e-05,0.0858275592327117,0,0,0
9186,306088.87268115045,2010-08-23 03:23:09,5372.744000726812,2,25,0.5504778623580933,4.074191570281982,27.424348217962912,26.570463348438157,108.7677801471912,97.66238273951272,9.70840483205393e-05,0.0858275592327117,0,0,0
9187,306118.8879679055,2010-08-23 03:23:39,5402.759287481878,2,25,0.5501165986061096,4.076943874359131,27.428935564319872,26.570463348438157,108.78647609692791,97.66238273951272,6.47544875391759e-05,0.0858275592327117,0,0,0
9188,306148.903682136,2010-08-23 03:24:09,5432.775001732395,2,25,0.550297200679779,4.080019474029541,27.43352294091093,26.570463348438157,108.80518544152928,97.66238273951272,6.47544875391759e-05,0.0858275592327117,0,0,0
9189,306178.91843813827,2010-08-23 03:24:39,5462.789757704587,2,25,0.5501165986061096,4.0827717781066895,27.43811018967949,26.570463348438157,108.82390758843997,97.66238273951272,6.47544875391759e-05,0.0858275592327117,0,0,0
9190,306208.9336396008,2010-08-23 03:25:09,5492.804959167078,2,25,0.550297200679779,4.0858473777771,27.442697450169263,26.570463348438157,108.84264326988854,97.66238273951272,9.70840483205393e-05,0.0858275592327117,0,0,0
9191,306238.94895453606,2010-08-23 03:25:39,5522.820274102379,2,25,0.550297200679779,4.088761329650879,27.44728474974062,26.570463348438157,108.86139276288615,97.66238273951272,6.47544875391759e-05,0.0858275592327117,0,0,0
9192,306268.9642908697,2010-08-23 03:26:09,5552.83561043601,2,25,0.550297200679779,4.091675281524658,27.4518720837289,26.570463348438157,108.8801561830826,97.66238273951272,9.70840483205393e-05,0.0858275592327117,0,0,0
9193,306298.9796099654,2010-08-23 03:26:39,5582.850929541704,2,25,0.5501165986061096,4.094913005828857,27.45645941786615,26.570463348438157,108.89893340310212,97.66238273951272,9.70840483205393e-05,0.0858275592327117,0,0,0
9194,306328.9949466248,2010-08-23 03:27:09,5612.866266191122,2,25,0.5501165986061096,4.097826957702637,27.461046720173385,26.570463348438157,108.9177245511645,97.66238273951272,6.47544875391759e-05,0.0858275592327117,0,0,0
9195,306359.0104221403,2010-08-23 03:27:39,5642.881741716664,2,25,0.5501165986061096,4.100903034210205,27.465634018463373,26.570463348438157,108.93652979271104,97.66238273951272,6.47544875391759e-05,0.0858275592327117,0,0,0
9196,306389.02572080004,2010-08-23 03:28:09,5672.897040366375,2,25,0.5501165986061096,4.103978633880615,27.47022138137845,26.570463348438157,108.95534952043866,97.66238273951272,6.47544875391759e-05,0.0858275592327117,0,0,0
9197,306419.040919636,2010-08-23 03:28:39,5702.912239207332,2,25,0.550297200679779,4.107216358184815,27.474808713611207,26.570463348438157,108.97418355513628,97.66238273951272,9.70840483205393e-05,0.0858275592327117,0,0,0
9198,306449.0562593832,2010-08-23 03:29:09,5732.927578954471,2,25,0.5501165986061096,4.110292434692383,27.47939608649035,26.570463348438157,108.9930322161556,97.66238273951272,6.47544875391759e-05,0.0858275592327117,0,0,0
9199,306479.0715702533,2010-08-23 03:29:39,5762.94288982464,2,25,0.550297200679779,4.113530158996582,27.483983441159523,26.570463348438157,109.01189544551184,97.66238273951272,6.47544875391759e-05,0.0858275592327117,0,0,0
9200,306509.08690662705,2010-08-23 03:30:09,5792.958226198371,2,25,0.5501165986061096,4.116929531097412,27.488570795397457,26.570463348438157,109.03077336971852,97.66238273951272,0.0001295089750783,0.0858275592327117,0,0,0
9201,306539.10213538754,2010-08-23 03:30:39,5822.97345498396,2,25,0.5501165986061096,4.120167255401611,27.493158169518875,26.570463348438157,109.04966627761831,97.66238273951272,9.71794142969884e-05,0.0858275592327117,0,0,0
9202,306569.1177525311,2010-08-23 03:31:09,5852.989072122444,2,25,0.5499359965324402,4.1232428550720215,27.497745621132676,26.570463348438157,109.06857446603443,97.66238273951272,6.47544875391759e-05,0.0858275592327117,0,0,0
9203,306599.13281620014,2010-08-23 03:31:39,5883.004135786499,2,25,0.5501165986061096,4.12664270401001,27.502332881146604,26.570463348438157,109.08749698335065,97.66238273951272,9.71794142969884e-05,0.0858275592327117,0,0,0
9204,306629.14843055664,2010-08-23 03:32:09,5913.019750208211,2,25,0.550297200679779,4.130204200744629,27.50692026279988,26.570463348438157,109.10643523968352,97.66238273951272,0.0001295089750783,0.0858275592327117,0,0,0
9205,306659.163615087,2010-08-23 03:32:39,5943.034934653289,2,25,0.550297200679779,4.133441925048828,27.51150756927912,26.570463348438157,109.1253885937684,97.66238273951272,9.71794142969884e-05,0.0858275592327117,0,0,0
9206,306689.1789133507,2010-08-23 03:33:09,5973.05023291704,2,25,0.5501165986061096,4.136841297149658,27.51609492095752,26.570463348438157,109.14435760977364,97.66238273951272,9.70840483205393e-05,0.0858275592327117,0,0,0
9207,306719.19422452163,2010-08-23 03:33:39,6003.065544087957,2,25,0.550297200679779,4.140241146087647,27.5206822637218,26.570463348438157,109.16334219891188,97.66238273951272,9.71794142969884e-05,0.0858275592327117,0,0,0
9208,306749.2095465145,2010-08-23 03:34:09,6033.08086608586,2,25,0.5501165986061096,4.143478870391846,27.525269642607828,26.570463348438157,109.1823426983112,97.66238273951272,6.47544875391759e-05,0.0858275592327117,0,0,0
9209,306779.22490853217,2010-08-23 03:34:39,6063.096228098491,2,25,0.550297200679779,4.147202014923096,27.5298569898164,26.570463348438157,109.20135919241557,97.66238273951272,6.47544875391759e-05,0.0858275592327117,0,0,0
9210,306809.2402394723,2010-08-23 03:35:09,6093.111559038681,2,25,0.5501165986061096,4.150601863861084,27.53444433773977,26.570463348438157,109.2203917893418,97.66238273951272,6.47544875391759e-05,0.0858275592327117,0,0,0
9211,306839.25553776114,2010-08-23 03:35:39,6123.126857327493,2,25,0.5501165986061096,4.154163360595703,27.539031639427897,26.570463348438157,109.2394402907246,97.66238273951272,9.71794142969884e-05,0.0858275592327117,0,0,0
9212,306869.2709861541,2010-08-23 03:36:09,6153.142305730436,2,25,0.5501165986061096,4.157724857330322,27.54361891102488,26.570463348438157,109.25850485293192,97.66238273951272,9.71794142969884e-05,0.0858275592327117,0,0,0
9213,306899.28619335586,2010-08-23 03:36:39,6183.157512922206,2,25,0.550297200679779,4.161286354064941,27.548206230112093,26.570463348438157,109.27758601007568,97.66238273951272,9.71794142969884e-05,0.0858275592327117,0,0,0
9214,306929.3015541956,2010-08-23 03:37:09,6213.172873761915,2,25,0.550297200679779,4.165009498596191,27.552793509762,26.570463348438157,109.29668341448613,97.66238273951272,0.0001295089750783,0.0858275592327117,0,0,0
9215,306959.31687083014,2010-08-23 03:37:39,6243.188190401462,2,25,0.550297200679779,4.1685709953308105,27.55738077943297,26.570463348438157,109.31579741127533,97.66238273951272,9.70840483205393e-05,0.0858275592327117,0,0,0
9216,306989.33221374016,2010-08-23 03:38:09,6273.203533331534,2,25,0.5501165986061096,4.172294616699219,27.56196808677015,26.570463348438157,109.33492831514327,97.66238273951272,9.71794142969884e-05,0.0858275592327117,0,0,0
9217,307019.34752258525,2010-08-23 03:38:39,6303.218842151593,2,25,0.5499359965324402,4.175856113433838,27.566555409616697,26.570463348438157,109.3540761296474,97.66238273951272,0.0001295089750783,0.0858275592327117,0,0,0
9218,307049.3629674143,2010-08-23 03:39:09,6333.234286980629,2,25,0.550297200679779,4.179741382598877,27.57114272687257,26.570463348438157,109.37324091803384,97.66238273951272,0.0001619339018361,0.0858275592327117,0,0,0
9219,307079.378154922,2010-08-23 03:39:39,6363.249474488341,2,25,0.5501165986061096,4.183464527130127,27.575730036662925,26.570463348438157,109.39242283861503,97.66238273951272,9.70840483205393e-05,0.0858275592327117,0,0,0
9220,307109.3934927193,2010-08-23 03:40:09,6393.26481228562,2,25,0.5501165986061096,4.187188148498535,27.58031744967656,26.570463348438157,109.41162245716096,97.66238273951272,0.0001295089750783,0.0858275592327117,0,0,0
9221,307139.40896180377,2010-08-23 03:40:39,6423.280281370107,2,25,0.550297200679779,4.191073417663574,27.58490484450857,26.570463348438157,109.43083945222236,97.66238273951272,0.0001295089750783,0.0858275592327117,0,0,0
9222,307169.4241283192,2010-08-23 03:41:09,6453.295447900537,2,25,0.550297200679779,4.194796562194824,27.589492101950057,26.570463348438157,109.4500734180616,97.66238273951272,6.47544875391759e-05,0.0858275592327117,0,0,0
9223,307199.4394585175,2010-08-23 03:41:39,6483.310778108902,2,25,0.5501165986061096,4.198681831359863,27.5940793527612,26.570463348438157,109.46932496578653,97.66238273951272,9.71794142969884e-05,0.0858275592327117,0,0,0
9224,307209.09558711114,2010-08-23 03:41:49,6492.966906697461,2,25,0.550297200679779,4.200138568878174,27.595555104276105,26.570463348438157,109.47552211984764,97.66238273951272,0.0001618385285837,0.0858275592327117,0,0,0
9225,307239.1047937395,2010-08-23 03:42:19,30.015462427897223,3,25,0.0,4.1279377937316895,27.595555104276105,26.570463348438157,109.47552211984764,97.66238273951272,-0.0003561019839253,0.0858275592327117,0,0,0
9226,307269.1199098292,2010-08-23 03:42:49,60.03057855270058,3,25,0.0,4.119195938110352,27.595555104276105,26.570463348438157,109.47552211984764,97.66238273951272,-0.0001618385285837,0.0858275592327117,0,0,0
9227,307299.1353176059,2010-08-23 03:43:19,90.04598631435269,3,25,0.0,4.113853931427002,27.595555104276105,26.570463348438157,109.47552211984764,97.66238273951272,-0.0001295089750783,0.0858275592327117,0,0,0
9228,307329.1037790078,2010-08-23 03:43:49,120.01444769116875,3,25,0.0,4.110616207122803,27.595555104276105,26.570463348438157,109.47552211984764,97.66238273951272,-6.47544875391759e-05,0.0858275592327117,0,0,0
9229,307329.1143243425,2010-08-23 03:43:49,2.666646103e-06,4,25,0.9965827465057372,4.199814796447754,27.595555105014306,26.570463348438157,109.47552212294796,97.66238273951272,0.0,0.0858275592327117,0,0,0
9230,307330.0049661208,2010-08-23 03:43:50,0.890644419938925,4,25,0.9465540051460266,4.199653148651123,27.595793933456097,26.570463348438157,109.47652511046805,97.66238273951272,-3.23295607813634e-05,0.0858275592327117,0,0,0
9231,307332.0518080908,2010-08-23 03:43:52,2.937486420000617,4,25,0.8963446021080017,4.199491024017334,27.59631664305183,26.570463348438157,109.47872026879904,97.66238273951272,-6.47544875391759e-05,0.0858275592327117,0,0,0
9232,307335.1612430094,2010-08-23 03:43:55,6.046921308491934,4,25,0.8459545969963074,4.199491024017334,27.59706792522419,26.570463348438157,109.48187533443476,97.66238273951272,0.0,0.0858275592327117,0,0,0
9233,307339.3487118352,2010-08-23 03:43:59,10.234390164332645,4,25,0.7959258556365967,4.199653148651123,27.59802160723002,26.570463348438157,109.48588040233804,97.66238273951272,3.24249267578125e-05,0.0858275592327117,0,0,0
9234,307344.6298023025,2010-08-23 03:44:05,15.51548061669083,4,25,0.7458970546722412,4.199491024017334,27.599151092860563,26.570463348438157,109.49062379530778,97.66238273951272,-3.24249267578125e-05,0.0858275592327117,0,0,0
9235,307351.4109901492,2010-08-23 03:44:11,22.29666845329899,4,25,0.6958683133125305,4.199653148651123,27.600507241232464,26.570463348438157,109.49631908797518,97.66238273951272,3.24249267578125e-05,0.0858275592327117,0,0,0
9236,307360.23900825664,2010-08-23 03:44:20,31.124686585798457,4,25,0.645839512348175,4.199329376220703,27.602149905948966,26.570463348438157,109.50321762780804,97.66238273951272,-9.70840483205393e-05,0.0858275592327117,0,0,0
9237,307372.3326384843,2010-08-23 03:44:32,43.21831681845523,4,25,0.5958107709884644,4.199491024017334,27.604231566661763,26.570463348438157,109.51195977690917,97.66238273951272,0.0,0.0858275592327117,0,0,0
9238,307389.769961674,2010-08-23 03:44:50,60.65563999313674,4,25,0.5457819700241089,4.199491024017334,27.60698872135307,26.570463348438157,109.52353875422764,97.66238273951272,-3.24249267578125e-05,0.0858275592327117,0,0,0
9239,307416.94158012763,2010-08-23 03:45:17,87.82725844180882,4,25,0.4957532286643982,4.199491024017334,27.61090501180252,26.570463348438157,109.53998577282908,97.66238273951272,-3.24249267578125e-05,0.0858275592327117,0,0,0
9240,307461.76954719983,2010-08-23 03:46:02,132.65522553903574,4,25,0.4457244575023651,4.199653148651123,27.61674163531752,26.570463348438157,109.5644977020284,97.66238273951272,-3.23295607813634e-05,0.0858275592327117,0,0,0
9241,307532.2372703182,2010-08-23 03:47:12,203.12294865241063,4,25,0.395695686340332,4.199653148651123,27.62494798772884,26.570463348438157,109.59896175418125,97.66238273951272,0.0,0.0858275592327117,0,0,0
9242,307627.76758685603,2010-08-23 03:48:48,298.65326517011624,4,25,0.3456669151782989,4.199653148651123,27.63476305899709,26.570463348438157,109.64018192256457,97.66238273951272,0.0,0.0858275592327117,0,0,0
9243,307745.20393199235,2010-08-23 03:50:45,416.08961030645605,4,25,0.2956381440162658,4.199491024017334,27.64520449724317,26.570463348438157,109.68403263135788,97.66238273951272,-6.47544875391759e-05,0.0858275592327117,0,0,0
9244,307887.21838503104,2010-08-23 03:53:07,558.1040633301459,4,25,0.2456093728542328,4.199653148651123,27.655858078431557,26.570463348438157,109.72877429746217,97.66238273951272,0.0,0.0858275592327117,0,0,0
9245,308062.1854183792,2010-08-23 03:56:02,733.0710967183596,4,25,0.1955806016921997,4.199491024017334,27.6665509868692,26.570463348438157,109.77368111595874,97.66238273951272,-3.24249267578125e-05,0.0858275592327117,0,0,0
9246,308294.7609909126,2010-08-23 03:59:55,965.6466692267652,4,25,0.1455518305301666,4.199653148651123,27.677514534222084,26.570463348438157,109.81972447848337,97.66238273951272,3.24249267578125e-05,0.0858275592327117,0,0,0
9247,308632.5858660175,2010-08-23 04:05:33,1303.4715443166044,4,25,0.0955230668187141,4.199653148651123,27.688694565897887,26.570463348438157,109.86667739295837,97.66238273951272,-3.23295607813634e-05,0.0858275592327117,0,0,0
9248,309172.68885313696,2010-08-23 04:14:33,1843.574531471128,4,25,0.0498289167881011,4.199814796447754,27.69924734486191,26.570463348438157,109.91099632646122,97.66238273951272,3.23295607813634e-05,0.0858275592327117,0,0,0
9249,309202.70253781,2010-08-23 04:15:03,30.01517946767328,5,25,0.0,4.192853927612305,27.69924734486191,26.570463348438157,109.91099632646122,97.66238273951272,-6.47544875391759e-05,0.0858275592327117,0,0,0
9250,309232.70217333734,2010-08-23 04:15:33,60.01481500007712,5,25,0.0,4.191720962524414,27.69924734486191,26.570463348438157,109.91099632646122,97.66238273951272,-0.0001295089750783,0.0858275592327117,0,0,0
9251,309232.9044598114,2010-08-23 04:15:33,0.187419461966748,6,25,-1.9243103452026844e-05,4.191720962524414,27.69924734486191,26.57046334943997,109.91099632646122,97.66238274371204,0.0,0.0873680263757705,0,0,0
9252,309237.73264276393,2010-08-23 04:15:38,5.015602394429193,6,25,0.0007031940040178,4.191720962524414,27.69924827869364,26.570463349606964,109.9110002410853,97.66238274441204,-6.47544875391759e-05,0.0873680263757705,0,0,0
9253,309267.76268603344,2010-08-23 04:16:08,30.01523961758537,7,25,-1.0997490882873535,4.04035758972168,27.69924827869364,26.579632547101752,109.9110002410853,97.69960246283014,-0.0008093834039755,0.0873680263757705,0,0,0
9254,309297.77795789635,2010-08-23 04:16:38,60.03051150559857,7,25,-1.0997490882873535,4.017531871795654,27.69924827869364,26.588801732076888,109.9110002410853,97.73653653527288,-0.0004856109735555,0.0873680263757705,0,0,0
9255,309327.79319809546,2010-08-23 04:17:08,90.04575171967056,7,25,-1.0997490882873535,4.001667022705078,27.69924827869364,26.59797165382589,109.9110002410853,97.77330064865608,-0.0003885269106831,0.0873680263757705,0,0,0
9256,309357.8084672216,2010-08-23 04:17:38,120.0610208458003,7,25,-1.099929690361023,3.989039897918701,27.69924827869364,26.607141558153145,109.9110002410853,97.80993710420476,-0.0003561496851034,0.0873680263757705,0,0,0
9257,309387.82372798683,2010-08-23 04:18:08,150.0762815709923,7,25,-1.0997490882873535,3.9785172939300537,27.69924827869364,26.61631064470641,109.9110002410853,97.84646502961708,-0.0002913951757363,0.0873680263757705,0,0,0
9258,309417.83899004536,2010-08-23 04:18:38,180.09154363953238,7,25,-1.099568486213684,3.968804121017456,27.69924827869364,26.62547969670571,109.9110002410853,97.882898754835,-0.0002590179501567,0.0873680263757705,0,0,0
9259,309447.85422858025,2010-08-23 04:19:08,210.1067821794318,7,25,-1.099568486213684,3.959576606750488,27.69924827869364,26.63464876099476,109.9110002410853,97.919245953742,-0.0002266406954731,0.0873680263757705,0,0,0
9260,309477.86948249844,2010-08-23 04:19:38,240.1220360826213,7,25,-1.0997490882873535,3.9508347511291504,27.69924827869364,26.6438178223177,109.9110002410853,97.95551106960494,-0.0002266406954731,0.0873680263757705,0,0,0
9261,309507.8847383966,2010-08-23 04:20:08,270.13729199080785,7,25,-1.0997490882873535,3.942416667938232,27.69924827869364,26.652986845977733,109.9110002410853,97.99169721661568,-0.0001942634553415,0.0873680263757705,0,0,0
9262,309537.8999658288,2010-08-23 04:20:38,300.152519428036,7,25,-1.0997490882873535,3.934160470962525,27.69924827869364,26.66215581875113,109.9110002410853,98.0278067091538,-0.0001942634553415,0.0873680263757705,0,0,0
9263,309567.9153421421,2010-08-23 04:21:08,330.1678957413091,7,25,-1.0997490882873535,3.9260661602020255,27.69924827869364,26.67132487297452,109.9110002410853,98.0638419154612,-0.0001942634553415,0.0873680263757705,0,0,0
9264,309597.9304888331,2010-08-23 04:21:38,360.18304242728027,7,25,-1.0997490882873535,3.918295621871948,27.69924827869364,26.68049387127789,109.9110002410853,98.09980375627876,-0.0001942634553415,0.0873680263757705,0,0,0
9265,309627.94573759846,2010-08-23 04:22:08,390.1982911976773,7,25,-1.1001102924346924,3.910201549530029,27.69924827869364,26.68966299382014,109.9110002410853,98.13569454171136,-0.0002590179501567,0.0873680263757705,0,0,0
9266,309657.9611409341,2010-08-23 04:22:38,420.21369452828594,7,25,-1.0997490882873535,3.902916669845581,27.69924827869364,26.698832150368787,109.9110002410853,98.17151513062224,-0.0001942634553415,0.0873680263757705,0,0,0
9267,309687.97623659286,2010-08-23 04:23:08,450.22879019209415,7,25,-1.099929690361023,3.894984245300293,27.69924827869364,26.708001208112066,109.9110002410853,98.20726573089674,-0.0002590179501567,0.0873680263757705,0,0,0
9268,309717.9914673133,2010-08-23 04:23:38,480.2440209074925,7,25,-1.099568486213684,3.887861251831055,27.69924827869364,26.71717027348616,109.9110002410853,98.24294801611047,-0.0002266406954731,0.0873680263757705,0,0,0
9269,309748.00670197856,2010-08-23 04:24:08,510.2592555877726,7,25,-1.0997490882873535,3.880414485931397,27.69924827869364,26.72633933138408,109.9110002410853,98.27856243844298,-0.0002266406954731,0.0873680263757705,0,0,0
9270,309778.0219790294,2010-08-23 04:24:38,540.2745326436658,7,25,-1.0997490882873535,3.873291492462158,27.69924827869364,26.73550843789301,109.9110002410853,98.31411017655316,-0.0001618862152099,0.0873680263757705,0,0,0
9271,309808.0373209821,2010-08-23 04:25:08,570.2898746063265,7,25,-1.0997490882873535,3.86633038520813,27.69924827869364,26.74467762200572,109.9110002410853,98.3495924168191,-0.0001618862152099,0.0873680263757705,0,0,0
9272,309838.0525449507,2010-08-23 04:25:38,600.3050985548598,7,25,-1.099929690361023,3.8590455055236816,27.69924827869364,26.753846723560567,109.9110002410853,98.3850094574044,-0.0001942634553415,0.0873680263757705,0,0,0
9273,309868.06766578724,2010-08-23 04:26:08,630.3202193813813,7,25,-1.0997490882873535,3.8522462844848633,27.69924827869364,26.76301575662856,109.9110002410853,98.42036219457292,-0.0001618862152099,0.0873680263757705,0,0,0
9274,309898.0860251301,2010-08-23 04:26:38,660.3385788145068,7,25,-1.0997490882873535,3.845447063446045,27.69924827869364,26.77218578595299,109.9110002410853,98.45565529091222,-0.0001618862152099,0.0873680263757705,0,0,0
9275,309928.09816328785,2010-08-23 04:27:08,690.3507168820753,7,25,-1.0997490882873535,3.8384859561920166,27.69924827869364,26.78135393899272,109.9110002410853,98.4908785967524,-0.0001942634553415,0.0873680263757705,0,0,0
9276,309958.1134002839,2010-08-23 04:27:38,720.365953878127,7,25,-1.0997490882873535,3.8318488597869873,27.69924827869364,26.790523069768707,109.9110002410853,98.52604402120002,-0.0001618862152099,0.0873680263757705,0,0,0
9277,309988.1286484128,2010-08-23 04:28:08,750.3812020369999,7,25,-1.0997490882873535,3.825373411178589,27.69924827869364,26.79969216470205,109.9110002410853,98.56114872621426,-0.0001618862152099,0.0873680263757705,0,0,0
9278,310018.1438586922,2010-08-23 04:28:38,780.3964122914032,7,25,-1.099568486213684,3.8188979625701904,27.69924827869364,26.808861231477746,109.9110002410853,98.59619373639696,-0.0001618862152099,0.0873680263757705,0,0,0
9279,310048.1591956474,2010-08-23 04:29:08,810.4117492515961,7,25,-1.0997490882873535,3.812260627746582,27.69924827869364,26.818030313375203,109.9110002410853,98.63118030041562,-0.0002590179501567,0.0873680263757705,0,0,0
9280,310078.1743084088,2010-08-23 04:29:38,840.426862002992,7,25,-1.0997490882873535,3.8062708377838135,27.69924827869364,26.82719927349676,109.9110002410853,98.66610802746897,-0.0001295089750783,0.0873680263757705,0,0,0
9281,310108.1894990594,2010-08-23 04:30:08,870.4420526535365,7,25,-1.0997490882873535,3.800119161605835,27.69924827869364,26.83636833695149,109.9110002410853,98.70097946746938,-0.0001618862152099,0.0873680263757705,0,0,0
9282,310138.2047991226,2010-08-23 04:30:38,900.4573527418336,7,25,-1.0997490882873535,3.793967485427856,27.69924827869364,26.84553734123292,109.9110002410853,98.73579488139666,-0.0001942634553415,0.0873680263757705,0,0,0
9283,310168.21998547245,2010-08-23 04:31:08,930.4725390916592,7,25,-1.0997490882873535,3.788139581680298,27.69924827869364,26.85470626110997,109.9110002410853,98.77055517147964,-0.0001295089750783,0.0873680263757705,0,0,0
9284,310198.23525183665,2010-08-23 04:31:38,960.4878054559056,7,25,-1.0997490882873535,3.7823116779327393,27.69924827869364,26.863875211807795,109.9110002410853,98.80526184856063,-0.0001618862152099,0.0873680263757705,0,0,0
9285,310228.250450412,2010-08-23 04:32:09,990.5030040061384,7,25,-1.0997490882873535,3.776645660400391,27.69924827869364,26.873044130907925,109.9110002410853,98.8399155229491,-0.0001618862152099,0.0873680263757705,0,0,0
9286,310258.26599102974,2010-08-23 04:32:39,1020.5185446690213,7,25,-1.0997490882873535,3.770817756652832,27.69924827869364,26.882213251790898,109.9110002410853,98.87451807476076,-0.0001618862152099,0.0873680263757705,0,0,0
9287,310288.281038734,2010-08-23 04:33:09,1050.533592338212,7,25,-1.0997490882873535,3.7654755115509033,27.69924827869364,26.89138222376032,109.9110002410853,98.9090691846216,-0.0001618862152099,0.0873680263757705,0,0,0
9288,310318.2963084165,2010-08-23 04:33:39,1080.5488620207286,7,25,-1.0997490882873535,3.760133266448975,27.69924827869364,26.900551260428877,109.9110002410853,98.94357061559228,-0.0001618862152099,0.0873680263757705,0,0,0
9289,310348.3114163659,2010-08-23 04:34:09,1110.563970827293,7,25,-1.099568486213684,3.754791021347046,27.69924827869364,26.909720309173068,109.9110002410853,98.97802353429964,-0.0001618862152099,0.0873680263757705,0,0,0
9290,310378.32661782345,2010-08-23 04:34:39,1140.579171447685,7,25,-1.0997490882873535,3.749610900878906,27.69924827869364,26.91888942787244,109.9110002410853,99.01242852683836,-0.0001618862152099,0.0873680263757705,0,0,0
9291,310408.3418537067,2010-08-23 04:35:09,1170.594407325951,7,25,-1.0997490882873535,3.7445924282073975,27.69924827869364,26.92805851603215,109.9110002410853,99.04678661336908,-0.0001295089750783,0.0873680263757705,0,0,0
9292,310438.3570606128,2010-08-23 04:35:39,1200.6096142069464,7,25,-1.0997490882873535,3.739735841751098,27.69924827869364,26.937227545191423,109.9110002410853,99.08109848648128,-9.713172767078504e-05,0.0873680263757705,0,0,0
9293,310468.372292887,2010-08-23 04:36:09,1230.6248464812302,7,25,-1.0997490882873535,3.73471736907959,27.69924827869364,26.94639659683946,109.9110002410853,99.1153650770192,-0.0001618862152099,0.0873680263757705,0,0,0
9294,310498.387613717,2010-08-23 04:36:39,1260.6401673463092,7,25,-1.0997490882873535,3.729860782623291,27.69924827869364,26.955565679769613,109.9110002410853,99.14958725222763,-0.0001295089750783,0.0873680263757705,0,0,0
9295,310528.40300733346,2010-08-23 04:37:09,1290.6555609376446,7,25,-1.099929690361023,3.725327968597412,27.69924827869364,26.964734716451105,109.9110002410853,99.18376640285422,-0.0001295089750783,0.0873680263757705,0,0,0
9296,310558.4179807075,2010-08-23 04:37:39,1320.6705343016442,7,25,-1.099568486213684,3.7206332683563232,27.69924827869364,26.9739036599108,109.9110002410853,99.21790265129609,-0.0001295089750783,0.0873680263757705,0,0,0
9297,310588.4332030871,2010-08-23 04:38:09,1350.685756681267,7,25,-1.099929690361023,3.716100454330444,27.69924827869364,26.983072728711623,109.9110002410853,99.25199713672316,-0.0001295089750783,0.0873680263757705,0,0,0
9298,310618.44847860414,2010-08-23 04:38:39,1380.7010322233875,7,25,-1.0993878841400146,3.711729526519776,27.69924827869364,26.99224177584689,109.9110002410853,99.28605051130796,-0.0001295089750783,0.0873680263757705,0,0,0
9299,310648.4636530894,2010-08-23 04:39:09,1410.7162066986182,7,25,-1.099568486213684,3.7073585987091056,27.69924827869364,27.001410802664964,109.9110002410853,99.32006310016476,-0.0001295089750783,0.0873680263757705,0,0,0
9300,310678.4788744465,2010-08-23 04:39:39,1440.7314280657176,7,25,-1.0997490882873535,3.7029876708984375,27.69924827869364,27.0105798440616,109.9110002410853,99.35403599070769,-0.0001295089750783,0.0873680263757705,0,0,0
9301,310708.49410193384,2010-08-23 04:40:09,1470.7466555280082,7,25,-1.0997490882873535,3.6987786293029785,27.69924827869364,27.019748902202984,109.9110002410853,99.38796980667932,-9.713172767078504e-05,0.0873680263757705,0,0,0
9302,310738.5095419258,2010-08-23 04:40:39,1500.7620955751256,7,25,-1.099568486213684,3.69456958770752,27.69924827869364,27.02891798029018,109.9110002410853,99.42186495541618,-0.0001295089750783,0.0873680263757705,0,0,0
9303,310768.52457037213,2010-08-23 04:41:09,1530.77712396627,7,25,-1.0997490882873535,3.6905224323272714,27.69924827869364,27.03808703001762,109.9110002410853,99.4557220898058,-0.0001295089750783,0.0873680263757705,0,0,0
9304,310798.53978456627,2010-08-23 04:41:39,1560.7923381655048,7,25,-1.0997490882873535,3.686637163162232,27.69924827869364,27.047256069133763,109.9110002410853,99.48954213904597,-9.713172767078504e-05,0.0873680263757705,0,0,0
9305,310828.55502677534,2010-08-23 04:42:09,1590.807580394599,7,25,-1.0997490882873535,3.682428121566773,27.69924827869364,27.05642510024753,109.9110002410853,99.52332589254628,-0.0001295089750783,0.0873680263757705,0,0,0
9306,310858.5703855599,2010-08-23 04:42:39,1620.8229391641476,7,25,-1.0997490882873535,3.678704738616944,27.69924827869364,27.06559416949192,109.9110002410853,99.5570742101109,-9.713172767078504e-05,0.0873680263757705,0,0,0
9307,310888.5854474094,2010-08-23 04:43:09,1650.83800103373,7,25,-1.099929690361023,3.674819469451904,27.69924827869364,27.07476310885365,109.9110002410853,99.59078688494291,-0.0001295089750783,0.0873680263757705,0,0,0
9308,310918.6006690673,2010-08-23 04:43:39,1680.853222666492,7,25,-1.099568486213684,3.671258211135864,27.69924827869364,27.08393212338881,109.9110002410853,99.62446529093096,-6.47544875391759e-05,0.0873680263757705,0,0,0
9309,310948.6159290156,2010-08-23 04:44:09,1710.868482609735,7,25,-1.099568486213684,3.667534828186035,27.69924827869364,27.093101221684456,109.9110002410853,99.65811014994136,-9.713172767078504e-05,0.0873680263757705,0,0,0
9310,310978.6311624878,2010-08-23 04:44:39,1740.8837160870169,7,25,-1.099568486213684,3.664135217666626,27.69924827869364,27.10227021561403,109.9110002410853,99.6917216089848,-6.47544875391759e-05,0.0873680263757705,0,0,0
9311,311008.6463563714,2010-08-23 04:45:09,1770.8989099706191,7,25,-1.0997490882873535,3.660411834716797,27.69924827869364,27.11143916588664,109.9110002410853,99.72530055874849,-9.713172767078504e-05,0.0873680263757705,0,0,0
9312,311038.6617142337,2010-08-23 04:45:39,1800.914267827894,7,25,-1.0997490882873535,3.657012224197388,27.69924827869364,27.12060821898204,109.9110002410853,99.75884831707717,-9.713172767078504e-05,0.0873680263757705,0,0,0
9313,311068.6767909753,2010-08-23 04:46:09,1830.9293445695423,7,25,-1.0997490882873535,3.653774499893189,27.69924827869364,27.129777151401388,109.9110002410853,99.79236447251807,-6.47544875391759e-05,0.0873680263757705,0,0,0
9314,311098.692038628,2010-08-23 04:46:39,1860.944592227166,7,25,-1.0997490882873535,3.6503748893737793,27.69924827869364,27.138946122263544,109.9110002410853,99.82585049551808,-0.0001295089750783,0.0873680263757705,0,0,0
9315,311128.7072514488,2010-08-23 04:47:09,1890.9598050479656,7,25,-1.099929690361023,3.64729905128479,27.69924827869364,27.14811514176717,109.9110002410853,99.85930721897604,-9.713172767078504e-05,0.0873680263757705,0,0,0
9316,311158.7224762394,2010-08-23 04:47:39,1920.9750298285728,7,25,-1.0997490882873535,3.644223213195801,27.69924827869364,27.15728410048381,109.9110002410853,99.89273447333473,-9.713172767078504e-05,0.0873680263757705,0,0,0
9317,311188.73768484977,2010-08-23 04:48:09,1950.9902384438908,7,25,-1.099568486213684,3.6413092613220215,27.69924827869364,27.166453042790337,109.9110002410853,99.92613401848445,-6.47544875391759e-05,0.0873680263757705,0,0,0
9318,311218.75291471294,2010-08-23 04:48:39,1981.0054683071653,7,25,-1.099568486213684,3.638233423233032,27.69924827869364,27.17562205086513,109.9110002410853,99.95950652198223,-6.47544875391759e-05,0.0873680263757705,0,0,0
9319,311248.7682729312,2010-08-23 04:49:09,2011.0208265403776,7,25,-1.099568486213684,3.635481357574463,27.69924827869364,27.18479096148254,109.9110002410853,99.9928521751244,-9.713172767078504e-05,0.0873680263757705,0,0,0
9320,311278.7833497931,2010-08-23 04:49:39,2041.0359033923007,7,25,-1.0997490882873535,3.632567405700684,27.69924827869364,27.19395980045176,109.9110002410853,100.02617191900924,-6.47544875391759e-05,0.0873680263757705,0,0,0
9321,311308.7985673757,2010-08-23 04:50:09,2071.051120969956,7,25,-1.0997490882873535,3.629977226257324,27.69924827869364,27.20312879415279,109.9110002410853,100.05946668433126,-6.47544875391759e-05,0.0873680263757705,0,0,0
9322,311338.81379911874,2010-08-23 04:50:39,2101.066352717928,7,25,-1.0997490882873535,3.627225160598755,27.69924827869364,27.21229770801809,109.9110002410853,100.09273602186566,-3.237724376958795e-05,0.0873680263757705,0,0,0
9323,311368.82906227,2010-08-23 04:51:09,2131.081615894229,7,25,-1.099929690361023,3.6244730949401855,27.69924827869364,27.221466676617144,109.9110002410853,100.12598122238332,-6.47544875391759e-05,0.0873680263757705,0,0,0
9324,311398.84424145694,2010-08-23 04:51:39,2161.096795051127,7,25,-1.0997490882873535,3.621882915496826,27.69924827869364,27.23063555757507,109.9110002410853,100.15920185102536,-9.713172767078504e-05,0.0873680263757705,0,0,0
9325,311428.8594492101,2010-08-23 04:52:09,2191.1120028293594,7,25,-1.0997490882873535,3.619292736053467,27.69924827869364,27.239804455282904,109.9110002410853,100.1923984895108,-6.47544875391759e-05,0.0873680263757705,0,0,0
9326,311458.874688938,2010-08-23 04:52:39,2221.127242542182,7,25,-1.0997490882873535,3.6167025566101074,27.69924827869364,27.248973427172213,109.9110002410853,100.2255717113738,-3.237724376958795e-05,0.0873680263757705,0,0,0
9327,311488.8900212065,2010-08-23 04:53:09,2251.1425748106817,7,25,-1.0997490882873535,3.614274263381958,27.69924827869364,27.25814239102372,109.9110002410853,100.25872134003568,-6.47544875391759e-05,0.0873680263757705,0,0,0
9328,311518.905181752,2010-08-23 04:53:39,2281.157735351183,7,25,-1.099568486213684,3.611684083938599,27.69924827869364,27.267311289343272,109.9110002410853,100.29184719366226,-3.237724376958795e-05,0.0873680263757705,0,0,0
9329,311548.9204495949,2010-08-23 04:54:09,2311.1730031891025,7,25,-1.0997490882873535,3.6090939044952393,27.69924827869364,27.27648021423433,109.9110002410853,100.32494961285842,-3.237724376958795e-05,0.0873680263757705,0,0,0
9330,311578.9356775084,2010-08-23 04:54:39,2341.1882311075296,7,25,-1.099568486213684,3.60650372505188,27.69924827869364,27.285649184304653,109.9110002410853,100.35802843173904,-6.47544875391759e-05,0.0873680263757705,0,0,0
9331,311608.9507573677,2010-08-23 04:55:09,2371.2033109669487,7,25,-1.099568486213684,3.603751659393311,27.69924827869364,27.29481782145393,109.9110002410853,100.39108211834711,-9.713172767078504e-05,0.0873680263757705,0,0,0
9332,311638.9659737124,2010-08-23 04:55:39,2401.218527306517,7,25,-1.0997490882873535,3.600999593734741,27.69924827869364,27.3039859536846,109.9110002410853,100.42410999932842,-9.713172767078504e-05,0.0873680263757705,0,0,0
9333,311668.9812347884,2010-08-23 04:56:09,2431.233788402634,7,25,-1.099568486213684,3.598571300506592,27.69924827869364,27.31315432604265,109.9110002410853,100.45711419459305,-3.237724376958795e-05,0.0873680263757705,0,0,0
9334,311698.99664118164,2010-08-23 04:56:39,2461.249194775826,7,25,-1.099929690361023,3.5956573486328125,27.69924827869364,27.32232336306813,109.9110002410853,100.49009585629904,-6.47544875391759e-05,0.0873680263757705,0,0,0
9335,311729.0116571568,2010-08-23 04:57:09,2491.264210751025,7,25,-1.099929690361023,3.592743396759033,27.69924827869364,27.33149229190729,109.9110002410853,100.52305136335316,-9.713172767078504e-05,0.0873680263757705,0,0,0
9336,311759.0270243574,2010-08-23 04:57:39,2521.2795780117367,7,25,-1.099568486213684,3.589991569519043,27.69924827869364,27.34066127808901,109.9110002410853,100.55598080083026,-6.47544875391759e-05,0.0873680263757705,0,0,0
9337,311789.0420953196,2010-08-23 04:58:09,2551.294648913831,7,25,-1.0997490882873535,3.5869157314300537,27.69924827869364,27.34983024795784,109.9110002410853,100.58888335412487,-9.713172767078504e-05,0.0873680263757705,0,0,0
9338,311819.05993887206,2010-08-23 04:58:39,2581.3124924662234,7,25,-1.0997490882873535,3.5838398933410645,27.69924827869364,27.35900002444285,109.9110002410853,100.62176140134495,-9.713172767078504e-05,0.0873680263757705,0,0,0
9339,311849.07251843496,2010-08-23 04:59:09,2611.3250720291344,7,25,-1.0997490882873535,3.580925941467285,27.69924827869364,27.36816819794608,109.9110002410853,100.65460595631832,-3.237724376958795e-05,0.0873680263757705,0,0,0
9340,311879.08775792725,2010-08-23 04:59:39,2641.340311521408,7,25,-1.0997490882873535,3.577688217163086,27.69924827869364,27.37733718506013,109.9110002410853,100.68742477160664,-9.713172767078504e-05,0.0873680263757705,0,0,0
9341,311909.1030756495,2010-08-23 05:00:09,2671.355629248666,7,25,-1.0997490882873535,3.5746123790740967,27.69924827869364,27.38650627400281,109.9110002410853,100.72021469175662,-6.47544875391759e-05,0.0873680263757705,0,0,0
9342,311939.11819026555,2010-08-23 05:00:39,2701.3707438596966,7,25,-1.099568486213684,3.5712127685546875,27.69924827869364,27.39567514937925,109.9110002410853,100.75297389176876,-9.713172767078504e-05,0.0873680263757705,0,0,0
9343,311969.1333854223,2010-08-23 05:01:09,2731.3859390214843,7,25,-1.0997490882873535,3.5678131580352783,27.69924827869364,27.404844171475627,109.9110002410853,100.7857021569383,-6.47544875391759e-05,0.0873680263757705,0,0,0
9344,311999.14860187715,2010-08-23 05:01:39,2761.4011554613035,7,25,-1.0997490882873535,3.564089775085449,27.69924827869364,27.41401321846877,109.9110002410853,100.81839788933604,-9.713172767078504e-05,0.0873680263757705,0,0,0
9345,312029.1638200763,2010-08-23 05:02:09,2791.4163736705327,7,25,-1.0997490882873535,3.56036639213562,27.69924827869364,27.423182202112702,109.9110002410853,100.85106017055853,-0.0001295089750783,0.0873680263757705,0,0,0
9346,312059.17904281686,2010-08-23 05:02:39,2821.4315964060424,7,25,-1.099568486213684,3.556643009185791,27.69924827869364,27.43235116023664,109.9110002410853,100.88368761491527,-6.47544875391759e-05,0.0873680263757705,0,0,0
9347,312089.1942641739,2010-08-23 05:03:09,2851.446817793192,7,25,-1.0997490882873535,3.552433967590332,27.69924827869364,27.441520162220893,109.9110002410853,100.91627923347632,-0.0001295089750783,0.0873680263757705,0,0,0
9348,312119.2094724484,2010-08-23 05:03:39,2881.4620260476117,7,25,-1.099568486213684,3.548386812210083,27.69924827869364,27.450689135536123,109.9110002410853,100.94883337288012,-9.713172767078504e-05,0.0873680263757705,0,0,0
9349,312149.2246525627,2010-08-23 05:04:10,2911.477206181946,7,25,-1.0997490882873535,3.544015884399414,27.69924827869364,27.459858109129325,109.9110002410853,100.98134903437004,-0.0001295089750783,0.0873680263757705,0,0,0
9350,312179.24012411333,2010-08-23 05:04:40,2941.4926777125297,7,25,-1.0997490882873535,3.539644956588745,27.69924827869364,27.4690271733198,109.9110002410853,101.0138249858062,-0.0001295089750783,0.0873680263757705,0,0,0
9351,312209.25525348616,2010-08-23 05:05:10,2971.507807110413,7,25,-1.0997490882873535,3.535112142562866,27.69924827869364,27.47819615417493,109.9110002410853,101.04625952312868,-0.0001618862152099,0.0873680263757705,0,0,0
9352,312239.2704701616,2010-08-23 05:05:40,3001.523023760757,7,25,-1.099568486213684,3.5305793285369877,27.69924827869364,27.48736516841049,109.9110002410853,101.0786519751111,-0.0001618862152099,0.0873680263757705,0,0,0
9353,312269.2855530636,2010-08-23 05:06:10,3031.538106667772,7,25,-1.0997490882873535,3.5255608558654785,27.69924827869364,27.496534143217303,109.9110002410853,101.11100076108283,-0.0001618862152099,0.0873680263757705,0,0,0
9354,312299.30092884053,2010-08-23 05:06:40,3061.5534824647584,7,25,-1.099929690361023,3.52038049697876,27.69924827869364,27.50570318055451,109.9110002410853,101.14330427442157,-0.0001618862152099,0.0873680263757705,0,0,0
9355,312329.3159760485,2010-08-23 05:07:10,3091.5685296477373,7,25,-1.0997490882873535,3.515200138092041,27.69924827869364,27.514872120905597,109.9110002410853,101.17555980378263,-0.0001618862152099,0.0873680263757705,0,0,0
9356,312359.3312009595,2010-08-23 05:07:40,3121.5837545586696,7,25,-1.0997490882873535,3.5095343589782715,27.69924827869364,27.524041166008622,109.9110002410853,101.20776504697848,-0.0001295089750783,0.0873680263757705,0,0,0
9357,312389.3465002508,2010-08-23 05:08:10,3151.5990538750425,7,25,-1.0997490882873535,3.503382682800293,27.69924827869364,27.533210218995126,109.9110002410853,101.23991656141985,-0.0001942634553415,0.0873680263757705,0,0,0
9358,312419.3616447764,2010-08-23 05:08:40,3181.6141983705543,7,25,-1.0997490882873535,3.496745347976685,27.69924827869364,27.54237914287109,109.9110002410853,101.27200935609382,-0.0001942634553415,0.0873680263757705,0,0,0
9359,312449.376972679,2010-08-23 05:09:10,3211.6295262731733,7,25,-1.099929690361023,3.4892985820770264,27.69924827869364,27.551548205529468,109.9110002410853,101.30403857710463,-0.0002266406954731,0.0873680263757705,0,0,0
9360,312479.39204939554,2010-08-23 05:09:40,3241.644602999784,7,25,-1.099568486213684,3.4812042713165283,27.69924827869364,27.560717156640425,109.9110002410853,101.3359959927742,-0.0002266406954731,0.0873680263757705,0,0,0
9361,312509.40732030617,2010-08-23 05:10:10,3271.659873925398,7,25,-1.099929690361023,3.4713292121887207,27.69924827869364,27.569886118582744,109.9110002410853,101.36787078845008,-0.0002913951757363,0.0873680263757705,0,0,0
9362,312539.4225001498,2010-08-23 05:10:40,3301.6750537539715,7,25,-1.0997490882873535,3.459835290908813,27.69924827869364,27.579055088160512,109.9110002410853,101.3996492918545,-0.0003237724304199,0.0873680263757705,0,0,0
9363,312569.43768339185,2010-08-23 05:11:10,3331.690236996052,7,25,-1.099568486213684,3.445751190185547,27.69924827869364,27.58822410183837,109.9110002410853,101.43131057891932,-0.0004209041653666,0.0873680263757705,0,0,0
9364,312599.45289898955,2010-08-23 05:11:40,3361.7054525937724,7,25,-1.0997490882873535,3.4272964000701904,27.69924827869364,27.59739308619831,109.9110002410853,101.4628239916559,-0.0006151676061563,0.0873680263757705,0,0,0
9365,312629.4681308077,2010-08-23 05:12:10,3391.720684441994,7,25,-1.0997490882873535,3.4026896953582764,27.69924827869364,27.6065620814232,109.9110002410853,101.49414223892332,-0.0007446765666827,0.0873680263757705,0,0,0
9366,312659.4835484941,2010-08-23 05:12:40,3421.736102143419,7,25,-1.0997490882873535,3.367722272872925,27.69924827869364,27.615731135431776,109.9110002410853,101.52519109909002,-0.0011332035064697,0.0873680263757705,0,0,0
9367,312689.49856039416,2010-08-23 05:13:10,3451.7511140083743,7,25,-1.0997490882873535,3.317052125930786,27.69924827869364,27.624900041254204,109.9110002410853,101.55585184444377,-0.0015864849556237,0.0873680263757705,0,0,0
9368,312719.5137863527,2010-08-23 05:13:40,3481.76633995188,7,25,-1.099568486213684,3.2422609329223637,27.69924827869364,27.634069046494,109.9110002410853,101.58594482830529,-0.0023635388351976,0.0873680263757705,0,0,0
9369,312749.5289750283,2010-08-23 05:14:10,3511.78152862249,7,25,-1.0997490882873535,3.12683629989624,27.69924827869364,27.64323806987269,109.9110002410853,101.61518521403156,-0.0037233829498291,0.0873680263757705,0,0,0
9370,312777.79421317874,2010-08-23 05:14:38,3540.046766772957,7,25,-1.099929690361023,2.926583766937256,27.69924827869364,27.65187249326977,109.9110002410853,101.64144010757376,-0.0082237720489501,0.0873680263757705,0,0,0
9371,312791.5909139522,2010-08-23 05:14:52,3553.843467546424,7,25,-1.099568486213684,2.7264928817749023,27.69924827869364,27.656087150124023,109.9110002410853,101.65338456552844,-0.0140840532258152,0.0873680263757705,0,0,0
9372,312793.1221665348,2010-08-23 05:14:53,3555.374720129014,7,25,-1.0997490882873535,2.699620008468628,27.69924827869364,27.656554910017853,109.9110002410853,101.65465374847568,-0.0144725795835256,0.0873680263757705,0,0,0
9373,312853.1363545362,2010-08-23 05:15:54,60.01461283622259,8,25,0.0,3.3741977214813232,27.69924827869364,27.656554910017853,109.9110002410853,101.65465374847568,0.0011979580158367,0.0873680263757705,0,0,0
9374,312853.3241545208,2010-08-23 05:15:54,0.187484243422067,9,25,-1.9243103452026844e-05,3.374521493911743,27.69924827869364,27.656554911020013,109.9110002410853,101.6546537518575,0.0,0.0857500955462455,0,0,0
9375,312858.1523451024,2010-08-23 05:15:59,5.015674799885869,9,25,0.0008838032954372,3.3814826011657715,27.69924910305312,27.65655491110459,109.91100302611402,101.65465375214288,0.0010360718006268,0.0857500955462455,0,0,0
