Data_Point,Test_Time(s),Date_Time,Step_Time(s),Step_Index,Cycle_Index,Current(A),Voltage(V),Charge_Capacity(Ah),Discharge_Capacity(Ah),Charge_Energy(Wh),Discharge_Energy(Wh),dV/dt(V/s),Internal_Resistance(Ohm),Is_FC_Data,AC_Impedance(Ohm),ACI_Phase_Angle(Deg)
18057,603869.8669712616,2010-08-26 14:06:40,30.015383496175083,1,50,0.0,3.4645299911499023,53.28768827080705,53.215612945840746,211.63812893295304,195.4690120920071,0.0006799221155233,0.0859051570296287,0,0,0
18058,603899.8820384044,2010-08-26 14:07:10,60.030450628875045,1,50,0.0,3.484118223190308,53.28768827080705,53.215612945840746,211.63812893295304,195.4690120920071,0.0004209041653666,0.0859051570296287,0,0,0
18059,603929.897096259,2010-08-26 14:07:40,90.04550848345106,1,50,0.0,3.498687982559204,53.28768827080705,53.215612945840746,211.63812893295304,195.4690120920071,0.0003237724304199,0.0859051570296287,0,0,0
18060,603959.8655989587,2010-08-26 14:08:10,120.01401117824425,1,50,0.0,3.5095343589782715,53.28768827080705,53.215612945840746,211.63812893295304,195.4690120920071,0.0002266406954731,0.0859051570296287,0,0,0
18061,603989.8535055452,2010-08-26 14:08:40,30.015178690736917,2,50,0.5501165986061096,3.6338624954223633,53.292274981650735,53.215612945840746,211.65467365284937,195.4690120920071,0.0012303352123126,0.0859051570296287,0,0,0
18062,604019.8686902911,2010-08-26 14:09:10,60.030363421527504,2,50,0.5501165986061096,3.6696393489837646,53.29686168844827,53.215612945840746,211.67142794015703,195.4690120920071,0.0008094310760498,0.0859051570296287,0,0,0
18063,604049.8838264307,2010-08-26 14:09:40,90.0454995662266,2,50,0.550297200679779,3.696512222290039,53.30144831674119,53.215612945840746,211.68832317634315,195.4690120920071,0.0006799221155233,0.0859051570296287,0,0,0
18064,604079.8991403434,2010-08-26 14:10:10,120.06081347396588,2,50,0.550297200679779,3.717557430267334,53.30603498586541,53.215612945840746,211.7053269443745,195.4690120920071,0.0005827903514727,0.0859051570296287,0,0,0
18065,604109.9141715616,2010-08-26 14:10:40,150.07584468213085,2,50,0.550297200679779,3.73374605178833,53.31062159158293,53.215612945840746,211.7224159452392,195.4690120920071,0.0004209041653666,0.0859051570296287,0,0,0
18066,604139.9293992646,2010-08-26 14:11:10,180.09107241509608,2,50,0.5501165986061096,3.745725631713867,53.31520816743348,53.215612945840746,211.7395698870687,195.4690120920071,0.0002590179501567,0.0859051570296287,0,0,0
18067,604169.9446402104,2010-08-26 14:11:40,210.106313340942,2,50,0.5499359965324402,3.753334045410156,53.31979478923891,53.215612945840746,211.75676893388825,195.4690120920071,0.0001942157687153,0.0859051570296287,0,0,0
18068,604199.9597001753,2010-08-26 14:12:10,240.12137330577747,2,50,0.5501165986061096,3.758028745651245,53.32438136206118,53.215612945840746,211.7739954070742,195.4690120920071,9.713172767078504e-05,0.0859051570296287,0,0,0
18069,604229.9748750315,2010-08-26 14:12:41,270.1365481619575,2,50,0.550297200679779,3.761590242385864,53.32896798838001,53.215612945840746,211.7912405494933,195.4690120920071,9.713172767078504e-05,0.0859051570296287,0,0,0
18070,604259.9902051395,2010-08-26 14:13:11,300.15187828009806,2,50,0.550297200679779,3.764827966690064,53.33355460939091,53.215612945840746,211.808500867057,195.4690120920071,9.713172767078504e-05,0.0859051570296287,0,0,0
18071,604290.0053288834,2010-08-26 14:13:41,330.16700201386533,2,50,0.5501165986061096,3.7677419185638423,53.33814124885918,53.215612945840746,211.8257752165771,195.4690120920071,9.713172767078504e-05,0.0859051570296287,0,0,0
18072,604320.020513955,2010-08-26 14:14:11,360.1821870804929,2,50,0.5501165986061096,3.770493984222412,53.34272792521941,53.215612945840746,211.84306340860488,195.4690120920071,3.237724376958795e-05,0.0859051570296287,0,0,0
18073,604350.0355719851,2010-08-26 14:14:41,390.1972451205312,2,50,0.5501165986061096,3.7737317085266113,53.347314511161045,53.215612945840746,211.86036485701996,195.4690120920071,9.713172767078504e-05,0.0859051570296287,0,0,0
18074,604380.0507333626,2010-08-26 14:15:11,420.21240648308094,2,50,0.5501165986061096,3.776645660400391,53.351901173757,53.215612945840746,211.8776802187849,195.4690120920071,3.237724376958795e-05,0.0859051570296287,0,0,0
18075,604410.065905893,2010-08-26 14:15:41,450.2275790184768,2,50,0.5501165986061096,3.77955961227417,53.35648779695008,53.215612945840746,211.89500891738703,195.4690120920071,9.713172767078504e-05,0.0859051570296287,0,0,0
18076,604440.0811332952,2010-08-26 14:16:11,480.2428064256301,2,50,0.5501165986061096,3.782473564147949,53.3610744651587,53.215612945840746,211.91235126290965,195.4690120920071,6.47544875391759e-05,0.0859051570296287,0,0,0
18077,604470.0963689529,2010-08-26 14:16:41,510.2580420833461,2,50,0.5501165986061096,3.7855494022369385,53.36566113099409,53.215612945840746,211.92970702123984,195.4690120920071,9.713172767078504e-05,0.0859051570296287,0,0,0
18078,604500.1114112035,2010-08-26 14:17:11,540.27308434907,2,50,0.5501165986061096,3.7884633541107178,53.37024773165362,53.215612945840746,211.94707579310867,195.4690120920071,0.0001295089750783,0.0859051570296287,0,0,0
18079,604530.1267144948,2010-08-26 14:17:41,570.2883876152873,2,50,0.550297200679779,3.791215419769287,53.37483436545413,53.215612945840746,211.96445813959969,195.4690120920071,9.713172767078504e-05,0.0859051570296287,0,0,0
18080,604560.1419076717,2010-08-26 14:18:11,600.3035808021531,2,50,0.5499359965324402,3.7941293716430655,53.37942098956211,53.215612945840746,211.98185379729173,195.4690120920071,6.47544875391759e-05,0.0859051570296287,0,0,0
18081,604590.1569491805,2010-08-26 14:18:41,630.318622305978,2,50,0.5501165986061096,3.797205209732056,53.384007642549925,53.215612945840746,211.99926312713396,195.4690120920071,9.713172767078504e-05,0.0859051570296287,0,0,0
18082,604620.1721044679,2010-08-26 14:19:11,660.3337775983991,2,50,0.5501165986061096,3.800119161605835,53.38859427881026,53.215612945840746,212.01668616178057,195.4690120920071,6.47544875391759e-05,0.0859051570296287,0,0,0
18083,604650.1872743667,2010-08-26 14:19:41,690.3489474871989,2,50,0.5501165986061096,3.803194999694824,53.39318092722531,53.215612945840746,212.03412337861783,195.4690120920071,6.47544875391759e-05,0.0859051570296287,0,0,0
18084,604680.2026567251,2010-08-26 14:20:11,720.3643298455381,2,50,0.550297200679779,3.8065946102142334,53.39776761458853,53.215612945840746,212.05157527793932,195.4690120920071,6.47544875391759e-05,0.0859051570296287,0,0,0
18085,604710.2176335979,2010-08-26 14:20:41,750.379306723295,2,50,0.550297200679779,3.8098323345184326,53.40235426628145,53.215612945840746,212.06904189965832,195.4690120920071,6.47544875391759e-05,0.0859051570296287,0,0,0
18086,604740.2327914767,2010-08-26 14:21:11,780.3944646071749,2,50,0.550297200679779,3.813231945037842,53.40694100232904,53.215612945840746,212.0865242254022,195.4690120920071,9.713172767078504e-05,0.0859051570296287,0,0,0
18087,604770.2481418654,2010-08-26 14:21:41,810.4098149958356,2,50,0.5499359965324402,3.816631555557251,53.41152773581266,53.215612945840746,212.10402251009532,195.4690120920071,9.713172767078504e-05,0.0859051570296287,0,0,0
18088,604800.2631485122,2010-08-26 14:22:11,840.4248216427866,2,50,0.550297200679779,3.82019305229187,53.41611442713108,53.215612945840746,212.12153651533325,195.4690120920071,9.713172767078504e-05,0.0859051570296287,0,0,0
18089,604830.2783044314,2010-08-26 14:22:41,870.4399775567568,2,50,0.5501165986061096,3.823754549026489,53.42070104066071,53.215612945840746,212.1390661912291,195.4690120920071,0.0001295089750783,0.0859051570296287,0,0,0
18090,604860.2936452962,2010-08-26 14:23:11,900.4553184266942,2,50,0.5501165986061096,3.8271541595458975,53.42528769466204,53.215612945840746,212.15661194029096,195.4690120920071,9.713172767078504e-05,0.0859051570296287,0,0,0
18091,604890.3086441437,2010-08-26 14:23:41,930.4703172792188,2,50,0.550297200679779,3.8307156562805176,53.42987431022907,53.215612945840746,212.1741732760841,195.4690120920071,0.0001618862152099,0.0859051570296287,0,0,0
18092,604920.3278756202,2010-08-26 14:24:11,960.4895488409576,2,50,0.5501165986061096,3.8339531421661377,53.43446158650508,53.215612945840746,212.1917526473879,195.4690120920071,0.0001295089750783,0.0859051570296287,0,0,0
18093,604950.3389990891,2010-08-26 14:24:41,990.500672209584,2,50,0.5501165986061096,3.837190866470337,53.43904760563901,53.215612945840746,212.20934243483867,195.4690120920071,6.47544875391759e-05,0.0859051570296287,0,0,0
18094,604980.3541967521,2010-08-26 14:25:11,1020.515869877618,2,50,0.5501165986061096,3.840266704559326,53.44363429874532,53.215612945840746,212.2269497652266,195.4690120920071,6.47544875391759e-05,0.0859051570296287,0,0,0
18095,605010.369471001,2010-08-26 14:25:41,1050.5311441265153,2,50,0.5501165986061096,3.843666315078736,53.44822102983496,53.215612945840746,212.24457185873428,195.4690120920071,0.0001295089750783,0.0859051570296287,0,0,0
18096,605040.3846585839,2010-08-26 14:26:11,1080.5463317144267,2,50,0.550297200679779,3.8467421531677246,53.45280766166112,53.215612945840746,212.2622078830633,195.4690120920071,9.713172767078504e-05,0.0859051570296287,0,0,0
18097,605070.3996841029,2010-08-26 14:26:41,1110.5613572233876,2,50,0.5501165986061096,3.849817991256714,53.45739434178034,53.215612945840746,212.2798581458848,195.4690120920071,9.713172767078504e-05,0.0859051570296287,0,0,0
18098,605100.4149338608,2010-08-26 14:27:11,1140.5766071115704,2,50,0.5499359965324402,3.852570056915283,53.46198110361681,53.215612945840746,212.29752240228305,195.4690120920071,3.237724376958795e-05,0.0859051570296287,0,0,0
18099,605130.430028457,2010-08-26 14:27:41,1170.5917015773928,2,50,0.5501165986061096,3.8554840087890634,53.46656777700182,53.215612945840746,212.31519946418032,195.4690120920071,6.47544875391759e-05,0.0859051570296287,0,0,0
18100,605160.4452216988,2010-08-26 14:28:11,1200.6068948244083,2,50,0.5501165986061096,3.858074188232422,53.47115444604572,53.215612945840746,212.33288923952503,195.4690120920071,6.47544875391759e-05,0.0859051570296287,0,0,0
18101,605190.460391247,2010-08-26 14:28:41,1230.6220643673462,2,50,0.5501165986061096,3.860664367675781,53.47574105922656,53.215612945840746,212.350590823378,195.4690120920071,6.47544875391759e-05,0.0859051570296287,0,0,0
18102,605220.475545231,2010-08-26 14:29:11,1260.6372183565193,2,50,0.5501165986061096,3.86309266090393,53.48032773792728,53.215612945840746,212.36830403422084,195.4690120920071,6.47544875391759e-05,0.0859051570296287,0,0,0
18103,605250.490725616,2010-08-26 14:29:41,1290.6523987364662,2,50,0.5501165986061096,3.86535906791687,53.48491444334439,53.215612945840746,212.3860278962576,195.4690120920071,6.47544875391759e-05,0.0859051570296287,0,0,0
18104,605280.5059058857,2010-08-26 14:30:11,1320.6675790161632,2,50,0.5501165986061096,3.8673017024993896,53.48950110454162,53.215612945840746,212.403761452132,195.4690120920071,3.237724376958795e-05,0.0859051570296287,0,0,0
18105,605310.521055489,2010-08-26 14:30:41,1350.6827286093803,2,50,0.5501165986061096,3.869244337081909,53.49408777513705,53.215612945840746,212.42150420086148,195.4690120920071,6.47544875391759e-05,0.0859051570296287,0,0,0
18106,605340.5362332623,2010-08-26 14:31:11,1380.697906392856,2,50,0.5501165986061096,3.8710250854492183,53.49867446309391,53.215612945840746,212.43925536103308,195.4690120920071,3.237724376958795e-05,0.0859051570296287,0,0,0
18107,605370.5514053616,2010-08-26 14:31:41,1410.713078492165,2,50,0.5501165986061096,3.872482061386109,53.50326121179785,53.215612945840746,212.4570144639608,195.4690120920071,3.237724376958795e-05,0.0859051570296287,0,0,0
18108,605400.5666082879,2010-08-26 14:32:11,1440.7282814333416,2,50,0.5501165986061096,3.873939037322998,53.50784788771416,53.215612945840746,212.47478032829216,195.4690120920071,-3.237724376958795e-05,0.0859051570296287,0,0,0
18109,605430.5817728032,2010-08-26 14:32:41,1470.7434459337117,2,50,0.5501165986061096,3.875396013259888,53.512434583810126,53.215612945840746,212.49255259858373,195.4690120920071,3.237724376958795e-05,0.0859051570296287,0,0,0
18110,605460.5969220004,2010-08-26 14:33:11,1500.7585951309418,2,50,0.550297200679779,3.876691102981568,53.51702131640021,53.215612945840746,212.51033111293532,195.4690120920071,3.237724376958795e-05,0.0859051570296287,0,0,0
18111,605490.6123531954,2010-08-26 14:33:41,1530.7740263259973,2,50,0.5501165986061096,3.877824306488037,53.52160808289018,53.215612945840746,212.52811531986453,195.4690120920071,3.237724376958795e-05,0.0859051570296287,0,0,0
18112,605520.6274033408,2010-08-26 14:34:11,1560.7890764713595,2,50,0.550297200679779,3.879119396209717,53.52619479455221,53.215612945840746,212.5459047579312,195.4690120920071,3.237724376958795e-05,0.0859051570296287,0,0,0
18113,605550.6424704085,2010-08-26 14:34:41,1590.804143528872,2,50,0.5501165986061096,3.880090713500977,53.53078152939862,53.215612945840746,212.56369930525457,195.4690120920071,0.0,0.0859051570296287,0,0,0
18114,605580.6576108538,2010-08-26 14:35:11,1620.8192839843146,2,50,0.550297200679779,3.881385803222656,53.5353682172134,53.215612945840746,212.5814986640248,195.4690120920071,6.47544875391759e-05,0.0859051570296287,0,0,0
18115,605610.672797725,2010-08-26 14:35:41,1650.8344708504271,2,50,0.5501165986061096,3.882195234298706,53.53995497579536,53.215612945840746,212.59930312412703,195.4690120920071,0.0,0.0859051570296287,0,0,0
18116,605640.6881853866,2010-08-26 14:36:11,1680.8498585069713,2,50,0.5501165986061096,3.883166551589966,53.54454169605024,53.215612945840746,212.61711221000047,195.4690120920071,0.0,0.0859051570296287,0,0,0
18117,605670.7031261241,2010-08-26 14:36:41,1710.864799254681,2,50,0.5501165986061096,3.884299755096436,53.54912841619071,53.215612945840746,212.63492605643276,195.4690120920071,0.0,0.0859051570296287,0,0,0
18118,605700.7182981432,2010-08-26 14:37:11,1740.8799712687776,2,50,0.5501165986061096,3.8852710723876953,53.55371520003607,53.215612945840746,212.65274463340856,195.4690120920071,3.237724376958795e-05,0.0859051570296287,0,0,0
18119,605730.7334706335,2010-08-26 14:37:41,1770.8951437841235,2,50,0.5501165986061096,3.886242389678955,53.55830187944306,53.215612945840746,212.67056745355828,195.4690120920071,3.237724376958795e-05,0.0859051570296287,0,0,0
18120,605760.7487216847,2010-08-26 14:38:11,1800.9103949053797,2,50,0.5501165986061096,3.887213706970215,53.56288858711521,53.215612945840746,212.68839495967632,195.4690120920071,0.0,0.0859051570296287,0,0,0
18121,605790.7638105315,2010-08-26 14:38:41,1830.9254836820228,2,50,0.5501165986061096,3.8881850242614746,53.567475250170695,53.215612945840746,212.706226840395,195.4690120920071,0.0,0.0859051570296287,0,0,0
18122,605820.779005212,2010-08-26 14:39:11,1860.9406783425616,2,50,0.550297200679779,3.889318227767944,53.57206200156743,53.215612945840746,212.724063766471,195.4690120920071,3.237724376958795e-05,0.0859051570296287,0,0,0
18123,605850.7941743891,2010-08-26 14:39:41,1890.9558475195872,2,50,0.5501165986061096,3.890289545059204,53.57664871379174,53.215612945840746,212.7419050601407,195.4690120920071,0.0,0.0859051570296287,0,0,0
18124,605880.809360789,2010-08-26 14:40:11,1920.9710339095127,2,50,0.5501165986061096,3.891260862350464,53.58123544404364,53.215612945840746,212.75975104324752,195.4690120920071,0.0,0.0859051570296287,0,0,0
18125,605910.8245081566,2010-08-26 14:40:41,1950.986181287208,2,50,0.5501165986061096,3.892232179641724,53.58582213726388,53.215612945840746,212.77760156185244,195.4690120920071,0.0,0.0859051570296287,0,0,0
18126,605940.8397066167,2010-08-26 14:41:11,1981.0013797371912,2,50,0.5501165986061096,3.893365383148194,53.59040888821544,53.215612945840746,212.7954569810467,195.4690120920071,6.47544875391759e-05,0.0859051570296287,0,0,0
18127,605970.8548432677,2010-08-26 14:41:41,2011.0165163981767,2,50,0.5501165986061096,3.894498586654663,53.594995660396016,53.215612945840746,212.8133172531108,195.4690120920071,6.47544875391759e-05,0.0859051570296287,0,0,0
18128,606000.8700317979,2010-08-26 14:42:11,2041.0317049234247,2,50,0.5501165986061096,3.895146131515503,53.59958244267207,53.215612945840746,212.83118191817468,195.4690120920071,3.237724376958795e-05,0.0859051570296287,0,0,0
18129,606030.8852055414,2010-08-26 14:42:41,2071.0468786718434,2,50,0.5499359965324402,3.8962793350219727,53.604169158551215,53.215612945840746,212.8490510371616,195.4690120920071,0.0,0.0859051570296287,0,0,0
18130,606060.900368553,2010-08-26 14:43:11,2101.062041678491,2,50,0.5501165986061096,3.8974125385284415,53.60875590109682,53.215612945840746,212.86692514458784,195.4690120920071,3.237724376958795e-05,0.0859051570296287,0,0,0
18131,606090.9155338353,2010-08-26 14:43:41,2131.0772069608097,2,50,0.5499359965324402,3.898545742034912,53.6133426647053,53.215612945840746,212.88480415981363,195.4690120920071,3.237724376958795e-05,0.0859051570296287,0,0,0
18132,606120.9307214733,2010-08-26 14:44:11,2161.092394598846,2,50,0.5501165986061096,3.899517059326172,53.61792941000828,53.215612945840746,212.9026880569458,195.4690120920071,0.0,0.0859051570296287,0,0,0
18133,606150.945876846,2010-08-26 14:44:42,2191.107549996529,2,50,0.550297200679779,3.900812149047852,53.62251615050323,53.215612945840746,212.92057682033465,195.4690120920071,3.237724376958795e-05,0.0859051570296287,0,0,0
18134,606180.9613969676,2010-08-26 14:45:12,2221.1230700931555,2,50,0.550297200679779,3.901945352554321,53.62710287470015,53.215612945840746,212.9384705500287,195.4690120920071,6.47544875391759e-05,0.0859051570296287,0,0,0
18135,606210.9763533393,2010-08-26 14:45:42,2251.1380264648046,2,50,0.550297200679779,3.902916669845581,53.63168952952734,53.215612945840746,212.9563690728049,195.4690120920071,3.237724376958795e-05,0.0859051570296287,0,0,0
18136,606240.9914380509,2010-08-26 14:46:12,2281.153111186341,2,50,0.5501165986061096,3.904049873352051,53.636276231983445,53.215612945840746,212.97427294823547,195.4690120920071,3.237724376958795e-05,0.0859051570296287,0,0,0
18137,606271.0065779248,2010-08-26 14:46:42,2311.16825105031,2,50,0.5499359965324402,3.905021190643311,53.64086293610402,53.215612945840746,212.99218209728352,195.4690120920071,3.237724376958795e-05,0.0859051570296287,0,0,0
18138,606301.0217428112,2010-08-26 14:47:12,2341.183415941655,2,50,0.5501165986061096,3.9063162803649902,53.64544970252867,53.215612945840746,213.0100966408513,195.4690120920071,3.237724376958795e-05,0.0859051570296287,0,0,0
18139,606331.0370404834,2010-08-26 14:47:42,2371.19871361393,2,50,0.550297200679779,3.90744948387146,53.65003641414631,53.215612945840746,213.0280164247588,195.4690120920071,3.237724376958795e-05,0.0859051570296287,0,0,0
18140,606361.0521178716,2010-08-26 14:48:12,2401.2137909871526,2,50,0.550297200679779,3.90874457359314,53.65462310793103,53.215612945840746,213.04594156966476,195.4690120920071,6.47544875391759e-05,0.0859051570296287,0,0,0
18141,606391.0672520715,2010-08-26 14:48:42,2431.2289251970296,2,50,0.5501165986061096,3.90987777709961,53.659209804937326,53.215612945840746,213.0638722775219,195.4690120920071,3.237724376958795e-05,0.0859051570296287,0,0,0
18142,606421.082564255,2010-08-26 14:49:12,2461.244237375459,2,50,0.5501165986061096,3.911172866821289,53.66379652347256,53.215612945840746,213.08180861351283,195.4690120920071,3.237724376958795e-05,0.0859051570296287,0,0,0
18143,606451.0977380485,2010-08-26 14:49:42,2491.25941116899,2,50,0.5501165986061096,3.912306070327759,53.66838319612828,53.215612945840746,213.09975045722527,195.4690120920071,3.237724376958795e-05,0.0859051570296287,0,0,0
18144,606481.1129043784,2010-08-26 14:50:12,2521.2745774989203,2,50,0.5501165986061096,3.9136011600494394,53.67296983618789,53.215612945840746,213.117697899695,195.4690120920071,6.47544875391759e-05,0.0859051570296287,0,0,0
18145,606511.1279416718,2010-08-26 14:50:42,2551.289614797264,2,50,0.5501165986061096,3.915057897567749,53.677556590699744,53.215612945840746,213.1356517023297,195.4690120920071,3.237724376958795e-05,0.0859051570296287,0,0,0
18146,606541.1431141621,2010-08-26 14:51:12,2581.304787282535,2,50,0.550297200679779,3.9161911010742183,53.68214337923936,53.215612945840746,213.15361136385096,195.4690120920071,3.237724376958795e-05,0.0859051570296287,0,0,0
18147,606571.1584141601,2010-08-26 14:51:42,2611.320087280607,2,50,0.550297200679779,3.9174861907958975,53.68673013403132,53.215612945840746,213.17157688367712,195.4690120920071,0.0,0.0859051570296287,0,0,0
18148,606601.1736934917,2010-08-26 14:52:12,2641.3353666322214,2,50,0.5501165986061096,3.918781280517578,53.69131683764845,53.215612945840746,213.18954817968097,195.4690120920071,3.237724376958795e-05,0.0859051570296287,0,0,0
18149,606631.1886524649,2010-08-26 14:52:42,2671.3503255853047,2,50,0.5501165986061096,3.920238256454468,53.69590355387341,53.215612945840746,213.2075256214584,195.4690120920071,6.47544875391759e-05,0.0859051570296287,0,0,0
18150,606661.2038547995,2010-08-26 14:53:12,2701.36552791997,2,50,0.550297200679779,3.921533346176148,53.70049033377367,53.215612945840746,213.2255093732365,195.4690120920071,6.47544875391759e-05,0.0859051570296287,0,0,0
18151,606691.2189940069,2010-08-26 14:53:42,2731.380667127302,2,50,0.550297200679779,3.922828435897827,53.70507703453579,53.215612945840746,213.24349898325252,195.4690120920071,6.47544875391759e-05,0.0859051570296287,0,0,0
18152,606721.2341731186,2010-08-26 14:54:12,2761.3958462441005,2,50,0.5501165986061096,3.923961639404297,53.70966371327592,53.215612945840746,213.2614946785677,195.4690120920071,0.0,0.0859051570296287,0,0,0
18153,606751.2493321103,2010-08-26 14:54:42,2791.411005230729,2,50,0.5501165986061096,3.925580501556397,53.71425040508283,53.215612945840746,213.27949680330588,195.4690120920071,3.237724376958795e-05,0.0859051570296287,0,0,0
18154,606781.2645190665,2010-08-26 14:55:12,2821.4261921920784,2,50,0.5501165986061096,3.927037477493286,53.7188370977893,53.215612945840746,213.2975051557307,195.4690120920071,6.47544875391759e-05,0.0859051570296287,0,0,0
18155,606811.2796855769,2010-08-26 14:55:42,2851.441358697446,2,50,0.5501165986061096,3.928332567214966,53.723423793350975,53.215612945840746,213.3155200196081,195.4690120920071,3.237724376958795e-05,0.0859051570296287,0,0,0
18156,606841.2989194745,2010-08-26 14:56:12,2881.4605926050317,2,50,0.5501165986061096,3.929789543151856,53.72801108804374,53.215612945840746,213.33354368753567,195.4690120920071,6.47544875391759e-05,0.0859051570296287,0,0,0
18157,606871.3101946415,2010-08-26 14:56:42,2911.4718677719857,2,50,0.550297200679779,3.931246519088745,53.732597201191766,53.215612945840746,213.35156926007,195.4690120920071,3.237724376958795e-05,0.0859051570296287,0,0,0
18158,606901.3252240602,2010-08-26 14:57:12,2941.486897180666,2,50,0.550297200679779,3.9327034950256343,53.7371839503527,53.215612945840746,213.36960383591384,195.4690120920071,6.47544875391759e-05,0.0859051570296287,0,0,0
18159,606931.3404440037,2010-08-26 14:57:42,2971.50211726958,2,50,0.5501165986061096,3.9339985847473145,53.741770642981685,53.215612945840746,213.3876448191579,195.4690120920071,6.47544875391759e-05,0.0859051570296287,0,0,0
18160,606961.3556078224,2010-08-26 14:58:12,3001.517280952913,2,50,0.550297200679779,3.935617446899414,53.74635744456502,53.215612945840746,213.4056929579092,195.4690120920071,6.47544875391759e-05,0.0859051570296287,0,0,0
18161,606991.3707305938,2010-08-26 14:58:42,3031.532403734307,2,50,0.5501165986061096,3.9369125366210938,53.75094420448634,53.215612945840746,213.42374752387963,195.4690120920071,0.0,0.0859051570296287,0,0,0
18162,607021.3859025928,2010-08-26 14:59:12,3061.547575718329,2,50,0.550297200679779,3.938531398773194,53.75553095485884,53.215612945840746,213.44180889738715,195.4690120920071,3.237724376958795e-05,0.0859051570296287,0,0,0
18163,607051.4011031531,2010-08-26 14:59:42,3091.5627762936087,2,50,0.5501165986061096,3.939988374710083,53.76011763745492,53.215612945840746,213.45987677424105,195.4690120920071,6.47544875391759e-05,0.0859051570296287,0,0,0
18164,607081.4162916833,2010-08-26 15:00:12,3121.577964813844,2,50,0.5499359965324402,3.9412834644317623,53.7647044447646,53.215612945840746,213.4779520260173,195.4690120920071,0.0,0.0859051570296287,0,0,0
18165,607111.4315655763,2010-08-26 15:00:42,3151.593238706854,2,50,0.5501165986061096,3.9429023265838623,53.76929120147578,53.215612945840746,213.49603388995848,195.4690120920071,0.0,0.0859051570296287,0,0,0
18166,607141.4465986642,2010-08-26 15:01:12,3181.608271789692,2,50,0.550297200679779,3.944683074951172,53.77387789233404,53.215612945840746,213.5141225060217,195.4690120920071,9.713172767078504e-05,0.0859051570296287,0,0,0
18167,607171.4617671596,2010-08-26 15:01:42,3211.6234402900304,2,50,0.5501165986061096,3.9461400508880615,53.778464633986765,53.215612945840746,213.53221839939505,195.4690120920071,6.47544875391759e-05,0.0859051570296287,0,0,0
18168,607201.4769607123,2010-08-26 15:02:12,3241.638633837796,2,50,0.5501165986061096,3.947435140609741,53.78305139107956,53.215612945840746,213.55032133212052,195.4690120920071,0.0,0.0859051570296287,0,0,0
18169,607231.4921240148,2010-08-26 15:02:42,3271.6537971451926,2,50,0.5501165986061096,3.949215888977051,53.7876380811788,53.215612945840746,213.56843126839232,195.4690120920071,6.47544875391759e-05,0.0859051570296287,0,0,0
18170,607261.5072918233,2010-08-26 15:03:12,3301.6689649487957,2,50,0.5501165986061096,3.950672864913941,53.792224794560845,53.215612945840746,213.58654855932176,195.4690120920071,0.0,0.0859051570296287,0,0,0
18171,607291.5224493913,2010-08-26 15:03:42,3331.684122511876,2,50,0.5501165986061096,3.95245361328125,53.79681111488609,53.215612945840746,213.60467164908192,195.4690120920071,6.47544875391759e-05,0.0859051570296287,0,0,0
18172,607321.5376136361,2010-08-26 15:04:12,3361.6992867566087,2,50,0.5501165986061096,3.9540724754333496,53.80139693760986,53.215612945840746,213.6228002428656,195.4690120920071,6.47544875391759e-05,0.0859051570296287,0,0,0
18173,607351.5529159099,2010-08-26 15:04:42,3391.7145890303523,2,50,0.5499359965324402,3.955691337585449,53.80598291408278,53.215612945840746,213.64093712310407,195.4690120920071,3.237724376958795e-05,0.0859051570296287,0,0,0
18174,607381.5681295227,2010-08-26 15:05:12,3421.729802663176,2,50,0.5499359965324402,3.957310199737549,53.81056873721743,53.215612945840746,213.659081070992,195.4690120920071,3.237724376958795e-05,0.0859051570296287,0,0,0
18175,607411.5832958726,2010-08-26 15:05:42,3451.744968998118,2,50,0.5501165986061096,3.959252834320069,53.81515454636361,53.215612945840746,213.6772328114349,195.4690120920071,6.47544875391759e-05,0.0859051570296287,0,0,0
18176,607441.5984677864,2010-08-26 15:06:12,3481.760140896928,2,50,0.5499359965324402,3.960871696472168,53.81974038975111,53.215612945840746,213.69539270591417,195.4690120920071,6.47544875391759e-05,0.0859051570296287,0,0,0
18177,607471.6135042828,2010-08-26 15:06:42,3511.77517740831,2,50,0.5501165986061096,3.9626524448394775,53.82432664112852,53.215612945840746,213.7135623983192,195.4690120920071,3.237724376958795e-05,0.0859051570296287,0,0,0
18178,607501.6287845016,2010-08-26 15:07:12,3541.790457647136,2,50,0.5501165986061096,3.964595079421997,53.82891347541717,53.215612945840746,213.73174264423892,195.4690120920071,9.713172767078504e-05,0.0859051570296287,0,0,0
18179,607531.643858732,2010-08-26 15:07:42,3571.8055318825386,2,50,0.5501165986061096,3.966375827789306,53.83350027218212,53.215612945840746,213.7499310280608,195.4690120920071,6.47544875391759e-05,0.0859051570296287,0,0,0
18180,607561.6592482883,2010-08-26 15:08:12,3601.820921413754,2,50,0.5501165986061096,3.9679946899414062,53.83808718650689,53.215612945840746,213.76812834794848,195.4690120920071,3.237724376958795e-05,0.0859051570296287,0,0,0
18181,607591.6742138327,2010-08-26 15:08:42,3631.8358869582657,2,50,0.5501165986061096,3.969937324523926,53.84267402893044,53.215612945840746,213.7863338806559,195.4690120920071,3.237724376958795e-05,0.0859051570296287,0,0,0
18182,607621.6893880925,2010-08-26 15:09:12,3661.851061212946,2,50,0.550297200679779,3.9720418453216553,53.84726090467393,53.215612945840746,213.80454817103143,195.4690120920071,9.713172767078504e-05,0.0859051570296287,0,0,0
18183,607651.7045641416,2010-08-26 15:09:42,3691.866237267112,2,50,0.5499359965324402,3.973660707473755,53.85184783530729,53.215612945840746,213.82277138219163,195.4690120920071,3.237724376958795e-05,0.0859051570296287,0,0,0
18184,607681.7197556994,2010-08-26 15:10:12,3721.8814288199046,2,50,0.5501165986061096,3.975765228271485,53.85643473198656,53.215612945840746,213.8410032313691,195.4690120920071,3.237724376958795e-05,0.0859051570296287,0,0,0
18185,607711.7349457635,2010-08-26 15:10:42,3751.8966188940126,2,50,0.550297200679779,3.977707862854004,53.8610216855815,53.215612945840746,213.85924421831288,195.4690120920071,3.237724376958795e-05,0.0859051570296287,0,0,0
18186,607741.7500933817,2010-08-26 15:11:12,3781.911766512307,2,50,0.5501165986061096,3.979650497436523,53.86560859386622,53.215612945840746,213.87749358999812,195.4690120920071,6.47544875391759e-05,0.0859051570296287,0,0,0
18187,607771.7652817066,2010-08-26 15:11:42,3811.926954842068,2,50,0.550297200679779,3.981755018234253,53.87019547521933,53.215612945840746,213.8957522659732,195.4690120920071,6.47544875391759e-05,0.0859051570296287,0,0,0
18188,607801.7804573496,2010-08-26 15:12:12,3841.942130470172,2,50,0.5501165986061096,3.9835357666015625,53.87478234581444,53.215612945840746,213.91401998637093,195.4690120920071,3.237724376958795e-05,0.0859051570296287,0,0,0
18189,607831.7956239001,2010-08-26 15:12:42,3871.957297025664,2,50,0.5501165986061096,3.985478401184082,53.87936913444606,53.215612945840746,213.9322964517941,195.4690120920071,9.713172767078504e-05,0.0859051570296287,0,0,0
18190,607861.810973973,2010-08-26 15:13:12,3901.972647103551,2,50,0.550297200679779,3.987582921981812,53.883955981202746,53.215612945840746,213.95058232556747,195.4690120920071,0.0,0.0859051570296287,0,0,0
18191,607891.8259757678,2010-08-26 15:13:42,3931.9876488883833,2,50,0.5501165986061096,3.989687442779541,53.88854281709625,53.215612945840746,213.96887724887333,195.4690120920071,9.713172767078504e-05,0.0859051570296287,0,0,0
18192,607921.8413277656,2010-08-26 15:14:12,3962.00300089608,2,50,0.5499359965324402,3.991630077362061,53.89312971559984,53.215612945840746,213.98718172779044,195.4690120920071,6.47544875391759e-05,0.0859051570296287,0,0,0
18193,607951.8568143637,2010-08-26 15:14:42,3992.018487569404,2,50,0.5501165986061096,3.99357271194458,53.89771663037393,53.215612945840746,214.00549560715905,195.4690120920071,3.237724376958795e-05,0.0859051570296287,0,0,0
18194,607981.8715096597,2010-08-26 15:15:12,4022.033182790185,2,50,0.5501165986061096,3.995838880538941,53.90230337322328,53.215612945840746,214.02381821231265,195.4690120920071,9.713172767078504e-05,0.0859051570296287,0,0,0
18195,608011.8868193419,2010-08-26 15:15:42,4052.048492472392,2,50,0.5501165986061096,3.99778151512146,53.90689026156795,53.215612945840746,214.04215093210476,195.4690120920071,3.237724376958795e-05,0.0859051570296287,0,0,0
18196,608041.901885437,2010-08-26 15:16:12,4082.063558562495,2,50,0.5501165986061096,3.9998860359191895,53.91147702763075,53.215612945840746,214.06049260314668,195.4690120920071,6.47544875391759e-05,0.0859051570296287,0,0,0
18197,608071.9170372657,2010-08-26 15:16:43,4112.078710396296,2,50,0.5501165986061096,4.001990795135498,53.91606390507564,53.215612945840746,214.07884441666803,195.4690120920071,6.47544875391759e-05,0.0859051570296287,0,0,0
18198,608101.9325678286,2010-08-26 15:17:13,4142.094240959005,2,50,0.5501165986061096,4.004095077514648,53.92065082197494,53.215612945840746,214.0972060558684,195.4690120920071,9.70840483205393e-05,0.0859051570296287,0,0,0
18199,608131.9475572925,2010-08-26 15:17:43,4172.109230423132,2,50,0.5501165986061096,4.006199836730957,53.92523758081862,53.215612945840746,214.11557693483337,195.4690120920071,3.24249267578125e-05,0.0859051570296287,0,0,0
18200,608161.9625881349,2010-08-26 15:18:13,4202.124261265384,2,50,0.5501165986061096,4.0084662437438965,53.9298244044826,53.215612945840746,214.13395802010533,195.4690120920071,9.71794142969884e-05,0.0859051570296287,0,0,0
18201,608191.9777453622,2010-08-26 15:18:43,4232.139418487615,2,50,0.5501165986061096,4.010570526123047,53.93441125018446,53.215612945840746,214.15234913342928,195.4690120920071,6.47544875391759e-05,0.0859051570296287,0,0,0
18202,608221.9929260428,2010-08-26 15:19:13,4262.154599168312,2,50,0.550297200679779,4.012836933135986,53.938998067099135,53.215612945840746,214.17075025251555,195.4690120920071,6.47544875391759e-05,0.0859051570296287,0,0,0
18203,608252.0080995206,2010-08-26 15:19:43,4292.169772641044,2,50,0.5501165986061096,4.014941692352295,53.943584923873225,53.215612945840746,214.1891617594929,195.4690120920071,3.24249267578125e-05,0.0859051570296287,0,0,0
18204,608282.0232811787,2010-08-26 15:20:13,4322.184954309202,2,50,0.550297200679779,4.017369747161865,53.9481717504622,53.215612945840746,214.20758351121,195.4690120920071,9.70840483205393e-05,0.0859051570296287,0,0,0
18205,608312.0384542053,2010-08-26 15:20:43,4352.2001273257965,2,50,0.550297200679779,4.019636154174805,53.95275859572957,53.215612945840746,214.2260157720896,195.4690120920071,6.47544875391759e-05,0.0859051570296287,0,0,0
18206,608342.0536661639,2010-08-26 15:21:13,4382.215339304497,2,50,0.5501165986061096,4.021902561187744,53.95734537862273,53.215612945840746,214.2444583566011,195.4690120920071,6.47544875391759e-05,0.0859051570296287,0,0,0
18207,608372.069074487,2010-08-26 15:21:43,4412.230747828049,2,50,0.5499359965324402,4.024168968200684,53.96193231954895,53.215612945840746,214.26291226018736,195.4690120920071,3.23295607813634e-05,0.0859051570296287,0,0,0
18208,608402.0840175054,2010-08-26 15:22:13,4442.245690625868,2,50,0.550297200679779,4.026759147644043,53.9665190937401,53.215612945840746,214.28137617769136,195.4690120920071,9.70840483205393e-05,0.0859051570296287,0,0,0
18209,608432.0991569131,2010-08-26 15:22:43,4472.260830043725,2,50,0.5499359965324402,4.028863906860352,53.97110585722299,53.215612945840746,214.2998509642915,195.4690120920071,3.24249267578125e-05,0.0859051570296287,0,0,0
18210,608462.1143240802,2010-08-26 15:23:13,4502.2759972107415,2,50,0.5501165986061096,4.031454086303711,53.97569260406875,53.215612945840746,214.3183365758492,195.4690120920071,6.47544875391759e-05,0.0859051570296287,0,0,0
18211,608492.1296475168,2010-08-26 15:23:43,4532.2913206472285,2,50,0.5501165986061096,4.03372049331665,53.98027936021277,53.215612945840746,214.3368333629241,195.4690120920071,3.24249267578125e-05,0.0859051570296287,0,0,0
18212,608522.1448817258,2010-08-26 15:24:13,4562.306554846309,2,50,0.5501165986061096,4.036148548126221,53.98486612586326,53.215612945840746,214.35534138819057,195.4690120920071,3.24249267578125e-05,0.0859051570296287,0,0,0
18213,608552.159872062,2010-08-26 15:24:43,4592.3215451926335,2,50,0.5501165986061096,4.03873872756958,53.989452876462906,53.215612945840746,214.37386074885305,195.4690120920071,6.47544875391759e-05,0.0859051570296287,0,0,0
18214,608582.1750248984,2010-08-26 15:25:13,4622.3366980189085,2,50,0.5501165986061096,4.04132890701294,53.994039770101,53.215612945840746,214.39239205180132,195.4690120920071,6.47544875391759e-05,0.0859051570296287,0,0,0
18215,608612.1903217888,2010-08-26 15:25:43,4652.351994909235,2,50,0.5499359965324402,4.04375696182251,53.99862656591127,53.215612945840746,214.4109344822835,195.4690120920071,3.23295607813634e-05,0.0859051570296287,0,0,0
18216,608642.2053855179,2010-08-26 15:26:13,4682.367058638452,2,50,0.550297200679779,4.046347141265869,54.00321333891759,53.215612945840746,214.4294884883002,195.4690120920071,6.47544875391759e-05,0.0859051570296287,0,0,0
18217,608672.2210142604,2010-08-26 15:26:43,4712.382687471081,2,50,0.5501165986061096,4.049099445343018,54.00780022103526,53.215612945840746,214.448054660094,195.4690120920071,0.0001295089750783,0.0859051570296287,0,0,0
18218,608702.2357360424,2010-08-26 15:27:13,4742.397409162836,2,50,0.5501165986061096,4.051527500152588,54.01238697928088,53.215612945840746,214.46663215060664,195.4690120920071,9.70840483205393e-05,0.0859051570296287,0,0,0
18219,608732.2508926832,2010-08-26 15:27:43,4772.412565808631,2,50,0.5501165986061096,4.054117679595947,54.01697377554285,53.215612945840746,214.48522171605356,195.4690120920071,6.47544875391759e-05,0.0859051570296287,0,0,0
18220,608762.266443752,2010-08-26 15:28:13,4802.428116877449,2,50,0.5501165986061096,4.056707859039307,54.021560659015,53.215612945840746,214.5038236937636,195.4690120920071,3.23295607813634e-05,0.0859051570296287,0,0,0
18221,608792.266762487,2010-08-26 15:28:43,4832.428435607591,2,50,0.550297200679779,4.059460163116455,54.02614528908878,53.215612945840746,214.52242868625177,195.4690120920071,9.71794142969884e-05,0.0859051570296287,0,0,0
18222,608822.2808475071,2010-08-26 15:29:13,4862.442520627564,2,50,0.5501165986061096,4.062050342559815,54.03073201042873,53.215612945840746,214.54105414894028,195.4690120920071,6.47544875391759e-05,0.0859051570296287,0,0,0
18223,608852.295993331,2010-08-26 15:29:43,4892.457666476449,2,50,0.5501165986061096,4.064640522003174,54.03531880943837,53.215612945840746,214.5596922358916,195.4690120920071,3.24249267578125e-05,0.0859051570296287,0,0,0
18224,608882.3110083337,2010-08-26 15:30:13,4922.472681574463,2,50,0.5501165986061096,4.067554473876953,54.039903220863344,53.215612945840746,214.57833312197263,195.4690120920071,6.47544875391759e-05,0.0859051570296287,0,0,0
18225,608912.3266116327,2010-08-26 15:30:43,4952.488284758167,2,50,0.5504778623580933,4.070630073547363,54.04449241715736,53.215612945840746,214.59700610495656,195.4690120920071,9.70840483205393e-05,0.0859051570296287,0,0,0
18226,608942.3415379594,2010-08-26 15:31:13,4982.503211089947,2,50,0.5501165986061096,4.073058605194092,54.04907916052685,53.215612945840746,214.61568171196427,195.4690120920071,6.47544875391759e-05,0.0859051570296287,0,0,0
18227,608972.3566826704,2010-08-26 15:31:43,5012.518355800997,2,50,0.5501165986061096,4.075810432434082,54.053665967349,53.215612945840746,214.6343704429723,195.4690120920071,6.47544875391759e-05,0.0859051570296287,0,0,0
18228,609002.3718564891,2010-08-26 15:32:13,5042.533529609565,2,50,0.5501165986061096,4.078562736511231,54.05825277017603,53.215612945840746,214.65307198430693,195.4690120920071,3.24249267578125e-05,0.0859051570296287,0,0,0
18229,609032.3870302275,2010-08-26 15:32:43,5072.548703352972,2,50,0.5501165986061096,4.08147668838501,54.06283956636207,53.215612945840746,214.67178656278745,195.4690120920071,3.24249267578125e-05,0.0859051570296287,0,0,0
18230,609062.402187976,2010-08-26 15:33:13,5102.563861106527,2,50,0.5501165986061096,4.084390640258789,54.06742626708411,53.215612945840746,214.6905138276844,195.4690120920071,9.71794142969884e-05,0.0859051570296287,0,0,0
18231,609092.4173592031,2010-08-26 15:33:43,5132.579032328649,2,50,0.550297200679779,4.087304592132568,54.0720129748519,53.215612945840746,214.70925449682497,195.4690120920071,6.47544875391759e-05,0.0859051570296287,0,0,0
18232,609122.4325418136,2010-08-26 15:34:13,5162.594214944169,2,50,0.550297200679779,4.0903801918029785,54.0765997372398,53.215612945840746,214.72800885258252,195.4690120920071,6.47544875391759e-05,0.0859051570296287,0,0,0
18233,609152.447735607,2010-08-26 15:34:43,5192.609408737546,2,50,0.5499359965324402,4.093132495880127,54.081186518594976,53.215612945840746,214.74677683085267,195.4690120920071,6.47544875391759e-05,0.0859051570296287,0,0,0
18234,609182.4628733807,2010-08-26 15:35:13,5222.624546531355,2,50,0.5501165986061096,4.096208095550537,54.08577326130753,53.215612945840746,214.7655583576285,195.4690120920071,9.70840483205393e-05,0.0859051570296287,0,0,0
18235,609212.4781800105,2010-08-26 15:35:43,5252.63985313088,2,50,0.5501165986061096,4.0992841720581055,54.09036002860539,53.215612945840746,214.7843537834076,195.4690120920071,6.47544875391759e-05,0.0859051570296287,0,0,0
18236,609242.4935095571,2010-08-26 15:36:13,5282.655182717696,2,50,0.5501165986061096,4.102359771728516,54.09494689440234,53.215612945840746,214.803163561272,195.4690120920071,6.47544875391759e-05,0.0859051570296287,0,0,0
18237,609272.5132031904,2010-08-26 15:36:43,5312.67487643126,2,50,0.550297200679779,4.105435848236084,54.0995343642832,53.215612945840746,214.8219898722476,195.4690120920071,6.47544875391759e-05,0.0859051570296287,0,0,0
18238,609302.523574224,2010-08-26 15:37:13,5342.685247349548,2,50,0.5501165986061096,4.108511447906494,54.10412043670825,53.215612945840746,214.8408247215252,195.4690120920071,9.70840483205393e-05,0.0859051570296287,0,0,0
18239,609332.5387483033,2010-08-26 15:37:43,5372.700421423779,2,50,0.5501165986061096,4.111749172210693,54.10870721480541,53.215612945840746,214.8596768013872,195.4690120920071,9.70840483205393e-05,0.0859051570296287,0,0,0
18240,609362.5540744866,2010-08-26 15:38:13,5402.7157476021,2,50,0.5501165986061096,4.114824771881104,54.11329402353236,53.215612945840746,214.87854341923745,195.4690120920071,6.46591215627268e-05,0.0859051570296287,0,0,0
18241,609392.5692247966,2010-08-26 15:38:43,5432.730897927142,2,50,0.5501165986061096,4.118062496185303,54.11788086127972,53.215612945840746,214.89742476109112,195.4690120920071,9.70840483205393e-05,0.0859051570296287,0,0,0
18242,609422.5842712377,2010-08-26 15:39:13,5462.745944363259,2,50,0.550297200679779,4.121300220489502,54.12246766657643,53.215612945840746,214.91632070357716,195.4690120920071,9.70840483205393e-05,0.0859051570296287,0,0,0
18243,609452.5994508107,2010-08-26 15:39:43,5492.761123941207,2,50,0.550297200679779,4.124537944793701,54.12705442385036,53.215612945840746,214.93523122957572,195.4690120920071,9.70840483205393e-05,0.0859051570296287,0,0,0
18244,609482.6146464838,2010-08-26 15:40:13,5522.7763196092565,2,50,0.5501165986061096,4.1277756690979,54.13164124096605,53.215612945840746,214.9541570665457,195.4690120920071,6.47544875391759e-05,0.0859051570296287,0,0,0
18245,609512.629814944,2010-08-26 15:40:43,5552.791488064484,2,50,0.5501165986061096,4.1310133934021,54.13622807969954,53.215612945840746,214.9730981151452,195.4690120920071,9.70840483205393e-05,0.0859051570296287,0,0,0
18246,609542.6449752239,2010-08-26 15:41:13,5582.806648349348,2,50,0.5501165986061096,4.134413242340088,54.14081487522602,53.215612945840746,214.99205426910916,195.4690120920071,9.71794142969884e-05,0.0859051570296287,0,0,0
18247,609572.660166917,2010-08-26 15:41:43,5612.821840037478,2,50,0.5501165986061096,4.137812614440918,54.14540161310765,53.215612945840746,215.0110255477379,195.4690120920071,0.0001295089750783,0.0859051570296287,0,0,0
18248,609602.67533045,2010-08-26 15:42:13,5642.837003570437,2,50,0.5499359965324402,4.141050338745117,54.14998843643111,53.215612945840746,215.0300127509648,195.4690120920071,6.47544875391759e-05,0.0859051570296287,0,0,0
18249,609632.6904894817,2010-08-26 15:42:43,5672.852162607191,2,50,0.5501165986061096,4.144773960113525,54.15457526097385,53.215612945840746,215.04901560304475,195.4690120920071,9.71794142969884e-05,0.0859051570296287,0,0,0
18250,609662.7056596011,2010-08-26 15:43:13,5702.867332721552,2,50,0.5501165986061096,4.148173332214356,54.15916201604684,53.215612945840746,215.06803428726485,195.4690120920071,9.70840483205393e-05,0.0859051570296287,0,0,0
18251,609692.7208496601,2010-08-26 15:43:43,5732.882522800673,2,50,0.5499359965324402,4.151573181152344,54.16374873367338,53.215612945840746,215.0870687186998,195.4690120920071,3.24249267578125e-05,0.0859051570296287,0,0,0
18252,609722.7360205915,2010-08-26 15:44:13,5762.897693722046,2,50,0.550297200679779,4.155134677886963,54.16833554849923,53.215612945840746,215.10611959015225,195.4690120920071,0.0001295089750783,0.0859051570296287,0,0,0
18253,609752.751177904,2010-08-26 15:44:43,5792.9128510294895,2,50,0.5499359965324402,4.158534049987793,54.17292233052136,53.215612945840746,215.1251864945742,195.4690120920071,3.23295607813634e-05,0.0859051570296287,0,0,0
18254,609782.7665334856,2010-08-26 15:45:13,5822.928206616105,2,50,0.5499359965324402,4.162257671356201,54.177509049024415,53.215612945840746,215.14426940715205,195.4690120920071,0.0001619339018361,0.0859051570296287,0,0,0
18255,609812.7815472602,2010-08-26 15:45:43,5852.94322039082,2,50,0.5501165986061096,4.16581916809082,54.18209582312039,53.215612945840746,215.1633689663491,195.4690120920071,6.47544875391759e-05,0.0859051570296287,0,0,0
18256,609842.7967088585,2010-08-26 15:46:13,5882.958381978932,2,50,0.550297200679779,4.16938066482544,54.18668302841345,53.215612945840746,215.18248692916052,195.4690120920071,6.47544875391759e-05,0.0859051570296287,0,0,0
18257,609872.8118666371,2010-08-26 15:46:43,5912.973539762562,2,50,0.5501165986061096,4.173265933990479,54.19127057596546,53.215612945840746,215.20162309297544,195.4690120920071,9.71794142969884e-05,0.0859051570296287,0,0,0
18258,609902.8270391825,2010-08-26 15:47:13,5942.98871230297,2,50,0.550297200679779,4.176827430725098,54.1958581489758,53.215612945840746,215.2207762342833,195.4690120920071,9.71794142969884e-05,0.0859051570296287,0,0,0
18259,609932.8422331763,2010-08-26 15:47:43,5973.003906286823,2,50,0.5504778623580933,4.180712699890137,54.20044563596042,53.215612945840746,215.2399460273392,195.4690120920071,0.0001295089750783,0.0859051570296287,0,0,0
18260,609962.8574289347,2010-08-26 15:48:13,6003.019102055122,2,50,0.5501165986061096,4.184435844421387,54.20503264277871,53.215612945840746,215.25913102776897,195.4690120920071,9.70840483205393e-05,0.0859051570296287,0,0,0
18261,609992.8726015352,2010-08-26 15:48:43,6033.034274660693,2,50,0.5501165986061096,4.188159465789795,54.20961938513622,53.215612945840746,215.2783321517668,195.4690120920071,0.0001295089750783,0.0859051570296287,0,0,0
18262,610022.8878612679,2010-08-26 15:49:14,6063.049534393411,2,50,0.5501165986061096,4.192044734954834,54.21420612009862,53.215612945840746,215.29755074889025,195.4690120920071,9.71794142969884e-05,0.0859051570296287,0,0,0
18263,610052.9030808205,2010-08-26 15:49:44,6093.064753956013,2,50,0.5501165986061096,4.195929527282715,54.21879285768942,53.215612945840746,215.31678693650576,195.4690120920071,0.0001295089750783,0.0859051570296287,0,0,0
18264,610082.918231717,2010-08-26 15:50:14,6123.079904862503,2,50,0.550297200679779,4.199814796447754,54.22337953092804,53.215612945840746,215.3360406260078,195.4690120920071,0.0001295089750783,0.0859051570296287,0,0,0
18265,610084.8399588423,2010-08-26 15:50:15,6125.001632789799,2,50,0.550297200679779,4.200138568878174,54.223673193735706,53.215612945840746,215.33727395776265,195.4690120920071,0.0001618385285837,0.0859051570296287,0,0,0
18266,610114.82644861,2010-08-26 15:50:46,30.015187562848947,3,50,0.0,4.121786117553711,54.223673193735706,53.215612945840746,215.33727395776265,195.4690120920071,-0.0004208564641885,0.0859051570296287,0,0,0
18267,610144.8416131506,2010-08-26 15:51:16,60.030352108331535,3,50,0.0,4.112072944641113,54.223673193735706,53.215612945840746,215.33727395776265,195.4690120920071,-0.0002266883820993,0.0859051570296287,0,0,0
18268,610174.8567790946,2010-08-26 15:51:46,90.04551807234954,3,50,0.0,4.106245040893555,54.223673193735706,53.215612945840746,215.33727395776265,195.4690120920071,-0.0001295089750783,0.0859051570296287,0,0,0
18269,610204.8250688436,2010-08-26 15:52:16,120.01380780637898,3,50,0.0,4.102359771728516,54.223673193735706,53.215612945840746,215.33727395776265,195.4690120920071,-9.71794142969884e-05,0.0859051570296287,0,0,0
18270,610204.8294497528,2010-08-26 15:52:16,0.031245473333539,4,50,1.0038070678710938,4.199653148651123,54.223681924292045,53.215612945840746,215.3373106234273,195.4690120920071,-3.23295607813634e-05,0.0859051570296287,0,0,0
18271,610205.7669469393,2010-08-26 15:52:17,0.968742654770351,4,50,0.9537783265113832,4.199814796447754,54.2239353655261,53.215612945840746,215.3383750169821,195.4690120920071,0.0,0.0859051570296287,0,0,0
18272,610207.8608257747,2010-08-26 15:52:19,3.062621485085907,4,50,0.9037495851516724,4.199491024017334,54.22447454769804,53.215612945840746,215.34063944529703,195.4690120920071,-6.47544875391759e-05,0.0859051570296287,0,0,0
18273,610210.9545552854,2010-08-26 15:52:22,6.15635100095623,4,50,0.8537207841873169,4.199653148651123,54.22522864002367,53.215612945840746,215.34380643165755,195.4690120920071,0.0,0.0859051570296287,0,0,0
18274,610215.1106712352,2010-08-26 15:52:26,10.312466965745395,4,50,0.8035114407539368,4.199814796447754,54.22618420438328,53.215612945840746,215.347819567898,195.4690120920071,0.0,0.0859051570296287,0,0,0
18275,610220.4230814611,2010-08-26 15:52:31,15.624877171566055,4,50,0.7531214356422424,4.199814796447754,54.22733152855966,53.215612945840746,215.35263804552253,195.4690120920071,0.0,0.0859051570296287,0,0,0
18276,610227.2198613078,2010-08-26 15:52:38,22.42165701826089,4,50,0.7029120922088623,4.199653148651123,54.22870445133385,53.215612945840746,215.3584039919101,195.4690120920071,0.0,0.0859051570296287,0,0,0
18277,610236.0789811052,2010-08-26 15:52:47,31.280776810666584,4,50,0.6527026891708374,4.199814796447754,54.23036995591603,53.215612945840746,215.36539873129297,195.4690120920071,0.0,0.0859051570296287,0,0,0
18278,610248.1100496098,2010-08-26 15:52:59,43.311845315247226,4,50,0.6026738882064819,4.199814796447754,54.23246355220564,53.215612945840746,215.3741913513133,195.4690120920071,0.0,0.0859051570296287,0,0,0
18279,610265.5160625998,2010-08-26 15:53:16,60.71785831533977,4,50,0.5526451468467712,4.199976921081543,54.23524878935372,53.215612945840746,215.385888738563,195.4690120920071,6.47544875391759e-05,0.0859051570296287,0,0,0
18280,610292.9387086866,2010-08-26 15:53:44,88.1405044021253,4,50,0.5026163458824158,4.199653148651123,54.239253296197845,53.215612945840746,215.40270675339852,195.4690120920071,-3.23295607813634e-05,0.0859051570296287,0,0,0
18281,610340.0461721201,2010-08-26 15:54:31,135.24796785064316,4,50,0.4525876045227051,4.199814796447754,54.24547606822222,53.215612945840746,215.4288410183294,195.4690120920071,0.0,0.0859051570296287,0,0,0
18282,610415.6231725446,2010-08-26 15:55:47,210.82496825010023,4,50,0.402558833360672,4.199653148651123,54.25442308014794,53.215612945840746,215.46641647280583,195.4690120920071,-3.23295607813634e-05,0.0859051570296287,0,0,0
18283,610518.4497284609,2010-08-26 15:57:29,313.6515241713964,4,50,0.3525300621986389,4.199814796447754,54.26518716180159,53.215612945840746,215.5116232915936,195.4690120920071,0.0,0.0859051570296287,0,0,0
18284,610643.7291079321,2010-08-26 15:59:35,438.9309036425398,4,50,0.3021400868892669,4.199814796447754,54.27656437713674,53.215612945840746,215.5594050810612,195.4690120920071,3.23295607813634e-05,0.0859051570296287,0,0,0
18285,610795.934191242,2010-08-26 16:02:07,591.1359869574941,4,50,0.2521113157272339,4.199653148651123,54.28826103312504,53.215612945840746,215.6085284254164,195.4690120920071,0.0,0.0859051570296287,0,0,0
18286,610982.0677405989,2010-08-26 16:05:13,777.2695363043276,4,50,0.2020825445652008,4.199653148651123,54.29996645725437,53.215612945840746,215.6576885715057,195.4690120920071,-3.23295607813634e-05,0.0859051570296287,0,0,0
18287,611227.4079406918,2010-08-26 16:09:18,1022.6097364173016,4,50,0.1520537734031677,4.199653148651123,54.31197208907761,53.215612945840746,215.7081095690816,195.4690120920071,0.0,0.0859051570296287,0,0,0
18288,611584.214875475,2010-08-26 16:15:15,1379.416671185493,4,50,0.102024994790554,4.199653148651123,54.32440145295908,53.215612945840746,215.7603100676475,195.4690120920071,0.0,0.0859051570296287,0,0,0
18289,612229.8301377946,2010-08-26 16:26:01,2025.0319335050435,4,50,0.0519962273538112,4.199814796447754,54.337708817535045,53.215612945840746,215.81619811735123,195.4690120920071,0.0,0.0859051570296287,0,0,0
18290,612271.3139006258,2010-08-26 16:26:42,2066.5156963362538,4,50,0.0498289167881011,4.199653148651123,54.3383007708544,53.215612945840746,215.81868418774823,195.4690120920071,0.0,0.0859051570296287,0,0,0
18291,612301.3490007136,2010-08-26 16:27:12,30.015156690906565,5,50,0.0,4.192530155181885,54.3383007708544,53.215612945840746,215.81868418774823,195.4690120920071,-3.24249267578125e-05,0.0859051570296287,0,0,0
18292,612331.3485492341,2010-08-26 16:27:42,60.01470523651254,5,50,0.0,4.191397190093994,54.3383007708544,53.215612945840746,215.81868418774823,195.4690120920071,0.0,0.0859051570296287,0,0,0
18293,612331.5100479802,2010-08-26 16:27:43,0.187502945032234,6,50,-1.9243103452026844e-05,4.191235065460205,54.3383007708544,53.21561294684301,215.81868418774823,195.4690120962078,0.0,0.0898760333657264,0,0,0
18294,612336.3382180606,2010-08-26 16:27:48,5.015673015438478,6,50,0.0008838032954372,4.191235065460205,54.338301781595234,53.21561294701012,215.8186884241509,195.46901209690824,-6.47544875391759e-05,0.0898760333657264,0,0,0
18295,612366.3584386917,2010-08-26 16:28:18,30.015025158086303,7,50,-1.099568486213684,4.027892589569092,54.338301781595234,53.22478082172405,215.8186884241509,195.50612869728977,-0.0009065627818927,0.0898760333657264,0,0,0
18296,612396.3736139389,2010-08-26 16:28:48,60.03020040022826,7,50,-1.099568486213684,4.002638339996338,54.338301781595234,53.2339486843212,215.8186884241509,195.54293162321645,-0.0005827903514727,0.0898760333657264,0,0,0
18297,612426.3888214366,2010-08-26 16:29:18,90.04540790277305,7,50,-1.099568486213684,3.985154628753662,54.338301781595234,53.24311650373438,215.8186884241509,195.57954298889945,-0.0004209041653666,0.0898760333657264,0,0,0
18298,612456.4041516298,2010-08-26 16:29:48,120.06073808607606,7,50,-1.099568486213684,3.9717180728912354,54.338301781595234,53.25228429653947,215.8186884241509,195.6160145720263,-0.0003237724304199,0.0898760333657264,0,0,0
18299,612486.4191354098,2010-08-26 16:30:18,150.07572187104785,7,50,-1.099568486213684,3.960386037826538,54.338301781595234,53.261451986928606,215.8186884241509,195.6523725486499,-0.0002913951757363,0.0898760333657264,0,0,0
18300,612516.4343200254,2010-08-26 16:30:48,180.0909064915636,7,50,-1.099568486213684,3.950187206268311,54.338301781595234,53.27061973366946,215.8186884241509,195.6886323605843,-0.0002590179501567,0.0898760333657264,0,0,0
18301,612546.449472616,2010-08-26 16:31:18,210.10605907222617,7,50,-1.099568486213684,3.940797805786133,54.338301781595234,53.27978747837256,215.8186884241509,195.7248026194027,-0.0002266406954731,0.0898760333657264,0,0,0
18302,612576.4646555273,2010-08-26 16:31:48,240.1212419884944,7,50,-1.099568486213684,3.931732177734375,54.338301781595234,53.28895521152131,215.8186884241509,195.7608888392226,-0.0002590179501567,0.0898760333657264,0,0,0
18303,612606.4798120877,2010-08-26 16:32:18,270.1363985440637,7,50,-1.0993878841400146,3.923314094543457,54.338301781595234,53.298122348627054,215.8186884241509,195.7968928190116,-0.0001942634553415,0.0898760333657264,0,0,0
18304,612636.4951238452,2010-08-26 16:32:48,300.1517103014436,7,50,-1.0993878841400146,3.915057897567749,54.338301781595234,53.3072893933676,215.8186884241509,195.83281924345857,-0.0001942634553415,0.0898760333657264,0,0,0
18305,612666.5101831985,2010-08-26 16:33:18,330.1667696647799,7,50,-1.0997490882873535,3.90680193901062,54.338301781595234,53.31645703022532,215.8186884241509,195.86867273207932,-0.0001942634553415,0.0898760333657264,0,0,0
18306,612696.525359799,2010-08-26 16:33:48,360.1819462653074,7,50,-1.0993878841400146,3.898869514465332,54.338301781595234,53.32562483245941,215.8186884241509,195.90445327855045,-0.0001942634553415,0.0898760333657264,0,0,0
18307,612726.5406639675,2010-08-26 16:34:18,390.1972504237484,7,50,-1.099568486213684,3.891422748565674,54.338301781595234,53.334792667056696,215.8186884241509,195.94016238017272,-0.0001942634553415,0.0898760333657264,0,0,0
18308,612756.5556929,2010-08-26 16:34:48,420.21227935624165,7,50,-1.099568486213684,3.883652210235596,54.338301781595234,53.34396043837781,215.8186884241509,195.97580106300464,-0.0001618862152099,0.0898760333657264,0,0,0
18309,612786.5708699316,2010-08-26 16:35:18,450.227456392856,7,50,-1.0993878841400146,3.876043558120728,54.338301781595234,53.35312818379363,215.8186884241509,196.01137058251936,-0.0002266406954731,0.0898760333657264,0,0,0
18310,612816.5902723994,2010-08-26 16:35:48,480.2468588655572,7,50,-1.099568486213684,3.8687586784362793,54.338301781595234,53.36229727428381,215.8186884241509,196.0468770380287,-0.0001942634553415,0.0898760333657264,0,0,0
18311,612846.6012471926,2010-08-26 16:36:18,510.2578336538758,7,50,-1.0997490882873535,3.861473798751831,54.338301781595234,53.37146375935719,215.8186884241509,196.08230631906443,-0.0001942634553415,0.0898760333657264,0,0,0
18312,612876.6163717385,2010-08-26 16:36:48,540.2729582046793,7,50,-1.0997490882873535,3.8543508052825928,54.338301781595234,53.38063159904792,215.8186884241509,196.11767455772724,-0.0001618862152099,0.0898760333657264,0,0,0
18313,612906.6315451008,2010-08-26 16:37:18,570.2881315871865,7,50,-1.0997490882873535,3.8472278118133545,54.338301781595234,53.38979940862816,215.8186884241509,196.15297737129023,-0.0001942634553415,0.0898760333657264,0,0,0
18314,612936.6467689591,2010-08-26 16:37:48,600.3033554254449,7,50,-1.099568486213684,3.840266704559326,54.338301781595234,53.39896727456422,215.8186884241509,196.1882161839909,-0.0001618862152099,0.0898760333657264,0,0,0
18315,612966.6620195542,2010-08-26 16:38:18,630.3186060254018,7,50,-1.099568486213684,3.833467483520508,54.338301781595234,53.408135160664585,215.8186884241509,196.2233919140158,-0.0001618862152099,0.0898760333657264,0,0,0
18316,612996.6770554138,2010-08-26 16:38:48,660.3336418701224,7,50,-1.099568486213684,3.8268303871154794,54.338301781595234,53.41730296670672,215.8186884241509,196.25850522329503,-0.0001618862152099,0.0898760333657264,0,0,0
18317,613026.6922345157,2010-08-26 16:39:18,690.3488209718837,7,50,-1.099568486213684,3.82019305229187,54.338301781595234,53.42647087742034,215.8186884241509,196.2935576667772,-0.0001618862152099,0.0898760333657264,0,0,0
18318,613056.7074036776,2010-08-26 16:39:48,720.3639901388847,7,50,-1.099568486213684,3.813717603683472,54.338301781595234,53.43563866392583,215.8186884241509,196.3285494090619,-0.0001295089750783,0.0898760333657264,0,0,0
18319,613086.7225719073,2010-08-26 16:40:18,750.3791583685493,7,50,-1.0993878841400146,3.807242155075073,54.338301781595234,53.44480646954195,215.8186884241509,196.36348117769268,-9.713172767078504e-05,0.0898760333657264,0,0,0
18320,613116.737758202,2010-08-26 16:40:48,780.39434466825,7,50,-1.099568486213684,3.800766706466675,54.338301781595234,53.453974268276575,215.8186884241509,196.3983548109092,-0.0001942634553415,0.0898760333657264,0,0,0
18321,613146.7529279003,2010-08-26 16:41:18,810.4095143665752,7,50,-1.0997490882873535,3.794615030288696,54.338301781595234,53.46314208942646,215.8186884241509,196.4331713065167,-0.0001618862152099,0.0898760333657264,0,0,0
18322,613176.7680942152,2010-08-26 16:41:48,840.4246806714426,7,50,-1.099568486213684,3.788301467895508,54.338301781595234,53.47230993098528,215.8186884241509,196.46793154735568,-0.0001942634553415,0.0898760333657264,0,0,0
18323,613206.7832557933,2010-08-26 16:42:18,870.4398422545421,7,50,-1.099568486213684,3.782635450363159,54.338301781595234,53.48147783933221,215.8186884241509,196.50263677132372,-0.0001295089750783,0.0898760333657264,0,0,0
18324,613236.7984170957,2010-08-26 16:42:48,900.4550035519294,7,50,-1.0997490882873535,3.7768075466156006,54.338301781595234,53.49064572471876,215.8186884241509,196.5372877085533,-0.0001618862152099,0.0898760333657264,0,0,0
18325,613266.8135940321,2010-08-26 16:43:18,930.4701804983188,7,50,-1.099568486213684,3.770817756652832,54.338301781595234,53.49981358097536,215.8186884241509,196.57188533838536,-0.0001942634553415,0.0898760333657264,0,0,0
18326,613296.8289005113,2010-08-26 16:43:48,960.485486977544,7,50,-1.099568486213684,3.765313625335693,54.338301781595234,53.508981532867786,215.8186884241509,196.60643110307183,-0.0001295089750783,0.0898760333657264,0,0,0
18327,613326.8439234588,2010-08-26 16:44:18,990.5005099201086,7,50,-1.099568486213684,3.7599713802337646,54.338301781595234,53.51814935344443,215.8186884241509,196.64092530758649,-0.0001295089750783,0.0898760333657264,0,0,0
18328,613356.8591364551,2010-08-26 16:44:48,1020.5157229213578,7,50,-1.099568486213684,3.754467248916626,54.338301781595234,53.527317227340845,215.8186884241509,196.6753696465112,-0.0001295089750783,0.0898760333657264,0,0,0
18329,613386.8742657627,2010-08-26 16:45:18,1050.5308522240043,7,50,-1.0997490882873535,3.7489633560180655,54.338301781595234,53.536485051128125,215.8186884241509,196.7097643953874,-0.0001942634553415,0.0898760333657264,0,0,0
18330,613416.889646512,2010-08-26 16:45:48,1080.546232968321,7,50,-1.099568486213684,3.743782997131348,54.338301781595234,53.54565302586124,215.8186884241509,196.744111488785,-9.713172767078504e-05,0.0898760333657264,0,0,0
18331,613446.9046049238,2010-08-26 16:46:18,1110.56119139008,7,50,-1.099568486213684,3.738764524459839,54.338301781595234,53.55482083582341,215.8186884241509,196.77841016907468,-9.713172767078504e-05,0.0898760333657264,0,0,0
18332,613476.9197820456,2010-08-26 16:46:48,1140.5763685018817,7,50,-1.0992072820663452,3.73374605178833,54.338301781595234,53.56398868032092,215.8186884241509,196.81266206795664,-9.713172767078504e-05,0.0898760333657264,0,0,0
18333,613506.9349442403,2010-08-26 16:47:18,1170.5915306965053,7,50,-1.099568486213684,3.7288894653320312,54.338301781595234,53.57315656843293,215.8186884241509,196.8468682953778,-6.47544875391759e-05,0.0898760333657264,0,0,0
18334,613536.9501234423,2010-08-26 16:47:48,1200.6067098985163,7,50,-1.099568486213684,3.7238709926605225,54.338301781595234,53.58232438903649,215.8186884241509,196.88103032360937,-0.0001618862152099,0.0898760333657264,0,0,0
18335,613566.9653110001,2010-08-26 16:48:18,1230.6218974663775,7,50,-1.099568486213684,3.719014406204224,54.338301781595234,53.59149230110397,215.8186884241509,196.91514877755276,-0.0001618862152099,0.0898760333657264,0,0,0
18336,613596.9804505634,2010-08-26 16:48:48,1260.6370370496468,7,50,-1.099568486213684,3.7144815921783447,54.338301781595234,53.600660123222845,215.8186884241509,196.949223872731,-0.0001295089750783,0.0898760333657264,0,0,0
18337,613626.995613585,2010-08-26 16:49:18,1290.6522000512816,7,50,-1.099568486213684,3.709786891937256,54.338301781595234,53.60982801662514,215.8186884241509,196.9832569562184,-0.0001618862152099,0.0898760333657264,0,0,0
18338,613657.0108914129,2010-08-26 16:49:48,1320.6674779843613,7,50,-1.099568486213684,3.705415964126587,54.338301781595234,53.618995929825765,215.8186884241509,197.0172484907027,-9.713172767078504e-05,0.0898760333657264,0,0,0
18339,613687.0260824694,2010-08-26 16:50:18,1350.6826689356549,7,50,-1.0993878841400146,3.701045036315918,54.338301781595234,53.62816374425948,215.8186884241509,197.0511990287875,-9.713172767078504e-05,0.0898760333657264,0,0,0
18340,613717.0411446497,2010-08-26 16:50:48,1380.6977311310495,7,50,-1.0997490882873535,3.696674108505249,54.338301781595234,53.63733159949218,215.8186884241509,197.08510950896624,-0.0001295089750783,0.0898760333657264,0,0,0
18341,613747.0564868079,2010-08-26 16:51:18,1410.7130732942103,7,50,-1.0993878841400146,3.69246506690979,54.338301781595234,53.64649952675909,215.8186884241509,197.11898056604892,-9.713172767078504e-05,0.0898760333657264,0,0,0
18342,613777.071506392,2010-08-26 16:51:48,1440.7280928583546,7,50,-1.0997490882873535,3.688094139099121,54.338301781595234,53.65566737249842,215.8186884241509,197.15281227461017,-9.713172767078504e-05,0.0898760333657264,0,0,0
18343,613807.0866363914,2010-08-26 16:52:18,1470.7432228527252,7,50,-1.0993878841400146,3.684046983718872,54.338301781595234,53.66483508692189,215.8186884241509,197.1866052449276,-9.713172767078504e-05,0.0898760333657264,0,0,0
18344,613837.1019350913,2010-08-26 16:52:48,1500.758521557574,7,50,-1.099568486213684,3.679837942123413,54.338301781595234,53.67400296859575,215.8186884241509,197.22036146686705,-0.0001295089750783,0.0898760333657264,0,0,0
18345,613867.1169804848,2010-08-26 16:53:18,1530.7735669510937,7,50,-1.099568486213684,3.676114559173584,54.338301781595234,53.68317081558444,215.8186884241509,197.25408057992524,-6.47544875391759e-05,0.0898760333657264,0,0,0
18346,613897.1321645088,2010-08-26 16:53:48,1560.7887509751226,7,50,-1.0993878841400146,3.672067642211914,54.338301781595234,53.692338699615874,215.8186884241509,197.28776357279145,-9.70840483205393e-05,0.0898760333657264,0,0,0
18347,613927.1473268187,2010-08-26 16:54:18,1590.8039132800209,7,50,-1.099568486213684,3.668344259262085,54.338301781595234,53.701506648402685,215.8186884241509,197.32141116290333,-9.713172767078504e-05,0.0898760333657264,0,0,0
18348,613957.162484046,2010-08-26 16:54:49,1620.819070502252,7,50,-1.0997490882873535,3.664458990097046,54.338301781595234,53.71067454718122,215.8186884241509,197.3550235646122,-9.713172767078504e-05,0.0898760333657264,0,0,0
18349,613987.1779805488,2010-08-26 16:55:19,1650.8345670150993,7,50,-1.0997490882873535,3.660735607147217,54.338301781595234,53.71984257639596,215.8186884241509,197.3886021337845,-9.713172767078504e-05,0.0898760333657264,0,0,0
18350,614017.1929924638,2010-08-26 16:55:49,1680.849579747216,7,50,-1.099568486213684,3.657012224197388,54.338301781595234,53.72901134439801,215.8186884241509,197.4221493743597,-6.47544875391759e-05,0.0898760333657264,0,0,0
18351,614047.2082129237,2010-08-26 16:56:19,1710.8647993799932,7,50,-1.099568486213684,3.653450727462769,54.338301781595234,53.73818019977348,215.8186884241509,197.4556638423537,-9.713172767078504e-05,0.0898760333657264,0,0,0
18352,614077.2231720121,2010-08-26 16:56:49,1740.8797584583886,7,50,-1.0997490882873535,3.649889230728149,54.338301781595234,53.74734901203223,215.8186884241509,197.48914555638075,-0.0001295089750783,0.0898760333657264,0,0,0
18353,614107.2383538106,2010-08-26 16:57:19,1770.894940276921,7,50,-1.0997490882873535,3.6463277339935294,54.338301781595234,53.756517885835095,215.8186884241509,197.52259542792345,-9.713172767078504e-05,0.0898760333657264,0,0,0
18354,614137.2535261255,2010-08-26 16:57:49,1800.9101125817422,7,50,-1.099568486213684,3.643251895904541,54.338301781595234,53.76568575167228,215.8186884241509,197.55601090384465,-6.47544875391759e-05,0.0898760333657264,0,0,0
18355,614167.2686734732,2010-08-26 16:58:19,1830.9252599293625,7,50,-1.0997490882873535,3.639852285385132,54.338301781595234,53.77485355462005,215.8186884241509,197.58939593265697,-0.0001295089750783,0.0898760333657264,0,0,0
18356,614197.2838553368,2010-08-26 16:58:49,1860.940441793007,7,50,-1.099568486213684,3.636776447296143,54.338301781595234,53.78402142804868,215.8186884241509,197.62275127140492,-6.47544875391759e-05,0.0898760333657264,0,0,0
18357,614227.2991319515,2010-08-26 16:59:19,1890.955718417826,7,50,-1.0997490882873535,3.633538722991944,54.338301781595234,53.7931892629661,215.8186884241509,197.65607792115017,-9.713172767078504e-05,0.0898760333657264,0,0,0
18358,614257.3143115946,2010-08-26 16:59:49,1920.9708980509115,7,50,-1.0993878841400146,3.630624771118164,54.338301781595234,53.80235708527858,215.8186884241509,197.68937659982737,-6.47544875391759e-05,0.0898760333657264,0,0,0
18359,614287.3293458003,2010-08-26 17:00:19,1950.98593226156,7,50,-1.099568486213684,3.6277108192443848,54.338301781595234,53.81152493939056,215.8186884241509,197.7226478484687,-6.47544875391759e-05,0.0898760333657264,0,0,0
18360,614317.3446394877,2010-08-26 17:00:49,1981.001225953916,7,50,-1.099568486213684,3.624634981155396,54.338301781595234,53.82069281829498,215.8186884241509,197.75589234794245,-0.0001295089750783,0.0898760333657264,0,0,0
18361,614347.3596863397,2010-08-26 17:01:19,2011.0162728261205,7,50,-1.099568486213684,3.622044801712036,54.338301781595234,53.829860667020085,215.8186884241509,197.78911062317243,-6.47544875391759e-05,0.0898760333657264,0,0,0
18362,614377.3749948641,2010-08-26 17:01:49,2041.0315813303928,7,50,-1.0993878841400146,3.619292736053467,54.338301781595234,53.83902856476177,215.8186884241509,197.82230312600683,-3.237724376958795e-05,0.0898760333657264,0,0,0
18363,614407.3901754997,2010-08-26 17:02:19,2071.046761955952,7,50,-1.0993878841400146,3.616378784179688,54.338301781595234,53.84819652202527,215.8186884241509,197.85547022169249,-6.47544875391759e-05,0.0898760333657264,0,0,0
18364,614437.4051941767,2010-08-26 17:02:49,2101.0617806178475,7,50,-1.099568486213684,3.613626718521118,54.338301781595234,53.85736435053328,215.8186884241509,197.88861166590192,-6.47544875391759e-05,0.0898760333657264,0,0,0
18365,614467.4204928464,2010-08-26 17:03:19,2131.0770793126712,7,50,-1.0997490882873535,3.610874652862549,54.338301781595234,53.86653225037207,215.8186884241509,197.92172845359983,-6.47544875391759e-05,0.0898760333657264,0,0,0
18366,614497.4355448012,2010-08-26 17:03:49,2161.092131262531,7,50,-1.099568486213684,3.60812258720398,54.338301781595234,53.87570007288373,215.8186884241509,197.95482039250285,-9.713172767078504e-05,0.0898760333657264,0,0,0
18367,614527.4507794264,2010-08-26 17:04:19,2191.1073658826613,7,50,-1.099568486213684,3.60537052154541,54.338301781595234,53.8848680251591,215.8186884241509,197.9878879870669,-9.713172767078504e-05,0.0898760333657264,0,0,0
18368,614557.4658746591,2010-08-26 17:04:49,2221.1224611204075,7,50,-1.0993878841400146,3.6029422283172607,54.338301781595234,53.8940358406152,215.8186884241509,198.0209300661707,-6.47544875391759e-05,0.0898760333657264,0,0,0
18369,614587.4810702219,2010-08-26 17:05:19,2251.1376566781823,7,50,-1.099568486213684,3.600028276443481,54.338301781595234,53.90320376729206,215.8186884241509,198.05394755107423,-6.47544875391759e-05,0.0898760333657264,0,0,0
18370,614617.4962412586,2010-08-26 17:05:49,2281.1528276998056,7,50,-1.099568486213684,3.597276210784912,54.338301781595234,53.912371677692185,215.8186884241509,198.0869396115547,-3.237724376958795e-05,0.0898760333657264,0,0,0
18371,614647.5113810825,2010-08-26 17:06:19,2311.1679675437244,7,50,-1.099568486213684,3.5945241451263428,54.338301781595234,53.921539550558094,215.8186884241509,198.11990572333207,-3.237724376958795e-05,0.0898760333657264,0,0,0
18372,614677.5265493522,2010-08-26 17:06:49,2341.183135808477,7,50,-1.0997490882873535,3.5916104316711426,54.338301781595234,53.93070745580457,215.8186884241509,198.1528462329932,-6.47544875391759e-05,0.0898760333657264,0,0,0
18373,614707.5417285793,2010-08-26 17:07:19,2371.19831503555,7,50,-1.099568486213684,3.5886964797973637,54.338301781595234,53.93987535778948,215.8186884241509,198.185760510874,-6.47544875391759e-05,0.0898760333657264,0,0,0
18374,614737.5579448158,2010-08-26 17:07:49,2401.214531282196,7,50,-1.0993878841400146,3.585782527923584,54.338301781595234,53.94904358892398,215.8186884241509,198.21864933541195,-0.0001295089750783,0.0898760333657264,0,0,0
18375,614767.5607154419,2010-08-26 17:08:19,2431.217301908217,7,50,-1.0997490882873535,3.5828685760498047,54.338301781595234,53.95820767752468,215.8186884241509,198.25149607265132,-6.47544875391759e-05,0.0898760333657264,0,0,0
18376,614797.5716072033,2010-08-26 17:08:49,2461.2281936595823,7,50,-1.099568486213684,3.579630851745605,54.338301781595234,53.96737427644388,215.8186884241509,198.2843241705613,-9.713172767078504e-05,0.0898760333657264,0,0,0
18377,614827.5868959684,2010-08-26 17:09:19,2491.2434824346838,7,50,-1.099929690361023,3.576555013656616,54.338301781595234,53.97654224911358,215.8186884241509,198.31712874981287,-9.713172767078504e-05,0.0898760333657264,0,0,0
18378,614857.6019434571,2010-08-26 17:09:49,2521.258529908387,7,50,-1.099568486213684,3.573479175567627,54.338301781595234,53.985710159359854,215.8186884241509,198.34990378060203,-6.47544875391759e-05,0.0898760333657264,0,0,0
18379,614887.6171288696,2010-08-26 17:10:19,2551.2737153309017,7,50,-1.0997490882873535,3.5700795650482178,54.338301781595234,53.994878071922976,215.8186884241509,198.38264899250817,-9.713172767078504e-05,0.0898760333657264,0,0,0
18380,614917.6324176097,2010-08-26 17:10:49,2581.28900408094,7,50,-1.0993878841400146,3.5666799545288086,54.338301781595234,54.004046012530246,215.8186884241509,198.41536353863032,-6.47544875391759e-05,0.0898760333657264,0,0,0
18381,614947.6474500508,2010-08-26 17:11:19,2611.304036517166,7,50,-1.099568486213684,3.5632803440093994,54.338301781595234,54.01321388630602,215.8186884241509,198.4480463750975,-6.47544875391759e-05,0.0898760333657264,0,0,0
18382,614977.6627968807,2010-08-26 17:11:49,2641.319383336932,7,50,-1.0993878841400146,3.5598807334899902,54.338301781595234,54.02238180049773,215.8186884241509,198.48069791971955,-3.237724376958795e-05,0.0898760333657264,0,0,0
18383,615007.677830966,2010-08-26 17:12:19,2671.3344174272806,7,50,-1.099568486213684,3.555995464324951,54.338301781595234,54.031549655606526,215.8186884241509,198.5133161593621,-0.0001295089750783,0.0898760333657264,0,0,0
18384,615037.6929593113,2010-08-26 17:12:49,2701.3495457725408,7,50,-1.0997490882873535,3.552272081375122,54.338301781595234,54.040717535769154,215.8186884241509,198.54590052408363,-9.713172767078504e-05,0.0898760333657264,0,0,0
18385,615067.7081271249,2010-08-26 17:13:19,2731.364713581156,7,50,-1.099568486213684,3.548386812210083,54.338301781595234,54.04988543903691,215.8186884241509,198.57844986783667,-9.713172767078504e-05,0.0898760333657264,0,0,0
18386,615097.7232897355,2010-08-26 17:13:49,2761.3798762018414,7,50,-1.099568486213684,3.544339656829834,54.338301781595234,54.05905334384096,215.8186884241509,198.61096260307875,-9.713172767078504e-05,0.0898760333657264,0,0,0
18387,615127.7384717546,2010-08-26 17:14:19,2791.3950582409234,7,50,-1.0993878841400146,3.540292501449585,54.338301781595234,54.068221240142805,215.8186884241509,198.64343789344275,-9.713172767078504e-05,0.0898760333657264,0,0,0
18388,615157.7538209503,2010-08-26 17:14:49,2821.410407496761,7,50,-1.0997490882873535,3.535921573638916,54.338301781595234,54.0773891869557,215.8186884241509,198.67587470689625,-0.0001295089750783,0.0898760333657264,0,0,0
18389,615187.7688261836,2010-08-26 17:15:19,2851.425412639964,7,50,-1.099568486213684,3.531550645828247,54.338301781595234,54.08655705795231,215.8186884241509,198.70827084934675,-9.713172767078504e-05,0.0898760333657264,0,0,0
18390,615217.7839693108,2010-08-26 17:15:49,2881.440555767065,7,50,-1.0997490882873535,3.526855945587158,54.338301781595234,54.09572500582555,215.8186884241509,198.7406255653547,-0.0001295089750783,0.0898760333657264,0,0,0
18391,615247.7992844116,2010-08-26 17:16:19,2911.4558708677782,7,50,-1.099568486213684,3.52199935913086,54.338301781595234,54.10489300081603,215.8186884241509,198.7729368403949,-0.0001295089750783,0.0898760333657264,0,0,0
18392,615277.8143030334,2010-08-26 17:16:49,2941.4708894995997,7,50,-1.099568486213684,3.5168190002441406,54.338301781595234,54.114060841927135,215.8186884241509,198.80520228012537,-0.0001618862152099,0.0898760333657264,0,0,0
18393,615307.8294757742,2010-08-26 17:17:19,2971.4860622354945,7,50,-1.099568486213684,3.511315107345581,54.338301781595234,54.123228770921415,215.8186884241509,198.83742040584391,-0.0001942157687153,0.0898760333657264,0,0,0
18394,615337.8446415878,2010-08-26 17:17:49,3001.501228044125,7,50,-1.099568486213684,3.5058109760284424,54.338301781595234,54.13239671504006,215.8186884241509,198.8695880839117,-0.0001295089750783,0.0898760333657264,0,0,0
18395,615367.8600172194,2010-08-26 17:18:19,3031.516603675699,7,50,-1.099568486213684,3.499497413635254,54.338301781595234,54.1415646992756,215.8186884241509,198.90170116565508,-0.0001942634553415,0.0898760333657264,0,0,0
18396,615397.8750043728,2010-08-26 17:18:49,3061.531590834079,7,50,-1.0997490882873535,3.4926981925964355,54.338301781595234,54.15073255606417,215.8186884241509,198.93375437434503,-0.0002266406954731,0.0898760333657264,0,0,0
18397,615427.8901437706,2010-08-26 17:19:19,3091.546730256948,7,50,-1.099568486213684,3.4854133129119877,54.338301781595234,54.15990042240533,215.8186884241509,198.9657418332724,-0.0001618862152099,0.0898760333657264,0,0,0
18398,615457.9053175992,2010-08-26 17:19:49,3121.5619040605047,7,50,-1.099568486213684,3.4765095710754395,54.338301781595234,54.16906834245649,215.8186884241509,198.9976550286393,-0.0002590179501567,0.0898760333657264,0,0,0
18399,615487.9204963552,2010-08-26 17:20:19,3151.577082816404,7,50,-1.099568486213684,3.466472625732422,54.338301781595234,54.17823621701806,215.8186884241509,199.02948218765584,-0.0002913951757363,0.0898760333657264,0,0,0
18400,615517.9356475574,2010-08-26 17:20:49,3181.592234023644,7,50,-1.0993878841400146,3.4544930458068848,54.338301781595234,54.18740408894417,215.8186884241509,199.06120866360013,-0.0003237724304199,0.0898760333657264,0,0,0
18401,615547.9508178973,2010-08-26 17:21:19,3211.607404358555,7,50,-1.099568486213684,3.4392757415771484,54.338301781595234,54.19657196152649,215.8186884241509,199.09281182825956,-0.0004532813909463,0.0898760333657264,0,0,0
18402,615577.9659842723,2010-08-26 17:21:49,3241.622570733597,7,50,-1.099568486213684,3.4196877479553223,54.338301781595234,54.20573984340145,215.8186884241509,199.12425765854508,-0.0006151676061563,0.0898760333657264,0,0,0
18403,615607.981179018,2010-08-26 17:22:19,3271.6377654793487,7,50,-1.099568486213684,3.3934621810913086,54.338301781595234,54.214907691833815,215.8186884241509,199.1554954756899,-0.0008418083307333,0.0898760333657264,0,0,0
18404,615637.9963398844,2010-08-26 17:22:49,3301.6529263406487,7,50,-1.099568486213684,3.3571996688842773,54.338301781595234,54.22407562357823,215.8186884241509,199.1864496743131,-0.0011332035064697,0.0898760333657264,0,0,0
18405,615668.0115091617,2010-08-26 17:23:19,3331.668095632962,7,50,-1.099568486213684,3.305072546005249,54.338301781595234,54.23324349741202,215.8186884241509,199.21700337201744,-0.0016188621520996,0.0898760333657264,0,0,0
18406,615698.0266857772,2010-08-26 17:23:49,3361.6832722385025,7,50,-1.099568486213684,3.2288243770599365,54.338301781595234,54.24241136769986,215.8186884241509,199.24697713700752,-0.0023959160316735,0.0898760333657264,0,0,0
18407,615728.0419780059,2010-08-26 17:24:19,3391.6985644521733,7,50,-1.099568486213684,3.110647678375244,54.338301781595234,54.25157932358847,215.8186884241509,199.2760802360396,-0.0038528919685631,0.0898760333657264,0,0,0
18408,615754.775798783,2010-08-26 17:24:46,3418.432385249391,7,50,-1.099568486213684,2.9105570316314697,54.338301781595234,54.25974491691225,215.8186884241509,199.3007802759853,-0.0086122993379831,0.0898760333657264,0,0,0
18409,615768.7287183168,2010-08-26 17:25:00,3432.3853047780626,7,50,-1.0993878841400146,2.7103042602539062,54.338301781595234,54.26400672671734,215.8186884241509,199.31278292723744,-0.0127890110015869,0.0898760333657264,0,0,0
18410,615769.3693244695,2010-08-26 17:25:01,3433.025910955767,7,50,-1.0997490882873535,2.699943780899048,54.338301781595234,54.26420239146216,215.8186884241509,199.3133122402036,-0.012853717431426,0.0898760333657264,0,0,0
18411,615829.4101842107,2010-08-26 17:26:01,60.01471399834973,8,50,0.0,3.4313435554504395,54.338301781595234,54.26420239146216,215.8186884241509,199.3133122402036,0.0011655807029455,0.0898760333657264,0,0,0
18412,615829.5779853619,2010-08-26 17:26:01,0.187627540562633,9,50,-1.9243103452026844e-05,3.4316670894622803,54.338301781595234,54.26420239246508,215.8186884241509,199.3133122436453,0.0,0.084360584616661,0,0,0
18413,615834.4060420197,2010-08-26 17:26:06,5.015684188284648,9,50,0.0008838032954372,3.4389519691467285,54.33830268728399,54.26420239263139,215.8186915358669,199.31331224421604,0.0011008263099938,0.084360584616661,0,0,0
