Data_Point,Test_Time(s),Date_Time,Step_Time(s),Step_Index,Cycle_Index,Current(A),Voltage(V),Charge_Capacity(Ah),Discharge_Capacity(Ah),Charge_Energy(Wh),Discharge_Energy(Wh),dV/dt(V/s),Internal_Resistance(Ohm),Is_FC_Data,AC_Impedance(Ohm),ACI_Phase_Angle(Deg)
13737,459012.02249845193,2010-08-24 21:52:08,30.01524753732379,1,38,0.0,3.416450023651123,40.56061757267415,40.50747584713893,161.03520628434228,148.82072768812515,0.0007122993702068,0.0834738835692405,0,0,0
13738,459042.037719002,2010-08-24 21:52:38,60.03046808738702,1,38,0.0,3.436685562133789,40.56061757267415,40.50747584713893,161.03520628434228,148.82072768812515,0.0004532813909463,0.0834738835692405,0,0,0
13739,459072.052954364,2010-08-24 21:53:08,90.04570344435362,1,38,0.0,3.4514172077178955,40.56061757267415,40.50747584713893,161.03520628434228,148.82072768812515,0.0003561496851034,0.0834738835692405,0,0,0
13740,459102.0213380472,2010-08-24 21:53:38,120.01408712753324,1,38,0.0,3.4632349014282227,40.56061757267415,40.50747584713893,161.03520628434228,148.82072768812515,0.0002913951757363,0.0834738835692405,0,0,0
13741,459132.0280677968,2010-08-24 21:54:08,30.01521825935408,2,38,0.550297200679779,3.5925815105438232,40.56520456531948,40.50747584713893,161.05154822273826,148.82072768812515,0.0013274193042889,0.0834738835692405,0,0,0
13742,459162.0433364868,2010-08-24 21:54:38,60.03048694939696,2,38,0.550297200679779,3.633538722991944,40.56979155353007,40.50747584713893,161.06812661178606,148.82072768812515,0.0009389400365762,0.0834738835692405,0,0,0
13743,459192.0585420145,2010-08-24 21:55:08,90.04569248203214,2,38,0.550297200679779,3.664620876312256,40.574378525013714,40.50747584713893,161.0848675126756,148.82072768812515,0.0007770538213662,0.0834738835692405,0,0,0
13744,459222.0739720416,2010-08-24 21:55:38,120.06112252922668,2,38,0.5501165986061096,3.6895511150360103,40.57896550387135,40.50747584713893,161.10173585774675,148.82072768812515,0.0006151676061563,0.0834738835692405,0,0,0
13745,459252.08901032736,2010-08-24 21:56:08,150.07616079498135,2,38,0.550297200679779,3.710434436798096,40.58355246712144,40.50747584713893,161.11870865453454,148.82072768812515,0.0005180359003134,0.0834738835692405,0,0,0
13746,459282.1043754478,2010-08-24 21:56:38,180.09152591535826,2,38,0.5499359965324402,3.7267849445343018,40.58813950449193,40.50747584713893,161.1357674592093,148.82072768812515,0.0003885269106831,0.0834738835692405,0,0,0
13747,459312.11951862497,2010-08-24 21:57:08,210.1066690875721,2,38,0.550297200679779,3.739412069320679,40.59272648760006,40.50747584713893,161.15289330821486,148.82072768812515,0.0002913951757363,0.0834738835692405,0,0,0
13748,459342.1347371199,2010-08-24 21:57:38,240.12188757750084,2,38,0.550297200679779,3.7478301525115967,40.59731342296074,40.50747584713893,161.17006657884207,148.82072768812515,0.0002266406954731,0.0834738835692405,0,0,0
13749,459372.1499599456,2010-08-24 21:58:08,270.1371104032358,2,38,0.5501165986061096,3.7525248527526855,40.60190040660227,40.50747584713893,161.18726891741744,148.82072768812515,0.0001295089750783,0.0834738835692405,0,0,0
13750,459402.16519346304,2010-08-24 21:58:38,300.1523439206175,2,38,0.5501165986061096,3.7557623386383057,40.606487356813005,40.50747584713893,161.20448924959044,148.82072768812515,6.47544875391759e-05,0.0834738835692405,0,0,0
13751,459432.1804530103,2010-08-24 21:59:08,330.16760349794873,2,38,0.5499359965324402,3.758676290512085,40.61107429141981,40.50747584713893,161.22172371556067,148.82072768812515,6.47544875391759e-05,0.0834738835692405,0,0,0
13752,459462.19602678064,2010-08-24 21:59:38,360.1831772382708,2,38,0.5501165986061096,3.7614283561706543,40.61566134568023,40.50747584713893,161.23897159005347,148.82072768812515,6.47544875391759e-05,0.0834738835692405,0,0,0
13753,459492.2109062857,2010-08-24 22:00:08,390.19805674835743,2,38,0.550297200679779,3.764180421829224,40.62024822900101,40.50747584713893,161.25623140581118,148.82072768812515,6.47544875391759e-05,0.0834738835692405,0,0,0
13754,459522.2261546301,2010-08-24 22:00:38,420.21330509269256,2,38,0.5501165986061096,3.766932487487793,40.62483520654801,40.50747584713893,161.27350408205325,148.82072768812515,6.47544875391759e-05,0.0834738835692405,0,0,0
13755,459552.2413872151,2010-08-24 22:01:08,450.2285376727382,2,38,0.550297200679779,3.7696845531463614,40.629422169937264,40.50747584713893,161.29078915139127,148.82072768812515,9.713172767078504e-05,0.0834738835692405,0,0,0
13756,459582.2566299004,2010-08-24 22:01:38,480.2437803629816,2,38,0.5499359965324402,3.7722747325897217,40.634009181195495,40.50747584713893,161.3080867566875,148.82072768812515,6.47544875391759e-05,0.0834738835692405,0,0,0
13757,459612.27181995945,2010-08-24 22:02:08,510.25897041703934,2,38,0.5501165986061096,3.775026798248291,40.63859594261218,40.50747584713893,161.3253957702181,148.82072768812515,3.237724376958795e-05,0.0834738835692405,0,0,0
13758,459642.2870613364,2010-08-24 22:02:38,540.2742117940097,2,38,0.5501165986061096,3.777778863906861,40.64318205266829,40.50747584713893,161.34271454714926,148.82072768812515,6.47544875391759e-05,0.0834738835692405,0,0,0
13759,459672.302215461,2010-08-24 22:03:08,570.2893659285451,2,38,0.5501165986061096,3.78036904335022,40.64776828169874,40.50747584713893,161.3600460585405,148.82072768812515,3.237724376958795e-05,0.0834738835692405,0,0,0
13760,459702.3175536692,2010-08-24 22:03:38,600.3047041318363,2,38,0.5499359965324402,3.782959222793579,40.65235439388943,40.50747584713893,161.3773892996455,148.82072768812515,3.237724376958795e-05,0.0834738835692405,0,0,0
13761,459732.3327689612,2010-08-24 22:04:08,630.3199194237948,2,38,0.5499359965324402,3.785711288452149,40.65694045970487,40.50747584713893,161.3947447974829,148.82072768812515,9.713172767078504e-05,0.0834738835692405,0,0,0
13762,459762.34813260287,2010-08-24 22:04:38,660.3352830704987,2,38,0.5499359965324402,3.7884633541107178,40.66152658827112,40.50747584713893,161.4121130506378,148.82072768812515,6.47544875391759e-05,0.0834738835692405,0,0,0
13763,459792.3631654902,2010-08-24 22:05:08,690.3503159728863,2,38,0.550297200679779,3.791377305984497,40.66611270279835,40.50747584713893,161.42949410823786,148.82072768812515,6.47544875391759e-05,0.0834738835692405,0,0,0
13764,459822.37849757326,2010-08-24 22:05:38,720.365648035874,2,38,0.550297200679779,3.794291257858277,40.67069975867095,40.50747584713893,161.4468919516191,148.82072768812515,6.47544875391759e-05,0.0834738835692405,0,0,0
13765,459852.3937550604,2010-08-24 22:06:08,750.3809055079582,2,38,0.5499359965324402,3.797205209732056,40.67528732243931,40.50747584713893,161.4643054108724,148.82072768812515,6.47544875391759e-05,0.0834738835692405,0,0,0
13766,459882.4089885627,2010-08-24 22:06:38,780.39613902534,2,38,0.550297200679779,3.800604820251465,40.679875086867,40.50747584713893,161.48173378537822,148.82072768812515,0.0001295089750783,0.0834738835692405,0,0,0
13767,459912.4242024412,2010-08-24 22:07:08,810.4113528887381,2,38,0.550297200679779,3.803680658340454,40.68446282150211,40.50747584713893,161.49917668678447,148.82072768812515,6.47544875391759e-05,0.0834738835692405,0,0,0
13768,459942.43957041367,2010-08-24 22:07:38,840.4267208712484,2,38,0.5501165986061096,3.806918382644653,40.68905057791871,40.50747584713893,161.51663478790687,148.82072768812515,6.47544875391759e-05,0.0834738835692405,0,0,0
13769,459972.4546696414,2010-08-24 22:08:08,870.4418201139765,2,38,0.5501165986061096,3.810479879379273,40.69363787697908,40.50747584713893,161.53410668966885,148.82072768812515,6.47544875391759e-05,0.0834738835692405,0,0,0
13770,460002.47009105707,2010-08-24 22:08:38,900.457241544696,2,38,0.550297200679779,3.814041376113892,40.69822489905151,40.50747584713893,161.55159340915088,148.82072768812515,9.713172767078504e-05,0.0834738835692405,0,0,0
13771,460032.4851534278,2010-08-24 22:09:08,930.4723039105154,2,38,0.5501165986061096,3.817602872848511,40.70281194725228,40.50747584713893,161.56909639753698,148.82072768812515,0.0001295089750783,0.0834738835692405,0,0,0
13772,460062.5004225339,2010-08-24 22:09:38,960.4875730216075,2,38,0.5501165986061096,3.82100248336792,40.707399004897226,40.50747584713893,161.58661529278885,148.82072768812515,0.0001295089750783,0.0834738835692405,0,0,0
13773,460092.5156236205,2010-08-24 22:10:08,990.5027741031496,2,38,0.5501165986061096,3.824240207672119,40.71198596358277,40.50747584713893,161.604149394764,148.82072768812515,6.47544875391759e-05,0.0834738835692405,0,0,0
13774,460122.5308667268,2010-08-24 22:10:38,1020.5180171843672,2,38,0.5501165986061096,3.827639818191528,40.71657296089244,40.50747584713893,161.6216990614832,148.82072768812515,6.47544875391759e-05,0.0834738835692405,0,0,0
13775,460152.54610612383,2010-08-24 22:11:08,1050.5332565814028,2,38,0.5501165986061096,3.830877542495728,40.721159983425096,40.50747584713893,161.63926393852864,148.82072768812515,9.713172767078504e-05,0.0834738835692405,0,0,0
13776,460182.56135081407,2010-08-24 22:11:38,1080.5485012966933,2,38,0.550297200679779,3.834115028381348,40.7257469224503,40.50747584713893,161.6568432480397,148.82072768812515,9.713172767078504e-05,0.0834738835692405,0,0,0
13777,460212.5765745821,2010-08-24 22:12:08,1110.5637250397142,2,38,0.5501165986061096,3.837352752685547,40.7303338583188,40.50747584713893,161.6744371060613,148.82072768812515,0.0001618862152099,0.0834738835692405,0,0,0
13778,460242.59181717713,2010-08-24 22:12:38,1140.5789676347206,2,38,0.550297200679779,3.840428590774536,40.73492076551682,40.50747584713893,161.69204517712706,148.82072768812515,9.713172767078504e-05,0.0834738835692405,0,0,0
13779,460272.60708548623,2010-08-24 22:13:08,1170.5942359438138,2,38,0.5501165986061096,3.8431806564331055,40.73950779925283,40.50747584713893,161.7096678313822,148.82072768812515,3.237724376958795e-05,0.0834738835692405,0,0,0
13780,460302.6224328223,2010-08-24 22:13:38,1200.6095833099416,2,38,0.550297200679779,3.8464183807373047,40.74409482462463,40.50747584713893,161.72730420380353,148.82072768812515,9.713172767078504e-05,0.0834738835692405,0,0,0
13781,460332.63757589424,2010-08-24 22:14:08,1230.6247263768932,2,38,0.5501165986061096,3.849170446395874,40.748681791371126,40.50747584713893,161.74495368434737,148.82072768812515,6.47544875391759e-05,0.0834738835692405,0,0,0
13782,460362.6527663293,2010-08-24 22:14:38,1260.6399168119003,2,38,0.5499359965324402,3.8517606258392334,40.75326875861525,40.50747584713893,161.76261600096825,148.82072768812515,6.47544875391759e-05,0.0834738835692405,0,0,0
13783,460392.6680114405,2010-08-24 22:15:08,1290.6551618981157,2,38,0.5501165986061096,3.8543508052825928,40.75785573962197,40.50747584713893,161.78029054839055,148.82072768812515,6.47544875391759e-05,0.0834738835692405,0,0,0
13784,460422.6834931365,2010-08-24 22:15:38,1320.670643609072,2,38,0.5501165986061096,3.856779098510742,40.76244271037322,40.50747584713893,161.797976648727,148.82072768812515,6.47544875391759e-05,0.0834738835692405,0,0,0
13785,460452.6985927851,2010-08-24 22:16:08,1350.6857432578115,2,38,0.5501165986061096,3.859207391738892,40.767029728111865,40.50747584713893,161.8156737831711,148.82072768812515,6.47544875391759e-05,0.0834738835692405,0,0,0
13786,460482.7138548738,2010-08-24 22:16:38,1380.701005346402,2,38,0.5501165986061096,3.861311912536621,40.77161676589849,40.50747584713893,161.83338101214372,148.82072768812515,6.47544875391759e-05,0.0834738835692405,0,0,0
13787,460512.7289438108,2010-08-24 22:17:08,1410.7160942934695,2,38,0.5499359965324402,3.86309266090393,40.7762037905953,40.50747584713893,161.85109742571316,148.82072768812515,0.0,0.0834738835692405,0,0,0
13788,460542.7441932178,2010-08-24 22:17:38,1440.731343695441,2,38,0.550297200679779,3.86503529548645,40.78079087464364,40.50747584713893,161.86882248797338,148.82072768812515,6.47544875391759e-05,0.0834738835692405,0,0,0
13789,460572.7594270559,2010-08-24 22:18:08,1470.7465775336225,2,38,0.5501165986061096,3.86665415763855,40.78537793930301,40.50747584713893,161.88655528438463,148.82072768812515,6.47544875391759e-05,0.0834738835692405,0,0,0
13790,460602.7746900669,2010-08-24 22:18:39,1500.7618405495234,2,38,0.5499359965324402,3.86811113357544,40.789964928670656,40.50747584713893,161.9042949009863,148.82072768812515,3.237724376958795e-05,0.0834738835692405,0,0,0
13791,460632.79029858886,2010-08-24 22:19:09,1530.7774490665197,2,38,0.550297200679779,3.869568109512329,40.794552009647646,40.50747584713893,161.92204143422867,148.82072768812515,6.47544875391759e-05,0.0834738835692405,0,0,0
13792,460662.8052851408,2010-08-24 22:19:39,1560.792435613375,2,38,0.5499359965324402,3.870863199234009,40.799139017148185,40.50747584713893,161.9397937885037,148.82072768812515,3.237724376958795e-05,0.0834738835692405,0,0,0
13793,460692.8205383773,2010-08-24 22:20:09,1590.8076888448904,2,38,0.5501165986061096,3.871834516525269,40.80372605501381,40.50747584713893,161.9575519240687,148.82072768812515,0.0,0.0834738835692405,0,0,0
13794,460722.8356142568,2010-08-24 22:20:39,1620.82276474444,2,38,0.5501165986061096,3.873129606246948,40.80831299942203,40.50747584713893,161.97531507455338,148.82072768812515,6.47544875391759e-05,0.0834738835692405,0,0,0
13795,460752.8509119291,2010-08-24 22:21:09,1650.838062381628,2,38,0.5501165986061096,3.874100923538208,40.81290004627455,40.50747584713893,161.99308377041675,148.82072768812515,3.237724376958795e-05,0.0834738835692405,0,0,0
13796,460782.8661113013,2010-08-24 22:21:39,1680.8532617639348,2,38,0.550297200679779,3.8752341270446777,40.81748702880195,40.50747584713893,162.01085698706711,148.82072768812515,0.0,0.0834738835692405,0,0,0
13797,460812.88135102415,2010-08-24 22:22:09,1710.8685014968075,2,38,0.550297200679779,3.876529216766357,40.82207409673791,40.50747584713893,162.02863548034733,148.82072768812515,6.47544875391759e-05,0.0834738835692405,0,0,0
13798,460842.89658740367,2010-08-24 22:22:39,1740.88373789136,2,38,0.550297200679779,3.8773386478424072,40.82666111712479,40.50747584713893,162.0464184183811,148.82072768812515,3.237724376958795e-05,0.0834738835692405,0,0,0
13799,460872.9119599927,2010-08-24 22:23:09,1770.899110450276,2,38,0.5501165986061096,3.878309965133667,40.83124812631798,40.50747584713893,162.06420597371417,148.82072768812515,3.237724376958795e-05,0.0834738835692405,0,0,0
13800,460902.9272190938,2010-08-24 22:23:39,1800.9143695614457,2,38,0.5501165986061096,3.879281282424927,40.83583513117664,40.50747584713893,162.08199808823636,148.82072768812515,0.0,0.0834738835692405,0,0,0
13801,460932.9424164511,2010-08-24 22:24:09,1830.9295669187047,2,38,0.5501165986061096,3.8802525997161865,40.84042216907982,40.50747584713893,162.09979475446335,148.82072768812515,3.237724376958795e-05,0.0834738835692405,0,0,0
13802,460962.9575283754,2010-08-24 22:24:39,1860.9446788580767,2,38,0.5501165986061096,3.881385803222656,40.845009124706365,40.50747584713893,162.1175956054155,148.82072768812515,3.237724376958795e-05,0.0834738835692405,0,0,0
13803,460992.9727657073,2010-08-24 22:25:09,1890.959916174928,2,38,0.5501165986061096,3.882195234298706,40.84959611784898,40.50747584713893,162.13540105327985,148.82072768812515,3.237724376958795e-05,0.0834738835692405,0,0,0
13804,461022.98803063296,2010-08-24 22:25:39,1920.9751811206395,2,38,0.5501165986061096,3.883166551589966,40.85418311669344,40.50747584713893,162.15321101948064,148.82072768812515,0.0,0.0834738835692405,0,0,0
13805,461053.0032570977,2010-08-24 22:26:09,1950.9904075754189,2,38,0.5501165986061096,3.884299755096436,40.85877014035215,40.50747584713893,162.17102559238407,148.82072768812515,6.47544875391759e-05,0.0834738835692405,0,0,0
13806,461083.0184928507,2010-08-24 22:26:39,1981.0056433383968,2,38,0.5501165986061096,3.8849472999572754,40.86335714749706,40.50747584713893,162.18884440242746,148.82072768812515,0.0,0.0834738835692405,0,0,0
13807,461113.03388400096,2010-08-24 22:27:09,2011.021034463586,2,38,0.550297200679779,3.886242389678955,40.86794417480744,40.50747584713893,162.20666781568715,148.82072768812515,9.713172767078504e-05,0.0834738835692405,0,0,0
13808,461143.0492027858,2010-08-24 22:27:39,2041.0363532685308,2,38,0.5501165986061096,3.887213706970215,40.87253119846566,40.50747584713893,162.2244957364702,148.82072768812515,6.47544875391759e-05,0.0834738835692405,0,0,0
13809,461173.06434372254,2010-08-24 22:28:09,2071.0514942101854,2,38,0.550297200679779,3.8881850242614746,40.87711820092608,40.50747584713893,162.24232807059155,148.82072768812515,6.47544875391759e-05,0.0834738835692405,0,0,0
13810,461203.0794508198,2010-08-24 22:28:39,2101.066601307489,2,38,0.550297200679779,3.889318227767944,40.88170516430965,40.50747584713893,162.26016485088294,148.82072768812515,9.713172767078504e-05,0.0834738835692405,0,0,0
13811,461233.09470377566,2010-08-24 22:29:09,2131.081854243268,2,38,0.5504778623580933,3.890127658843994,40.8862921329296,40.50747584713893,162.2780062150832,148.82072768812515,3.237724376958795e-05,0.0834738835692405,0,0,0
13812,461263.1099561701,2010-08-24 22:29:39,2161.097106657747,2,38,0.5501165986061096,3.890937089920044,40.89087913182554,40.50747584713893,162.29585238336875,148.82072768812515,-3.237724376958795e-05,0.0834738835692405,0,0,0
13813,461293.1251745898,2010-08-24 22:30:09,2191.112325072488,2,38,0.5499359965324402,3.8920702934265137,40.895466132194166,40.50747584713893,162.31370324412285,148.82072768812515,3.237724376958795e-05,0.0834738835692405,0,0,0
13814,461323.14043677365,2010-08-24 22:30:39,2221.127587256316,2,38,0.5501165986061096,3.893203496932984,40.90005320819808,40.50747584713893,162.3315591141091,148.82072768812515,3.237724376958795e-05,0.0834738835692405,0,0,0
13815,461353.1556524215,2010-08-24 22:31:09,2251.142802884111,2,38,0.5499359965324402,3.894336700439453,40.904640200796734,40.50747584713893,162.34941949771712,148.82072768812515,3.237724376958795e-05,0.0834738835692405,0,0,0
13816,461383.1711266037,2010-08-24 22:31:39,2281.158277066304,2,38,0.5499359965324402,3.894984245300293,40.90922726934655,40.50747584713893,162.36728476233586,148.82072768812515,0.0,0.0834738835692405,0,0,0
13817,461413.1861471553,2010-08-24 22:32:09,2311.173297637959,2,38,0.5501165986061096,3.896441221237183,40.91381421167331,40.50747584713893,162.3851542370355,148.82072768812515,3.237724376958795e-05,0.0834738835692405,0,0,0
13818,461443.20137677295,2010-08-24 22:32:39,2341.188527245597,2,38,0.5501165986061096,3.8974125385284415,40.91840120612497,40.50747584713893,162.40302902855362,148.82072768812515,6.47544875391759e-05,0.0834738835692405,0,0,0
13819,461473.2166149069,2010-08-24 22:33:09,2371.2037653945217,2,38,0.5504778623580933,3.898383855819702,40.922988250250256,40.50747584713893,162.42090902508193,148.82072768812515,3.237724376958795e-05,0.0834738835692405,0,0,0
13820,461503.23187669966,2010-08-24 22:33:39,2401.219027162312,2,38,0.5499359965324402,3.899517059326172,40.92757524907208,40.50747584713893,162.43879396104813,148.82072768812515,0.0,0.0834738835692405,0,0,0
13821,461533.2472320507,2010-08-24 22:34:09,2431.2343825634657,2,38,0.5501165986061096,3.9006502628326416,40.93216223234747,40.50747584713893,162.45668391241344,148.82072768812515,0.0,0.0834738835692405,0,0,0
13822,461563.2623290528,2010-08-24 22:34:39,2461.249479540548,2,38,0.5501165986061096,3.901945352554321,40.93674916051125,40.50747584713893,162.47457890552846,148.82072768812515,3.237724376958795e-05,0.0834738835692405,0,0,0
13823,461593.2775697181,2010-08-24 22:35:09,2491.264720200731,2,38,0.5501165986061096,3.902916669845581,40.94133615233879,40.50747584713893,162.49247940569273,148.82072768812515,6.47544875391759e-05,0.0834738835692405,0,0,0
13824,461623.2928300172,2010-08-24 22:35:39,2521.2799804998613,2,38,0.5501165986061096,3.9042117595672607,40.945923174992224,40.50747584713893,162.5103854416056,148.82072768812515,0.0,0.0834738835692405,0,0,0
13825,461653.3081889021,2010-08-24 22:36:09,2551.29533936966,2,38,0.5501165986061096,3.9053449630737305,40.95051023665118,40.50747584713893,162.52829701150847,148.82072768812515,3.237724376958795e-05,0.0834738835692405,0,0,0
13826,461683.32332100667,2010-08-24 22:36:39,2581.310471479302,2,38,0.5501165986061096,3.90664005279541,40.95509715576002,40.50747584713893,162.54621342879096,148.82072768812515,3.237724376958795e-05,0.0834738835692405,0,0,0
13827,461713.33859391726,2010-08-24 22:37:09,2611.325744379839,2,38,0.550297200679779,3.90777325630188,40.95968414980333,40.50747584713893,162.56413578681122,148.82072768812515,3.237724376958795e-05,0.0834738835692405,0,0,0
13828,461743.3538270136,2010-08-24 22:37:39,2641.340977496221,2,38,0.550297200679779,3.9092302322387695,40.964271142413246,40.50747584713893,162.58206373938148,148.82072768812515,6.47544875391759e-05,0.0834738835692405,0,0,0
13829,461773.3690253984,2010-08-24 22:38:09,2671.356175886054,2,38,0.550297200679779,3.9103634357452393,40.968858119987495,40.50747584713893,162.59999738050087,148.82072768812515,6.47544875391759e-05,0.0834738835692405,0,0,0
13830,461803.384275868,2010-08-24 22:38:39,2701.371426350674,2,38,0.550297200679779,3.911658525466919,40.97344520682974,40.50747584713893,162.61793716377906,148.82072768812515,6.47544875391759e-05,0.0834738835692405,0,0,0
13831,461833.3995164631,2010-08-24 22:39:09,2731.386666920633,2,38,0.550297200679779,3.912953615188599,40.97803225580703,40.50747584713893,162.63588266594053,148.82072768812515,6.47544875391759e-05,0.0834738835692405,0,0,0
13832,461863.4149212623,2010-08-24 22:39:39,2761.4020717449644,2,38,0.550297200679779,3.914248466491699,40.98261927633308,40.50747584713893,162.65383394161665,148.82072768812515,3.237724376958795e-05,0.0834738835692405,0,0,0
13833,461893.43012381246,2010-08-24 22:40:09,2791.417274280129,2,38,0.550297200679779,3.915381669998169,40.98720626031587,40.50747584713893,162.67179106301197,148.82072768812515,0.0,0.0834738835692405,0,0,0
13834,461923.4452294261,2010-08-24 22:40:39,2821.4323798987475,2,38,0.550297200679779,3.9168386459350586,40.99179323228557,40.50747584713893,162.68975400092563,148.82072768812515,6.47544875391759e-05,0.0834738835692405,0,0,0
13835,461953.4604982665,2010-08-24 22:41:09,2851.447648754203,2,38,0.550297200679779,3.9181337356567374,40.99638023402096,40.50747584713893,162.70772325145964,148.82072768812515,6.47544875391759e-05,0.0834738835692405,0,0,0
13836,461983.4757263654,2010-08-24 22:41:39,2881.462876823005,2,38,0.5501165986061096,3.919428825378418,41.00096719012578,40.50747584713893,162.7256984209641,148.82072768812515,3.237724376958795e-05,0.0834738835692405,0,0,0
13837,462013.4909516373,2010-08-24 22:42:09,2911.478102099849,2,38,0.5501165986061096,3.9207239151000977,41.00555421659142,40.50747584713893,162.7436801544237,148.82072768812515,0.0,0.0834738835692405,0,0,0
13838,462043.50620010187,2010-08-24 22:42:39,2941.4933505895465,2,38,0.5501165986061096,3.922019004821777,41.01014119883181,40.50747584713893,162.7616678914379,148.82072768812515,3.237724376958795e-05,0.0834738835692405,0,0,0
13839,462073.5214392784,2010-08-24 22:43:09,2971.508589766032,2,38,0.550297200679779,3.923475980758667,41.014728283380784,40.50747584713893,162.7796623761126,148.82072768812515,3.237724376958795e-05,0.0834738835692405,0,0,0
13840,462103.53670215886,2010-08-24 22:43:39,3001.523852631559,2,38,0.5501165986061096,3.9249329566955566,41.01931532310265,40.50747584713893,162.79766307407317,148.82072768812515,6.47544875391759e-05,0.0834738835692405,0,0,0
13841,462133.55205445737,2010-08-24 22:44:09,3031.539204914942,2,38,0.550297200679779,3.9263899326324463,41.023902363683845,40.50747584713893,162.81567014935297,148.82072768812515,6.47544875391759e-05,0.0834738835692405,0,0,0
13842,462163.5671987974,2010-08-24 22:44:39,3061.554349280129,2,38,0.5501165986061096,3.927685022354126,41.028489371207,40.50747584713893,162.83368358235603,148.82072768812515,0.0,0.0834738835692405,0,0,0
13843,462193.5825317978,2010-08-24 22:45:09,3091.569682280453,2,38,0.5501165986061096,3.9293038845062256,41.03307642813906,40.50747584713893,162.85170373316527,148.82072768812515,3.237724376958795e-05,0.0834738835692405,0,0,0
13844,462223.6004559912,2010-08-24 22:45:39,3121.5876064487643,2,38,0.5501165986061096,3.930598974227905,41.03766382270501,40.50747584713893,162.86973180107117,148.82072768812515,3.237724376958795e-05,0.0834738835692405,0,0,0
13845,462253.61294351966,2010-08-24 22:46:09,3151.6000939823098,2,38,0.550297200679779,3.932217836380005,41.04225044646519,40.50747584713893,162.88776350075767,148.82072768812515,9.713172767078504e-05,0.0834738835692405,0,0,0
13846,462283.62826206896,2010-08-24 22:46:39,3181.61541255668,2,38,0.5501165986061096,3.933512926101685,41.04683748739296,40.50747584713893,162.90580354168176,148.82072768812515,3.237724376958795e-05,0.0834738835692405,0,0,0
13847,462313.6433729758,2010-08-24 22:47:09,3211.630523433403,2,38,0.550297200679779,3.934969902038574,41.05142450372021,40.50747584713893,162.9238502698694,148.82072768812515,3.237724376958795e-05,0.0834738835692405,0,0,0
13848,462343.658830271,2010-08-24 22:47:39,3241.645980728508,2,38,0.550297200679779,3.936426877975464,41.05601160216101,40.50747584713893,162.94190414207054,148.82072768812515,0.0,0.0834738835692405,0,0,0
13849,462373.67396226525,2010-08-24 22:48:09,3271.661112823113,2,38,0.5499359965324402,3.9378838539123535,41.06059864753109,40.50747584713893,162.95996470552896,148.82072768812515,0.0,0.0834738835692405,0,0,0
13850,462403.6891283096,2010-08-24 22:48:39,3301.6762787921434,2,38,0.550297200679779,3.939664602279663,41.06518568857628,40.50747584713893,162.97803228091004,148.82072768812515,3.237724376958795e-05,0.0834738835692405,0,0,0
13851,462433.7044748686,2010-08-24 22:49:09,3331.69162535126,2,38,0.550297200679779,3.9412834644317623,41.06977280214319,40.50747584713893,162.99610727630298,148.82072768812515,9.713172767078504e-05,0.0834738835692405,0,0,0
13852,462463.71978698194,2010-08-24 22:49:39,3361.7069374795647,2,38,0.5501165986061096,3.942740440368652,41.07435991106751,40.50747584713893,163.0141893710439,148.82072768812515,3.237724376958795e-05,0.0834738835692405,0,0,0
13853,462493.73484083154,2010-08-24 22:50:09,3391.7219912890587,2,38,0.550297200679779,3.944359302520752,41.07894704332239,40.50747584713893,163.0322788358709,148.82072768812515,6.47544875391759e-05,0.0834738835692405,0,0,0
13854,462523.75007132126,2010-08-24 22:50:40,3421.737221778895,2,38,0.550297200679779,3.945978164672852,41.08353486812108,40.50747584713893,163.05037847943908,148.82072768812515,3.237724376958795e-05,0.0834738835692405,0,0,0
13855,462553.7657540032,2010-08-24 22:51:10,3451.7529044607327,2,38,0.5499359965324402,3.947435140609741,41.08812260494082,40.50747584713893,163.06848516202442,148.82072768812515,3.237724376958795e-05,0.0834738835692405,0,0,0
13856,462583.7807430412,2010-08-24 22:51:40,3481.7678935338845,2,38,0.550297200679779,3.949215888977051,41.0927095877736,40.50747584713893,163.0865964628073,148.82072768812515,3.237724376958795e-05,0.0834738835692405,0,0,0
13857,462613.79594704,2010-08-24 22:52:10,3511.783097512647,2,38,0.5499359965324402,3.95099663734436,41.097296578486045,40.50747584713893,163.10471551827746,148.82072768812515,6.47544875391759e-05,0.0834738835692405,0,0,0
13858,462643.8110614054,2010-08-24 22:52:40,3541.7982118780656,2,38,0.5501165986061096,3.95261549949646,41.10188358586257,40.50747584713893,163.1228425204657,148.82072768812515,3.237724376958795e-05,0.0834738835692405,0,0,0
13859,462673.8263165066,2010-08-24 22:53:10,3571.813466964203,2,38,0.5501165986061096,3.9543962478637695,41.10647053317397,40.50747584713893,163.14097723282106,148.82072768812515,3.237724376958795e-05,0.0834738835692405,0,0,0
13860,462703.8415641893,2010-08-24 22:53:40,3601.828714646889,2,38,0.5501165986061096,3.956338882446289,41.11105757240788,40.50747584713893,163.15912038890485,148.82072768812515,6.47544875391759e-05,0.0834738835692405,0,0,0
13861,462733.85679366667,2010-08-24 22:54:10,3631.8439441242017,2,38,0.5499359965324402,3.9577958583831783,41.11564457702431,40.50747584713893,163.17727152685435,148.82072768812515,0.0,0.0834738835692405,0,0,0
13862,462763.8721564261,2010-08-24 22:54:40,3661.8593069137696,2,38,0.550297200679779,3.959900379180908,41.120231616621446,40.50747584713893,163.19543107683802,148.82072768812515,9.713172767078504e-05,0.0834738835692405,0,0,0
13863,462793.8872952123,2010-08-24 22:55:10,3691.8744457050657,2,38,0.550297200679779,3.9616811275482178,41.124818597528254,40.50747584713893,163.21359881403615,148.82072768812515,6.47544875391759e-05,0.0834738835692405,0,0,0
13864,462823.9026706285,2010-08-24 22:55:40,3721.889821091027,2,38,0.550297200679779,3.9634618759155273,41.12940565929476,40.50747584713893,163.23177534417474,148.82072768812515,6.47544875391759e-05,0.0834738835692405,0,0,0
13865,462853.9177880966,2010-08-24 22:56:10,3751.9049385541657,2,38,0.550297200679779,3.965404510498047,41.13399263452814,40.50747584713893,163.24996009209255,148.82072768812515,6.47544875391759e-05,0.0834738835692405,0,0,0
13866,462883.93300871184,2010-08-24 22:56:40,3781.920159179416,2,38,0.5501165986061096,3.9673471450805664,41.13857962116959,40.50747584713893,163.26815353423692,148.82072768812515,9.713172767078504e-05,0.0834738835692405,0,0,0
13867,462913.948373366,2010-08-24 22:57:10,3811.935523833632,2,38,0.5501165986061096,3.969127893447876,41.1431665992525,40.50747584713893,163.28635556682886,148.82072768812515,6.47544875391759e-05,0.0834738835692405,0,0,0
13868,462943.9637069428,2010-08-24 22:57:40,3841.950857410393,2,38,0.5501165986061096,3.971070528030396,41.14775357244579,40.50747584713893,163.3045663622582,148.82072768812515,6.47544875391759e-05,0.0834738835692405,0,0,0
13869,462973.9787571032,2010-08-24 22:58:10,3871.965907565779,2,38,0.5501165986061096,3.973013162612915,41.1523405526135,40.50747584713893,163.3227860442757,148.82072768812515,6.47544875391759e-05,0.0834738835692405,0,0,0
13870,463003.9940269812,2010-08-24 22:58:40,3901.981177463833,2,38,0.5501165986061096,3.9749557971954346,41.15692756135731,40.50747584713893,163.34101472822744,148.82072768812515,6.47544875391759e-05,0.0834738835692405,0,0,0
13871,463034.00922304526,2010-08-24 22:59:10,3931.9963735028073,2,38,0.550297200679779,3.976898431777954,41.16151462248219,40.50747584713893,163.3592525201407,148.82072768812515,3.237724376958795e-05,0.0834738835692405,0,0,0
13872,463064.0247053276,2010-08-24 22:59:40,3962.0118557902,2,38,0.5499359965324402,3.9788410663604736,41.166101683482864,40.50747584713893,163.3774989270525,148.82072768812515,6.47544875391759e-05,0.0834738835692405,0,0,0
13873,463094.0397127615,2010-08-24 23:00:10,3992.0268632191,2,38,0.5501165986061096,3.980783700942993,41.17068858456469,40.50747584713893,163.39575410884063,148.82072768812515,6.47544875391759e-05,0.0834738835692405,0,0,0
13874,463124.0549503189,2010-08-24 23:00:40,4022.0421008066255,2,38,0.5501165986061096,3.982888221740722,41.175275484164366,40.50747584713893,163.4140184017254,148.82072768812515,6.47544875391759e-05,0.0834738835692405,0,0,0
13875,463154.070348211,2010-08-24 23:01:10,4052.0574986736174,2,38,0.5501165986061096,3.984830856323242,41.17986249220508,40.50747584713893,163.432292238116,148.82072768812515,6.47544875391759e-05,0.0834738835692405,0,0,0
13876,463184.08558126725,2010-08-24 23:01:40,4082.072731754912,2,38,0.5501165986061096,3.9867734909057617,41.18444944168173,40.50747584713893,163.45057505051463,148.82072768812515,3.237724376958795e-05,0.0834738835692405,0,0,0
13877,463214.1007111063,2010-08-24 23:02:10,4112.087861588883,2,38,0.5501165986061096,3.988878011703491,41.18903642602261,40.50747584713893,163.46886718906055,148.82072768812515,6.47544875391759e-05,0.0834738835692405,0,0,0
13878,463244.11592930544,2010-08-24 23:02:40,4142.103079763025,2,38,0.5501165986061096,3.9908206462860103,41.19362332772344,40.50747584713893,163.48716829859376,148.82072768812515,6.47544875391759e-05,0.0834738835692405,0,0,0
13879,463274.1311720208,2010-08-24 23:03:10,4172.118322483343,2,38,0.5501165986061096,3.9927632808685294,41.198210306146784,40.50747584713893,163.50547913507793,148.82072768812515,3.237724376958795e-05,0.0834738835692405,0,0,0
13880,463304.14663391234,2010-08-24 23:03:40,4202.133784369891,2,38,0.5501165986061096,3.9948675632476807,41.20279733093383,40.50747584713893,163.5237996197444,148.82072768812515,3.237724376958795e-05,0.0834738835692405,0,0,0
13881,463334.16171102994,2010-08-24 23:04:10,4232.148861502515,2,38,0.5501165986061096,3.99713397026062,41.20738425005324,40.50747584713893,163.54212928200664,148.82072768812515,6.47544875391759e-05,0.0834738835692405,0,0,0
13882,463364.1769018358,2010-08-24 23:04:40,4262.164052293408,2,38,0.5501165986061096,3.99907660484314,41.21197119694816,40.50747584713893,163.5604686706424,148.82072768812515,3.237724376958795e-05,0.0834738835692405,0,0,0
13883,463394.192266495,2010-08-24 23:05:10,4292.179416977698,2,38,0.5501165986061096,4.001343250274658,41.21655810775093,40.50747584713893,163.57881766410486,148.82072768812515,6.47544875391759e-05,0.0834738835692405,0,0,0
13884,463424.2074287949,2010-08-24 23:05:40,4322.194579282596,2,38,0.5501165986061096,4.003447532653809,41.22114498045456,40.50747584713893,163.59717638398203,148.82072768812515,6.47544875391759e-05,0.0834738835692405,0,0,0
13885,463454.2226412498,2010-08-24 23:06:10,4352.209791712422,2,38,0.550297200679779,4.005713939666748,41.22573180801251,40.50747584713893,163.61554481968247,148.82072768812515,3.23295607813634e-05,0.0834738835692405,0,0,0
13886,463484.2378830128,2010-08-24 23:06:40,4382.225033485379,2,38,0.550297200679779,4.007980346679688,41.23031876112484,40.50747584713893,163.63392386515528,148.82072768812515,6.47544875391759e-05,0.0834738835692405,0,0,0
13887,463514.253114069,2010-08-24 23:07:10,4412.240264536615,2,38,0.5501165986061096,4.010085105895996,41.23490572680328,40.50747584713893,163.6523130402522,148.82072768812515,3.24249267578125e-05,0.0834738835692405,0,0,0
13888,463544.26837478415,2010-08-24 23:07:40,4442.255525271831,2,38,0.5501165986061096,4.012351512908936,41.23949273849425,40.50747584713893,163.67071266434283,148.82072768812515,3.24249267578125e-05,0.0834738835692405,0,0,0
13889,463574.2836159105,2010-08-24 23:08:10,4472.270766368102,2,38,0.5501165986061096,4.014617919921875,41.24407974079123,40.50747584713893,163.68912264035166,148.82072768812515,6.47544875391759e-05,0.0834738835692405,0,0,0
13890,463604.2989321039,2010-08-24 23:08:40,4502.286082581588,2,38,0.5501165986061096,4.016884326934815,41.24866677988242,40.50747584713893,163.70754322083118,148.82072768812515,6.47544875391759e-05,0.0834738835692405,0,0,0
13891,463634.31412515545,2010-08-24 23:09:10,4532.301275643141,2,38,0.5501165986061096,4.019150733947754,41.25325376056082,40.50747584713893,163.72597414315544,148.82072768812515,6.47544875391759e-05,0.0834738835692405,0,0,0
13892,463664.3293718006,2010-08-24 23:09:40,4562.316522258167,2,38,0.5501165986061096,4.021578788757324,41.25784076611256,40.50747584713893,163.7444157639547,148.82072768812515,6.47544875391759e-05,0.0834738835692405,0,0,0
13893,463694.3446075135,2010-08-24 23:10:10,4592.331758026157,2,38,0.550297200679779,4.024007320404053,41.26242780751302,40.50747584713893,163.7628684132174,148.82072768812515,6.47544875391759e-05,0.0834738835692405,0,0,0
13894,463724.35982604354,2010-08-24 23:10:40,4622.346976501049,2,38,0.5501165986061096,4.026273727416992,41.26701476395822,40.50747584713893,163.78133156820994,148.82072768812515,6.47544875391759e-05,0.0834738835692405,0,0,0
13895,463754.3750690445,2010-08-24 23:11:10,4652.362219507079,2,38,0.5501165986061096,4.0287017822265625,41.271601645552856,40.50747584713893,163.7998054308681,148.82072768812515,6.47544875391759e-05,0.0834738835692405,0,0,0
13896,463784.3904605206,2010-08-24 23:11:40,4682.377610973118,2,38,0.5499359965324402,4.030968189239502,41.2761886353807,40.50747584713893,163.81829076106047,148.82072768812515,0.0,0.0834738835692405,0,0,0
13897,463814.4055776929,2010-08-24 23:12:10,4712.392728140519,2,38,0.5501165986061096,4.033558368682861,41.28077553848565,40.50747584713893,163.83678698167554,148.82072768812515,6.47544875391759e-05,0.0834738835692405,0,0,0
13898,463844.4208589994,2010-08-24 23:12:40,4742.408009477082,2,38,0.550297200679779,4.036148548126221,41.2853625285769,40.50747584713893,163.8552948734222,148.82072768812515,6.47544875391759e-05,0.0834738835692405,0,0,0
13899,463874.4361834585,2010-08-24 23:13:10,4772.423333906042,2,38,0.5501165986061096,4.038576602935791,41.28994958590908,40.50747584713893,163.8738144723682,148.82072768812515,3.23295607813634e-05,0.0834738835692405,0,0,0
13900,463904.4514371511,2010-08-24 23:13:40,4802.438587618758,2,38,0.550297200679779,4.04116678237915,41.29453657531151,40.50747584713893,163.89234526221986,148.82072768812515,9.70840483205393e-05,0.0834738835692405,0,0,0
13901,463934.4665446394,2010-08-24 23:14:10,4832.453695122073,2,38,0.550297200679779,4.04375696182251,41.299123529977074,40.50747584713893,163.91088756231082,148.82072768812515,6.47544875391759e-05,0.0834738835692405,0,0,0
13902,463964.4817892645,2010-08-24 23:14:40,4862.468939722077,2,38,0.5501165986061096,4.046185493469238,41.303710523196365,40.50747584713893,163.92944176856523,148.82072768812515,3.24249267578125e-05,0.0834738835692405,0,0,0
13903,463994.4970383356,2010-08-24 23:15:10,4892.484188823298,2,38,0.550297200679779,4.0489373207092285,41.30829743690482,40.50747584713893,163.94800748940892,148.82072768812515,6.47544875391759e-05,0.0834738835692405,0,0,0
13904,464024.5122929356,2010-08-24 23:15:40,4922.4994433881375,2,38,0.550297200679779,4.051365852355957,41.312884459633125,40.50747584713893,163.96658561962477,148.82072768812515,6.47544875391759e-05,0.0834738835692405,0,0,0
13905,464054.5275548688,2010-08-24 23:16:10,4952.514705346402,2,38,0.5499359965324402,4.054117679595947,41.31747140918496,40.50747584713893,163.9851754915988,148.82072768812515,6.47544875391759e-05,0.0834738835692405,0,0,0
13906,464084.54289438535,2010-08-24 23:16:40,4982.5300448529415,2,38,0.550297200679779,4.056707859039307,41.322058338297474,40.50747584713893,164.0037774688172,148.82072768812515,6.47544875391759e-05,0.0834738835692405,0,0,0
13907,464114.55802159273,2010-08-24 23:17:10,5012.545172050341,2,38,0.5499359965324402,4.059298038482666,41.32664527956784,40.50747584713893,164.02239178815432,148.82072768812515,0.0,0.0834738835692405,0,0,0
13908,464144.573282734,2010-08-24 23:17:40,5042.560433186557,2,38,0.550297200679779,4.062211990356445,41.33123227523077,40.50747584713893,164.041018485961,148.82072768812515,9.70840483205393e-05,0.0834738835692405,0,0,0
13909,464174.5885561709,2010-08-24 23:18:10,5072.575706628443,2,38,0.5501165986061096,4.064964294433594,41.33581919980739,40.50747584713893,164.05965732170478,148.82072768812515,0.0001295089750783,0.0834738835692405,0,0,0
13910,464204.6037749615,2010-08-24 23:18:40,5102.590925419121,2,38,0.550297200679779,4.067554473876953,41.340406111609646,40.50747584713893,164.0783087589718,148.82072768812515,6.47544875391759e-05,0.0834738835692405,0,0,0
13911,464234.61903911526,2010-08-24 23:19:10,5132.606189572859,2,38,0.5501165986061096,4.070468425750732,41.344993076389805,40.50747584713893,164.09697320562617,148.82072768812515,9.71794142969884e-05,0.0834738835692405,0,0,0
13912,464264.63453154295,2010-08-24 23:19:40,5162.621682160924,2,38,0.5501165986061096,4.073382377624512,41.34958002751041,40.50747584713893,164.1156503909107,148.82072768812515,0.0001295089750783,0.0834738835692405,0,0,0
13913,464294.64950933296,2010-08-24 23:20:10,5192.636659790555,2,38,0.5501165986061096,4.075972557067871,41.3541669319606,40.50747584713893,164.1343404244114,148.82072768812515,3.24249267578125e-05,0.0834738835692405,0,0,0
13914,464324.66473799327,2010-08-24 23:20:40,5222.651888455844,2,38,0.5501165986061096,4.07888650894165,41.35875385691418,40.50747584713893,164.15304362177025,148.82072768812515,6.47544875391759e-05,0.0834738835692405,0,0,0
13915,464354.67997260334,2010-08-24 23:21:10,5252.667123085999,2,38,0.550297200679779,4.08180046081543,41.36334078618492,40.50747584713893,164.1717600906152,148.82072768812515,6.47544875391759e-05,0.0834738835692405,0,0,0
13916,464384.6952362608,2010-08-24 23:21:40,5282.682386728462,2,38,0.550297200679779,4.08487606048584,41.367927641355216,40.50747584713893,164.19048959606516,148.82072768812515,0.0001295089750783,0.0834738835692405,0,0,0
13917,464414.71047102136,2010-08-24 23:22:10,5312.697621503979,2,38,0.550297200679779,4.087790012359619,41.37251444207686,40.50747584713893,164.2092323437114,148.82072768812515,0.0001295089750783,0.0834738835692405,0,0,0
13918,464444.7257181477,2010-08-24 23:22:41,5342.712868650328,2,38,0.5499359965324402,4.090703964233398,41.3771012962693,40.50747584713893,164.22798891218068,148.82072768812515,6.47544875391759e-05,0.0834738835692405,0,0,0
13919,464474.7412637228,2010-08-24 23:23:11,5372.728414185354,2,38,0.5501165986061096,4.093780040740967,41.38168826405817,40.50747584713893,164.2467596391436,148.82072768812515,6.47544875391759e-05,0.0834738835692405,0,0,0
13920,464504.7563299432,2010-08-24 23:23:41,5402.743480390744,2,38,0.550297200679779,4.096855640411377,41.38627520060804,40.50747584713893,164.26554406547936,148.82072768812515,9.70840483205393e-05,0.0834738835692405,0,0,0
13921,464534.7714349954,2010-08-24 23:24:11,5432.758585452974,2,38,0.5501165986061096,4.099607944488525,41.39086211567361,40.50747584713893,164.28434234161455,148.82072768812515,6.47544875391759e-05,0.0834738835692405,0,0,0
13922,464564.7866830239,2010-08-24 23:24:41,5462.773833511598,2,38,0.5501165986061096,4.102845668792725,41.39544905487246,40.50747584713893,164.3031547919434,148.82072768812515,9.71794142969884e-05,0.0834738835692405,0,0,0
13923,464594.80192322296,2010-08-24 23:25:11,5492.789073685571,2,38,0.550297200679779,4.105921268463135,41.400035990836365,40.50747584713893,164.32198146114655,148.82072768812515,6.47544875391759e-05,0.0834738835692405,0,0,0
13924,464624.817184254,2010-08-24 23:25:41,5522.8043347065,2,38,0.5501165986061096,4.109158992767334,41.404622898040046,40.50747584713893,164.3408223736904,148.82072768812515,6.47544875391759e-05,0.0834738835692405,0,0,0
13925,464654.8324213552,2010-08-24 23:26:11,5552.819571827863,2,38,0.5501165986061096,4.112235069274902,41.409209871706445,40.50747584713893,164.35967807927923,148.82072768812515,6.47544875391759e-05,0.0834738835692405,0,0,0
13926,464684.84767832607,2010-08-24 23:26:41,5582.834828798698,2,38,0.5501165986061096,4.115472316741943,41.41379675758011,40.50747584713893,164.3785478987175,148.82072768812515,9.70840483205393e-05,0.0834738835692405,0,0,0
13927,464714.86290129216,2010-08-24 23:27:11,5612.850051749745,2,38,0.5501165986061096,4.118548393249512,41.418383711284925,40.50747584713893,164.39743279639222,148.82072768812515,6.47544875391759e-05,0.0834738835692405,0,0,0
13928,464744.87826176593,2010-08-24 23:27:41,5642.86541223858,2,38,0.5499359965324402,4.121947765350342,41.42297061717416,40.50747584713893,164.4163323203083,148.82072768812515,6.47544875391759e-05,0.0834738835692405,0,0,0
13929,464774.8933729334,2010-08-24 23:28:11,5672.880523406026,2,38,0.5501165986061096,4.125185489654541,41.42755755687087,40.50747584713893,164.4352469141099,148.82072768812515,6.47544875391759e-05,0.0834738835692405,0,0,0
13930,464804.90867094655,2010-08-24 23:28:41,5702.895821409128,2,38,0.5501165986061096,4.128585338592529,41.432144486373296,40.50747584713893,164.45417655783936,148.82072768812515,0.0001295089750783,0.0834738835692405,0,0,0
13931,464834.924080247,2010-08-24 23:29:11,5732.911230694577,2,38,0.550297200679779,4.131984710693359,41.43673145608869,40.50747584713893,164.47312164657896,148.82072768812515,9.70840483205393e-05,0.0834738835692405,0,0,0
13932,464864.9392904062,2010-08-24 23:29:41,5762.926440853743,2,38,0.5501165986061096,4.135222434997559,41.44131842205142,40.50747584713893,164.49208204142897,148.82072768812515,9.70840483205393e-05,0.0834738835692405,0,0,0
13933,464894.95441160863,2010-08-24 23:30:11,5792.941562091289,2,38,0.5501165986061096,4.138622283935547,41.445905411607,40.50747584713893,164.51105805009,148.82072768812515,6.47544875391759e-05,0.0834738835692405,0,0,0
13934,464924.9696317376,2010-08-24 23:30:41,5822.9567821952405,2,38,0.5501165986061096,4.142183780670166,41.45049241715153,40.50747584713893,164.53004979769608,148.82072768812515,9.71794142969884e-05,0.0834738835692405,0,0,0
13935,464954.984874874,2010-08-24 23:31:11,5852.972025336609,2,38,0.550297200679779,4.145745277404785,41.455079368968846,40.50747584713893,164.54905715904587,148.82072768812515,0.0001295089750783,0.0834738835692405,0,0,0
13936,464985.0004092211,2010-08-24 23:31:41,5882.987559673726,2,38,0.550297200679779,4.149144649505615,41.45966637462509,40.50747584713893,164.5680808579592,148.82072768812515,0.0001295089750783,0.0834738835692405,0,0,0
13937,465015.01549614815,2010-08-24 23:32:11,5913.002646595746,2,38,0.550297200679779,4.152544498443604,41.46425333146816,40.50747584713893,164.5871204085362,148.82072768812515,9.71794142969884e-05,0.0834738835692405,0,0,0
13938,465045.0306130399,2010-08-24 23:32:41,5943.017763522548,2,38,0.5501165986061096,4.155943870544434,41.4688402863868,40.50747584713893,164.60617605305964,148.82072768812515,6.47544875391759e-05,0.0834738835692405,0,0,0
13939,465075.0458867826,2010-08-24 23:33:11,5973.0330372701965,2,38,0.5501165986061096,4.159505367279053,41.47342719670595,40.50747584713893,164.62524777641525,148.82072768812515,9.70840483205393e-05,0.0834738835692405,0,0,0
13940,465105.06113350287,2010-08-24 23:33:41,6003.048283985471,2,38,0.5499359965324402,4.163066864013672,41.47801412384267,40.50747584713893,164.64433601550715,148.82072768812515,3.23295607813634e-05,0.0834738835692405,0,0,0
13941,465135.07633907057,2010-08-24 23:34:11,6033.063489558207,2,38,0.5501165986061096,4.16679048538208,41.482601078230445,40.50747584713893,164.66344084040065,148.82072768812515,6.47544875391759e-05,0.0834738835692405,0,0,0
13942,465165.09158444754,2010-08-24 23:34:41,6063.078734900058,2,38,0.550297200679779,4.17051362991333,41.48718803963147,40.50747584713893,164.68256238940106,148.82072768812515,9.70840483205393e-05,0.0834738835692405,0,0,0
13943,465195.10683185945,2010-08-24 23:35:11,6093.093982317083,2,38,0.5501165986061096,4.174237251281738,41.49177496046487,40.50747584713893,164.70170061292748,148.82072768812515,9.71794142969884e-05,0.0834738835692405,0,0,0
13944,465225.1223354349,2010-08-24 23:35:41,6123.109485892533,2,38,0.550297200679779,4.177960395812988,41.49636194433292,40.50747584713893,164.72085600871358,148.82072768812515,0.0001295089750783,0.0834738835692405,0,0,0
13945,465255.13746017625,2010-08-24 23:36:11,6153.124610628798,2,38,0.550297200679779,4.181845664978027,41.50094892474,40.50747584713893,164.74002851404555,148.82072768812515,0.0001618385285837,0.0834738835692405,0,0,0
13946,465285.15256391006,2010-08-24 23:36:41,6183.1397143727445,2,38,0.550297200679779,4.185245513916016,41.50553589546748,40.50747584713893,164.75921814348766,148.82072768812515,6.47544875391759e-05,0.0834738835692405,0,0,0
13947,465315.1678243847,2010-08-24 23:37:11,6213.154974847312,2,38,0.5501165986061096,4.189130783081055,41.51012280342158,40.50747584713893,164.7784249015609,148.82072768812515,9.71794142969884e-05,0.0834738835692405,0,0,0
13948,465345.1830629948,2010-08-24 23:37:41,6243.170213447362,2,38,0.5499359965324402,4.192853927612305,41.51470975700106,40.50747584713893,164.7976493552772,148.82072768812515,6.47544875391759e-05,0.0834738835692405,0,0,0
13949,465375.1982988279,2010-08-24 23:38:11,6273.185449310589,2,38,0.5499359965324402,4.196900844573975,41.519296664151206,40.50747584713893,164.8168912478538,148.82072768812515,0.0001295089750783,0.0834738835692405,0,0,0
13950,465398.10424746486,2010-08-24 23:38:34,6296.091397952589,2,38,0.550297200679779,4.200138568878174,41.5227971043983,40.50747584713893,164.8315874231795,148.82072768812515,0.0001618385285837,0.0834738835692405,0,0,0
13951,465428.1133329872,2010-08-24 23:39:04,30.015216936056017,3,38,0.0,4.12534761428833,41.5227971043983,40.50747584713893,164.8315874231795,148.82072768812515,-0.0003561019839253,0.0834738835692405,0,0,0
13952,465458.1286001134,2010-08-24 23:39:34,60.03048406721367,3,38,0.0,4.116119861602783,41.5227971043983,40.50747584713893,164.8315874231795,148.82072768812515,-0.0001942634553415,0.0834738835692405,0,0,0
13953,465488.14384529984,2010-08-24 23:40:04,90.04572924365343,3,38,0.0,4.110777854919434,41.5227971043983,40.50747584713893,164.8315874231795,148.82072768812515,-6.47544875391759e-05,0.0834738835692405,0,0,0
13954,465518.11219673767,2010-08-24 23:40:34,120.01408068146766,3,38,0.0,4.107054710388184,41.5227971043983,40.50747584713893,164.8315874231795,148.82072768812515,-6.47544875391759e-05,0.0834738835692405,0,0,0
13955,465518.12321775977,2010-08-24 23:40:34,2.51125883e-06,4,38,1.0041683912277222,4.199653148651123,41.52279710509878,40.50747584713893,164.83158742612127,148.82072768812515,0.0,0.0834738835692405,0,0,0
13956,465519.01384567865,2010-08-24 23:40:35,0.890630450121842,4,38,0.9534171223640442,4.199653148651123,41.5230378198383,40.50747584713893,164.83259835174903,148.82072768812515,0.0,0.0834738835692405,0,0,0
13957,465521.0292962516,2010-08-24 23:40:37,2.906081028100805,4,38,0.9033883810043336,4.199491024017334,41.52355654056433,40.50747584713893,164.8347768096011,148.82072768812515,-3.24249267578125e-05,0.0834738835692405,0,0,0
13958,465524.06066893,2010-08-24 23:40:40,5.937453701533052,4,38,0.853359580039978,4.199653148651123,41.5242951818232,40.50747584713893,164.8378788481469,148.82072768812515,0.0,0.0834738835692405,0,0,0
13959,465528.1698143497,2010-08-24 23:40:44,10.046599136308954,4,38,0.8031502366065979,4.199653148651123,41.52523950267925,40.50747584713893,164.84184469192908,148.82072768812515,0.0,0.0834738835692405,0,0,0
13960,465533.3732302883,2010-08-24 23:40:49,15.250015049816463,4,38,0.752940833568573,4.199653148651123,41.526362985953725,40.50747584713893,164.8465629602876,148.82072768812515,-3.23295607813634e-05,0.0834738835692405,0,0,0
13961,465540.0290510766,2010-08-24 23:40:56,21.905835848190875,4,38,0.7027314305305481,4.199653148651123,41.527707332207314,40.50747584713893,164.8522088039276,148.82072768812515,0.0,0.0834738835692405,0,0,0
13962,465548.7479842609,2010-08-24 23:41:05,30.62476902240969,4,38,0.652522087097168,4.199491024017334,41.52934643750899,40.50747584713893,164.8590925484213,148.82072768812515,-6.47544875391759e-05,0.0834738835692405,0,0,0
13963,465560.54445037415,2010-08-24 23:41:17,42.421235150683245,4,38,0.6024932861328125,4.199814796447754,41.53139849586141,40.50747584713893,164.8677105746555,148.82072768812515,3.23295607813634e-05,0.0834738835692405,0,0,0
13964,465577.2941993474,2010-08-24 23:41:33,59.17098414895586,4,38,0.5524645447731018,4.199653148651123,41.53407870558314,40.50747584713893,164.8789666647213,148.82072768812515,-3.23295607813634e-05,0.0834738835692405,0,0,0
13965,465603.6532401124,2010-08-24 23:42:00,85.5300248939665,4,38,0.5024357438087463,4.199491024017334,41.53792815884762,40.50747584713893,164.8951331967389,148.82072768812515,-6.47544875391759e-05,0.0834738835692405,0,0,0
13966,465647.5589788578,2010-08-24 23:42:44,129.43576363436566,4,38,0.4524070024490356,4.199814796447754,41.54372673571348,40.50747584713893,164.91948547977378,148.82072768812515,3.23295607813634e-05,0.0834738835692405,0,0,0
13967,465718.0580744411,2010-08-24 23:43:54,199.93485922260092,4,38,0.4023782312870025,4.199814796447754,41.55206688883939,40.50747584713893,164.95451164059995,148.82072768812515,3.23295607813634e-05,0.0834738835692405,0,0,0
13968,465813.9005559199,2010-08-24 23:45:30,295.77734068139057,4,38,0.3523494601249695,4.199653148651123,41.562095203359725,40.50747584713893,164.99662757696046,148.82072768812515,0.0,0.0834738835692405,0,0,0
13969,465932.9773397693,2010-08-24 23:47:29,414.85412454077857,4,38,0.3021400868892669,4.199653148651123,41.57290616206368,40.50747584713893,165.04203039312537,148.82072768812515,0.0,0.0834738835692405,0,0,0
13970,466076.4911791802,2010-08-24 23:49:53,558.3679639767574,4,38,0.251930683851242,4.199814796447754,41.58393307477451,40.50747584713893,165.08834017113404,148.82072768812515,3.23295607813634e-05,0.0834738835692405,0,0,0
13971,466254.082636771,2010-08-24 23:52:50,735.9594215425368,4,38,0.2019019275903701,4.199653148651123,41.59509461264203,40.50747584713893,165.1352153146236,148.82072768812515,-3.23295607813634e-05,0.0834738835692405,0,0,0
13972,466485.12645517685,2010-08-24 23:56:41,967.0032399584348,4,38,0.1518731564283371,4.199491024017334,41.60638305328592,40.50747584713893,165.18262332874446,148.82072768812515,0.0,0.0834738835692405,0,0,0
13973,466821.96597311855,2010-08-25 00:02:18,1303.8427578900491,4,38,0.1018443927168846,4.199491024017334,41.61810718943192,40.50747584713893,165.23186100283758,148.82072768812515,-6.47544875391759e-05,0.0834738835692405,0,0,0
13974,467425.1615041856,2010-08-25 00:12:21,1907.0382889721304,4,38,0.0518156178295612,4.199653148651123,41.63052808943468,40.50747584713893,165.28402511547574,148.82072768812515,0.0,0.0834738835692405,0,0,0
13975,467468.6140697039,2010-08-25 00:13:05,1950.4908544854093,4,38,0.0498289167881011,4.199491024017334,41.63114699310484,40.50747584713893,165.28662432947272,148.82072768812515,-3.24249267578125e-05,0.0834738835692405,0,0,0
13976,467498.6180846857,2010-08-25 00:13:35,30.015246379437983,5,38,0.0,4.192692279815674,41.63114699310484,40.50747584713893,165.28662432947272,148.82072768812515,-6.47544875391759e-05,0.0834738835692405,0,0,0
13977,467528.6177321779,2010-08-25 00:14:05,60.01489389169931,5,38,0.0,4.191558837890625,41.63114699310484,40.50747584713893,165.28662432947272,148.82072768812515,-3.24249267578125e-05,0.0834738835692405,0,0,0
13978,467528.81040316325,2010-08-25 00:14:05,0.18754213269996,6,38,-1.9243103452026844e-05,4.191720962524414,41.63114699310484,40.50747584814141,165.28662432947272,148.8207276923272,0.0,0.0889859497547149,0,0,0
13979,467533.63833946607,2010-08-25 00:14:10,5.015478415435393,6,38,0.0005225847125984,4.191720962524414,41.63114788495798,40.50747584822448,165.28662806790337,148.82072769267546,-3.23295607813634e-05,0.0889859497547149,0,0,0
13980,467563.6431157431,2010-08-25 00:14:40,30.0151957382245,7,38,-1.0997490882873535,4.036633968353272,41.63114788495798,40.516645258391016,165.28662806790337,148.85791927236033,-0.0008418083307333,0.0889859497547149,0,0,0
13981,467593.6583785685,2010-08-25 00:15:10,60.03045853858848,7,38,-1.0997490882873535,4.013160705566406,41.63114788495798,40.52581463180632,165.28662806790337,148.89481588631662,-0.0004857063177041,0.0889859497547149,0,0,0
13982,467623.6736577597,2010-08-25 00:15:40,90.04573773481602,7,38,-1.099929690361023,3.9966483116149902,41.63114788495798,40.53498400850221,165.28662806790337,148.93153426262202,-0.0003561496851034,0.0889859497547149,0,0,0
13983,467653.6889057081,2010-08-25 00:16:10,120.06098568817669,7,38,-1.099929690361023,3.984021425247192,41.63114788495798,40.5441533668946,165.28662806790337,148.96812155114134,-0.0003237724304199,0.0889859497547149,0,0,0
13984,467683.7041500575,2010-08-25 00:16:40,150.07623002753013,7,38,-1.099568486213684,3.973175048828125,41.63114788495798,40.55332261926523,165.28662806790337,149.00460081736375,-0.0002590179501567,0.0889859497547149,0,0,0
13985,467713.7197175623,2010-08-25 00:17:10,180.09179755737375,7,38,-1.099929690361023,3.9631381034851074,41.63114788495798,40.5624918878672,165.28662806790337,149.04098562315153,-0.0002913951757363,0.0889859497547149,0,0,0
13986,467743.7346572373,2010-08-25 00:17:40,210.10673723241,7,38,-1.0997490882873535,3.9540724754333496,41.63114788495798,40.57166102612606,165.28662806790337,149.0772829504173,-0.0002266406954731,0.0889859497547149,0,0,0
13987,467773.7500125181,2010-08-25 00:18:10,240.12209248820136,7,38,-1.0997490882873535,3.945330619812012,41.63114788495798,40.58083031661124,165.28662806790337,149.11349898032086,-0.0002266406954731,0.0889859497547149,0,0,0
13988,467803.7651386178,2010-08-25 00:18:40,270.1372185878651,7,38,-1.0997490882873535,3.9369125366210938,41.63114788495798,40.58999957151895,165.28662806790337,149.14963640636563,-0.0002266406954731,0.0889859497547149,0,0,0
13989,467833.7803984608,2010-08-25 00:19:10,300.15247843587093,7,38,-1.099568486213684,3.9289801120758057,41.63114788495798,40.59916879352096,165.28662806790337,149.1856978268559,-0.0001618862152099,0.0889859497547149,0,0,0
13990,467863.7957676262,2010-08-25 00:19:40,330.1678476263919,7,38,-1.099929690361023,3.9207239151000977,41.63114788495798,40.60833805863598,165.28662806790337,149.22168561062676,-0.0002590179501567,0.0889859497547149,0,0,0
13991,467893.8108802273,2010-08-25 00:20:10,360.18296020235044,7,38,-1.099568486213684,3.9132773876190186,41.63114788495798,40.61750728940507,165.28662806790337,149.2576011162309,-0.0001294612884521,0.0889859497547149,0,0,0
13992,467923.8261262809,2010-08-25 00:20:40,390.19820625597646,7,38,-1.099929690361023,3.9053449630737305,41.63114788495798,40.6266765997688,165.28662806790337,149.29344640096912,-0.0002266406954731,0.0889859497547149,0,0,0
13993,467953.8413978882,2010-08-25 00:21:10,420.21347788334,7,38,-1.1001102924346924,3.897898197174072,41.63114788495798,40.63584587792798,165.28662806790337,149.32922205640605,-0.0002266406954731,0.0889859497547149,0,0,0
13994,467983.8566160273,2010-08-25 00:21:40,450.22869599733184,7,38,-1.099929690361023,3.890451431274414,41.63114788495798,40.6450150795052,165.28662806790337,149.3649292136604,-0.0002266406954731,0.0889859497547149,0,0,0
13995,468013.8719511228,2010-08-25 00:22:10,480.2440311229527,7,38,-1.0997490882873535,3.883328437805176,41.63114788495798,40.65418440330524,165.28662806790337,149.40056945179722,-0.0001618862152099,0.0889859497547149,0,0,0
13996,468043.8871182648,2010-08-25 00:22:40,510.2591982398439,7,38,-1.0997490882873535,3.876043558120728,41.63114788495798,40.66335365422589,165.28662806790337,149.43614292124963,-0.0002266406954731,0.0889859497547149,0,0,0
13997,468073.9023810602,2010-08-25 00:23:10,540.2744610351954,7,38,-1.0997490882873535,3.868920564651489,41.63114788495798,40.67252291844809,165.28662806790337,149.47165087625535,-0.0002266406954731,0.0889859497547149,0,0,0
13998,468103.90300393326,2010-08-25 00:23:40,570.2750839033438,7,38,-1.099568486213684,3.862121343612671,41.63114788495798,40.68168771698428,165.28662806790337,149.50707680768917,-0.0001618862152099,0.0889859497547149,0,0,0
13999,468133.9174427199,2010-08-25 00:24:10,600.289522690012,7,38,-1.0997490882873535,3.8549983501434326,41.63114788495798,40.690856778655125,165.28662806790337,149.54245542075626,-0.0001942634553415,0.0889859497547149,0,0,0
14000,468163.9325075619,2010-08-25 00:24:40,630.3045875570652,7,38,-1.099568486213684,3.8481991291046143,41.63114788495798,40.70002604339311,165.28662806790337,149.57777183339977,-0.0001942634553415,0.0889859497547149,0,0,0
14001,468193.9477281722,2010-08-25 00:25:10,660.3198081472284,7,38,-1.099929690361023,3.841561794281006,41.63114788495798,40.70919536897608,165.28662806790337,149.6130264841966,-0.0001618862152099,0.0889859497547149,0,0,0
14002,468223.9632017328,2010-08-25 00:25:40,690.3352817028594,7,38,-1.0997490882873535,3.8349244594573975,41.63114788495798,40.71836479387504,165.28662806790337,149.64822030950023,-0.0001618862152099,0.0889859497547149,0,0,0
14003,468253.9780651879,2010-08-25 00:26:10,720.350145157932,7,38,-1.099929690361023,3.828287363052368,41.63114788495798,40.727534003015975,165.28662806790337,149.68335300011634,-0.0001942634553415,0.0889859497547149,0,0,0
14004,468283.99330051977,2010-08-25 00:26:40,750.3653804898362,7,38,-1.099568486213684,3.82197380065918,41.63114788495798,40.736703347734114,165.28662806790337,149.71842687040808,-0.0001942634553415,0.0889859497547149,0,0,0
14005,468314.0085646284,2010-08-25 00:27:10,780.3806446285357,7,38,-1.0997490882873535,3.815660238265991,41.63114788495798,40.74587271607325,165.28662806790337,149.75344263155688,-0.0001942634553415,0.0889859497547149,0,0,0
14006,468344.023804622,2010-08-25 00:27:40,810.3958845969955,7,38,-1.099568486213684,3.8095085620880127,41.63114788495798,40.75504200978381,165.28662806790337,149.7884002993176,-0.0001618862152099,0.0889859497547149,0,0,0
14007,468374.0391675517,2010-08-25 00:28:10,840.4112475219007,7,38,-1.0997490882873535,3.803194999694824,41.63114788495798,40.76421137656119,165.28662806790337,149.8233015602525,-0.0001942634553415,0.0889859497547149,0,0,0
14008,468404.05428958137,2010-08-25 00:28:41,870.4263695514205,7,38,-1.0997490882873535,3.7973670959472656,41.63114788495798,40.77338068369164,165.28662806790337,149.85814721718074,-0.0001295089750783,0.0889859497547149,0,0,0
14009,468434.0699397371,2010-08-25 00:29:11,900.4420197122057,7,38,-1.0997490882873535,3.791377305984497,41.63114788495798,40.782550170248285,165.28662806790337,149.89293899108503,-0.0001618862152099,0.0889859497547149,0,0,0
14010,468464.08494537655,2010-08-25 00:29:41,930.4570253566584,7,38,-1.099929690361023,3.7855494022369385,41.63114788495798,40.7917194589396,165.28662806790337,149.92767666011844,-0.0001942634553415,0.0889859497547149,0,0,0
14011,468494.1000451907,2010-08-25 00:30:11,960.4721251708104,7,38,-1.099929690361023,3.7800452709198,41.63114788495798,40.80088874077255,165.28662806790337,149.96236174572454,-0.0001295089750783,0.0889859497547149,0,0,0
14012,468524.1153081815,2010-08-25 00:30:41,990.487388151624,7,38,-1.0997490882873535,3.774379253387451,41.63114788495798,40.81005805866335,165.28662806790337,149.9969956313003,-0.0001295089750783,0.0889859497547149,0,0,0
14013,468554.13052574405,2010-08-25 00:31:11,1020.5026057142416,7,38,-1.0997490882873535,3.7690370082855225,41.63114788495798,40.81922738260028,165.28662806790337,150.03157896625692,-0.0001295089750783,0.0889859497547149,0,0,0
14014,468584.1458800176,2010-08-25 00:31:41,1050.5179599976095,7,38,-1.0997490882873535,3.763532876968384,41.63114788495798,40.82839688335287,165.28662806790337,150.06611350282677,-0.0001618862152099,0.0889859497547149,0,0,0
14015,468614.1611582563,2010-08-25 00:32:11,1080.5332382364509,7,38,-1.1001102924346924,3.758352518081665,41.63114788495798,40.837567089543626,165.28662806790337,150.10060194647713,-0.0001618862152099,0.0889859497547149,0,0,0
14016,468644.1762485919,2010-08-25 00:32:41,1110.5483285619543,7,38,-1.099568486213684,3.753334045410156,41.63114788495798,40.84673720610816,165.28662806790337,150.1350426344351,-0.0001295089750783,0.0889859497547149,0,0,0
14017,468674.1915508355,2010-08-25 00:33:11,1140.5636308106357,7,38,-1.0997490882873535,3.7481539249420166,41.63114788495798,40.855906630955154,165.28662806790337,150.16943433707794,-0.0001618862152099,0.0889859497547149,0,0,0
14018,468704.20693295833,2010-08-25 00:33:41,1170.5790129283753,7,38,-1.0997490882873535,3.7432973384857178,41.63114788495798,40.86507605999275,165.28662806790337,150.20378028928573,-0.0001295089750783,0.0889859497547149,0,0,0
14019,468734.2220617747,2010-08-25 00:34:11,1200.5941417498225,7,38,-1.0997490882873535,3.738440752029419,41.63114788495798,40.87424539626243,165.28662806790337,150.23808089104486,-9.713172767078504e-05,0.0889859497547149,0,0,0
14020,468764.2376450538,2010-08-25 00:34:41,1230.6097250439557,7,38,-1.0997490882873535,3.73358416557312,41.63114788495798,40.8834149347048,165.28662806790337,150.2723381445004,-0.0001295089750783,0.0889859497547149,0,0,0
14021,468794.2525661826,2010-08-25 00:35:11,1260.6246461777814,7,38,-1.099929690361023,3.7288894653320312,41.63114788495798,40.8925842590492,165.28662806790337,150.30655109910523,-9.713172767078504e-05,0.0889859497547149,0,0,0
14022,468824.267802512,2010-08-25 00:35:41,1290.6398824821094,7,38,-1.0997490882873535,3.724356651306152,41.63114788495798,40.90175367567024,165.28662806790337,150.34072253268045,-0.0001295089750783,0.0889859497547149,0,0,0
14023,468854.2831526701,2010-08-25 00:36:11,1320.6552326702706,7,38,-1.0997490882873535,3.7198238372802734,41.63114788495798,40.91092312501787,165.28662806790337,150.3748521875867,-0.0001295089750783,0.0889859497547149,0,0,0
14024,468884.29828188254,2010-08-25 00:36:41,1350.6703618826923,7,38,-1.0997490882873535,3.715452909469605,41.63114788495798,40.92009250491874,165.28662806790337,150.4089405368997,-9.713172767078504e-05,0.0889859497547149,0,0,0
14025,468914.3135319662,2010-08-25 00:37:11,1380.6856119362872,7,38,-1.0997490882873535,3.711081981658936,41.63114788495798,40.9292619319463,165.28662806790337,150.4429887824005,-9.713172767078504e-05,0.0889859497547149,0,0,0
14026,468944.3288045209,2010-08-25 00:37:41,1410.7008844959746,7,38,-1.099929690361023,3.7067110538482666,41.63114788495798,40.93843137488267,165.28662806790337,150.47699730828873,-0.0001618862152099,0.0889859497547149,0,0,0
14027,468974.3440268154,2010-08-25 00:38:11,1440.7161067853729,7,38,-1.0997490882873535,3.7023401260375977,41.63114788495798,40.947600853054766,165.28662806790337,150.51096691019478,-0.0001618862152099,0.0889859497547149,0,0,0
14028,469004.359396888,2010-08-25 00:38:41,1470.7314768580925,7,38,-1.099568486213684,3.6982929706573486,41.63114788495798,40.95677034202238,165.28662806790337,150.54489830676948,-0.0001295089750783,0.0889859497547149,0,0,0
14029,469034.37454969424,2010-08-25 00:39:11,1500.7466296743423,7,38,-1.099929690361023,3.6940839290618896,41.63114788495798,40.965939778579326,165.28662806790337,150.57879202816204,-0.0001295089750783,0.0889859497547149,0,0,0
14030,469064.38991042366,2010-08-25 00:39:41,1530.7619903937507,7,38,-1.0997490882873535,3.690360546112061,41.63114788495798,40.97510930865947,165.28662806790337,150.6126491149827,-0.0001295089750783,0.0889859497547149,0,0,0
14031,469094.405145139,2010-08-25 00:40:11,1560.777225109118,7,38,-1.0997490882873535,3.6864752769470215,41.63114788495798,40.984278800273565,165.28662806790337,150.64646962759042,-9.713172767078504e-05,0.0889859497547149,0,0,0
14032,469124.42026909336,2010-08-25 00:40:41,1590.7923490684475,7,38,-1.099568486213684,3.6825900077819824,41.63114788495798,40.99344820047351,165.28662806790337,150.6802541627053,-6.47544875391759e-05,0.0889859497547149,0,0,0
14033,469154.4356278178,2010-08-25 00:41:11,1620.807707908171,7,38,-1.0997490882873535,3.678866624832153,41.63114788495798,41.00261768980619,165.28662806790337,150.71400404739757,-9.713172767078504e-05,0.0889859497547149,0,0,0
14034,469184.4510206021,2010-08-25 00:41:41,1650.8231005772077,7,38,-1.0997490882873535,3.675143241882324,41.63114788495798,41.01178717472634,165.28662806790337,150.7477195141556,-6.47544875391759e-05,0.0889859497547149,0,0,0
14035,469214.466029991,2010-08-25 00:42:11,1680.8381099810294,7,38,-1.099929690361023,3.671258211135864,41.63114788495798,41.0209565765248,165.28662806790337,150.7814008815687,-0.0001618862152099,0.0889859497547149,0,0,0
14036,469244.4812662,2010-08-25 00:42:41,1710.8533461700702,7,38,-1.0997490882873535,3.667696714401245,41.63114788495798,41.03012600729391,165.28662806790337,150.81504917357432,-0.0001295089750783,0.0889859497547149,0,0,0
14037,469274.49650924606,2010-08-25 00:43:11,1740.8685892162005,7,38,-1.0997490882873535,3.664297103881836,41.63114788495798,41.03929539238273,165.28662806790337,150.84866459707814,-9.713172767078504e-05,0.0889859497547149,0,0,0
14038,469304.511777871,2010-08-25 00:43:41,1770.8838578511056,7,38,-1.0997490882873535,3.6608974933624263,41.63114788495798,41.04846488957188,165.28662806790337,150.8822485273271,-9.713172767078504e-05,0.0889859497547149,0,0,0
14039,469334.5270420849,2010-08-25 00:44:11,1800.8991220549678,7,38,-1.0997490882873535,3.6574978828430176,41.63114788495798,41.05763432082458,165.28662806790337,150.9158009421641,-9.713172767078504e-05,0.0889859497547149,0,0,0
14040,469364.5422601588,2010-08-25 00:44:41,1830.914340143897,7,38,-1.099568486213684,3.654098272323608,41.63114788495798,41.066803571374,165.28662806790337,150.94932225513378,-9.713172767078504e-05,0.0889859497547149,0,0,0
14041,469394.5574857614,2010-08-25 00:45:11,1860.9295657415405,7,38,-1.0997490882873535,3.651022434234619,41.63114788495798,41.07597282141612,165.28662806790337,150.98281374424226,-6.47544875391759e-05,0.0889859497547149,0,0,0
14042,469424.5727549527,2010-08-25 00:45:41,1890.944834922808,7,38,-1.099568486213684,3.64810848236084,41.63114788495798,41.0851421812531,165.28662806790337,151.016276636652,-6.47544875391759e-05,0.0889859497547149,0,0,0
14043,469454.5879890014,2010-08-25 00:46:11,1920.9600689715137,7,38,-1.099929690361023,3.6448707580566406,41.63114788495798,41.09431143376445,165.28662806790337,151.04971056530027,-9.713172767078504e-05,0.0889859497547149,0,0,0
14044,469484.6032362981,2010-08-25 00:46:41,1950.9753162732504,7,38,-1.0997490882873535,3.6417949199676514,41.63114788495798,41.10348070380627,165.28662806790337,151.08311719989766,-6.47544875391759e-05,0.0889859497547149,0,0,0
14045,469514.6185021962,2010-08-25 00:47:11,1980.9905821763475,7,38,-1.099929690361023,3.638719081878662,41.63114788495798,41.11264996734986,165.28662806790337,151.11649707104257,-0.0001295089750783,0.0889859497547149,0,0,0
14046,469544.63376787375,2010-08-25 00:47:41,2011.0058478438573,7,38,-1.0997490882873535,3.636128902435303,41.63114788495798,41.12181925409143,165.28662806790337,151.1498509148387,-9.713172767078504e-05,0.0889859497547149,0,0,0
14047,469574.64913682366,2010-08-25 00:48:11,2041.0212167887653,7,38,-1.0997490882873535,3.633214950561523,41.63114788495798,41.13098854140189,165.28662806790337,151.18317920394998,-0.0001295089750783,0.0889859497547149,0,0,0
14048,469604.6642513896,2010-08-25 00:48:41,2071.0363313596968,7,38,-1.099568486213684,3.630786657333374,41.63114788495798,41.14015779463001,165.28662806790337,151.21648256916666,-6.47544875391759e-05,0.0889859497547149,0,0,0
14049,469634.6794829671,2010-08-25 00:49:11,2101.0515629372435,7,38,-1.0997490882873535,3.6280345916748047,41.63114788495798,41.14932710437503,165.28662806790337,151.24976167776293,-6.47544875391759e-05,0.0889859497547149,0,0,0
14050,469664.6948742728,2010-08-25 00:49:41,2131.066954252907,7,38,-1.099929690361023,3.625444412231445,41.63114788495798,41.15849646222443,165.28662806790337,151.28301690708514,-6.47544875391759e-05,0.0889859497547149,0,0,0
14051,469694.7099583327,2010-08-25 00:50:11,2161.08203830277,7,38,-1.099929690361023,3.622692346572876,41.63114788495798,41.16766568392673,165.28662806790337,151.31624825395707,-0.0001295089750783,0.0889859497547149,0,0,0
14052,469724.7252156294,2010-08-25 00:50:41,2191.097295609442,7,38,-1.0997490882873535,3.620264053344727,41.63114788495798,41.17683487562546,165.28662806790337,151.3494559721686,-9.713172767078504e-05,0.0889859497547149,0,0,0
14053,469754.7405304894,2010-08-25 00:51:11,2221.112610474567,7,38,-1.0997490882873535,3.617835760116577,41.63114788495798,41.186004141801256,165.28662806790337,151.3826408099624,-9.713172767078504e-05,0.0889859497547149,0,0,0
14054,469784.7558159212,2010-08-25 00:51:41,2251.1278959013234,7,38,-1.099929690361023,3.6152455806732178,41.63114788495798,41.1951735003364,165.28662806790337,151.41580241209635,-9.713172767078504e-05,0.0889859497547149,0,0,0
14055,469814.7710127572,2010-08-25 00:52:11,2281.1430927372835,7,38,-1.0997490882873535,3.612817287445069,41.63114788495798,41.20434275686116,165.28662806790337,151.44894050354148,0.0,0.0889859497547149,0,0,0
14056,469844.7862483045,2010-08-25 00:52:41,2311.1583282747,7,38,-1.0997490882873535,3.610065221786499,41.63114788495798,41.21351213040299,165.28662806790337,151.48205557769836,-9.713172767078504e-05,0.0889859497547149,0,0,0
14057,469874.80149450863,2010-08-25 00:53:11,2341.1735744837133,7,38,-1.0997490882873535,3.60747504234314,41.63114788495798,41.22268147398444,165.28662806790337,151.51514699244584,-0.0001295089750783,0.0889859497547149,0,0,0
14058,469904.8167294696,2010-08-25 00:53:41,2371.1888094396804,7,38,-1.099568486213684,3.60488486289978,41.63114788495798,41.23185035220702,165.28662806790337,151.54821291790572,-6.47544875391759e-05,0.0889859497547149,0,0,0
14059,469934.8319551525,2010-08-25 00:54:11,2401.2040351275487,7,38,-1.0997490882873535,3.602456569671631,41.63114788495798,41.24101883619459,165.28662806790337,151.581253449713,-6.47544875391759e-05,0.0889859497547149,0,0,0
14060,469964.8321259339,2010-08-25 00:54:41,2431.20420593402,7,38,-1.0997490882873535,3.599704504013061,41.63114788495798,41.25018288908202,165.28662806790337,151.61425349482582,-6.47544875391759e-05,0.0889859497547149,0,0,0
14061,469994.8468623624,2010-08-25 00:55:11,2461.2189423374407,7,38,-1.099568486213684,3.596952438354492,41.63114788495798,41.25935127800096,165.28662806790337,151.64724417773644,-6.47544875391759e-05,0.0889859497547149,0,0,0
14062,470024.8620978096,2010-08-25 00:55:41,2491.23417777962,7,38,-1.0997490882873535,3.594038486480713,41.63114788495798,41.26851975410397,165.28662806790337,151.6802097165314,-9.713172767078504e-05,0.0889859497547149,0,0,0
14063,470054.877369878,2010-08-25 00:56:11,2521.249449848083,7,38,-1.099568486213684,3.5912866592407227,41.63114788495798,41.277688277604106,165.28662806790337,151.7131495137006,-6.47544875391759e-05,0.0889859497547149,0,0,0
14064,470084.8926523123,2010-08-25 00:56:41,2551.2647322823805,7,38,-1.0997490882873535,3.5882108211517334,41.63114788495798,41.28685706151149,165.28662806790337,151.74606343862806,-9.713172767078504e-05,0.0889859497547149,0,0,0
14065,470114.90785272216,2010-08-25 00:57:11,2581.279932702273,7,38,-1.099929690361023,3.585134983062744,41.63114788495798,41.29602633482915,165.28662806790337,151.77895162809503,-0.0001295089750783,0.0889859497547149,0,0,0
14066,470144.9231274272,2010-08-25 00:57:41,2611.2952074073078,7,38,-1.099568486213684,3.582221031188965,41.63114788495798,41.30519562134148,165.28662806790337,151.8118118800388,-6.47544875391759e-05,0.0889859497547149,0,0,0
14067,470174.93857002567,2010-08-25 00:58:11,2641.3106499957585,7,38,-1.099568486213684,3.578821420669556,41.63114788495798,41.31436489418942,165.28662806790337,151.84464319343272,-0.0001295089750783,0.0889859497547149,0,0,0
14068,470204.953607725,2010-08-25 00:58:41,2671.325687695102,7,38,-1.0997490882873535,3.5757455825805664,41.63114788495798,41.32353413763923,165.28662806790337,151.87744450047407,-6.47544875391759e-05,0.0889859497547149,0,0,0
14069,470234.9688543952,2010-08-25 00:59:11,2701.3409343702765,7,38,-1.0997490882873535,3.5721840858459477,41.63114788495798,41.332703378459286,165.28662806790337,151.9102149663804,-9.713172767078504e-05,0.0889859497547149,0,0,0
14070,470264.9841016467,2010-08-25 00:59:41,2731.356181621888,7,38,-1.0997490882873535,3.568784475326538,41.63114788495798,41.3418725729968,165.28662806790337,151.94295341211102,-6.47544875391759e-05,0.0889859497547149,0,0,0
14071,470294.999369996,2010-08-25 01:00:11,2761.3714499861194,7,38,-1.0997490882873535,3.565061092376709,41.63114788495798,41.35104183110409,165.28662806790337,151.97565892013372,-0.0001295089750783,0.0889859497547149,0,0,0
14072,470325.01462316734,2010-08-25 01:00:41,2791.38670314746,7,38,-1.0997490882873535,3.56117582321167,41.63114788495798,41.36021100828605,165.28662806790337,152.00832987633336,-9.713172767078504e-05,0.0889859497547149,0,0,0
14073,470355.0298901381,2010-08-25 01:01:12,2821.4019701182174,7,38,-1.0997490882873535,3.557290554046631,41.63114788495798,41.36938023261462,165.28662806790337,152.0409656659816,-0.0001295089750783,0.0889859497547149,0,0,0
14074,470385.0455092114,2010-08-25 01:01:42,2851.417589186511,7,38,-1.099929690361023,3.553243398666382,41.63114788495798,41.37854956406625,165.28662806790337,152.07356490689162,-9.713172767078504e-05,0.0889859497547149,0,0,0
14075,470415.0604977032,2010-08-25 01:02:12,2881.4325776782134,7,38,-1.099568486213684,3.549034357070923,41.63114788495798,41.38771861261841,165.28662806790337,152.10612513305668,-9.713172767078504e-05,0.0889859497547149,0,0,0
14076,470445.07572476944,2010-08-25 01:02:42,2911.4478047395046,7,38,-1.099568486213684,3.544663429260254,41.63114788495798,41.3968878368023,165.28662806790337,152.13864646031772,-9.713172767078504e-05,0.0889859497547149,0,0,0
14077,470475.0908556059,2010-08-25 01:03:12,2941.4629355809866,7,38,-1.0997490882873535,3.539968729019165,41.63114788495798,41.4060570029902,165.28662806790337,152.171126740939,-0.0001295089750783,0.0889859497547149,0,0,0
14078,470505.1061061306,2010-08-25 01:03:42,2971.478186100743,7,38,-1.0997490882873535,3.535274028778076,41.63114788495798,41.415226242955285,165.28662806790337,152.20356520793422,-0.0001618862152099,0.0889859497547149,0,0,0
14079,470535.1213692067,2010-08-25 01:04:12,3001.4934491767945,7,38,-1.099929690361023,3.5304174423217773,41.63114788495798,41.42439554018683,165.28662806790337,152.23596024080464,-0.0001942634553415,0.0889859497547149,0,0,0
14080,470565.1366268141,2010-08-25 01:04:42,3031.508706794241,7,38,-1.0997490882873535,3.5255608558654785,41.63114788495798,41.43356474412845,165.28662806790337,152.2683099033315,-9.713172767078504e-05,0.0889859497547149,0,0,0
14081,470595.15185446193,2010-08-25 01:05:12,3061.523934431969,7,38,-1.0997490882873535,3.52038049697876,41.63114788495798,41.442733932232784,165.28662806790337,152.30061201080977,-9.713172767078504e-05,0.0889859497547149,0,0,0
14082,470625.16710948286,2010-08-25 01:05:42,3091.5391894629693,7,38,-1.099929690361023,3.514552593231201,41.63114788495798,41.451903205382685,165.28662806790337,152.3328641973839,-0.0001618862152099,0.0889859497547149,0,0,0
14083,470655.18249966064,2010-08-25 01:06:12,3121.554579640797,7,38,-1.0997490882873535,3.508563041687012,41.63114788495798,41.46107247390695,165.28662806790337,152.36506244493617,-0.0001618862152099,0.0889859497547149,0,0,0
14084,470685.1976149434,2010-08-25 01:06:42,3151.5696949335265,7,38,-1.099929690361023,3.5016019344329834,41.63114788495798,41.47024170311193,165.28662806790337,152.3972021278944,-0.0002266406954731,0.0889859497547149,0,0,0
14085,470715.2128905156,2010-08-25 01:07:12,3181.584970495697,7,38,-1.0997490882873535,3.494317054748535,41.63114788495798,41.479410982543975,165.28662806790337,152.42927701390713,-0.0001618862152099,0.0889859497547149,0,0,0
14086,470745.2281528347,2010-08-25 01:07:42,3211.6002328148616,7,38,-1.0997490882873535,3.4857370853424072,41.63114788495798,41.48858030465653,165.28662806790337,152.46127878346854,-0.0002266406954731,0.0889859497547149,0,0,0
14087,470775.2433903421,2010-08-25 01:08:12,3241.615470312163,7,38,-1.0997490882873535,3.47553825378418,41.63114788495798,41.49774952736298,165.28662806790337,152.49319480830547,-0.0002913951757363,0.0889859497547149,0,0,0
14088,470805.2586110375,2010-08-25 01:08:42,3271.630691007588,7,38,-1.0997490882873535,3.4630730152130127,41.63114788495798,41.50691874377801,165.28662806790337,152.52500835590635,-0.0003561496851034,0.0889859497547149,0,0,0
14089,470835.27386053966,2010-08-25 01:09:12,3301.645940519834,7,38,-1.099929690361023,3.4475319385528564,41.63114788495798,41.51608798620291,165.28662806790337,152.55669466603968,-0.0004532813909463,0.0889859497547149,0,0,0
14090,470865.28911409713,2010-08-25 01:09:42,3331.661194072149,7,38,-1.099568486213684,3.4268107414245605,41.63114788495798,41.52525728693993,165.28662806790337,152.5882157339379,-0.0006151676061563,0.0889859497547149,0,0,0
14091,470895.30455321184,2010-08-25 01:10:12,3361.6766331919557,7,38,-1.099929690361023,3.397833108901977,41.63114788495798,41.53442665400296,165.28662806790337,152.61951277589253,-0.0009389400365762,0.0889859497547149,0,0,0
14092,470925.319753326,2010-08-25 01:10:42,3391.6918333060858,7,38,-1.0997490882873535,3.3567140102386475,41.63114788495798,41.543595890850185,165.28662806790337,152.6504934686678,-0.0013274669181555,0.0889859497547149,0,0,0
14093,470955.3348707941,2010-08-25 01:11:12,3421.7069507692245,7,38,-1.099568486213684,3.296330690383911,41.63114788495798,41.55276508076686,165.28662806790337,152.6810143137496,-0.0019426345825195,0.0889859497547149,0,0,0
14094,470985.3501705968,2010-08-25 01:11:42,3451.7222505768223,7,38,-1.099929690361023,3.206645965576172,41.63114788495798,41.56193431531615,165.28662806790337,152.71085715742643,-0.0028815746773034,0.0889859497547149,0,0,0
14095,471015.3654007758,2010-08-25 01:12:12,3481.737480745859,7,38,-1.0997490882873535,3.0603013038635254,41.63114788495798,41.57110356774156,165.28662806790337,152.73965338779635,-0.0050184726715087,0.0889859497547149,0,0,0
14096,471034.97475781216,2010-08-25 01:12:31,3501.346837907554,7,38,-1.0997490882873535,2.860048770904541,41.63114788495798,41.57709397730218,165.28662806790337,152.75747480421387,-0.0113967414945364,0.0889859497547149,0,0,0
14097,471044.06813917146,2010-08-25 01:12:41,3510.440219146565,7,38,-1.099929690361023,2.699943780899048,41.63114788495798,41.579871884582175,165.28662806790337,152.76520462946306,-0.0147639755159616,0.0889859497547149,0,0,0
14098,471104.08566740586,2010-08-25 01:13:41,60.01505540925074,8,38,0.0,3.366427183151245,41.63114788495798,41.579871884582175,165.28662806790337,152.76520462946306,0.0012627125252038,0.0889859497547149,0,0,0
14099,471104.26073634456,2010-08-25 01:13:41,0.187648733381659,9,38,-1.9243103452026844e-05,3.366589069366455,41.63114788495798,41.57987188558521,165.28662806790337,152.7652046328399,0.0,0.0842843055725097,0,0,0
14100,471109.088526428,2010-08-25 01:13:46,5.015438821755761,9,38,0.0007031940040178,3.3737120628356934,41.631148744969686,41.57987188566816,165.28663096674236,152.76520463311914,0.0010360718006268,0.0842843055725097,0,0,0
