Data_Point,Test_Time(s),Date_Time,Step_Time(s),Step_Index,Cycle_Index,Current(A),Voltage(V),Charge_Capacity(Ah),Discharge_Capacity(Ah),Charge_Energy(Wh),Discharge_Energy(Wh),dV/dt(V/s),Internal_Resistance(Ohm),Is_FC_Data,AC_Impedance(Ohm),ACI_Phase_Angle(Deg)
12656,422687.1735734184,2010-08-24 11:46:39,30.0152524595916,1,35,0.0,3.462425470352173,37.37492471677352,37.31556505380309,148.36146862448916,137.1100451636595,0.0006475448608398,0.0867155864834785,0,0,0
12657,422717.1886515484,2010-08-24 11:47:09,60.03033059471298,1,35,0.0,3.482013702392578,37.37492471677352,37.31556505380309,148.36146862448916,137.1100451636595,0.0004532813909463,0.0867155864834785,0,0,0
12658,422747.2037950865,2010-08-24 11:47:39,90.04547413283876,1,35,0.0,3.4959359169006348,37.37492471677352,37.31556505380309,148.36146862448916,137.1100451636595,0.0003237724304199,0.0867155864834785,0,0,0
12659,422777.1720935824,2010-08-24 11:48:09,120.01377263371788,1,35,0.0,3.506944179534912,37.37492471677352,37.31556505380309,148.36146862448916,137.1100451636595,0.0002913951757363,0.0867155864834785,0,0,0
12660,422807.1881133642,2010-08-24 11:48:39,30.015188775872176,2,35,0.5501165986061096,3.631919860839844,37.37951160239502,37.31556505380309,148.37800497234616,137.1100451636595,0.0011979580158367,0.0867155864834785,0,0,0
12661,422837.203399573,2010-08-24 11:49:09,60.03047498457694,2,35,0.550297200679779,3.668344259262085,37.38409848287616,37.31556505380309,148.39475256878995,137.1100451636595,0.0008418083307333,0.0867155864834785,0,0,0
12662,422867.2185808752,2010-08-24 11:49:39,90.04565628682255,2,35,0.5501165986061096,3.695055246353149,37.38868524515172,37.31556505380309,148.41164213662398,137.1100451636595,0.0006475448608398,0.0867155864834785,0,0,0
12663,422897.2337400172,2010-08-24 11:50:09,120.06081542883804,2,35,0.5501165986061096,3.716424226760864,37.393271992038265,37.31556505380309,148.42864131204715,137.1100451636595,0.0005504131549969,0.0867155864834785,0,0,0
12664,422927.2488218816,2010-08-24 11:50:39,150.07589729826643,2,35,0.5501165986061096,3.73293662071228,37.397858856081584,37.31556505380309,148.44572750081736,137.1100451636595,0.0003885269106831,0.0867155864834785,0,0,0
12665,422957.2639650989,2010-08-24 11:51:09,180.0910405155927,2,35,0.5501165986061096,3.7450780868530273,37.402445664348605,37.31556505380309,148.46287935989943,137.1100451636595,0.0002590179501567,0.0867155864834785,0,0,0
12666,422987.2791607419,2010-08-24 11:51:39,210.10623615356732,2,35,0.5501165986061096,3.752686738967896,37.40703242374721,37.31556505380309,148.4800761447959,137.1100451636595,0.0001295089750783,0.0867155864834785,0,0,0
12667,423017.2944104146,2010-08-24 11:52:09,240.1214859715753,2,35,0.5499359965324402,3.757381200790405,37.4116191783224,37.31556505380309,148.49730033146517,137.1100451636595,0.0001295089750783,0.0867155864834785,0,0,0
12668,423047.30949774256,2010-08-24 11:52:39,270.1365731592585,2,35,0.5501165986061096,3.760618925094605,37.4162059351655,37.31556505380309,148.51454249531037,137.1100451636595,6.47544875391759e-05,0.0867155864834785,0,0,0
12669,423077.32465640345,2010-08-24 11:53:09,300.15173182007464,2,35,0.5501165986061096,3.763856649398804,37.42079268189504,37.31556505380309,148.53179930592157,137.1100451636595,6.47544875391759e-05,0.0867155864834785,0,0,0
12670,423107.3398588182,2010-08-24 11:53:39,330.1669342349394,2,35,0.5501165986061096,3.766770601272583,37.42537949057139,37.31556505380309,148.54906995757452,137.1100451636595,9.713172767078504e-05,0.0867155864834785,0,0,0
12671,423137.35505774943,2010-08-24 11:54:09,360.1821331611092,2,35,0.550297200679779,3.769846439361572,37.42996632819257,37.31556505380309,148.56635407677172,137.1100451636595,0.0001295089750783,0.0867155864834785,0,0,0
12672,423167.3701933327,2010-08-24 11:54:39,390.19726874942165,2,35,0.5501165986061096,3.772436618804932,37.43455306727961,37.31556505380309,148.5836508939936,137.1100451636595,3.237724376958795e-05,0.0867155864834785,0,0,0
12673,423197.38534875546,2010-08-24 11:55:09,420.21242417718,2,35,0.550297200679779,3.775350570678711,37.43913981937788,37.31556505380309,148.60096096859274,137.1100451636595,6.47544875391759e-05,0.0867155864834785,0,0,0
12674,423227.40074964,2010-08-24 11:55:39,450.2278250767297,2,35,0.5501165986061096,3.77826452255249,37.44372659382515,37.31556505380309,148.61828423871512,137.1100451636595,9.713172767078504e-05,0.0867155864834785,0,0,0
12675,423257.41570478864,2010-08-24 11:56:09,480.2427802002684,2,35,0.5501165986061096,3.78101658821106,37.44831345871986,37.31556505380309,148.63562104428703,137.1100451636595,3.237724376958795e-05,0.0867155864834785,0,0,0
12676,423287.4310100949,2010-08-24 11:56:39,510.25808550657024,2,35,0.5501165986061096,3.783768653869629,37.45290025536494,37.31556505380309,148.65297067506026,137.1100451636595,3.237724376958795e-05,0.0867155864834785,0,0,0
12677,423317.4460713028,2010-08-24 11:57:09,540.2731467145039,2,35,0.550297200679779,3.786844491958618,37.45748703825837,37.31556505380309,148.67033338540975,137.1100451636595,3.237724376958795e-05,0.0867155864834785,0,0,0
12678,423347.4612330614,2010-08-24 11:57:39,570.2883084730405,2,35,0.5501165986061096,3.789596557617188,37.46207384409183,37.31556505380309,148.68770931646668,137.1100451636595,6.47544875391759e-05,0.0867155864834785,0,0,0
12679,423377.4764049802,2010-08-24 11:58:09,600.3034804169623,2,35,0.5501165986061096,3.7926723957061768,37.46666070815727,37.31556505380309,148.70509865066717,137.1100451636595,9.713172767078504e-05,0.0867155864834785,0,0,0
12680,423407.4915678616,2010-08-24 11:58:40,630.3186432982973,2,35,0.550297200679779,3.795586347579956,37.471247402709245,37.31556505380309,148.7225006552568,137.1100451636595,9.713172767078504e-05,0.0867155864834785,0,0,0
12681,423437.5070574973,2010-08-24 11:59:10,660.3341329089423,2,35,0.550297200679779,3.798500299453736,37.47583431278414,37.31556505380309,148.7399170629607,137.1100451636595,0.0001295089750783,0.0867155864834785,0,0,0
12682,423467.5220785351,2010-08-24 11:59:40,690.3491539567847,2,35,0.5501165986061096,3.801414251327514,37.48042106329881,37.31556505380309,148.75734681472318,137.1100451636595,6.47544875391759e-05,0.0867155864834785,0,0,0
12683,423497.5370901545,2010-08-24 12:00:10,720.3641655911656,2,35,0.5501165986061096,3.804813861846924,37.48500785253213,37.31556505380309,148.77479089859693,137.1100451636595,9.713172767078504e-05,0.0867155864834785,0,0,0
12684,423527.5523829345,2010-08-24 12:00:40,750.3794583562109,2,35,0.5499359965324402,3.807889699935913,37.48959470745406,37.31556505380309,148.7922500223359,137.1100451636595,6.47544875391759e-05,0.0867155864834785,0,0,0
12685,423557.5674344884,2010-08-24 12:01:10,780.3945099000587,2,35,0.550297200679779,3.811451196670532,37.49418155271783,37.31556505380309,148.80972427574767,137.1100451636595,0.0001295089750783,0.0867155864834785,0,0,0
12686,423587.5826572991,2010-08-24 12:01:40,810.409732710756,2,35,0.5501165986061096,3.814688920974731,37.498768430897634,37.31556505380309,148.82721432523954,137.1100451636595,6.47544875391759e-05,0.0867155864834785,0,0,0
12687,423617.5977804514,2010-08-24 12:02:10,840.4248558630741,2,35,0.550297200679779,3.818412303924561,37.50335516589255,37.31556505380309,148.8447197790191,137.1100451636595,0.0001295089750783,0.0867155864834785,0,0,0
12688,423647.61299908167,2010-08-24 12:02:40,870.4400745184151,2,35,0.550297200679779,3.82165002822876,37.50794194921072,37.31556505380309,148.86224134259015,137.1100451636595,9.713172767078504e-05,0.0867155864834785,0,0,0
12689,423677.62826457375,2010-08-24 12:03:10,900.4553399954502,2,35,0.5501165986061096,3.825049638748169,37.51252873861648,37.31556505380309,148.87977875776662,137.1100451636595,6.47544875391759e-05,0.0867155864834785,0,0,0
12690,423707.64343793626,2010-08-24 12:03:40,930.4705133478824,2,35,0.550297200679779,3.828773021697998,37.51711546150081,37.31556505380309,148.89733168239508,137.1100451636595,0.0001295089750783,0.0867155864834785,0,0,0
12691,423737.6584719464,2010-08-24 12:04:10,960.4855473630432,2,35,0.5501165986061096,3.8318488597869873,37.52170214965248,37.31556505380309,148.9149000064763,137.1100451636595,9.713172767078504e-05,0.0867155864834785,0,0,0
12692,423767.67364614096,2010-08-24 12:04:40,990.5007215625868,2,35,0.5501165986061096,3.8352482318878174,37.52628887056735,37.31556505380309,148.93248363592332,137.1100451636595,6.47544875391759e-05,0.0867155864834785,0,0,0
12693,423797.688966189,2010-08-24 12:05:10,1020.5160416106296,2,35,0.5501165986061096,3.8384859561920166,37.530875706211255,37.31556505380309,148.95008264395062,137.1100451636595,9.713172767078504e-05,0.0867155864834785,0,0,0
12694,423827.7039999835,2010-08-24 12:05:40,1050.5310754052407,2,35,0.5501165986061096,3.841723680496216,37.535462454511446,37.31556505380309,148.96769598696255,137.1100451636595,9.713172767078504e-05,0.0867155864834785,0,0,0
12695,423857.7191681431,2010-08-24 12:06:10,1080.5462435547056,2,35,0.5501165986061096,3.844799518585205,37.54004920563924,37.31556505380309,148.9853237718776,137.1100451636595,9.713172767078504e-05,0.0867155864834785,0,0,0
12696,423887.7343131448,2010-08-24 12:06:40,1110.5613885564792,2,35,0.5499359965324402,3.847713470458984,37.54463591074534,37.31556505380309,149.0029655392835,137.1100451636595,3.237724376958795e-05,0.0867155864834785,0,0,0
12697,423917.7494792192,2010-08-24 12:07:10,1140.576554630772,2,35,0.5501165986061096,3.850627422332764,37.54922264103388,37.31556505380309,149.02062124691813,137.1100451636595,6.47544875391759e-05,0.0867155864834785,0,0,0
12698,423947.7647929464,2010-08-24 12:07:40,1170.591868383124,2,35,0.5501165986061096,3.853541374206543,37.55380941293348,37.31556505380309,149.03829060557896,137.1100451636595,3.237724376958795e-05,0.0867155864834785,0,0,0
12699,423977.77983413945,2010-08-24 12:08:10,1200.6069095561245,2,35,0.5501165986061096,3.856617212295532,37.55839613890512,37.31556505380309,149.0559728453319,137.1100451636595,6.47544875391759e-05,0.0867155864834785,0,0,0
12700,424007.7951367691,2010-08-24 12:08:40,1230.6222121807427,2,35,0.5501165986061096,3.859207391738892,37.562982967027295,37.31556505380309,149.07366800064355,137.1100451636595,9.713172767078504e-05,0.0867155864834785,0,0,0
12701,424037.8101952051,2010-08-24 12:09:10,1260.637270616768,2,35,0.5501165986061096,3.861473798751831,37.567569778438845,37.31556505380309,149.09137491661645,137.1100451636595,3.237724376958795e-05,0.0867155864834785,0,0,0
12702,424067.8253750486,2010-08-24 12:09:40,1290.652450460378,2,35,0.550297200679779,3.863902091979981,37.57215654243469,37.31556505380309,149.1090927751632,137.1100451636595,6.47544875391759e-05,0.0867155864834785,0,0,0
12703,424097.8405310479,2010-08-24 12:10:10,1320.6676064595608,2,35,0.5501165986061096,3.86616849899292,37.57674332618259,37.31556505380309,149.12682100387988,137.1100451636595,3.237724376958795e-05,0.0867155864834785,0,0,0
12704,424127.85569709714,2010-08-24 12:10:40,1350.6827725138037,2,35,0.5501165986061096,3.8679492473602295,37.58133008589275,37.31556505380309,149.14455868327548,137.1100451636595,3.237724376958795e-05,0.0867155864834785,0,0,0
12705,424157.8710131302,2010-08-24 12:11:10,1380.6980885418277,2,35,0.5501165986061096,3.869891881942749,37.585916906146856,37.31556505380309,149.1623053686925,137.1100451636595,3.237724376958795e-05,0.0867155864834785,0,0,0
12706,424187.8862576901,2010-08-24 12:11:40,1410.7133331318057,2,35,0.5501165986061096,3.8715107440948486,37.590503671346525,37.31556505380309,149.1800598611688,137.1100451636595,0.0,0.0867155864834785,0,0,0
12707,424217.9012174652,2010-08-24 12:12:10,1440.7282928818747,2,35,0.5501165986061096,3.873129606246948,37.595090407827314,37.31556505380309,149.19782152442772,137.1100451636595,6.47544875391759e-05,0.0867155864834785,0,0,0
12708,424247.9163934743,2010-08-24 12:12:40,1470.7434688909282,2,35,0.5501165986061096,3.874586582183838,37.59967726503782,37.31556505380309,149.2155902491669,137.1100451636595,6.47544875391759e-05,0.0867155864834785,0,0,0
12709,424277.9317185399,2010-08-24 12:13:10,1500.758793961489,2,35,0.5501165986061096,3.875719785690308,37.60426406996081,37.31556505380309,149.23336482823942,137.1100451636595,3.237724376958795e-05,0.0867155864834785,0,0,0
12710,424307.94696919486,2010-08-24 12:13:40,1530.7740446065577,2,35,0.5499359965324402,3.876852989196777,37.60885086144667,37.31556505380309,149.2511450578875,137.1100451636595,3.237724376958795e-05,0.0867155864834785,0,0,0
12711,424337.9619249701,2010-08-24 12:14:10,1560.7890003867333,2,35,0.5501165986061096,3.878148078918457,37.61343764523251,37.31556505380309,149.26893056521303,137.1100451636595,6.47544875391759e-05,0.0867155864834785,0,0,0
12712,424367.9770782324,2010-08-24 12:14:40,1590.804153654107,2,35,0.5501165986061096,3.879281282424927,37.61802443234704,37.31556505380309,149.28672118552754,137.1100451636595,6.47544875391759e-05,0.0867155864834785,0,0,0
12713,424397.9922554695,2010-08-24 12:15:10,1620.8193308811965,2,35,0.550297200679779,3.880414485931397,37.622611277240445,37.31556505380309,149.3045167448453,137.1100451636595,6.47544875391759e-05,0.0867155864834785,0,0,0
12714,424428.0074558644,2010-08-24 12:15:40,1650.8345312760266,2,35,0.5501165986061096,3.881385803222656,37.62719803311481,37.31556505380309,149.3223166588342,137.1100451636595,6.47544875391759e-05,0.0867155864834785,0,0,0
12715,424458.0226251867,2010-08-24 12:16:10,1680.8497005984143,2,35,0.5501165986061096,3.882195234298706,37.63178478205785,37.31556505380309,149.34012109310817,137.1100451636595,0.0,0.0867155864834785,0,0,0
12716,424488.0378034915,2010-08-24 12:16:40,1710.8648788931644,2,35,0.5499359965324402,3.883166551589966,37.63637157441358,37.31556505380309,149.35793021712053,137.1100451636595,3.237724376958795e-05,0.0867155864834785,0,0,0
12717,424518.0530301218,2010-08-24 12:17:10,1740.8801055885438,2,35,0.5501165986061096,3.8841378688812256,37.64095834689533,37.31556505380309,149.37574370889894,137.1100451636595,0.0,0.0867155864834785,0,0,0
12718,424548.0681323871,2010-08-24 12:17:40,1770.8952077986676,2,35,0.550297200679779,3.885109186172485,37.64554514292142,37.31556505380309,149.39356154721438,137.1100451636595,0.0,0.0867155864834785,0,0,0
12719,424578.0832916093,2010-08-24 12:18:10,1800.9103670258953,2,35,0.5501165986061096,3.886080503463745,37.65013191219284,37.31556505380309,149.41138369012535,137.1100451636595,3.237724376958795e-05,0.0867155864834785,0,0,0
12720,424608.0984658639,2010-08-24 12:18:40,1830.9255412755635,2,35,0.550297200679779,3.887051820755005,37.65471873883072,37.31556505380309,149.4292104255732,137.1100451636595,3.237724376958795e-05,0.0867155864834785,0,0,0
12721,424638.1130108152,2010-08-24 12:19:10,1860.9400862218145,2,35,0.5501165986061096,3.887861251831055,37.659303161820006,37.31556505380309,149.44703207046896,137.1100451636595,0.0,0.0867155864834785,0,0,0
12722,424668.1132011854,2010-08-24 12:19:40,1890.9402765870325,2,35,0.5501165986061096,3.8888325691223145,37.66388994313707,37.31556505380309,149.46486726097285,137.1100451636595,3.237724376958795e-05,0.0867155864834785,0,0,0
12723,424698.12851854175,2010-08-24 12:20:10,1920.9555939634165,2,35,0.550297200679779,3.889803886413574,37.66847671560956,37.31556505380309,149.48270675019594,137.1100451636595,3.237724376958795e-05,0.0867155864834785,0,0,0
12724,424728.1435371034,2010-08-24 12:20:40,1950.97061252005,2,35,0.5501165986061096,3.890613317489624,37.67306355354815,37.31556505380309,149.50055087910275,137.1100451636595,0.0,0.0867155864834785,0,0,0
12725,424758.1587115334,2010-08-24 12:21:10,1980.9857869451555,2,35,0.5499359965324402,3.891584634780884,37.67765038424496,37.31556505380309,149.51839937511224,137.1100451636595,3.237724376958795e-05,0.0867155864834785,0,0,0
12726,424788.17388802365,2010-08-24 12:21:40,2011.0009634354085,2,35,0.5501165986061096,3.8927178382873535,37.682237210878895,37.31556505380309,149.53625230038912,137.1100451636595,6.47544875391759e-05,0.0867155864834785,0,0,0
12727,424818.1890678323,2010-08-24 12:22:10,2041.0161432489435,2,35,0.5499359965324402,3.893689155578613,37.6868239571121,37.31556505380309,149.5541094334238,137.1100451636595,3.237724376958795e-05,0.0867155864834785,0,0,0
12728,424848.20425703423,2010-08-24 12:22:40,2071.031332445865,2,35,0.5501165986061096,3.894498586654663,37.69141082532719,37.31556505380309,149.57197161329304,137.1100451636595,0.0,0.0867155864834785,0,0,0
12729,424878.2194006325,2010-08-24 12:23:10,2101.046476044141,2,35,0.550297200679779,3.895631790161133,37.69599772991887,37.31556505380309,149.58983787072106,137.1100451636595,0.0,0.0867155864834785,0,0,0
12730,424908.23472131713,2010-08-24 12:23:40,2131.061796738795,2,35,0.5501165986061096,3.8966031074523926,37.70058453168541,37.31556505380309,149.60770848010588,137.1100451636595,3.237724376958795e-05,0.0867155864834785,0,0,0
12731,424938.2497687207,2010-08-24 12:24:10,2161.076844132299,2,35,0.5501165986061096,3.897574424743652,37.70517131276006,37.31556505380309,149.62558366555123,137.1100451636595,0.0,0.0867155864834785,0,0,0
12732,424968.2649571958,2010-08-24 12:24:40,2191.092032607422,2,35,0.5501165986061096,3.898707628250122,37.70975809078641,37.31556505380309,149.64346354517198,137.1100451636595,3.237724376958795e-05,0.0867155864834785,0,0,0
12733,424998.2801244781,2010-08-24 12:25:10,2221.107199889725,2,35,0.5499359965324402,3.899517059326172,37.71434487663546,37.31556505380309,149.66134828297217,137.1100451636595,0.0,0.0867155864834785,0,0,0
12734,425028.29529640696,2010-08-24 12:25:40,2251.1223718186097,2,35,0.550297200679779,3.900812149047852,37.7189317118382,37.31556505380309,149.67923799758623,137.1100451636595,3.237724376958795e-05,0.0867155864834785,0,0,0
12735,425058.3104932178,2010-08-24 12:26:10,2281.137568659582,2,35,0.550297200679779,3.901945352554321,37.72351852883072,37.31556505380309,149.69713255784686,137.1100451636595,6.47544875391759e-05,0.0867155864834785,0,0,0
12736,425088.32614043634,2010-08-24 12:26:40,2311.153215978284,2,35,0.5501165986061096,3.903078556060791,37.72810538540515,37.31556505380309,149.71503226296971,137.1100451636595,3.237724376958795e-05,0.0867155864834785,0,0,0
12737,425118.3408884537,2010-08-24 12:27:10,2341.167963895401,2,35,0.5501165986061096,3.904049873352051,37.7326921052758,37.31556505380309,149.7329364589363,137.1100451636595,3.237724376958795e-05,0.0867155864834785,0,0,0
12738,425148.35621763446,2010-08-24 12:27:40,2371.1832930862306,2,35,0.550297200679779,3.905183076858521,37.73727896162991,37.31556505380309,149.7508463228478,137.1100451636595,3.237724376958795e-05,0.0867155864834785,0,0,0
12739,425178.3714985951,2010-08-24 12:28:10,2401.19857403683,2,35,0.5499359965324402,3.90615439414978,37.74186579072574,37.31556505380309,149.76876104289843,137.1100451636595,0.0,0.0867155864834785,0,0,0
12740,425208.3863182059,2010-08-24 12:28:40,2431.2133936075293,2,35,0.5501165986061096,3.90744948387146,37.746452487180775,37.31556505380309,149.786680565772,137.1100451636595,3.237724376958795e-05,0.0867155864834785,0,0,0
12741,425238.4016129108,2010-08-24 12:29:10,2461.228688322434,2,35,0.5501165986061096,3.9085826873779297,37.75103928699341,37.31556505380309,149.8046058080925,137.1100451636595,3.237724376958795e-05,0.0867155864834785,0,0,0
12742,425268.41668096586,2010-08-24 12:29:40,2491.2437563824456,2,35,0.5501165986061096,3.9097158908844,37.75562605453498,37.31556505380309,149.8225363461787,137.1100451636595,3.237724376958795e-05,0.0867155864834785,0,0,0
12743,425298.4318976863,2010-08-24 12:30:10,2521.258973097952,2,35,0.550297200679779,3.911010980606079,37.7602128952912,37.31556505380309,149.84047257148694,137.1100451636595,6.47544875391759e-05,0.0867155864834785,0,0,0
12744,425328.4470059816,2010-08-24 12:30:40,2551.274081393241,2,35,0.5499359965324402,3.912144184112549,37.764799759755896,37.31556505380309,149.8584144179974,137.1100451636595,0.0,0.0867155864834785,0,0,0
12745,425358.4621727726,2010-08-24 12:31:11,2581.289248184321,2,35,0.5501165986061096,3.913439273834229,37.76938654391663,37.31556505380309,149.87636152895098,137.1100451636595,3.237724376958795e-05,0.0867155864834785,0,0,0
12746,425388.4777520869,2010-08-24 12:31:41,2611.304827503547,2,35,0.5501165986061096,3.914572238922119,37.77397342542731,37.31556505380309,149.89431467459852,137.1100451636595,3.237724376958795e-05,0.0867155864834785,0,0,0
12747,425418.492662925,2010-08-24 12:32:11,2641.3197383367005,2,35,0.5501165986061096,3.915867328643799,37.77856015054696,37.31556505380309,149.9122728649229,137.1100451636595,3.237724376958795e-05,0.0867155864834785,0,0,0
12748,425448.5076977271,2010-08-24 12:32:41,2671.334773138823,2,35,0.5501165986061096,3.9171624183654794,37.78314688257248,37.31556505380309,149.93023681650595,137.1100451636595,3.237724376958795e-05,0.0867155864834785,0,0,0
12749,425478.52288999176,2010-08-24 12:33:11,2701.3499654033903,2,35,0.5501165986061096,3.918457508087158,37.78773364634216,37.31556505380309,149.94820682378173,137.1100451636595,6.47544875391759e-05,0.0867155864834785,0,0,0
12750,425508.5380405374,2010-08-24 12:33:41,2731.365115953993,2,35,0.5501165986061096,3.919590711593628,37.79232043092527,37.31556505380309,149.9661828674156,137.1100451636595,0.0,0.0867155864834785,0,0,0
12751,425538.5532258696,2010-08-24 12:34:11,2761.380301286283,2,35,0.5501165986061096,3.9210476875305176,37.796907231124486,37.31556505380309,149.98416495000058,137.1100451636595,0.0,0.0867155864834785,0,0,0
12752,425568.5683912572,2010-08-24 12:34:41,2791.395466668852,2,35,0.5501165986061096,3.922342777252197,37.801493978727954,37.31556505380309,150.0021528565081,137.1100451636595,0.0,0.0867155864834785,0,0,0
12753,425598.5835642037,2010-08-24 12:35:11,2821.4106396152715,2,35,0.550297200679779,3.923799753189087,37.80608074476866,37.31556505380309,150.0201469589875,137.1100451636595,6.47544875391759e-05,0.0867155864834785,0,0,0
12754,425628.5987414809,2010-08-24 12:35:41,2851.425816892486,2,35,0.5501165986061096,3.925094842910767,37.81066754602029,37.31556505380309,150.0381474944428,137.1100451636595,0.0,0.0867155864834785,0,0,0
12755,425658.6141424756,2010-08-24 12:36:11,2881.441217897298,2,35,0.550297200679779,3.9263899326324463,37.8152543782082,37.31556505380309,150.05615437572567,137.1100451636595,3.237724376958795e-05,0.0867155864834785,0,0,0
12756,425688.62914025545,2010-08-24 12:36:41,2911.4562156871743,2,35,0.5501165986061096,3.927846908569336,37.81984114571231,37.31556505380309,150.07416735559067,137.1100451636595,3.237724376958795e-05,0.0867155864834785,0,0,0
12757,425718.64425688656,2010-08-24 12:37:11,2941.471332323252,2,35,0.5501165986061096,3.9293038845062256,37.824427814735046,37.31556505380309,150.09218633365447,137.1100451636595,3.237724376958795e-05,0.0867155864834785,0,0,0
12758,425748.65942670015,2010-08-24 12:37:41,2971.486502136864,2,35,0.5499359965324402,3.930598974227905,37.82901457466251,37.31556505380309,150.11021216633063,137.1100451636595,3.237724376958795e-05,0.0867155864834785,0,0,0
12759,425778.67460916034,2010-08-24 12:38:11,3001.501684596996,2,35,0.5501165986061096,3.932055950164795,37.83360131647785,37.31556505380309,150.12824433612795,137.1100451636595,3.237724376958795e-05,0.0867155864834785,0,0,0
12760,425808.6899064515,2010-08-24 12:38:41,3031.5169818732843,2,35,0.5501165986061096,3.9336748123168954,37.83818810700002,37.31556505380309,150.14628327357377,137.1100451636595,9.713172767078504e-05,0.0867155864834785,0,0,0
12761,425838.70496360445,2010-08-24 12:39:11,3061.5320390261118,2,35,0.5501165986061096,3.934969902038574,37.84277499056984,37.31556505380309,150.16432918177978,137.1100451636595,3.237724376958795e-05,0.0867155864834785,0,0,0
12762,425868.720189964,2010-08-24 12:39:41,3091.5472654658533,2,35,0.5501165986061096,3.936264991760254,37.84736184962233,37.31556505380309,150.18238165457376,137.1100451636595,0.0,0.0867155864834785,0,0,0
12763,425898.73531660496,2010-08-24 12:40:11,3121.5623920266667,2,35,0.5501165986061096,3.9378838539123535,37.85194867816827,37.31556505380309,150.2004406023531,137.1100451636595,3.237724376958795e-05,0.0867155864834785,0,0,0
12764,425928.750472138,2010-08-24 12:40:41,3151.5775475396376,2,35,0.550297200679779,3.939502716064453,37.85653550516575,37.31556505380309,150.21850642466237,137.1100451636595,9.713172767078504e-05,0.0867155864834785,0,0,0
12765,425958.7656437812,2010-08-24 12:41:11,3181.5927191928345,2,35,0.5499359965324402,3.940959692001343,37.86112228252973,37.31556505380309,150.2365789065785,137.1100451636595,6.47544875391759e-05,0.0867155864834785,0,0,0
12766,425988.78086132376,2010-08-24 12:41:41,3211.6079367354014,2,35,0.550297200679779,3.9422547817230233,37.86570917782479,37.31556505380309,150.25465873210968,137.1100451636595,-3.237724376958795e-05,0.0867155864834785,0,0,0
12767,426018.7960364907,2010-08-24 12:42:11,3241.623111892332,2,35,0.550297200679779,3.943873643875122,37.87029599702173,37.31556505380309,150.27274525940473,137.1100451636595,6.47544875391759e-05,0.0867155864834785,0,0,0
12768,426048.8111739487,2010-08-24 12:42:41,3271.638249360329,2,35,0.550297200679779,3.9454925060272217,37.874882803337385,37.31556505380309,150.29083876357993,137.1100451636595,6.47544875391759e-05,0.0867155864834785,0,0,0
12769,426078.8263336771,2010-08-24 12:43:11,3301.653409088806,2,35,0.5499359965324402,3.9469494819641113,37.87946960227072,37.31556505380309,150.308939409714,137.1100451636595,6.47544875391759e-05,0.0867155864834785,0,0,0
12770,426108.84165714873,2010-08-24 12:43:41,3331.668732570406,2,35,0.5501165986061096,3.948730230331421,37.884056448985326,37.31556505380309,150.32704747447414,137.1100451636595,3.237724376958795e-05,0.0867155864834785,0,0,0
12771,426138.8570332966,2010-08-24 12:44:11,3361.684108728292,2,35,0.5501165986061096,3.950187206268311,37.88864327028447,37.31556505380309,150.34516277446662,137.1100451636595,3.237724376958795e-05,0.0867155864834785,0,0,0
12772,426168.8718633183,2010-08-24 12:44:41,3391.698938719964,2,35,0.5504778623580933,3.95196795463562,37.893229983445366,37.31556505380309,150.36328506893668,137.1100451636595,6.47544875391759e-05,0.0867155864834785,0,0,0
12773,426198.8871628802,2010-08-24 12:45:11,3421.7142382919737,2,35,0.5501165986061096,3.95358681678772,37.8978168319336,37.31556505380309,150.3814154445136,137.1100451636595,3.237724376958795e-05,0.0867155864834785,0,0,0
12774,426228.9022269253,2010-08-24 12:45:41,3451.729302326953,2,35,0.5501165986061096,3.9552056789398193,37.90240357382273,37.31556505380309,150.3995531011352,137.1100451636595,3.237724376958795e-05,0.0867155864834785,0,0,0
12775,426258.917448894,2010-08-24 12:46:11,3481.7445242955523,2,35,0.5501165986061096,3.956824541091919,37.906990382441165,37.31556505380309,150.41769882691585,137.1100451636595,3.237724376958795e-05,0.0867155864834785,0,0,0
12776,426288.932572347,2010-08-24 12:46:41,3511.7596477586444,2,35,0.550297200679779,3.9587671756744394,37.91157727845971,37.31556505380309,150.43585261315366,137.1100451636595,3.237724376958795e-05,0.0867155864834785,0,0,0
12777,426318.9477506117,2010-08-24 12:47:11,3541.7748260132944,2,35,0.550297200679779,3.960224151611328,37.91616492490208,37.31556505380309,150.45401747986153,137.1100451636595,-3.237724376958795e-05,0.0867155864834785,0,0,0
12778,426348.9628948616,2010-08-24 12:47:41,3571.789970278232,2,35,0.5501165986061096,3.962166786193848,37.92075254173096,37.31556505380309,150.4721903070325,137.1100451636595,6.47544875391759e-05,0.0867155864834785,0,0,0
12779,426378.9782096165,2010-08-24 12:48:11,3601.8052850280696,2,35,0.550297200679779,3.963947534561157,37.92534017553275,37.31556505380309,150.49037135241028,137.1100451636595,6.47544875391759e-05,0.0867155864834785,0,0,0
12780,426408.9932499023,2010-08-24 12:48:41,3631.820325313859,2,35,0.550297200679779,3.965728282928467,37.929927619162925,37.31556505380309,150.50855997661526,137.1100451636595,3.237724376958795e-05,0.0867155864834785,0,0,0
12781,426439.0084169088,2010-08-24 12:49:11,3661.83549231045,2,35,0.550297200679779,3.9676709175109854,37.93451449598348,37.31556505380309,150.52675471244166,137.1100451636595,6.47544875391759e-05,0.0867155864834785,0,0,0
12782,426469.02360170987,2010-08-24 12:49:41,3691.850677111416,2,35,0.550297200679779,3.969613552093506,37.93910139371278,37.31556505380309,150.544958007916,137.1100451636595,9.713172767078504e-05,0.0867155864834785,0,0,0
12783,426499.0387751023,2010-08-24 12:50:11,3721.8658505290114,2,35,0.5497553944587708,3.971070528030396,37.943688198071584,37.31556505380309,150.5631694767296,137.1100451636595,0.0,0.0867155864834785,0,0,0
12784,426529.05408927565,2010-08-24 12:50:41,3751.881164687375,2,35,0.5501165986061096,3.973013162612915,37.94827508183263,37.31556505380309,150.58138993336917,137.1100451636595,0.0,0.0867155864834785,0,0,0
12785,426559.0691117571,2010-08-24 12:51:11,3781.89618716879,2,35,0.5501165986061096,3.975117683410645,37.95286185091705,37.31556505380309,150.59961870815684,137.1100451636595,3.237724376958795e-05,0.0867155864834785,0,0,0
12786,426589.0844101913,2010-08-24 12:51:41,3811.911485607977,2,35,0.550297200679779,3.977060317993164,37.95744873502469,37.31556505380309,150.61785672458132,137.1100451636595,0.0,0.0867155864834785,0,0,0
12787,426619.0995981602,2010-08-24 12:52:11,3841.9266735718256,2,35,0.550297200679779,3.979002952575684,37.96203558956415,37.31556505380309,150.63610302649724,137.1100451636595,3.237724376958795e-05,0.0867155864834785,0,0,0
12788,426649.1145876194,2010-08-24 12:52:41,3871.941663045976,2,35,0.5499359965324402,3.980945587158203,37.96662205893084,37.31556505380309,150.65435707161242,137.1100451636595,6.47544875391759e-05,0.0867155864834785,0,0,0
12789,426679.1296821503,2010-08-24 12:53:11,3901.9567575569113,2,35,0.5501165986061096,3.982888221740722,37.97120787292637,37.31556505380309,150.67261743067556,137.1100451636595,6.47544875391759e-05,0.0867155864834785,0,0,0
12790,426709.1449223594,2010-08-24 12:53:41,3931.971997786021,2,35,0.5501165986061096,3.984830856323242,37.97579388172548,37.31556505380309,150.69088747484932,137.1100451636595,6.47544875391759e-05,0.0867155864834785,0,0,0
12791,426739.1601250098,2010-08-24 12:54:11,3961.987200446498,2,35,0.5499359965324402,3.9867734909057617,37.98037970483684,37.31556505380309,150.70916581259365,137.1100451636595,6.47544875391759e-05,0.0867155864834785,0,0,0
12792,426769.17544730334,2010-08-24 12:54:41,3992.0025227150745,2,35,0.5501165986061096,3.988716125488281,37.98496558425081,37.31556505380309,150.72745342111028,137.1100451636595,3.237724376958795e-05,0.0867155864834785,0,0,0
12793,426799.1904816294,2010-08-24 12:55:11,4022.017557051035,2,35,0.5499359965324402,3.990658760070801,37.9895513655592,37.31556505380309,150.74574975871576,137.1100451636595,3.237724376958795e-05,0.0867155864834785,0,0,0
12794,426829.2056545758,2010-08-24 12:55:41,4052.032730017505,2,35,0.550297200679779,3.9927632808685294,37.99413731244045,37.31556505380309,150.76405599333185,137.1100451636595,3.237724376958795e-05,0.0867155864834785,0,0,0
12795,426859.2209030354,2010-08-24 12:56:11,4082.047978472115,2,35,0.5501165986061096,3.9948675632476807,37.99872405818101,37.31556505380309,150.78237474212793,137.1100451636595,6.47544875391759e-05,0.0867155864834785,0,0,0
12796,426889.2360505485,2010-08-24 12:56:41,4112.063125965097,2,35,0.5499359965324402,3.99697208404541,38.00331076638925,37.31556505380309,150.80070266647638,137.1100451636595,6.47544875391759e-05,0.0867155864834785,0,0,0
12797,426919.2512217807,2010-08-24 12:57:11,4142.078297217296,2,35,0.550297200679779,3.99907660484314,38.00789751271919,37.31556505380309,150.81904012200607,137.1100451636595,6.47544875391759e-05,0.0867155864834785,0,0,0
12798,426949.266405544,2010-08-24 12:57:41,4172.093480980675,2,35,0.5501165986061096,4.001019477844238,38.012484185509294,37.31556505380309,150.83738679252545,137.1100451636595,3.24249267578125e-05,0.0867155864834785,0,0,0
12799,426979.2815904551,2010-08-24 12:58:11,4202.1086658818895,2,35,0.5501165986061096,4.003123760223389,38.01707094564495,37.31556505380309,150.85574340850368,137.1100451636595,3.23295607813634e-05,0.0867155864834785,0,0,0
12800,427009.29681845393,2010-08-24 12:58:41,4232.123893870493,2,35,0.5499359965324402,4.005066394805908,38.02165760186742,37.31556505380309,150.87410931466331,137.1100451636595,3.23295607813634e-05,0.0867155864834785,0,0,0
12801,427039.3119264584,2010-08-24 12:59:11,4262.139001865033,2,35,0.5501165986061096,4.007494926452637,38.02624430361302,37.31556505380309,150.89248516821718,137.1100451636595,6.47544875391759e-05,0.0867155864834785,0,0,0
12802,427069.3270897256,2010-08-24 12:59:41,4292.154165137342,2,35,0.5501165986061096,4.009761333465576,38.03083103345078,37.31556505380309,150.91087101798288,137.1100451636595,9.71794142969884e-05,0.0867155864834785,0,0,0
12803,427099.342635376,2010-08-24 13:00:11,4322.169710812717,2,35,0.5499359965324402,4.011703968048096,38.035417780828816,37.31556505380309,150.92926686466606,137.1100451636595,3.24249267578125e-05,0.0867155864834785,0,0,0
12804,427129.3574459493,2010-08-24 13:00:41,4352.18452136093,2,35,0.5501165986061096,4.013970375061035,38.04000443206503,37.31556505380309,150.94767244170416,137.1100451636595,3.24249267578125e-05,0.0867155864834785,0,0,0
12805,427159.3727679171,2010-08-24 13:01:11,4382.199843338783,2,35,0.5501165986061096,4.016236782073975,38.04459124157948,37.31556505380309,150.9660888418332,137.1100451636595,6.47544875391759e-05,0.0867155864834785,0,0,0
12806,427189.3877887745,2010-08-24 13:01:41,4412.214864191138,2,35,0.5504778623580933,4.018664836883545,38.04917797632408,37.31556505380309,150.98451521604855,137.1100451636595,0.0001295089750783,0.0867155864834785,0,0,0
12807,427219.4029707885,2010-08-24 13:02:11,4442.23004623022,2,35,0.550297200679779,4.0207695960998535,38.05376470833079,37.31556505380309,151.0029518693068,137.1100451636595,6.47544875391759e-05,0.0867155864834785,0,0,0
12808,427249.41814291786,2010-08-24 13:02:41,4472.245218324517,2,35,0.550297200679779,4.023036003112793,38.05835142186043,37.31556505380309,151.02139901586744,137.1100451636595,6.47544875391759e-05,0.0867155864834785,0,0,0
12809,427279.4333436234,2010-08-24 13:03:12,4502.260419045158,2,35,0.550297200679779,4.025302410125732,38.06293817327197,37.31556505380309,151.03985693660397,137.1100451636595,3.24249267578125e-05,0.0867155864834785,0,0,0
12810,427309.4487670241,2010-08-24 13:03:42,4532.275842435764,2,35,0.5499359965324402,4.027568817138672,38.06752494633613,37.31556505380309,151.05832563225232,137.1100451636595,0.0,0.0867155864834785,0,0,0
12811,427339.4638069941,2010-08-24 13:04:12,4562.290882430827,2,35,0.5501165986061096,4.030158996582031,38.07211162912782,37.31556505380309,151.0768047849196,137.1100451636595,9.71794142969884e-05,0.0867155864834785,0,0,0
12812,427369.47885535,2010-08-24 13:04:42,4592.305930751642,2,35,0.5501165986061096,4.032425403594971,38.07669828580067,37.31556505380309,151.09529474393017,137.1100451636595,6.47544875391759e-05,0.0867155864834785,0,0,0
12813,427399.49400848703,2010-08-24 13:05:12,4622.321083913755,2,35,0.550297200679779,4.035015106201172,38.08128502917062,37.31556505380309,151.11379615977742,137.1100451636595,9.70840483205393e-05,0.0867155864834785,0,0,0
12814,427429.50917889713,2010-08-24 13:05:42,4652.336254308816,2,35,0.550297200679779,4.037281513214111,38.08587169101207,37.31556505380309,151.132308363664,137.1100451636595,3.23295607813634e-05,0.0867155864834785,0,0,0
12815,427459.5243669512,2010-08-24 13:06:12,4682.351442387952,2,35,0.5499359965324402,4.03971004486084,38.090458455269776,37.31556505380309,151.1508322887863,137.1100451636595,3.24249267578125e-05,0.0867155864834785,0,0,0
12816,427489.5396593855,2010-08-24 13:06:42,4712.3667347971095,2,35,0.550297200679779,4.042300224304199,38.0950452052259,37.31556505380309,151.1693673958712,137.1100451636595,6.47544875391759e-05,0.0867155864834785,0,0,0
12817,427519.55477110925,2010-08-24 13:07:12,4742.3818465259565,2,35,0.5501165986061096,4.044890403747559,38.099631940309465,37.31556505380309,151.18791400087775,137.1100451636595,9.71794142969884e-05,0.0867155864834785,0,0,0
12818,427549.56988684816,2010-08-24 13:07:42,4772.396962259786,2,35,0.5501165986061096,4.047480583190918,38.10421860051149,37.31556505380309,151.20647184749453,137.1100451636595,0.0001295089750783,0.0867155864834785,0,0,0
12819,427579.5853610153,2010-08-24 13:08:12,4802.4124364670415,2,35,0.5499359965324402,4.049746990203857,38.108805363275216,37.31556505380309,151.22504182504443,137.1100451636595,3.24249267578125e-05,0.0867155864834785,0,0,0
12820,427609.6002402146,2010-08-24 13:08:42,4832.427315656328,2,35,0.5499359965324402,4.052337169647217,38.11339207859237,37.31556505380309,151.24362332155667,137.1100451636595,3.24249267578125e-05,0.0867155864834785,0,0,0
12821,427639.6155425985,2010-08-24 13:09:12,4862.442618065409,2,35,0.550297200679779,4.055088996887207,38.11797884037596,37.31556505380309,151.2622169022556,137.1100451636595,6.47544875391759e-05,0.0867155864834785,0,0,0
12822,427669.6305897415,2010-08-24 13:09:42,4892.457665153152,2,35,0.5501165986061096,4.057679176330566,38.1225655363782,37.31556505380309,151.28082221266067,137.1100451636595,9.70840483205393e-05,0.0867155864834785,0,0,0
12823,427699.64577666775,2010-08-24 13:10:12,4922.4728521094885,2,35,0.550297200679779,4.060107707977295,38.1271522761844,37.31556505380309,151.29943989321907,137.1100451636595,3.24249267578125e-05,0.0867155864834785,0,0,0
12824,427729.6609415792,2010-08-24 13:10:42,4952.488017020884,2,35,0.5504778623580933,4.063021659851074,38.13173901785829,37.31556505380309,151.31806940738616,137.1100451636595,6.47544875391759e-05,0.0867155864834785,0,0,0
12825,427759.6760973178,2010-08-24 13:11:12,4982.503172784478,2,35,0.5501165986061096,4.065611839294434,38.13632569206524,37.31556505380309,151.33671111877047,137.1100451636595,3.24249267578125e-05,0.0867155864834785,0,0,0
12826,427789.6912999832,2010-08-24 13:11:42,5012.518375399843,2,35,0.5501165986061096,4.068363666534424,38.14091235630814,37.31556505380309,151.35536525149095,137.1100451636595,3.23295607813634e-05,0.0867155864834785,0,0,0
12827,427819.7064748193,2010-08-24 13:12:12,5042.533550235973,2,35,0.5499359965324402,4.070953845977783,38.14549908553062,37.31556505380309,151.37403228699435,137.1100451636595,3.23295607813634e-05,0.0867155864834785,0,0,0
12828,427849.72161310434,2010-08-24 13:12:42,5072.5486885159935,2,35,0.5501165986061096,4.074029922485352,38.15008579165617,37.31556505380309,151.39271189573753,137.1100451636595,6.47544875391759e-05,0.0867155864834785,0,0,0
12829,427879.7367952888,2010-08-24 13:13:12,5102.563870715476,2,35,0.5499359965324402,4.076620101928711,38.15467250006144,37.31556505380309,151.41140432273136,137.1100451636595,3.24249267578125e-05,0.0867155864834785,0,0,0
12830,427909.7519900546,2010-08-24 13:13:42,5132.5790654862885,2,35,0.5501165986061096,4.07953405380249,38.159259187321126,37.31556505380309,151.43010964901114,137.1100451636595,6.47544875391759e-05,0.0867155864834785,0,0,0
12831,427939.76715655485,2010-08-24 13:14:12,5162.594231966594,2,35,0.5501165986061096,4.0822858810424805,38.16384588133273,37.31556505380309,151.44882800526432,137.1100451636595,3.23295607813634e-05,0.0867155864834785,0,0,0
12832,427969.7823243936,2010-08-24 13:14:42,5192.609399810296,2,35,0.5501165986061096,4.08519983291626,38.16843250690511,37.31556505380309,151.46755925197374,137.1100451636595,3.23295607813634e-05,0.0867155864834785,0,0,0
12833,427999.79752827215,2010-08-24 13:15:12,5222.624603693822,2,35,0.550297200679779,4.088275909423828,38.17301918184823,37.31556505380309,151.4863039755505,137.1100451636595,9.71794142969884e-05,0.0867155864834785,0,0,0
12834,428029.81266355474,2010-08-24 13:15:42,5252.639738991409,2,35,0.5501165986061096,4.091027736663818,38.17760588435883,37.31556505380309,151.50506227724532,137.1100451636595,6.47544875391759e-05,0.0867155864834785,0,0,0
12835,428059.82797618926,2010-08-24 13:16:12,5282.655051610938,2,35,0.5501165986061096,4.094103813171387,38.1821926600806,37.31556505380309,151.523834335666,137.1100451636595,6.47544875391759e-05,0.0867155864834785,0,0,0
12836,428089.84301967314,2010-08-24 13:16:42,5312.670095094698,2,35,0.5501165986061096,4.097179412841797,38.18677931140455,37.31556505380309,151.54261951774274,137.1100451636595,6.47544875391759e-05,0.0867155864834785,0,0,0
12837,428119.8581855268,2010-08-24 13:17:12,5342.685260928391,2,35,0.5501165986061096,4.100255489349365,38.19136603252645,37.31556505380309,151.56141878635373,137.1100451636595,0.0001295089750783,0.0867155864834785,0,0,0
12838,428149.873360799,2010-08-24 13:17:42,5372.700436200607,2,35,0.5501165986061096,4.1031694412231445,38.19595270340541,37.31556505380309,151.5802317421674,137.1100451636595,3.24249267578125e-05,0.0867155864834785,0,0,0
12839,428179.888868184,2010-08-24 13:18:12,5402.715943615626,2,35,0.5501165986061096,4.106245040893555,38.20053945316002,37.31556505380309,151.5990590954797,137.1100451636595,9.70840483205393e-05,0.0867155864834785,0,0,0
12840,428209.9037476439,2010-08-24 13:18:42,5432.730823045514,2,35,0.5501165986061096,4.109321117401123,38.20512608271705,37.31556505380309,151.61790014475187,137.1100451636595,6.47544875391759e-05,0.0867155864834785,0,0,0
12841,428239.9188762648,2010-08-24 13:19:12,5462.745951681499,2,35,0.5501165986061096,4.112396717071533,38.2097128064378,37.31556505380309,151.63675584847883,137.1100451636595,9.70840483205393e-05,0.0867155864834785,0,0,0
12842,428269.93417882925,2010-08-24 13:19:42,5492.761254235942,2,35,0.5501165986061096,4.115796089172363,38.21429952100498,37.31556505380309,151.6556258892019,137.1100451636595,9.70840483205393e-05,0.0867155864834785,0,0,0
12843,428299.949249556,2010-08-24 13:20:12,5522.776324972624,2,35,0.550297200679779,4.118872165679932,38.21888616389644,37.31556505380309,151.67451022918135,137.1100451636595,9.71794142969884e-05,0.0867155864834785,0,0,0
12844,428329.9645200856,2010-08-24 13:20:42,5552.79159549724,2,35,0.5499359965324402,4.121947765350342,38.223472840282106,37.31556505380309,151.69340938290543,137.1100451636595,9.70840483205393e-05,0.0867155864834785,0,0,0
12845,428359.97969483153,2010-08-24 13:21:12,5582.8067702431445,2,35,0.550297200679779,4.12534761428833,38.2280595672462,37.31556505380309,151.71232361957945,137.1100451636595,6.47544875391759e-05,0.0867155864834785,0,0,0
12846,428389.9947437087,2010-08-24 13:21:42,5612.821819110321,2,35,0.5501165986061096,4.128585338592529,38.23264632426405,37.31556505380309,151.73125301833784,137.1100451636595,9.71794142969884e-05,0.0867155864834785,0,0,0
12847,428420.0099503591,2010-08-24 13:22:12,5642.837025760742,2,35,0.5501165986061096,4.131984710693359,38.237232988313245,37.31556505380309,151.75019721039754,137.1100451636595,6.47544875391759e-05,0.0867155864834785,0,0,0
12848,428450.0252134903,2010-08-24 13:22:42,5672.85228891198,2,35,0.5501165986061096,4.135384559631348,38.24181972630021,37.31556505380309,151.76915695528558,137.1100451636595,9.71794142969884e-05,0.0867155864834785,0,0,0
12849,428480.04026373086,2010-08-24 13:23:12,5702.867339142556,2,35,0.550297200679779,4.138622283935547,38.246406427539405,37.31556505380309,151.78813192341448,137.1100451636595,6.47544875391759e-05,0.0867155864834785,0,0,0
12850,428510.05557503214,2010-08-24 13:23:42,5732.8826504437975,2,35,0.550297200679779,4.142183780670166,38.25099322716562,37.31556505380309,151.8071228252738,137.1100451636595,0.0001295089750783,0.0867155864834785,0,0,0
12851,428540.07081834896,2010-08-24 13:24:12,5762.897893770629,2,35,0.5501165986061096,4.145421504974365,38.25557997993174,37.31556505380309,151.82612930896812,137.1100451636595,9.71794142969884e-05,0.0867155864834785,0,0,0
12852,428570.0857834924,2010-08-24 13:24:42,5792.91285889409,2,35,0.550297200679779,4.148983001708984,38.26016659127492,37.31556505380309,151.8451512126382,137.1100451636595,9.71794142969884e-05,0.0867155864834785,0,0,0
12853,428600.1009574062,2010-08-24 13:25:12,5822.928032807921,2,35,0.5501165986061096,4.152382373809815,38.26475323352667,37.31556505380309,151.86418916254394,137.1100451636595,6.47544875391759e-05,0.0867155864834785,0,0,0
12854,428630.11615886376,2010-08-24 13:25:42,5852.94323428545,2,35,0.5501165986061096,4.155943870544434,38.269339946168735,37.31556505380309,151.88324349825405,137.1100451636595,6.47544875391759e-05,0.0867155864834785,0,0,0
12855,428660.1313157852,2010-08-24 13:26:12,5882.958391186881,2,35,0.5499359965324402,4.159505367279053,38.273926685303785,37.31556505380309,151.90231420298633,137.1100451636595,9.70840483205393e-05,0.0867155864834785,0,0,0
12856,428690.1466491365,2010-08-24 13:26:42,5912.973724543092,2,35,0.5501165986061096,4.163066864013672,38.278513446968525,37.31556505380309,151.92140135879495,137.1100451636595,6.47544875391759e-05,0.0867155864834785,0,0,0
12857,428720.1616437184,2010-08-24 13:27:12,5942.9887191199605,2,35,0.5501165986061096,4.16679048538208,38.28310015087627,37.31556505380309,151.94050472944662,137.1100451636595,9.71794142969884e-05,0.0867155864834785,0,0,0
12858,428750.1768323238,2010-08-24 13:27:42,5973.003907725408,2,35,0.5501165986061096,4.17051362991333,38.28768682025164,37.31556505380309,151.95962464803063,137.1100451636595,0.0001295089750783,0.0867155864834785,0,0,0
12859,428780.192135194,2010-08-24 13:28:12,6003.019210600651,2,35,0.5501165986061096,4.173913478851318,38.29227350275282,37.31556505380309,151.97876144383906,137.1100451636595,6.47544875391759e-05,0.0867155864834785,0,0,0
12860,428810.2071924821,2010-08-24 13:28:42,6033.034267903852,2,35,0.5501165986061096,4.177798748016357,38.29686016842292,37.31556505380309,151.9979150309887,137.1100451636595,9.71794142969884e-05,0.0867155864834785,0,0,0
12861,428840.222368802,2010-08-24 13:29:12,6063.049444203631,2,35,0.5501165986061096,4.181521892547607,38.3014469195452,37.31556505380309,152.0170861115395,137.1100451636595,9.70840483205393e-05,0.0867155864834785,0,0,0
12862,428870.23756315175,2010-08-24 13:29:42,6093.064638558408,2,35,0.5501165986061096,4.185083389282227,38.30603368195688,37.31556505380309,152.03627439273907,137.1100451636595,6.47544875391759e-05,0.0867155864834785,0,0,0
12863,428900.2527335818,2010-08-24 13:30:12,6123.079808988557,2,35,0.5501165986061096,4.188968658447266,38.31062040021304,37.31556505380309,152.05547986272916,137.1100451636595,6.47544875391759e-05,0.0867155864834785,0,0,0
12864,428930.2679102978,2010-08-24 13:30:42,6153.094985704371,2,35,0.5501165986061096,4.193016052246094,38.3152071127795,37.31556505380309,152.0747028778215,137.1100451636595,9.71794142969884e-05,0.0867155864834785,0,0,0
12865,428960.2830530389,2010-08-24 13:31:12,6183.110128440498,2,35,0.5499359965324402,4.196739196777344,38.31979380072806,37.31556505380309,152.0939433986057,137.1100451636595,9.71794142969884e-05,0.0867155864834785,0,0,0
12866,428984.6732945955,2010-08-24 13:31:37,6207.500369997147,2,35,0.5501165986061096,4.200138568878174,38.32352088894074,37.31556505380309,152.1095911221692,137.1100451636595,0.0001618385285837,0.0867155864834785,0,0,0
12867,429014.6889125944,2010-08-24 13:32:07,30.01515703676856,3,35,0.0,4.122271537780762,38.32352088894074,37.31556505380309,152.1095911221692,137.1100451636595,-0.0003561973571777,0.0867155864834785,0,0,0
12868,429044.70443795406,2010-08-24 13:32:37,60.03068244663623,3,35,0.0,4.112235069274902,38.32352088894074,37.31556505380309,152.1095911221692,137.1100451636595,-0.0001942634553415,0.0867155864834785,0,0,0
12869,429074.7192576802,2010-08-24 13:33:07,90.04550213262284,3,35,0.0,4.106407165527344,38.32352088894074,37.31556505380309,152.1095911221692,137.1100451636595,-0.0001618385285837,0.0867155864834785,0,0,0
12870,429104.68760617566,2010-08-24 13:33:37,120.01385063311638,3,35,0.0,4.102683544158936,38.32352088894074,37.31556505380309,152.1095911221692,137.1100451636595,-3.24249267578125e-05,0.0867155864834785,0,0,0
12871,429104.68982610846,2010-08-24 13:33:37,2.666646103e-06,4,35,1.010309100151062,4.199814796447754,38.32352088968912,37.31556505380309,152.10959112531222,137.1100451636595,0.0,0.0867155864834785,0,0,0
12872,429105.5023478528,2010-08-24 13:33:38,0.812524425876801,4,35,0.9599190354347228,4.199814796447754,38.32374164043805,37.31556505380309,152.11051823406927,137.1100451636595,0.0,0.0867155864834785,0,0,0
12873,429107.5179223996,2010-08-24 13:33:40,2.828099002899534,4,35,0.909348487854004,4.199814796447754,38.324263873247936,37.31556505380309,152.11271148713325,137.1100451636595,0.0,0.0867155864834785,0,0,0
12874,429110.6739818709,2010-08-24 13:33:43,5.984158419059811,4,35,0.8575136065483093,4.199814796447754,38.325037364823565,37.31556505380309,152.11595999989214,137.1100451636595,0.0,0.0867155864834785,0,0,0
12875,429114.7365819655,2010-08-24 13:33:47,10.04675851853851,4,35,0.8073042035102844,4.199653148651123,38.325975622384526,37.31556505380309,152.1199004458616,137.1100451636595,-3.23295607813634e-05,0.0867155864834785,0,0,0
12876,429119.9709549284,2010-08-24 13:33:52,15.281131481538605,4,35,0.7572754621505737,4.199814796447754,38.327111987415776,37.31556505380309,152.12467289259203,137.1100451636595,3.23295607813634e-05,0.0867155864834785,0,0,0
12877,429126.5957692892,2010-08-24 13:33:59,21.90594584233012,4,35,0.7070660591125488,4.199814796447754,38.3284579492307,37.31556505380309,152.13032562490116,137.1100451636595,3.23295607813634e-05,0.0867155864834785,0,0,0
12878,429135.2831396291,2010-08-24 13:34:08,30.59331617724174,4,35,0.6570373177528381,4.199814796447754,38.33010159774869,37.31556505380309,152.1372285871181,137.1100451636595,3.23295607813634e-05,0.0867155864834785,0,0,0
12879,429146.92368616274,2010-08-24 13:34:19,42.233862766047686,4,35,0.6070085167884827,4.199653148651123,38.332141313288815,37.31556505380309,152.1457949561718,137.1100451636595,-3.23295607813634e-05,0.0867155864834785,0,0,0
12880,429163.6889758432,2010-08-24 13:34:36,58.99915239134459,4,35,0.5566185712814331,4.199653148651123,38.33484483925636,37.31556505380309,152.1571491694441,137.1100451636595,-3.23295607813634e-05,0.0867155864834785,0,0,0
12881,429190.219812306,2010-08-24 13:35:03,85.52998885414418,4,35,0.5065897703170776,4.199653148651123,38.338749221262944,37.31556505380309,152.1735467235063,137.1100451636595,-3.23295607813634e-05,0.0867155864834785,0,0,0
12882,429234.6410209059,2010-08-24 13:35:47,129.9511974590518,4,35,0.4565609991550445,4.199653148651123,38.34466645628092,37.31556505380309,152.19839779377787,137.1100451636595,0.0,0.0867155864834785,0,0,0
12883,429307.686791537,2010-08-24 13:37:00,202.99696809008609,4,35,0.4065322279930115,4.199814796447754,38.353392908543405,37.31556505380309,152.23504699896375,137.1100451636595,0.0,0.0867155864834785,0,0,0
12884,429408.1071751966,2010-08-24 13:38:40,303.417351744733,4,35,0.3565034568309784,4.199814796447754,38.36401301810564,37.31556505380309,152.2796492026163,137.1100451636595,0.0,0.0867155864834785,0,0,0
12885,429531.0897019239,2010-08-24 13:40:43,426.3998784821401,4,35,0.3062940835952759,4.199653148651123,38.37532106603227,37.31556505380309,152.32714063880903,137.1100451636595,-3.23295607813634e-05,0.0867155864834785,0,0,0
12886,429680.61882019066,2010-08-24 13:43:13,575.9289967538326,4,35,0.2562653124332428,4.199814796447754,38.38698865975273,37.31556505380309,152.37614204523356,137.1100451636595,3.23295607813634e-05,0.0867155864834785,0,0,0
12887,429864.3035347728,2010-08-24 13:46:17,759.61371132592,4,35,0.2062365561723709,4.199976921081543,38.39875306901096,37.31556505380309,152.42555006531327,137.1100451636595,3.24249267578125e-05,0.0867155864834785,0,0,0
12888,430103.752930203,2010-08-24 13:50:16,999.0631067510564,4,35,0.1562077850103378,4.199653148651123,38.41073924213558,37.31556505380309,152.4758894531876,137.1100451636595,-3.23295607813634e-05,0.0867155864834785,0,0,0
12889,430446.0603662539,2010-08-24 13:55:58,1341.370542797048,4,35,0.1061790138483047,4.199653148651123,38.42307288405976,37.31556505380309,152.5276881761934,137.1100451636595,0.0,0.0867155864834785,0,0,0
12890,431048.20747054886,2010-08-24 14:06:01,1943.5176471220584,4,35,0.0561502426862716,4.199653148651123,38.4362210441886,37.31556505380309,152.58290774732657,137.1100451636595,-3.23295607813634e-05,0.0867155864834785,0,0,0
12891,431172.2369717488,2010-08-24 14:08:05,2067.547148306934,4,35,0.0496483072638511,4.199814796447754,38.43805937450533,37.31556505380309,152.59062835913656,137.1100451636595,0.0,0.0867155864834785,0,0,0
12892,431202.2385861718,2010-08-24 14:08:35,30.015262790339,5,35,0.0,4.192530155181885,38.43805937450533,37.31556505380309,152.59062835913656,137.1100451636595,-3.24249267578125e-05,0.0867155864834785,0,0,0
12893,431232.23800327984,2010-08-24 14:09:05,60.01467990838706,5,35,0.0,4.191397190093994,38.43805937450533,37.31556505380309,152.59062835913656,137.1100451636595,0.0,0.0867155864834785,0,0,0
12894,431232.4128621558,2010-08-24 14:09:05,0.18742557720781,6,35,-1.9243103452026844e-05,4.191397190093994,38.43805937820505,37.31556505380309,152.59062837464327,137.1100451636595,3.24249267578125e-05,0.0892275422811508,0,0,0
12895,431237.2409308235,2010-08-24 14:09:10,5.015494219824794,6,35,0.0005225847125984,4.191235065460205,38.4380603485024,37.31556505397026,152.590632441546,137.11004516436014,-3.24249267578125e-05,0.0892275422811508,0,0,0
12896,431267.2590864546,2010-08-24 14:09:40,30.01504807019032,7,35,-1.099568486213684,4.028378009796143,38.4380603485024,37.32473309897741,152.590632441546,137.14716510973767,-0.0008742332574911,0.0892275422811508,0,0,0
12897,431297.27424959646,2010-08-24 14:10:10,60.03021121718746,7,35,-1.099568486213684,4.003123760223389,38.4380603485024,37.33390112858114,152.590632441546,137.18397308064976,-0.0005504608270712,0.0892275422811508,0,0,0
12898,431327.2894277709,2010-08-24 14:10:40,90.04538939163763,7,35,-1.099568486213684,3.985964059829712,38.4380603485024,37.34306908711621,152.590632441546,137.22059092005398,-0.0003885269106831,0.0892275422811508,0,0,0
12899,431357.304623033,2010-08-24 14:11:10,120.06058465367532,7,35,-1.099568486213684,3.972527503967285,38.4380603485024,37.352236988698,152.590632441546,137.25706998900384,-0.0002913951757363,0.0892275422811508,0,0,0
12900,431387.3198947004,2010-08-24 14:11:40,150.07585634620133,7,35,-1.099568486213684,3.961519241333008,38.4380603485024,37.36140485953492,152.590632441546,137.2934367429812,-0.0002266406954731,0.0892275422811508,0,0,0
12901,431417.33507502027,2010-08-24 14:12:10,180.09103663091088,7,35,-1.099568486213684,3.9511585235595694,38.4380603485024,37.37057264627632,152.590632441546,137.329705451057,-0.0002590179501567,0.0892275422811508,0,0,0
12902,431447.350133366,2010-08-24 14:12:40,210.10609499174865,7,35,-1.099568486213684,3.941607236862183,38.4380603485024,37.37974045365812,152.590632441546,137.36588511673435,-0.0002590179501567,0.0892275422811508,0,0,0
12903,431477.3653311343,2010-08-24 14:13:10,240.1212927550202,7,35,-1.099568486213684,3.9328653812408447,38.4380603485024,37.38890831956214,152.590632441546,137.40198175988002,-0.0002266406954731,0.0892275422811508,0,0,0
12904,431507.3804783566,2010-08-24 14:13:40,270.1364399823406,7,35,-1.0993878841400146,3.9246091842651367,38.4380603485024,37.3980762522172,152.590632441546,137.4379991244089,-0.0001618862152099,0.0892275422811508,0,0,0
12905,431537.3956480449,2010-08-24 14:14:10,300.1516096656282,7,35,-1.0997490882873535,3.9161911010742183,38.4380603485024,37.4072441792672,152.590632441546,137.47393984249686,-0.0001942634553415,0.0892275422811508,0,0,0
12906,431567.4108406904,2010-08-24 14:14:40,330.1668023111447,7,35,-1.099568486213684,3.9082589149475098,38.4380603485024,37.416412109390166,152.590632441546,137.50980621138308,-0.0001942634553415,0.0892275422811508,0,0,0
12907,431597.4263112687,2010-08-24 14:15:10,360.18227288935503,7,35,-1.099568486213684,3.9003264904022217,38.4380603485024,37.42558006258462,152.590632441546,137.54559953888884,-0.0001942634553415,0.0892275422811508,0,0,0
12908,431627.4413283666,2010-08-24 14:15:40,390.197290007403,7,35,-1.099568486213684,3.892555952072144,38.4380603485024,37.43474790539547,152.590632441546,137.58132104813558,-0.0001942634553415,0.0892275422811508,0,0,0
12909,431657.4563484521,2010-08-24 14:16:10,420.2123100727968,7,35,-1.099568486213684,3.8849472999572754,38.4380603485024,37.443915789538686,152.590632441546,137.61697318603925,-0.0002266406954731,0.0892275422811508,0,0,0
12910,431687.4715203809,2010-08-24 14:16:40,450.2274820066936,7,35,-1.099568486213684,3.877662420272827,38.4380603485024,37.4530837601558,152.590632441546,137.6525568638362,-0.0001942634553415,0.0892275422811508,0,0,0
12911,431717.4867047006,2010-08-24 14:17:10,480.2426663515223,7,35,-1.099568486213684,3.870377540588379,38.4380603485024,37.462251705863714,152.590632441546,137.68807281853967,-0.0001942634553415,0.0892275422811508,0,0,0
12912,431747.5018607651,2010-08-24 14:17:40,510.25782238579234,7,35,-1.0993878841400146,3.8632545471191406,38.4380603485024,37.4714196350348,152.590632441546,137.723522123627,-0.0001295089750783,0.0892275422811508,0,0,0
12913,431777.5170407992,2010-08-24 14:18:10,540.2730024198772,7,35,-1.099568486213684,3.855969667434693,38.4380603485024,37.48058768750419,152.590632441546,137.75890616581296,-0.0001942634553415,0.0892275422811508,0,0,0
12914,431807.5322077406,2010-08-24 14:18:40,570.2881693663437,7,35,-1.0993878841400146,3.848846673965454,38.4380603485024,37.48975559894012,152.590632441546,137.79422469826878,-0.0002266406954731,0.0892275422811508,0,0,0
12915,431837.5475407109,2010-08-24 14:19:10,600.3035023566428,7,35,-1.0997490882873535,3.841885566711426,38.4380603485024,37.498923610090415,152.590632441546,137.82947949491322,-0.0001942634553415,0.0892275422811508,0,0,0
12916,431867.5626739433,2010-08-24 14:19:40,630.3186355640211,7,35,-1.099568486213684,3.8352482318878174,38.4380603485024,37.50809153063176,152.590632441546,137.86467127386345,-0.0001618862152099,0.0892275422811508,0,0,0
12917,431897.5777253468,2010-08-24 14:20:10,660.333686967519,7,35,-1.099568486213684,3.828449249267578,38.4380603485024,37.517259518808224,152.590632441546,137.899801355015,-0.0001942634553415,0.0892275422811508,0,0,0
12918,431927.5929010351,2010-08-24 14:20:40,690.3488626557728,7,35,-1.0993878841400146,3.82197380065918,38.4380603485024,37.526427481656526,152.590632441546,137.93486988029272,-0.0001295089750783,0.0892275422811508,0,0,0
12919,431957.608094272,2010-08-24 14:21:10,720.3640558927635,7,35,-1.099568486213684,3.8153364658355713,38.4380603485024,37.53559543918729,152.590632441546,137.96987813204916,-0.0001618862152099,0.0892275422811508,0,0,0
12920,431987.6233044312,2010-08-24 14:21:40,750.379266087017,7,35,-1.0997490882873535,3.808699131011963,38.4380603485024,37.5447634299166,152.590632441546,138.00482679281782,-0.0001942634553415,0.0892275422811508,0,0,0
12921,432017.6384270522,2010-08-24 14:22:10,780.3943886779358,7,35,-1.099568486213684,3.8023855686187744,38.4380603485024,37.55393147114136,152.590632441546,138.03971721847591,-0.0001942634553415,0.0892275422811508,0,0,0
12922,432047.6536263143,2010-08-24 14:22:40,810.4095879449551,7,35,-1.099929690361023,3.796072006225586,38.4380603485024,37.563099505246406,152.590632441546,138.07455025852096,-0.0001942634553415,0.0892275422811508,0,0,0
12923,432077.6687802633,2010-08-24 14:23:10,840.4247418840032,7,35,-1.099568486213684,3.7902441024780273,38.4380603485024,37.57226757307553,152.590632441546,138.10932715731548,-0.0001618862152099,0.0892275422811508,0,0,0
12924,432107.6839446333,2010-08-24 14:23:40,870.4399062841235,7,35,-1.0993878841400146,3.784254312515259,38.4380603485024,37.581435554429895,152.590632441546,138.14404866255288,-0.0001942634553415,0.0892275422811508,0,0,0
12925,432137.699112071,2010-08-24 14:24:10,900.455073696752,7,35,-1.0997490882873535,3.7784264087677,38.4380603485024,37.59060356501739,152.590632441546,138.17871605487878,-0.0001618862152099,0.0892275422811508,0,0,0
12926,432167.71427992976,2010-08-24 14:24:40,930.4702415554922,7,35,-1.0997490882873535,3.772760391235352,38.4380603485024,37.59977158725739,152.590632441546,138.2133304844922,-0.0001618862152099,0.0892275422811508,0,0,0
12927,432197.7294755577,2010-08-24 14:25:10,960.4854371834416,7,35,-1.099568486213684,3.767094373703003,38.4380603485024,37.60893958480913,152.590632441546,138.24789268167774,-0.0001295089750783,0.0892275422811508,0,0,0
12928,432227.7446313965,2010-08-24 14:25:40,990.5005930172122,7,35,-1.0997490882873535,3.7614283561706543,38.4380603485024,37.61810761504955,152.590632441546,138.28240370319313,-0.0001295089750783,0.0892275422811508,0,0,0
12929,432257.7598181223,2010-08-24 14:26:11,1020.5157797680372,7,35,-1.0997490882873535,3.7560861110687256,38.4380603485024,37.62727566723849,152.590632441546,138.3168648599482,-0.0001618862152099,0.0892275422811508,0,0,0
12930,432287.7752506457,2010-08-24 14:26:41,1050.5312122663406,7,35,-1.099568486213684,3.750744104385376,38.4380603485024,37.63644380194685,152.590632441546,138.3512771109431,-0.0001618862152099,0.0892275422811508,0,0,0
12931,432317.79041357705,2010-08-24 14:27:11,1080.5463752228632,7,35,-1.099568486213684,3.745563745498657,38.4380603485024,37.645611813957,152.590632441546,138.38564077816176,-0.0001618862152099,0.0892275422811508,0,0,0
12932,432347.805472389,2010-08-24 14:27:41,1110.5614340047505,7,35,-1.099568486213684,3.7407071590423584,38.4380603485024,37.65477981790046,152.590632441546,138.41995724759562,-9.713172767078504e-05,0.0892275422811508,0,0,0
12933,432377.8205138127,2010-08-24 14:28:11,1140.5764754333877,7,35,-1.099568486213684,3.73552680015564,38.4380603485024,37.66394784215852,152.590632441546,138.4542275108991,-0.0001618862152099,0.0892275422811508,0,0,0
12934,432407.8356681377,2010-08-24 14:28:41,1170.5916297634103,7,35,-1.099568486213684,3.730832099914551,38.4380603485024,37.67311592697598,152.590632441546,138.488452518159,-6.47544875391759e-05,0.0892275422811508,0,0,0
12935,432437.8508476706,2010-08-24 14:29:11,1200.606809296246,7,35,-1.099568486213684,3.725813627243042,38.4380603485024,37.6822839074326,152.590632441546,138.52263276385577,-9.713172767078504e-05,0.0892275422811508,0,0,0
12936,432467.86602833617,2010-08-24 14:29:41,1230.6219899568923,7,35,-1.099568486213684,3.721118927001953,38.4380603485024,37.69145184861856,152.590632441546,138.5567695094311,-9.713172767078504e-05,0.0892275422811508,0,0,0
12937,432497.8811806061,2010-08-24 14:30:11,1260.6371422317932,7,35,-1.099568486213684,3.716586112976074,38.4380603485024,37.700619833952494,152.590632441546,138.59086360649923,-0.0001295089750783,0.0892275422811508,0,0,0
12938,432527.89648295497,2010-08-24 14:30:41,1290.6524446007743,7,35,-1.099929690361023,3.711729526519776,38.4380603485024,37.7097879309063,152.590632441546,138.62491600552002,-0.0001618862152099,0.0892275422811508,0,0,0
12939,432557.9116933297,2010-08-24 14:31:11,1320.6676549554277,7,35,-1.0997490882873535,3.707520484924317,38.4380603485024,37.71895597913834,152.590632441546,138.6589267949456,-0.0001295089750783,0.0892275422811508,0,0,0
12940,432587.926672027,2010-08-24 14:31:41,1350.6826336777815,7,35,-1.0993878841400146,3.703149557113648,38.4380603485024,37.728123951730495,152.590632441546,138.69289675704837,-0.0001295089750783,0.0892275422811508,0,0,0
12941,432617.94184966513,2010-08-24 14:32:11,1380.697811295845,7,35,-1.099568486213684,3.6987786293029785,38.4380603485024,37.73729200566119,152.590632441546,138.72682699981502,-9.713172767078504e-05,0.0892275422811508,0,0,0
12942,432647.9570187068,2010-08-24 14:32:41,1410.712980362596,7,35,-1.0997490882873535,3.6942458152771,38.4380603485024,37.7464600241506,152.590632441546,138.76071777390067,-0.0001618862152099,0.0892275422811508,0,0,0
12943,432677.97223831445,2010-08-24 14:33:11,1440.7281999602856,7,35,-1.099568486213684,3.690360546112061,38.4380603485024,37.75562810041736,152.590632441546,138.79457007272438,-9.713172767078504e-05,0.0892275422811508,0,0,0
12944,432707.9873770456,2010-08-24 14:33:41,1470.7433386713808,7,35,-1.099568486213684,3.6861515045166016,38.4380603485024,37.76479615076511,152.590632441546,138.82838452885224,-0.0001295089750783,0.0892275422811508,0,0,0
12945,432738.00258284895,2010-08-24 14:34:11,1500.7585444596534,7,35,-1.099568486213684,3.6822662353515625,38.4380603485024,37.77396420943533,152.590632441546,138.862162050142,-9.713172767078504e-05,0.0892275422811508,0,0,0
12946,432768.0177224974,2010-08-24 14:34:41,1530.7736841231222,7,35,-1.099568486213684,3.6782190799713135,38.4380603485024,37.78313228177984,152.590632441546,138.8959029068484,-9.713172767078504e-05,0.0892275422811508,0,0,0
12947,432798.03303261066,2010-08-24 14:35:11,1560.7889942364045,7,35,-1.099568486213684,3.6743338108062735,38.4380603485024,37.79230036892444,152.590632441546,138.92960775981695,-0.0001295089750783,0.0892275422811508,0,0,0
12948,432828.0480676885,2010-08-24 14:35:41,1590.804029314214,7,35,-1.099568486213684,3.670610666275024,38.4380603485024,37.80146835018066,152.590632441546,138.96327689547817,-9.713172767078504e-05,0.0892275422811508,0,0,0
12949,432858.06323937175,2010-08-24 14:36:11,1620.819200997486,7,35,-1.0997490882873535,3.666725397109986,38.4380603485024,37.81063638766487,152.590632441546,138.9969113158432,-9.713172767078504e-05,0.0892275422811508,0,0,0
12950,432888.0784637313,2010-08-24 14:36:41,1650.8344253420062,7,35,-1.099568486213684,3.663163900375366,38.4380603485024,37.81980446857361,152.590632441546,139.0305119427086,-9.713172767078504e-05,0.0892275422811508,0,0,0
12951,432918.0935987582,2010-08-24 14:37:11,1680.8495603789445,7,35,-1.099568486213684,3.659440517425537,38.4380603485024,37.82897247328474,152.590632441546,139.0640788876173,-0.0001295089750783,0.0892275422811508,0,0,0
12952,432948.10886496713,2010-08-24 14:37:41,1710.8648267081032,7,35,-1.099568486213684,3.656202793121338,38.4380603485024,37.838140559622005,152.590632441546,139.0976130229072,-3.237724376958795e-05,0.0892275422811508,0,0,0
12953,432978.1239313329,2010-08-24 14:38:11,1740.8798929586044,7,35,-1.0993878841400146,3.652479410171509,38.4380603485024,37.84730864924227,152.590632441546,139.1311145988695,-0.0001295089750783,0.0892275422811508,0,0,0
12954,433008.1391212967,2010-08-24 14:38:41,1770.8950829224375,7,35,-1.099568486213684,3.64875602722168,38.4380603485024,37.85647670783401,152.590632441546,139.16458387292997,-0.0001295089750783,0.0892275422811508,0,0,0
12955,433038.15470694174,2010-08-24 14:39:11,1800.9106685574045,7,35,-1.0997490882873535,3.645518302917481,38.4380603485024,37.865644868009525,152.590632441546,139.1980218191669,-9.713172767078504e-05,0.0892275422811508,0,0,0
12956,433068.15516976593,2010-08-24 14:39:41,1830.911131532049,7,35,-1.099568486213684,3.642280578613281,38.4380603485024,37.8748084071813,152.590632441546,139.23141274624035,-9.713172767078504e-05,0.0892275422811508,0,0,0
12957,433098.16901093314,2010-08-24 14:40:11,1860.924972558916,7,35,-1.0992072820663452,3.639042854309082,38.4380603485024,37.88397597690017,152.590632441546,139.26478891389914,-9.713172767078504e-05,0.0892275422811508,0,0,0
12958,433128.1841794085,2010-08-24 14:40:41,1890.9401410291805,7,35,-1.099568486213684,3.6359670162200928,38.4380603485024,37.89314396895071,152.590632441546,139.2981379174599,-9.713172767078504e-05,0.0892275422811508,0,0,0
12959,433158.1993553976,2010-08-24 14:41:11,1920.9553170231964,7,35,-1.099568486213684,3.632891178131104,38.4380603485024,37.902311958148026,152.590632441546,139.33145880594145,-9.713172767078504e-05,0.0892275422811508,0,0,0
12960,433188.21458007785,2010-08-24 14:41:41,1950.9705417035536,7,35,-1.0993878841400146,3.630139112472534,38.4380603485024,37.91148001564931,152.590632441546,139.36475269846085,-3.237724376958795e-05,0.0892275422811508,0,0,0
12961,433218.2297171047,2010-08-24 14:42:11,1980.9856787304511,7,35,-1.099568486213684,3.627225160598755,38.4380603485024,37.92064807702853,152.590632441546,139.3980201191277,-6.47544875391759e-05,0.0892275422811508,0,0,0
12962,433248.2448880311,2010-08-24 14:42:41,2011.000849661849,7,35,-1.099929690361023,3.624311208724976,38.4380603485024,37.92981604953543,152.590632441546,139.43126141095672,-0.0001295089750783,0.0892275422811508,0,0,0
12963,433278.26004212553,2010-08-24 14:43:11,2041.0160037512724,7,35,-1.099568486213684,3.621721029281616,38.4380603485024,37.93898403488507,152.590632441546,139.4644772672964,-6.47544875391759e-05,0.0892275422811508,0,0,0
12964,433308.27522850543,2010-08-24 14:43:41,2071.031190131173,7,35,-1.0997490882873535,3.618807077407837,38.4380603485024,37.9481520461456,152.590632441546,139.49766808037518,-6.47544875391759e-05,0.0892275422811508,0,0,0
12965,433338.2903927902,2010-08-24 14:44:11,2101.046354410993,7,35,-1.0997490882873535,3.616055011749268,38.4380603485024,37.95732009937672,152.590632441546,139.53083389016277,-0.0001295089750783,0.0892275422811508,0,0,0
12966,433368.3055379725,2010-08-24 14:44:41,2131.0614996182794,7,35,-1.0997490882873535,3.613464832305908,38.4380603485024,37.96648812926272,152.590632441546,139.5639749250942,-6.47544875391759e-05,0.0892275422811508,0,0,0
12967,433398.320716944,2010-08-24 14:45:11,2161.076678549616,7,35,-1.099568486213684,3.610874652862549,38.4380603485024,37.975656192775205,152.590632441546,139.59709162903823,-6.47544875391759e-05,0.0892275422811508,0,0,0
12968,433428.3359415642,2010-08-24 14:45:41,2191.091903184861,7,35,-1.0997490882873535,3.60812258720398,38.4380603485024,37.98482476028342,152.590632441546,139.63018570930697,-6.47544875391759e-05,0.0892275422811508,0,0,0
12969,433458.35125376267,2010-08-24 14:46:11,2221.107215413415,7,35,-1.0997490882873535,3.60537052154541,38.4380603485024,37.99399366468777,152.590632441546,139.66325651371906,-9.713172767078504e-05,0.0892275422811508,0,0,0
12970,433488.3662747854,2010-08-24 14:46:41,2251.1222364311825,7,35,-1.0997490882873535,3.602780342102051,38.4380603485024,38.00316246042255,152.590632441546,139.69630228232364,-6.47544875391759e-05,0.0892275422811508,0,0,0
12971,433518.3814514611,2010-08-24 14:47:11,2281.1374130818344,7,35,-1.099568486213684,3.6001901626586914,38.4380603485024,38.01233132507116,152.590632441546,139.72932341968115,-3.237724376958795e-05,0.0892275422811508,0,0,0
12972,433548.3967847121,2010-08-24 14:47:41,2311.152746342808,7,35,-1.0993878841400146,3.597438097000122,38.4380603485024,38.02149967294918,152.590632441546,139.76231796306342,-6.47544875391759e-05,0.0892275422811508,0,0,0
12973,433578.4117971384,2010-08-24 14:48:11,2341.167758769163,7,35,-1.0997490882873535,3.5945241451263428,38.4380603485024,38.0306676636882,152.590632441546,139.7952862112534,-9.713172767078504e-05,0.0892275422811508,0,0,0
12974,433608.4270954924,2010-08-24 14:48:41,2371.18305712815,7,35,-1.099568486213684,3.5917723178863525,38.4380603485024,38.03983566165128,152.590632441546,139.82822900685207,-0.0001294612884521,0.0892275422811508,0,0,0
12975,433638.4421360188,2010-08-24 14:49:11,2401.198097654539,7,35,-1.0997490882873535,3.589020252227783,38.4380603485024,38.04900365198503,152.590632441546,139.86114581257598,-6.47544875391759e-05,0.0892275422811508,0,0,0
12976,433668.4574693148,2010-08-24 14:49:41,2431.213430940575,7,35,-1.099568486213684,3.586106300354004,38.4380603485024,38.05817175443559,152.590632441546,139.89403701258587,-9.713172767078504e-05,0.0892275422811508,0,0,0
12977,433698.4724847587,2010-08-24 14:50:11,2461.228446379438,7,35,-1.099568486213684,3.583030462265014,38.4380603485024,38.0673397341584,152.590632441546,139.9269008313138,-6.47544875391759e-05,0.0892275422811508,0,0,0
12978,433728.4876626074,2010-08-24 14:50:41,2491.243624228076,7,35,-1.099568486213684,3.580116510391236,38.4380603485024,38.07650778237371,152.590632441546,139.95973728143795,-6.47544875391759e-05,0.0892275422811508,0,0,0
12979,433758.50286659616,2010-08-24 14:51:11,2521.2588282268885,7,35,-1.0997490882873535,3.577040672302246,38.4380603485024,38.085675840638594,152.590632441546,139.9925456737612,-6.47544875391759e-05,0.0892275422811508,0,0,0
12980,433788.5180210916,2010-08-24 14:51:41,2551.273982712298,7,35,-1.099568486213684,3.573641061782837,38.4380603485024,38.094843835159054,152.590632441546,140.0253247576912,-0.0001295089750783,0.0892275422811508,0,0,0
12981,433818.53317931626,2010-08-24 14:52:11,2581.2891409420404,7,35,-1.099568486213684,3.570565223693848,38.4380603485024,38.10401184270941,152.590632441546,140.0580740970005,-6.47544875391759e-05,0.0892275422811508,0,0,0
12982,433848.54835428274,2010-08-24 14:52:41,2611.3043159034823,7,35,-1.099568486213684,3.5671656131744385,38.4380603485024,38.1131798607368,152.590632441546,140.0907928487219,-9.713172767078504e-05,0.0892275422811508,0,0,0
12983,433878.5635474746,2010-08-24 14:53:11,2641.3195091204234,7,35,-1.099568486213684,3.5634422302246094,38.4380603485024,38.122347906644606,152.590632441546,140.12348032130873,-0.0001295089750783,0.0892275422811508,0,0,0
12984,433908.57880068605,2010-08-24 14:53:41,2671.3347623118384,7,35,-1.099568486213684,3.56020450592041,38.4380603485024,38.13151594694517,152.590632441546,140.15613636347152,-9.713172767078504e-05,0.0892275422811508,0,0,0
12985,433938.59394185833,2010-08-24 14:54:11,2701.349903479056,7,35,-1.099568486213684,3.556319236755371,38.4380603485024,38.14068397489777,152.590632441546,140.18875911533416,-0.0001295089750783,0.0892275422811508,0,0,0
12986,433968.6090540233,2010-08-24 14:54:41,2731.36501564399,7,35,-1.099568486213684,3.552595853805542,38.4380603485024,38.14985202300368,152.590632441546,140.2213473429886,-9.713172767078504e-05,0.0892275422811508,0,0,0
12987,433998.6243464776,2010-08-24 14:55:11,2761.380308108285,7,35,-1.099568486213684,3.548872470855713,38.4380603485024,38.15902009189051,152.590632441546,140.25390099599522,-9.713172767078504e-05,0.0892275422811508,0,0,0
12988,434028.63961241575,2010-08-24 14:55:41,2791.395574041457,7,35,-1.099568486213684,3.544663429260254,38.4380603485024,38.16818810619512,152.590632441546,140.28641832744933,-0.0001618862152099,0.0892275422811508,0,0,0
12989,434058.65456715325,2010-08-24 14:56:11,2821.410528779034,7,35,-1.099568486213684,3.540616273880005,38.4380603485024,38.17735607366153,152.590632441546,140.3188977119757,-9.713172767078504e-05,0.0892275422811508,0,0,0
12990,434088.6697607913,2010-08-24 14:56:41,2851.425722417024,7,35,-1.099568486213684,3.536407232284546,38.4380603485024,38.18652410827805,152.590632441546,140.3513385408857,-9.713172767078504e-05,0.0892275422811508,0,0,0
12991,434118.6849376425,2010-08-24 14:57:11,2881.4408992631634,7,35,-1.0997490882873535,3.531712532043457,38.4380603485024,38.19569214556319,152.590632441546,140.3837390320201,-0.0001618862152099,0.0892275422811508,0,0,0
12992,434148.7000901329,2010-08-24 14:57:41,2911.456051753601,7,35,-1.099568486213684,3.527179718017578,38.4380603485024,38.204860169032735,152.590632441546,140.41609797607262,-9.713172767078504e-05,0.0892275422811508,0,0,0
12993,434178.7152656257,2010-08-24 14:58:11,2941.471227246368,7,35,-1.099568486213684,3.5224850177764893,38.4380603485024,38.2140282169324,152.590632441546,140.44841398067547,-0.0001295089750783,0.0892275422811508,0,0,0
12994,434208.7304611684,2010-08-24 14:58:42,2971.4864228241927,7,35,-1.099568486213684,3.5176284313201904,38.4380603485024,38.22319622672981,152.590632441546,140.4806852277963,-9.713172767078504e-05,0.0892275422811508,0,0,0
12995,434238.7460056458,2010-08-24 14:59:12,3001.50196727652,7,35,-1.099568486213684,3.5122861862182617,38.4380603485024,38.23236444656753,152.590632441546,140.5129109614772,-0.0001618862152099,0.0892275422811508,0,0,0
12996,434268.7611082319,2010-08-24 14:59:42,3031.517069852556,7,35,-1.099568486213684,3.506782293319702,38.4380603485024,38.24153248753021,152.590632441546,140.545087407193,-0.0001295089750783,0.0892275422811508,0,0,0
12997,434298.7759691456,2010-08-24 15:00:12,3061.531930771307,7,35,-1.0997490882873535,3.5007925033569336,38.4380603485024,38.25070041818342,152.590632441546,140.57721088842237,-0.0001618862152099,0.0892275422811508,0,0,0
12998,434328.7911179769,2010-08-24 15:00:42,3091.5470795976125,7,35,-1.099568486213684,3.494640827178955,38.4380603485024,38.25986840042552,152.590632441546,140.60927823854075,-0.0001295089750783,0.0892275422811508,0,0,0
12999,434358.8062831639,2010-08-24 15:01:12,3121.5622447897067,7,35,-1.0997490882873535,3.487517833709717,38.4380603485024,38.26903647101915,152.590632441546,140.64128405018337,-0.0001942634553415,0.0892275422811508,0,0,0
13000,434388.8217340231,2010-08-24 15:01:42,3151.577695673833,7,35,-1.099568486213684,3.4794235229492188,38.4380603485024,38.27820460392228,152.590632441546,140.6732216974997,-0.0002266406954731,0.0892275422811508,0,0,0
13001,434418.8366321746,2010-08-24 15:02:12,3181.592593795305,7,35,-1.099568486213684,3.470357894897461,38.4380603485024,38.287372492805126,152.590632441546,140.70508021852274,-0.0002590179501567,0.0892275422811508,0,0,0
13002,434448.8518107601,2010-08-24 15:02:42,3211.60777238078,7,35,-1.099568486213684,3.4596734046936035,38.4380603485024,38.29654052276811,152.590632441546,140.7368487115471,-0.0002913951757363,0.0892275422811508,0,0,0
13003,434478.8669764183,2010-08-24 15:03:12,3241.6229380390355,7,35,-1.0997490882873535,3.4463987350463867,38.4380603485024,38.3057085906409,152.590632441546,140.76850873773753,-0.0003885269106831,0.0892275422811508,0,0,0
13004,434508.8823567366,2010-08-24 15:03:42,3271.638318367316,7,35,-1.0997490882873535,3.42972469329834,38.4380603485024,38.31487665137895,152.590632441546,140.8000328692116,-0.0004856109735555,0.0892275422811508,0,0,0
13005,434538.89731582,2010-08-24 15:04:12,3301.6532774406983,7,35,-1.099568486213684,3.407546281814575,38.4380603485024,38.32404456431957,152.590632441546,140.831379279629,-0.0006475448608398,0.0892275422811508,0,0,0
13006,434568.91249786905,2010-08-24 15:04:42,3331.6684595198803,7,35,-1.099568486213684,3.3771116733551025,38.4380603485024,38.333212588415,152.590632441546,140.86248813859683,-0.0009389400365762,0.0892275422811508,0,0,0
13007,434598.92766103614,2010-08-24 15:05:12,3361.6836226568525,7,35,-1.0993878841400146,3.333888292312622,38.4380603485024,38.34238064230463,152.590632441546,140.8932640512284,-0.0013598442310467,0.0892275422811508,0,0,0
13008,434628.9429751444,2010-08-24 15:05:42,3391.6989367650917,7,35,-1.0997490882873535,3.270105361938477,38.4380603485024,38.351548664601054,152.590632441546,140.92355558189254,-0.0020073414780199,0.0892275422811508,0,0,0
13009,434658.95801336505,2010-08-24 15:06:12,3421.713974985734,7,35,-1.099568486213684,3.174268960952759,38.4380603485024,38.36071664499804,152.590632441546,140.9531282337226,-0.0030758380889892,0.0892275422811508,0,0,0
13010,434688.973178918,2010-08-24 15:06:42,3451.7291405387277,7,35,-1.099568486213684,3.013192653656006,38.4380603485024,38.369884667368645,152.590632441546,140.9815670890968,-0.0056335926055908,0.0892275422811508,0,0,0
13011,434707.4574039142,2010-08-24 15:07:00,3470.2133655448965,7,35,-1.0993878841400146,2.8126161098480225,38.4380603485024,38.375530565969605,152.590632441546,140.99807726801748,-0.0110730174928903,0.0892275422811508,0,0,0
13012,434714.5978222086,2010-08-24 15:07:07,3477.353783834325,7,35,-1.099568486213684,2.699620008468628,38.4380603485024,38.37771156220345,152.590632441546,141.00409143198095,-0.0130479810759425,0.0892275422811508,0,0,0
13013,434774.6211253106,2010-08-24 15:08:07,60.01471424396187,8,35,0.0,3.425839424133301,38.4380603485024,38.37771156220345,152.590632441546,141.00409143198095,0.0011979580158367,0.0892275422811508,0,0,0
13014,434774.8026320054,2010-08-24 15:08:08,0.187621315046732,9,35,-1.9243103452026844e-05,3.4260013103485107,38.4380603485024,38.37771156320635,152.590632441546,141.00409143541688,0.0,0.086481012403965,0,0,0
13015,434779.630564604,2010-08-24 15:08:13,5.015553928637527,9,35,0.0008838032954372,3.43296217918396,38.43806126470225,38.37771156328946,152.59063558413808,141.0040914357016,0.0010360240703448,0.086481012403965,0,0,0
