Data_Point,Test_Time(s),Date_Time,Step_Time(s),Step_Index,Cycle_Index,Current(A),Voltage(V),Charge_Capacity(Ah),Discharge_Capacity(Ah),Charge_Energy(Wh),Discharge_Energy(Wh),dV/dt(V/s),Internal_Resistance(Ohm),Is_FC_Data,AC_Impedance(Ohm),ACI_Phase_Angle(Deg)
14827,495375.0264258669,2010-08-25 07:58:14,30.017786826012525,1,41,0.0,3.4671201705932617,43.76889004370484,43.70446931740806,173.7804612796012,160.56525234294725,0.0006475448608398,0.0872892439365387,0,0,0
14828,495405.0391540052,2010-08-25 07:58:44,60.03051496421851,1,41,0.0,3.486708402633667,43.76889004370484,43.70446931740806,173.7804612796012,160.56525234294725,0.0004209041653666,0.0872892439365387,0,0,0
14829,495435.0541587925,2010-08-25 07:59:14,90.0455197515346,1,41,0.0,3.5007925033569336,43.76889004370484,43.70446931740806,173.7804612796012,160.56525234294725,0.0003237724304199,0.0872892439365387,0,0,0
14830,495465.0225027517,2010-08-25 07:59:44,120.01386371070976,1,41,0.0,3.511476993560791,43.76889004370484,43.70446931740806,173.7804612796012,160.56525234294725,0.0002266406954731,0.0872892439365387,0,0,0
14831,495495.0485228082,2010-08-25 08:00:14,30.01514558823529,2,41,0.5501165986061096,3.635481357574463,43.77347677245421,43.70446931740806,173.7970152665959,160.56525234294725,0.0011655807029455,0.0872892439365387,0,0,0
14832,495525.0638254728,2010-08-25 08:00:45,60.03044825796601,2,41,0.5501165986061096,3.671258211135864,43.77806346445015,43.70446931740806,173.81377692990432,160.56525234294725,0.0008418083307333,0.0872892439365387,0,0,0
14833,495555.0790191058,2010-08-25 08:01:15,90.04564188593109,2,41,0.5501165986061096,3.697807312011719,43.78265008257517,43.70446931740806,173.83067853232689,160.56525234294725,0.0006475448608398,0.0872892439365387,0,0,0
14834,495585.09427255794,2010-08-25 08:01:45,120.06089544827108,2,41,0.5499359965324402,3.718366861343384,43.78723674473114,43.70446931740806,173.84768792736207,160.56525234294725,0.0004856586456298,0.0872892439365387,0,0,0
14835,495615.1092163833,2010-08-25 08:02:15,150.07583915335144,2,41,0.5501165986061096,3.73455548286438,43.79182334912311,43.70446931740806,173.86478157856266,160.56525234294725,0.0003885269106831,0.0872892439365387,0,0,0
14836,495645.1243650141,2010-08-25 08:02:45,180.0909877891823,2,41,0.550297200679779,3.746535062789917,43.79640995423215,43.70446931740806,173.88193900427237,160.56525234294725,0.0003237724304199,0.0872892439365387,0,0,0
14837,495675.1395669578,2010-08-25 08:03:15,210.1061897378852,2,41,0.550297200679779,3.753657817840576,43.80099657904134,43.70446931740806,173.89913991074445,160.56525234294725,0.0001942157687153,0.0872892439365387,0,0,0
14838,495705.1547818988,2010-08-25 08:03:45,240.121404769194,2,41,0.550297200679779,3.758352518081665,43.80558317220558,43.70446931740806,173.9163671652129,160.56525234294725,0.0001295089750783,0.0872892439365387,0,0,0
14839,495735.1699975968,2010-08-25 08:04:15,270.1366203769395,2,41,0.5499359965324402,3.761590242385864,43.81016982769006,43.70446931740806,173.9336124445514,160.56525234294725,9.713172767078504e-05,0.0872892439365387,0,0,0
14840,495765.1851633554,2010-08-25 08:04:45,300.15178613544526,2,41,0.5501165986061096,3.7646660804748535,43.8147564191891,43.70446931740806,173.95087221267005,160.56525234294725,6.47544875391759e-05,0.0872892439365387,0,0,0
14841,495795.2002276459,2010-08-25 08:05:15,330.1668504160369,2,41,0.5501165986061096,3.767580032348633,43.81934302135863,43.70446931740806,173.9681458450584,160.56525234294725,6.47544875391759e-05,0.0872892439365387,0,0,0
14842,495825.2156354828,2010-08-25 08:05:45,360.1822582578889,2,41,0.5501165986061096,3.770493984222412,43.8239296784581,43.70446931740806,173.9854331019511,160.56525234294725,9.713172767078504e-05,0.0872892439365387,0,0,0
14843,495855.230552316,2010-08-25 08:06:15,390.197175090996,2,41,0.5501165986061096,3.773407936096192,43.82851630784175,43.70446931740806,174.00273355982526,160.56525234294725,9.713172767078504e-05,0.0872892439365387,0,0,0
14844,495885.2457209064,2010-08-25 08:06:45,420.21234370161017,2,41,0.5501165986061096,3.7764837741851807,43.8331029017636,43.70446931740806,174.02004744206013,160.56525234294725,0.0001295089750783,0.0872892439365387,0,0,0
14845,495915.261013862,2010-08-25 08:07:15,450.2276366320676,2,41,0.550297200679779,3.77923583984375,43.837689718278426,43.70446931740806,174.0373755490189,160.56525234294725,6.47544875391759e-05,0.0872892439365387,0,0,0
14846,495945.27611548064,2010-08-25 08:07:45,480.2427382507172,2,41,0.550297200679779,3.7823116779327393,43.842277159383016,43.70446931740806,174.05471932966486,160.56525234294725,9.713172767078504e-05,0.0872892439365387,0,0,0
14847,495975.2912609936,2010-08-25 08:08:15,510.25788378381503,2,41,0.5501165986061096,3.7850637435913086,43.84686444742484,43.70446931740806,174.0720758318485,160.56525234294725,9.713172767078504e-05,0.0872892439365387,0,0,0
14848,496005.3065725055,2010-08-25 08:08:45,540.2731952755329,2,41,0.5501165986061096,3.787977695465088,43.85145104786458,43.70446931740806,174.08944289329347,160.56525234294725,9.713172767078504e-05,0.0872892439365387,0,0,0
14849,496035.3215944957,2010-08-25 08:09:15,570.2882172707364,2,41,0.5499359965324402,3.790729761123657,43.85603763508698,43.70446931740806,174.1068232233821,160.56525234294725,3.237724376958795e-05,0.0872892439365387,0,0,0
14850,496065.33677749714,2010-08-25 08:09:45,600.3034002722169,2,41,0.5501165986061096,3.793643712997437,43.86062422848685,43.70446931740806,174.12421681770684,160.56525234294725,6.47544875391759e-05,0.0872892439365387,0,0,0
14851,496095.3519411204,2010-08-25 08:10:15,630.3185639054259,2,41,0.5501165986061096,3.796719551086426,43.865210874012966,43.70446931740806,174.14162421629177,160.56525234294725,9.713172767078504e-05,0.0872892439365387,0,0,0
14852,496125.367110187,2010-08-25 08:10:45,660.3337329621519,2,41,0.5501165986061096,3.799795389175415,43.8697975243565,43.70446931740806,174.15904541320856,160.56525234294725,9.713172767078504e-05,0.0872892439365387,0,0,0
14853,496155.3823041207,2010-08-25 08:11:15,690.3489269059039,2,41,0.5501165986061096,3.8030331134796143,43.87438415822428,43.70446931740806,174.1764806409131,160.56525234294725,0.0001295089750783,0.0872892439365387,0,0,0
14854,496185.3974679244,2010-08-25 08:11:45,720.3640906995126,2,41,0.5501165986061096,3.806108951568604,43.87897072624617,43.70446931740806,174.19392998188042,160.56525234294725,0.0001295089750783,0.0872892439365387,0,0,0
14855,496215.41264136205,2010-08-25 08:12:15,750.3792641371573,2,41,0.5501165986061096,3.8093466758728023,43.88355734859492,43.70446931740806,174.21139436969753,160.56525234294725,9.713172767078504e-05,0.0872892439365387,0,0,0
14856,496245.42792135023,2010-08-25 08:12:45,780.3945441353835,2,41,0.5501165986061096,3.812908172607422,43.88814397670546,43.70446931740806,174.2288740411613,160.56525234294725,0.0001618862152099,0.0872892439365387,0,0,0
14857,496275.44295701454,2010-08-25 08:13:15,810.4095797896296,2,41,0.5501165986061096,3.816145896911621,43.8927305244474,43.70446931740806,174.2463693313074,160.56525234294725,9.713172767078504e-05,0.0872892439365387,0,0,0
14858,496305.45850660966,2010-08-25 08:13:45,840.4251294048244,2,41,0.5501165986061096,3.8195455074310303,43.89731716174448,43.70446931740806,174.26388079371569,160.56525234294725,3.237724376958795e-05,0.0872892439365387,0,0,0
14859,496335.4733058948,2010-08-25 08:14:15,870.4399286649034,2,41,0.5501165986061096,3.8231070041656494,43.90190367273405,43.70446931740806,174.28140767739237,160.56525234294725,6.47544875391759e-05,0.0872892439365387,0,0,0
14860,496365.48847878113,2010-08-25 08:14:45,900.4551015662112,2,41,0.5501165986061096,3.8265066146850586,43.9064902085751,43.70446931740806,174.29895057222305,160.56525234294725,6.47544875391759e-05,0.0872892439365387,0,0,0
14861,496395.5036432514,2010-08-25 08:15:15,930.470266021469,2,41,0.5501165986061096,3.8300681114196777,43.91107679010005,43.70446931740806,174.31650940698583,160.56525234294725,9.713172767078504e-05,0.0872892439365387,0,0,0
14862,496425.5188449094,2010-08-25 08:15:45,960.4854676794472,2,41,0.5499359965324402,3.833305597305298,43.91566341691061,43.70446931740806,174.33408394526847,160.56525234294725,6.470680091297254e-05,0.0872892439365387,0,0,0
14863,496455.5341213989,2010-08-25 08:16:15,990.5007441789536,2,41,0.5501165986061096,3.836705207824707,43.92024997920357,43.70446931740806,174.3516734715213,160.56525234294725,9.713172767078504e-05,0.0872892439365387,0,0,0
14864,496485.5491578551,2010-08-25 08:16:45,1020.5157806552484,2,41,0.5501165986061096,3.839781045913696,43.92483657645322,43.70446931740806,174.36927806650294,160.56525234294725,6.47544875391759e-05,0.0872892439365387,0,0,0
14865,496515.56432307226,2010-08-25 08:17:15,1050.5309458473428,2,41,0.5501165986061096,3.843018770217896,43.9294231454459,43.70446931740806,174.38689719059556,160.56525234294725,9.713172767078504e-05,0.0872892439365387,0,0,0
14866,496545.5795106802,2010-08-25 08:17:45,1080.5461334502916,2,41,0.5501165986061096,3.846256494522095,43.93400980170857,43.70446931740806,174.40453093227256,160.56525234294725,9.713172767078504e-05,0.0872892439365387,0,0,0
14867,496575.5946818121,2010-08-25 08:18:15,1110.5613045821897,2,41,0.5501165986061096,3.849170446395874,43.938596394066224,43.70446931740806,174.42217855115027,160.56525234294725,6.47544875391759e-05,0.0872892439365387,0,0,0
14868,496605.60985158064,2010-08-25 08:18:45,1140.5764743557015,2,41,0.5497553944587708,3.852084398269653,43.94318297948347,43.70446931740806,174.43983998723922,160.56525234294725,6.47544875391759e-05,0.0872892439365387,0,0,0
14869,496635.6251543356,2010-08-25 08:19:15,1170.5917771156574,2,41,0.5501165986061096,3.854836463928223,43.94776960597843,43.70446931740806,174.4575148596938,160.56525234294725,3.237724376958795e-05,0.0872892439365387,0,0,0
14870,496665.6401841552,2010-08-25 08:19:45,1200.6068069303494,2,41,0.5501165986061096,3.857750415802002,43.95235614651734,43.70446931740806,174.4752022655883,160.56525234294725,6.47544875391759e-05,0.0872892439365387,0,0,0
14871,496695.6553542045,2010-08-25 08:20:15,1230.6219769745364,2,41,0.5501165986061096,3.860340595245361,43.956942668635165,43.70446931740806,174.4929018054488,160.56525234294725,6.47544875391759e-05,0.0872892439365387,0,0,0
14872,496725.67053496535,2010-08-25 08:20:45,1260.637157735433,2,41,0.5501165986061096,3.862768888473511,43.96152927724516,43.70446931740806,174.51061327059372,160.56525234294725,6.47544875391759e-05,0.0872892439365387,0,0,0
14873,496755.685689957,2010-08-25 08:21:15,1290.6523127271043,2,41,0.550297200679779,3.86503529548645,43.966115849903474,43.70446931740806,174.52833534100165,160.56525234294725,6.47544875391759e-05,0.0872892439365387,0,0,0
14874,496785.7010086366,2010-08-25 08:21:45,1320.6676313967118,2,41,0.5501165986061096,3.86713981628418,43.97070251104546,43.70446931740806,174.54606781642354,160.56525234294725,6.47544875391759e-05,0.0872892439365387,0,0,0
14875,496815.7160275241,2010-08-25 08:22:15,1350.6826503042196,2,41,0.5499359965324402,3.868920564651489,43.97528905905167,43.70446931740806,174.56380916847058,160.56525234294725,0.0,0.0872892439365387,0,0,0
14876,496845.7312541744,2010-08-25 08:22:45,1380.6978769444615,2,41,0.550297200679779,3.870863199234009,43.97987559152632,43.70446931740806,174.58155892761204,160.56525234294725,3.237724376958795e-05,0.0872892439365387,0,0,0
14877,496875.7463944193,2010-08-25 08:23:15,1410.7130180164413,2,41,0.5501165986061096,3.872482061386109,43.98446222392763,43.70446931740806,174.59931690999218,160.56525234294725,6.47544875391759e-05,0.0872892439365387,0,0,0
14878,496905.7615494762,2010-08-25 08:23:45,1440.7281722462135,2,41,0.5501165986061096,3.873939037322998,43.98904883599345,43.70446931740806,174.61708193096464,160.56525234294725,3.237724376958795e-05,0.0872892439365387,0,0,0
14879,496935.7768333891,2010-08-25 08:24:15,1470.743456169222,2,41,0.5501165986061096,3.8752341270446777,43.9936355078623,43.70446931740806,174.63485353864567,160.56525234294725,6.47544875391759e-05,0.0872892439365387,0,0,0
14880,496965.7918768879,2010-08-25 08:24:45,1500.7584996630062,2,41,0.550297200679779,3.876529216766357,43.99822213597302,43.70446931740806,174.65263110291227,160.56525234294725,6.47544875391759e-05,0.0872892439365387,0,0,0
14881,496995.8070505611,2010-08-25 08:25:15,1530.7736733362378,2,41,0.5497553944587708,3.877824306488037,44.00280879857679,43.70446931740806,174.67041438908427,160.56525234294725,3.237724376958795e-05,0.0872892439365387,0,0,0
14882,497025.8222311115,2010-08-25 08:25:45,1560.788853881597,2,41,0.550297200679779,3.879119396209717,44.00739538292672,43.70446931740806,174.68820266921034,160.56525234294725,6.47544875391759e-05,0.0872892439365387,0,0,0
14883,497055.8374121581,2010-08-25 08:26:15,1590.8040349282055,2,41,0.5501165986061096,3.879928827285767,44.01198201874783,43.70446931740806,174.70599612882552,160.56525234294725,6.47544875391759e-05,0.0872892439365387,0,0,0
14884,497085.8525681623,2010-08-25 08:26:45,1620.8191909374132,2,41,0.550297200679779,3.881062030792236,44.01656858975292,43.70446931740806,174.7237942249647,160.56525234294725,6.47544875391759e-05,0.0872892439365387,0,0,0
14885,497115.8677308181,2010-08-25 08:27:15,1650.8343535881736,2,41,0.5501165986061096,3.882033348083496,44.02115518937281,43.70446931740806,174.7415971864158,160.56525234294725,0.0,0.0872892439365387,0,0,0
14886,497145.8829122306,2010-08-25 08:27:45,1680.849535000694,2,41,0.5501165986061096,3.883166551589966,44.025741842561,43.70446931740806,174.75940498612604,160.56525234294725,6.47544875391759e-05,0.0872892439365387,0,0,0
14887,497175.8851304699,2010-08-25 08:28:15,1710.8517533302231,2,41,0.5501165986061096,3.883975982666016,44.030326575461146,43.70446931740806,174.7772099402196,160.56525234294725,0.0,0.0872892439365387,0,0,0
14888,497205.8976911558,2010-08-25 08:28:45,1740.8643139308738,2,41,0.5501165986061096,3.8849472999572754,44.03491278766608,43.70446931740806,174.7950250364717,160.56525234294725,0.0,0.0872892439365387,0,0,0
14889,497235.9127896014,2010-08-25 08:29:15,1770.8794123766154,2,41,0.5501165986061096,3.885918617248535,44.03949941226601,43.70446931740806,174.8128462880654,160.56525234294725,3.237724376958795e-05,0.0872892439365387,0,0,0
14890,497265.9279530594,2010-08-25 08:29:45,1800.8945758343873,2,41,0.5501165986061096,3.887051820755005,44.04408608301263,43.70446931740806,174.83067224845826,160.56525234294725,6.47544875391759e-05,0.0872892439365387,0,0,0
14891,497295.94348942646,2010-08-25 08:30:15,1830.910112221614,2,41,0.5501165986061096,3.887861251831055,44.04867281511597,43.70446931740806,174.84850283030536,160.56525234294725,0.0,0.0872892439365387,0,0,0
14892,497325.9583006314,2010-08-25 08:30:45,1860.9249234014003,2,41,0.550297200679779,3.888994455337525,44.05325942033608,43.70446931740806,174.86633741092626,160.56525234294725,6.47544875391759e-05,0.0872892439365387,0,0,0
14893,497355.9734703648,2010-08-25 08:31:15,1890.9400931398256,2,41,0.550297200679779,3.889965772628784,44.05784609741677,43.70446931740806,174.88417673020126,160.56525234294725,6.47544875391759e-05,0.0872892439365387,0,0,0
14894,497385.9887601222,2010-08-25 08:31:45,1920.955382902388,2,41,0.5499359965324402,3.890775203704834,44.06243277566382,43.70446931740806,174.9020204688269,160.56525234294725,0.0,0.0872892439365387,0,0,0
14895,497416.0038337912,2010-08-25 08:32:15,1950.970456566365,2,41,0.5499359965324402,3.891908407211304,44.06701939511005,43.70446931740806,174.91986853808027,160.56525234294725,6.47544875391759e-05,0.0872892439365387,0,0,0
14896,497446.01898713387,2010-08-25 08:32:45,1980.9856099039143,2,41,0.5501165986061096,3.8927178382873535,44.07160608993883,43.70446931740806,174.9377214389466,160.56525234294725,0.0,0.0872892439365387,0,0,0
14897,497476.0344993759,2010-08-25 08:33:16,2011.001122291326,2,41,0.5501165986061096,3.893689155578613,44.07619279346881,43.70446931740806,174.95557897516886,160.56525234294725,3.237724376958795e-05,0.0872892439365387,0,0,0
14898,497506.0494904039,2010-08-25 08:33:46,2041.016113189025,2,41,0.550297200679779,3.894822359085083,44.08077944601922,43.70446931740806,174.97344095087692,160.56525234294725,3.237724376958795e-05,0.0872892439365387,0,0,0
14899,497536.0647576304,2010-08-25 08:34:16,2071.031380410408,2,41,0.5501165986061096,3.895793676376343,44.08536611307608,43.70446931740806,174.99130697770988,160.56525234294725,3.237724376958795e-05,0.0872892439365387,0,0,0
14900,497566.079664278,2010-08-25 08:34:46,2101.046287053117,2,41,0.5501165986061096,3.8967649936676025,44.08995263399155,43.70446931740806,175.0091773481401,160.56525234294725,0.0,0.0872892439365387,0,0,0
14901,497596.094831049,2010-08-25 08:35:16,2131.061453819134,2,41,0.5501165986061096,3.897898197174072,44.09453925879571,43.70446931740806,175.02705291375617,160.56525234294725,3.237724376958795e-05,0.0872892439365387,0,0,0
14902,497626.1100183111,2010-08-25 08:35:46,2161.076641081233,2,41,0.5501165986061096,3.898869514465332,44.09912584078023,43.70446931740806,175.04493311178854,160.56525234294725,3.237724376958795e-05,0.0872892439365387,0,0,0
14903,497656.125179388,2010-08-25 08:36:16,2191.091802168096,2,41,0.5504778623580933,3.900164604187012,44.10371244226848,43.70446931740806,175.06281831283462,160.56525234294725,3.237724376958795e-05,0.0872892439365387,0,0,0
14904,497686.1403467555,2010-08-25 08:36:46,2221.106969525587,2,41,0.5501165986061096,3.901135921478272,44.10829903212447,43.70446931740806,175.0807083336376,160.56525234294725,6.47544875391759e-05,0.0872892439365387,0,0,0
14905,497716.15554260905,2010-08-25 08:37:16,2251.122165384111,2,41,0.550297200679779,3.902269124984741,44.11288560936753,43.70446931740806,175.09860335187764,160.56525234294725,6.47544875391759e-05,0.0872892439365387,0,0,0
14906,497746.17068957567,2010-08-25 08:37:46,2281.1373123457693,2,41,0.550297200679779,3.903240442276001,44.117472250135066,43.70446931740806,175.1165036229726,160.56525234294725,3.237724376958795e-05,0.0872892439365387,0,0,0
14907,497776.18600760365,2010-08-25 08:38:16,2311.1526303637525,2,41,0.550297200679779,3.90469741821289,44.12205885560507,43.70446931740806,175.13440891667886,160.56525234294725,9.713172767078504e-05,0.0872892439365387,0,0,0
14908,497806.2011583698,2010-08-25 08:38:46,2341.1677811449304,2,41,0.5501165986061096,3.905506849288941,44.12664550168843,43.70446931740806,175.15231948595027,160.56525234294725,3.237724376958795e-05,0.0872892439365387,0,0,0
14909,497836.2162139788,2010-08-25 08:39:16,2371.182836748897,2,41,0.550297200679779,3.90680193901062,44.13123210293735,43.70446931740806,175.1702351040958,160.56525234294725,3.237724376958795e-05,0.0872892439365387,0,0,0
14910,497866.2313656673,2010-08-25 08:39:46,2401.197988462399,2,41,0.550297200679779,3.90793514251709,44.13581871253263,43.70446931740806,175.18815610342594,160.56525234294725,9.713172767078504e-05,0.0872892439365387,0,0,0
14911,497896.24654720514,2010-08-25 08:40:16,2431.213169980181,2,41,0.5501165986061096,3.90906834602356,44.140405274182015,43.70446931740806,175.20608225287455,160.56525234294725,3.237724376958795e-05,0.0872892439365387,0,0,0
14912,497926.2617160111,2010-08-25 08:40:46,2461.2283387812704,2,41,0.5501165986061096,3.910201549530029,44.144991883017056,43.70446931740806,175.22401411972075,160.56525234294725,3.237724376958795e-05,0.0872892439365387,0,0,0
14913,497956.2770082199,2010-08-25 08:41:16,2491.243630999954,2,41,0.5501165986061096,3.911496639251709,44.14957852947458,43.70446931740806,175.241951583946,160.56525234294725,3.237724376958795e-05,0.0872892439365387,0,0,0
14914,497986.29218649445,2010-08-25 08:41:46,2521.2588092746537,2,41,0.5501165986061096,3.9127917289733887,44.15416508096765,43.70446931740806,175.25989429210813,160.56525234294725,6.47544875391759e-05,0.0872892439365387,0,0,0
14915,498016.3228561184,2010-08-25 08:42:16,2551.2894789186125,2,41,0.5499359965324402,3.913762807846069,44.15875402082296,43.70446931740806,175.27785196924725,160.56525234294725,0.0,0.0872892439365387,0,0,0
14916,498046.33803575154,2010-08-25 08:42:46,2581.3046585216234,2,41,0.5501165986061096,3.915057897567749,44.163340615706126,43.70446931740806,175.29580627519934,160.56525234294725,0.0,0.0872892439365387,0,0,0
14917,498076.3531947783,2010-08-25 08:43:16,2611.319817553364,2,41,0.5501165986061096,3.916514873504639,44.16792719407266,43.70446931740806,175.31376615454133,160.56525234294725,6.47544875391759e-05,0.0872892439365387,0,0,0
14918,498106.36839302775,2010-08-25 08:43:46,2641.335015802847,2,41,0.550297200679779,3.917648077011109,44.17251373331308,43.70446931740806,175.3317318397259,160.56525234294725,0.0,0.0872892439365387,0,0,0
14919,498136.3835275986,2010-08-25 08:44:16,2671.350150373624,2,41,0.5499359965324402,3.918943166732788,44.177100323662685,43.70446931740806,175.3497037059381,160.56525234294725,3.237724376958795e-05,0.0872892439365387,0,0,0
14920,498166.3987036226,2010-08-25 08:44:46,2701.3653263977144,2,41,0.5501165986061096,3.9204001426696777,44.1816868907639,43.70446931740806,175.36768155351044,160.56525234294725,6.47544875391759e-05,0.0872892439365387,0,0,0
14921,498196.41386501526,2010-08-25 08:45:16,2731.3804877853263,2,41,0.5501165986061096,3.921533346176148,44.18627353131899,43.70446931740806,175.38566575079165,160.56525234294725,0.0,0.0872892439365387,0,0,0
14922,498226.4292645213,2010-08-25 08:45:46,2761.395887296416,2,41,0.550297200679779,3.923152208328247,44.1908601881418,43.70446931740806,175.40365614591263,160.56525234294725,6.47544875391759e-05,0.0872892439365387,0,0,0
14923,498256.4443559245,2010-08-25 08:46:16,2791.4109787046177,2,41,0.5501165986061096,3.924285411834717,44.19544677506059,43.70446931740806,175.4216524308746,160.56525234294725,0.0,0.0872892439365387,0,0,0
14924,498286.45937572926,2010-08-25 08:46:46,2821.425998504349,2,41,0.5501165986061096,3.9257423877716064,44.20003334120711,43.70446931740806,175.43965497475128,160.56525234294725,3.237724376958795e-05,0.0872892439365387,0,0,0
14925,498316.4745738484,2010-08-25 08:47:16,2851.441196618496,2,41,0.5499359965324402,3.927037477493286,44.20461994999791,43.70446931740806,175.45766384996114,160.56525234294725,3.237724376958795e-05,0.0872892439365387,0,0,0
14926,498346.4897341633,2010-08-25 08:47:46,2881.4563569384463,2,41,0.5501165986061096,3.928494453430176,44.20920654300616,43.70446931740806,175.47567907500715,160.56525234294725,3.237724376958795e-05,0.0872892439365387,0,0,0
14927,498376.5048993705,2010-08-25 08:48:16,2911.471522145578,2,41,0.5499359965324402,3.9299514293670654,44.21379308851886,43.70446931740806,175.49370050682563,160.56525234294725,3.237724376958795e-05,0.0872892439365387,0,0,0
14928,498406.5200709936,2010-08-25 08:48:46,2941.4866937687007,2,41,0.5501165986061096,3.931246519088745,44.21837972920896,43.70446931740806,175.5117288346299,160.56525234294725,3.237724376958795e-05,0.0872892439365387,0,0,0
14929,498436.53522931854,2010-08-25 08:49:16,2971.501852088667,2,41,0.550297200679779,3.9328653812408447,44.222966386830855,43.70446931740806,175.52976370875538,160.56525234294725,3.237724376958795e-05,0.0872892439365387,0,0,0
14930,498466.5505480684,2010-08-25 08:49:46,3001.5171708484995,2,41,0.5501165986061096,3.934160470962525,44.22755302917274,43.70446931740806,175.54780510654922,160.56525234294725,3.237724376958795e-05,0.0872892439365387,0,0,0
14931,498496.5656982932,2010-08-25 08:50:16,3031.5323210732904,2,41,0.5501165986061096,3.935779333114624,44.23213963192585,43.70446931740806,175.56585296705848,160.56525234294725,9.713172767078504e-05,0.0872892439365387,0,0,0
14932,498526.58076029806,2010-08-25 08:50:46,3061.5473830731976,2,41,0.5499359965324402,3.937074422836304,44.23672631076782,43.70446931740806,175.58390769164072,160.56525234294725,6.47544875391759e-05,0.0872892439365387,0,0,0
14933,498556.5959270591,2010-08-25 08:51:16,3091.562549834202,2,41,0.5501165986061096,3.938531398773194,44.24131291644706,43.70446931740806,175.60196893323246,160.56525234294725,0.0,0.0872892439365387,0,0,0
14934,498586.6111156244,2010-08-25 08:51:46,3121.577738394537,2,41,0.5499359965324402,3.939988374710083,44.24589951462757,43.70446931740806,175.62003693925936,160.56525234294725,0.0,0.0872892439365387,0,0,0
14935,498616.62625831546,2010-08-25 08:52:16,3151.592881100589,2,41,0.5499359965324402,3.9414453506469727,44.25048605558823,43.70446931740806,175.638111616982,160.56525234294725,6.47544875391759e-05,0.0872892439365387,0,0,0
14936,498646.64143160766,2010-08-25 08:52:46,3181.6080543828466,2,41,0.5501165986061096,3.943064212799072,44.25507274068884,43.70446931740806,175.6561937807824,160.56525234294725,3.237724376958795e-05,0.0872892439365387,0,0,0
14937,498676.6565988751,2010-08-25 08:53:16,3211.623221650113,2,41,0.5499359965324402,3.944521188735962,44.25965938376887,43.70446931740806,175.67428280884,160.56525234294725,0.0,0.0872892439365387,0,0,0
14938,498706.67190216127,2010-08-25 08:53:46,3241.638524921342,2,41,0.5501165986061096,3.9461400508880615,44.26424602226476,43.70446931740806,175.69237898376372,160.56525234294725,3.237724376958795e-05,0.0872892439365387,0,0,0
14939,498736.6869637701,2010-08-25 08:54:16,3271.653586545313,2,41,0.5499359965324402,3.947758913040161,44.26883262384543,43.70446931740806,175.7104820874958,160.56525234294725,6.47544875391759e-05,0.0872892439365387,0,0,0
14940,498766.7025085033,2010-08-25 08:54:46,3301.669131303402,2,41,0.5501165986061096,3.9493777751922607,44.27341931317951,43.70446931740806,175.72859284756328,160.56525234294725,6.47544875391759e-05,0.0872892439365387,0,0,0
14941,498796.7172795029,2010-08-25 08:55:16,3331.683902272973,2,41,0.5499359965324402,3.95099663734436,44.27800582539948,43.70446931740806,175.74671028646696,160.56525234294725,3.237724376958795e-05,0.0872892439365387,0,0,0
14942,498826.73245638405,2010-08-25 08:55:46,3361.6990791592125,2,41,0.5501165986061096,3.95261549949646,44.282592475053725,43.70446931740806,175.76483569531,160.56525234294725,6.47544875391759e-05,0.0872892439365387,0,0,0
14943,498856.747615897,2010-08-25 08:56:16,3391.7142386771648,2,41,0.5501165986061096,3.95423436164856,44.28717910243594,43.70446931740806,175.78296860314114,160.56525234294725,3.237724376958795e-05,0.0872892439365387,0,0,0
14944,498886.7627945728,2010-08-25 08:56:46,3421.7294173428395,2,41,0.5501165986061096,3.955853223800659,44.291765776433714,43.70446931740806,175.80110939228052,160.56525234294725,3.237724376958795e-05,0.0872892439365387,0,0,0
14945,498916.77795432624,2010-08-25 08:57:16,3451.7445771013918,2,41,0.5501165986061096,3.9576339721679688,44.296352448452495,43.70446931740806,175.81925787542488,160.56525234294725,6.47544875391759e-05,0.0872892439365387,0,0,0
14946,498946.79315427,2010-08-25 08:57:46,3481.7597770400844,2,41,0.5501165986061096,3.9594147205352783,44.30093914448487,43.70446931740806,175.83741436545483,160.56525234294725,3.237724376958795e-05,0.0872892439365387,0,0,0
14947,498976.8084243034,2010-08-25 08:58:16,3511.775047078488,2,41,0.550297200679779,3.961195468902588,44.30552584749432,43.70446931740806,175.8555788375808,160.56525234294725,3.237724376958795e-05,0.0872892439365387,0,0,0
14948,499006.8234684889,2010-08-25 08:58:46,3541.790091269009,2,41,0.550297200679779,3.962814331054688,44.31011253152037,43.70446931740806,175.87375133734878,160.56525234294725,3.237724376958795e-05,0.0872892439365387,0,0,0
14949,499036.8387916597,2010-08-25 08:59:16,3571.805414434822,2,41,0.5501165986061096,3.964595079421997,44.31469923670091,43.70446931740806,175.89193218096582,160.56525234294725,-3.237724376958795e-05,0.0872892439365387,0,0,0
14950,499066.85381825134,2010-08-25 08:59:46,3601.8204410465314,2,41,0.5499359965324402,3.966375827789306,44.319285830424064,43.70446931740806,175.91012087108493,160.56525234294725,0.0,0.0872892439365387,0,0,0
14951,499096.8690277639,2010-08-25 09:00:16,3631.835650539036,2,41,0.550297200679779,3.968480348587036,44.32387255049582,43.70446931740806,175.9283184000352,160.56525234294725,6.47544875391759e-05,0.0872892439365387,0,0,0
14952,499126.88428125606,2010-08-25 09:00:46,3661.8509040362137,2,41,0.5501165986061096,3.9702610969543457,44.32845926360073,43.70446931740806,175.94652431935305,160.56525234294725,6.47544875391759e-05,0.0872892439365387,0,0,0
14953,499156.8993444189,2010-08-25 09:01:16,3691.865967199019,2,41,0.5501165986061096,3.9720418453216553,44.33304600443255,43.70446931740806,175.9647389932253,160.56525234294725,3.237724376958795e-05,0.0872892439365387,0,0,0
14954,499186.9145114957,2010-08-25 09:01:46,3721.8811342657855,2,41,0.5501165986061096,3.973984479904175,44.33763275190167,43.70446931740806,175.98296236999184,160.56525234294725,3.237724376958795e-05,0.0872892439365387,0,0,0
14955,499216.9296701766,2010-08-25 09:02:16,3751.896292966702,2,41,0.5499359965324402,3.9759271144866943,44.342218984109806,43.70446931740806,176.00119238444742,160.56525234294725,3.237724376958795e-05,0.0872892439365387,0,0,0
14956,499246.9448251733,2010-08-25 09:02:46,3781.911447943336,2,41,0.5499359965324402,3.977707862854004,44.34680459452562,43.70446931740806,176.01942863234692,160.56525234294725,3.237724376958795e-05,0.0872892439365387,0,0,0
14957,499276.9606177741,2010-08-25 09:03:16,3811.927240659412,2,41,0.5499359965324402,3.979812383651733,44.35139019587459,43.70446931740806,176.03767325147174,160.56525234294725,6.47544875391759e-05,0.0872892439365387,0,0,0
14958,499306.9752130808,2010-08-25 09:03:46,3841.9418358508897,2,41,0.5499359965324402,3.981593132019043,44.35597555305189,43.70446931740806,176.0559262427392,160.56525234294725,0.0,0.0872892439365387,0,0,0
14959,499336.9903702178,2010-08-25 09:04:16,3871.9569929929207,2,41,0.550297200679779,3.983697652816773,44.36056165396654,43.70446931740806,176.07419123717423,160.56525234294725,3.237724376958795e-05,0.0872892439365387,0,0,0
14960,499367.005669439,2010-08-25 09:04:47,3901.972292219069,2,41,0.5501165986061096,3.985640287399292,44.36514817662152,43.70446931740806,176.0924669385451,160.56525234294725,6.47544875391759e-05,0.0872892439365387,0,0,0
14961,499397.0208569618,2010-08-25 09:05:17,3931.9874797368057,2,41,0.5501165986061096,3.987582921981812,44.369734741362805,43.70446931740806,176.11075183760664,160.56525234294725,6.47544875391759e-05,0.0872892439365387,0,0,0
14962,499427.0361479623,2010-08-25 09:05:47,3962.0027707324407,2,41,0.5501165986061096,3.989687442779541,44.37432130564146,43.70446931740806,176.1290457470095,160.56525234294725,6.47544875391759e-05,0.0872892439365387,0,0,0
14963,499457.0510888304,2010-08-25 09:06:17,3992.0177116906752,2,41,0.5501165986061096,3.991630077362061,44.378907868652895,43.70446931740806,176.14734889793104,160.56525234294725,3.237724376958795e-05,0.0872892439365387,0,0,0
14964,499487.0661904641,2010-08-25 09:06:47,4022.032813264213,2,41,0.5501165986061096,3.99357271194458,44.38349445349106,43.70446931740806,176.1656613967451,160.56525234294725,3.237724376958795e-05,0.0872892439365387,0,0,0
14965,499517.081366052,2010-08-25 09:07:17,4052.0479888271534,2,41,0.5501165986061096,3.9956769943237305,44.38808101544844,43.70446931740806,176.18398322576002,160.56525234294725,3.237724376958795e-05,0.0872892439365387,0,0,0
14966,499547.0965561462,2010-08-25 09:07:47,4082.0631789413615,2,41,0.5501165986061096,3.99761962890625,44.39266756393019,43.70446931740806,176.20231438946342,160.56525234294725,3.237724376958795e-05,0.0872892439365387,0,0,0
14967,499577.1117501852,2010-08-25 09:08:17,4112.078372960301,2,41,0.550297200679779,3.9998860359191895,44.39725413773738,43.70446931740806,176.22065501674783,160.56525234294725,6.47544875391759e-05,0.0872892439365387,0,0,0
14968,499607.126879147,2010-08-25 09:08:47,4142.093501917086,2,41,0.5501165986061096,4.001990795135498,44.401840625017975,43.70446931740806,176.23900491992208,160.56525234294725,9.71794142969884e-05,0.0872892439365387,0,0,0
14969,499637.14204419375,2010-08-25 09:09:17,4172.108666973842,2,41,0.5501165986061096,4.003933429718018,44.40642715089537,43.70446931740806,176.25736461640471,160.56525234294725,3.24249267578125e-05,0.0872892439365387,0,0,0
14970,499667.157355891,2010-08-25 09:09:47,4202.123978640998,2,41,0.5501165986061096,4.006199836730957,44.41101371897712,43.70446931740806,176.27573422717754,160.56525234294725,3.24249267578125e-05,0.0872892439365387,0,0,0
14971,499697.1723900816,2010-08-25 09:10:17,4232.139012856658,2,41,0.550297200679779,4.0084662437438965,44.41560024964226,43.70446931740806,176.29411356839256,160.56525234294725,9.71794142969884e-05,0.0872892439365387,0,0,0
14972,499727.18755440647,2010-08-25 09:10:47,4262.154177176579,2,41,0.5501165986061096,4.010408878326416,44.42018672815243,43.70446931740806,176.31250252979672,160.56525234294725,6.47544875391759e-05,0.0872892439365387,0,0,0
14973,499757.2026911877,2010-08-25 09:11:17,4292.169313957865,2,41,0.5501165986061096,4.012675285339356,44.42477327009421,43.70446931740806,176.33090185589882,160.56525234294725,3.24249267578125e-05,0.0872892439365387,0,0,0
14974,499787.21790779807,2010-08-25 09:11:47,4322.1845305781335,2,41,0.550297200679779,4.014941692352295,44.42935978509484,43.70446931740806,176.34931120647676,160.56525234294725,6.47544875391759e-05,0.0872892439365387,0,0,0
14975,499817.23304459936,2010-08-25 09:12:17,4352.199667374456,2,41,0.5501165986061096,4.017369747161865,44.433946163426285,43.70446931740806,176.36773023056588,160.56525234294725,9.70840483205393e-05,0.0872892439365387,0,0,0
14976,499847.24825763074,2010-08-25 09:12:47,4382.214880405781,2,41,0.550297200679779,4.019312381744385,44.43853279639241,43.70446931740806,176.38616063208116,160.56525234294725,3.23295607813634e-05,0.0872892439365387,0,0,0
14977,499877.26392730005,2010-08-25 09:13:17,4412.230550070175,2,41,0.5501165986061096,4.021740913391113,44.443119358139455,43.70446931740806,176.4046010779078,160.56525234294725,3.24249267578125e-05,0.0872892439365387,0,0,0
14978,499907.27862130286,2010-08-25 09:13:47,4442.245244082946,2,41,0.550297200679779,4.024168968200684,44.447705796625655,43.70446931740806,176.4230515764506,160.56525234294725,6.47544875391759e-05,0.0872892439365387,0,0,0
14979,499937.29389958177,2010-08-25 09:14:17,4472.260522361887,2,41,0.5499359965324402,4.026273727416992,44.45229237355471,43.70446931740806,176.44151327579178,160.56525234294725,3.24249267578125e-05,0.0872892439365387,0,0,0
14980,499967.3089365593,2010-08-25 09:14:47,4502.275559334418,2,41,0.5501165986061096,4.028863906860352,44.45687888264093,43.70446931740806,176.45998546988085,160.56525234294725,9.71794142969884e-05,0.0872892439365387,0,0,0
14981,499997.32415037765,2010-08-25 09:15:17,4532.290773152703,2,41,0.5501165986061096,4.030968189239502,44.46146547861041,43.70446931740806,176.47846882620365,160.56525234294725,6.47544875391759e-05,0.0872892439365387,0,0,0
14982,500027.3392951388,2010-08-25 09:15:47,4562.305917913877,2,41,0.550297200679779,4.033558368682861,44.466052049039966,43.70446931740806,176.49696309404484,160.56525234294725,9.70840483205393e-05,0.0872892439365387,0,0,0
14983,500057.3544486467,2010-08-25 09:16:17,4592.321071421851,2,41,0.5499359965324402,4.035824775695801,44.47063859705381,43.70446931740806,176.5154683583379,160.56525234294725,6.47544875391759e-05,0.0872892439365387,0,0,0
14984,500087.3696144554,2010-08-25 09:16:47,4622.336237230483,2,41,0.550297200679779,4.038252830505371,44.47522519813133,43.70446931740806,176.53398509619527,160.56525234294725,3.23295607813634e-05,0.0872892439365387,0,0,0
14985,500117.38478295074,2010-08-25 09:17:17,4652.351405725809,2,41,0.550297200679779,4.0406813621521,44.47981177701404,43.70446931740806,176.55251304130272,160.56525234294725,3.24249267578125e-05,0.0872892439365387,0,0,0
14986,500147.40017742425,2010-08-25 09:17:47,4682.366800194331,2,41,0.5499359965324402,4.04310941696167,44.48439831448424,43.70446931740806,176.571052185202,160.56525234294725,3.23295607813634e-05,0.0872892439365387,0,0,0
14987,500177.4151580964,2010-08-25 09:18:17,4712.381780906645,2,41,0.5501165986061096,4.045861721038818,44.48898488481582,43.70446931740806,176.5896030106632,160.56525234294725,9.71794142969884e-05,0.0872892439365387,0,0,0
14988,500207.4303231432,2010-08-25 09:18:47,4742.3969459283135,2,41,0.5501165986061096,4.048451900482178,44.49357142650332,43.70446931740806,176.60816534670627,160.56525234294725,6.47544875391759e-05,0.0872892439365387,0,0,0
14989,500237.4454705961,2010-08-25 09:19:17,4772.412093371171,2,41,0.5501165986061096,4.051042079925537,44.49815804300124,43.70446931740806,176.6267397259265,160.56525234294725,9.71794142969884e-05,0.0872892439365387,0,0,0
14990,500267.46064768784,2010-08-25 09:19:47,4802.427270467935,2,41,0.5501165986061096,4.0536322593688965,44.502744604495845,43.70446931740806,176.64532562167014,160.56525234294725,6.47544875391759e-05,0.0872892439365387,0,0,0
14991,500297.475816128,2010-08-25 09:20:17,4832.4424388981,2,41,0.5501165986061096,4.056222438812256,44.50733121633199,43.70446931740806,176.66392369701168,160.56525234294725,9.71794142969884e-05,0.0872892439365387,0,0,0
14992,500327.4911001312,2010-08-25 09:20:47,4862.457722911333,2,41,0.5501165986061096,4.058812618255615,44.511917863724456,43.70446931740806,176.68253401114669,160.56525234294725,9.71794142969884e-05,0.0872892439365387,0,0,0
14993,500357.5061456752,2010-08-25 09:21:17,4892.472768455227,2,41,0.5499359965324402,4.061402797698975,44.51650446410198,43.70446931740806,176.7011561296535,160.56525234294725,9.71794142969884e-05,0.0872892439365387,0,0,0
14994,500387.5215750055,2010-08-25 09:21:47,4922.488197820722,2,41,0.5504778623580933,4.064154624938965,44.52109107165382,43.70446931740806,176.71979043867947,160.56525234294725,9.70840483205393e-05,0.0872892439365387,0,0,0
14995,500417.5365050465,2010-08-25 09:22:17,4952.503127821648,2,41,0.5501165986061096,4.066744804382324,44.52567759389282,43.70446931740806,176.73843680469133,160.56525234294725,3.23295607813634e-05,0.0872892439365387,0,0,0
14996,500447.5516521135,2010-08-25 09:22:47,4982.518274893581,2,41,0.550297200679779,4.069658756256104,44.53026409662159,43.70446931740806,176.75709555943328,160.56525234294725,9.70840483205393e-05,0.0872892439365387,0,0,0
14997,500477.5668317616,2010-08-25 09:23:17,5012.533454541704,2,41,0.5501165986061096,4.072411060333252,44.53485069032577,43.70446931740806,176.77576728062297,160.56525234294725,9.71794142969884e-05,0.0872892439365387,0,0,0
14998,500507.5820045977,2010-08-25 09:23:47,5042.548627382861,2,41,0.550297200679779,4.075001239776611,44.53943726952689,43.70446931740806,176.7944517351369,160.56525234294725,6.47544875391759e-05,0.0872892439365387,0,0,0
14999,500537.5972688968,2010-08-25 09:24:17,5072.563891696999,2,41,0.5501165986061096,4.077915191650391,44.54402390122251,43.70446931740806,176.8131492554305,160.56525234294725,6.47544875391759e-05,0.0872892439365387,0,0,0
15000,500567.6123628113,2010-08-25 09:24:47,5102.578985606435,2,41,0.5501165986061096,4.080667018890381,44.548610453455694,43.70446931740806,176.8318594685699,160.56525234294725,3.23295607813634e-05,0.0872892439365387,0,0,0
15001,500597.6275353266,2010-08-25 09:25:17,5132.594158096717,2,41,0.5501165986061096,4.08358097076416,44.55319700104128,43.70446931740806,176.85058267917498,160.56525234294725,3.23295607813634e-05,0.0872892439365387,0,0,0
15002,500627.6428291293,2010-08-25 09:25:47,5162.609451904362,2,41,0.5501165986061096,4.08649492263794,44.55778357719464,43.70446931740806,176.8693191898442,160.56525234294725,3.23295607813634e-05,0.0872892439365387,0,0,0
15003,500657.6578550742,2010-08-25 09:26:17,5192.624477844397,2,41,0.550297200679779,4.089570999145508,44.562370085486855,43.70446931740806,176.8880687281292,160.56525234294725,9.71794142969884e-05,0.0872892439365387,0,0,0
15004,500687.6731843754,2010-08-25 09:26:47,5222.639807155526,2,41,0.5501165986061096,4.092484951019287,44.56695670200997,43.70446931740806,176.90683221572073,160.56525234294725,0.0001295089750783,0.0872892439365387,0,0,0
15005,500717.68831772817,2010-08-25 09:27:17,5252.654940508267,2,41,0.5501165986061096,4.095398902893066,44.57154325058572,43.70446931740806,176.92560902868937,160.56525234294725,6.47544875391759e-05,0.0872892439365387,0,0,0
15006,500747.70336599386,2010-08-25 09:27:47,5282.669988773944,2,41,0.5501165986061096,4.098474502563477,44.576129822281615,43.70446931740806,176.94439964979185,160.56525234294725,9.70840483205393e-05,0.0872892439365387,0,0,0
15007,500777.7185330055,2010-08-25 09:28:17,5312.68515578056,2,41,0.5501165986061096,4.101550579071045,44.580716472392375,43.70446931740806,176.96320437933653,160.56525234294725,9.71794142969884e-05,0.0872892439365387,0,0,0
15008,500807.7338345474,2010-08-25 09:28:47,5342.700457347543,2,41,0.5501165986061096,4.104626178741455,44.58530304735395,43.70446931740806,176.9820226774344,160.56525234294725,9.70840483205393e-05,0.0872892439365387,0,0,0
15009,500837.7488992039,2010-08-25 09:29:17,5372.715521984022,2,41,0.5501165986061096,4.107540130615234,44.589889586962286,43.70446931740806,177.00085495072707,160.56525234294725,6.47544875391759e-05,0.0872892439365387,0,0,0
15010,500867.7640557745,2010-08-25 09:29:47,5402.730678549616,2,41,0.5501165986061096,4.110777854919434,44.59447612342396,43.70446931740806,177.01970142443307,160.56525234294725,0.0001295089750783,0.0872892439365387,0,0,0
15011,500897.7793248104,2010-08-25 09:30:17,5432.745947580508,2,41,0.550297200679779,4.113853931427002,44.59906271788757,43.70446931740806,177.0385624799942,160.56525234294725,0.0001295089750783,0.0872892439365387,0,0,0
15012,500927.7944582383,2010-08-25 09:30:47,5462.761081038511,2,41,0.5501165986061096,4.116929531097412,44.60364932448574,43.70446931740806,177.0574380657872,160.56525234294725,9.71794142969884e-05,0.0872892439365387,0,0,0
15013,500957.8095550049,2010-08-25 09:31:17,5492.776177790031,2,41,0.5499359965324402,4.120005130767822,44.60823588108807,43.70446931740806,177.07632804424625,160.56525234294725,6.47544875391759e-05,0.0872892439365387,0,0,0
15014,500987.8247415001,2010-08-25 09:31:47,5522.7913642701815,2,41,0.5501165986061096,4.1234049797058105,44.61282242547702,43.70446931740806,177.0952326685866,160.56525234294725,9.71794142969884e-05,0.0872892439365387,0,0,0
15015,501017.8399416192,2010-08-25 09:32:17,5552.806564394336,2,41,0.550297200679779,4.12664270401001,44.61740895679936,43.70446931740806,177.11415207437227,160.56525234294725,9.71794142969884e-05,0.0872892439365387,0,0,0
15016,501047.85523079534,2010-08-25 09:32:47,5582.8218535754495,2,41,0.5501165986061096,4.12971830368042,44.62199550194439,43.70446931740806,177.13308649808116,160.56525234294725,6.47544875391759e-05,0.0872892439365387,0,0,0
15017,501077.8702393671,2010-08-25 09:33:17,5612.836862147198,2,41,0.5501165986061096,4.133118152618408,44.62658207370725,43.70446931740806,177.15203612199122,160.56525234294725,6.47544875391759e-05,0.0872892439365387,0,0,0
15018,501107.8854290251,2010-08-25 09:33:47,5642.852051800256,2,41,0.550297200679779,4.136679649353027,44.631168632765615,43.70446931740806,177.1710008510638,160.56525234294725,9.71794142969884e-05,0.0872892439365387,0,0,0
15019,501137.9005912398,2010-08-25 09:34:17,5672.867214019942,2,41,0.5499359965324402,4.139917373657227,44.63575525035402,43.70446931740806,177.18998123647714,160.56525234294725,6.47544875391759e-05,0.0872892439365387,0,0,0
15020,501167.91574665246,2010-08-25 09:34:47,5702.882369422638,2,41,0.5501165986061096,4.143155097961426,44.640341847789486,43.70446931740806,177.20897715238272,160.56525234294725,6.47544875391759e-05,0.0872892439365387,0,0,0
15021,501197.9310570315,2010-08-25 09:35:17,5732.897679811607,2,41,0.5499359965324402,4.146716594696045,44.64492851001819,43.70446931740806,177.22798915328312,160.56525234294725,6.47544875391759e-05,0.0872892439365387,0,0,0
15022,501227.946105242,2010-08-25 09:35:47,5762.912728017134,2,41,0.5501165986061096,4.150439739227295,44.64951503066463,43.70446931740806,177.24701648759992,160.56525234294725,0.0001295089750783,0.0872892439365387,0,0,0
15023,501257.9612893261,2010-08-25 09:36:17,5792.92791211134,2,41,0.550297200679779,4.153839588165283,44.6541016360285,43.70446931740806,177.26606011423507,160.56525234294725,9.71794142969884e-05,0.0872892439365387,0,0,0
15024,501287.9764364583,2010-08-25 09:36:48,5822.94305923841,2,41,0.5501165986061096,4.157238960266113,44.65868821762571,43.70446931740806,177.2851196332891,160.56525234294725,6.47544875391759e-05,0.0872892439365387,0,0,0
15025,501317.9917762756,2010-08-25 09:37:18,5852.958399055723,2,41,0.5501165986061096,4.160800457000732,44.66327477041693,43.70446931740806,177.30419538016068,160.56525234294725,9.70840483205393e-05,0.0872892439365387,0,0,0
15026,501348.0069187111,2010-08-25 09:37:48,5882.973541481076,2,41,0.5501165986061096,4.164361953735352,44.66786131580448,43.70446931740806,177.32328749895828,160.56525234294725,9.70840483205393e-05,0.0872892439365387,0,0,0
15027,501378.0220764044,2010-08-25 09:38:18,5912.988699184506,2,41,0.5501165986061096,4.16808557510376,44.67244787478977,43.70446931740806,177.34239614528303,160.56525234294725,9.71794142969884e-05,0.0872892439365387,0,0,0
15028,501408.03711754736,2010-08-25 09:38:48,5943.0037403424685,2,41,0.5501165986061096,4.171647071838379,44.67703446128782,43.70446931740806,177.36152161357865,160.56525234294725,6.47544875391759e-05,0.0872892439365387,0,0,0
15029,501438.0524074202,2010-08-25 09:39:18,5973.019030190243,2,41,0.5501165986061096,4.175370216369629,44.68162110272863,43.70446931740806,177.3806640940727,160.56525234294725,0.0001295089750783,0.0872892439365387,0,0,0
15030,501468.0674776556,2010-08-25 09:39:48,6003.0341004357015,2,41,0.5501165986061096,4.179093837738037,44.68620760551413,43.70446931740806,177.39982291659285,160.56525234294725,9.71794142969884e-05,0.0872892439365387,0,0,0
15031,501498.0826277601,2010-08-25 09:40:18,6033.049250520143,2,41,0.5499359965324402,4.182816982269287,44.6907939954585,43.70446931740806,177.41899834450984,160.56525234294725,0.0001295089750783,0.0872892439365387,0,0,0
15032,501528.09793124686,2010-08-25 09:40:48,6063.064554021948,2,41,0.5499359965324402,4.186378479003906,44.69537954793163,43.70446931740806,177.4381873922029,160.56525234294725,6.47544875391759e-05,0.0872892439365387,0,0,0
15033,501558.1130098281,2010-08-25 09:41:18,6093.079632598167,2,41,0.5501165986061096,4.190425872802734,44.6999652349134,43.70446931740806,177.45739442196756,160.56525234294725,9.71794142969884e-05,0.0872892439365387,0,0,0
15034,501588.1283046683,2010-08-25 09:41:48,6123.094927423348,2,41,0.5501165986061096,4.194311141967773,44.70455177269096,43.70446931740806,177.47662260935633,160.56525234294725,0.0001295089750783,0.0872892439365387,0,0,0
15035,501618.14334151056,2010-08-25 09:42:18,6153.109964290617,2,41,0.550297200679779,4.198195934295654,44.70913823601121,43.70446931740806,177.49586811846538,160.56525234294725,0.0001295089750783,0.0872892439365387,0,0,0
15036,501632.3462821338,2010-08-25 09:42:32,6167.312904913785,2,41,0.550297200679779,4.200138568878174,44.71130854778781,43.70446931740806,177.5049813106789,160.56525234294725,0.0001618385285837,0.0872892439365387,0,0,0
15037,501662.3718968675,2010-08-25 09:43:02,30.015125758814275,3,41,0.0,4.121786117553711,44.71130854778781,43.70446931740806,177.5049813106789,160.56525234294725,-0.0003885269106831,0.0872892439365387,0,0,0
15038,501692.387196234,2010-08-25 09:43:32,60.03042512531231,3,41,0.0,4.112072944641113,44.71130854778781,43.70446931740806,177.5049813106789,160.56525234294725,-0.0001619339018361,0.0872892439365387,0,0,0
15039,501722.402273517,2010-08-25 09:44:02,90.04550239327246,3,41,0.0,4.106245040893555,44.71130854778781,43.70446931740806,177.5049813106789,160.56525234294725,-0.0001295089750783,0.0872892439365387,0,0,0
15040,501752.37053789286,2010-08-25 09:44:32,120.01376675907646,3,41,0.0,4.102198123931885,44.71130854778781,43.70446931740806,177.5049813106789,160.56525234294725,-9.70840483205393e-05,0.0872892439365387,0,0,0
15041,501752.38289195305,2010-08-25 09:44:32,2.476171381e-06,4,41,1.0054326057434082,4.199814796447754,44.71130854847937,43.70446931740806,177.50498131358333,160.56525234294725,0.0,0.0872892439365387,0,0,0
15042,501753.32022877486,2010-08-25 09:44:33,0.937339317992535,4,41,0.9552232027053832,4.199814796447754,44.71156236610404,43.70446931740806,177.5060472808742,160.56525234294725,0.0,0.0872892439365387,0,0,0
15043,501755.39831737103,2010-08-25 09:44:35,3.015427914186125,4,41,0.9050138592720032,4.199814796447754,44.71209814089985,43.70446931740806,177.508297392752,160.56525234294725,0.0,0.0872892439365387,0,0,0
15044,501758.49201334827,2010-08-25 09:44:38,6.109123896480459,4,41,0.8548044562339783,4.199814796447754,44.71285327319275,43.70446931740806,177.51146875272417,160.56525234294725,0.0,0.0872892439365387,0,0,0
15045,501762.632601904,2010-08-25 09:44:42,10.249712447176035,4,41,0.8045951128005981,4.199653148651123,44.713806628749765,43.70446931740806,177.51547260906747,160.56525234294725,0.0,0.0872892439365387,0,0,0
15046,501767.9450307613,2010-08-25 09:44:48,15.562141309494432,4,41,0.7545663118362427,4.199814796447754,44.714955784144,43.70446931740806,177.52029878460135,160.56525234294725,0.0,0.0872892439365387,0,0,0
15047,501774.6949599217,2010-08-25 09:44:54,22.312070489913324,4,41,0.7043569087982178,4.199976921081543,44.71632150579355,43.70446931740806,177.526034492119,160.56525234294725,3.24249267578125e-05,0.0872892439365387,0,0,0
15048,501783.4291410335,2010-08-25 09:45:03,31.046251571609243,4,41,0.6543281674385071,4.199653148651123,44.71796688657147,43.70446931740806,177.53294468565446,160.56525234294725,-3.23295607813634e-05,0.0872892439365387,0,0,0
15049,501795.2727129037,2010-08-25 09:45:15,42.88982344188593,4,41,0.6042994260787964,4.199653148651123,44.72003343894776,43.70446931740806,177.54162374141617,160.56525234294725,-6.47544875391759e-05,0.0872892439365387,0,0,0
15050,501812.52247895335,2010-08-25 09:45:32,60.13958949150189,4,41,0.5542706251144409,4.199653148651123,44.72280208560211,43.70446931740806,177.55325144019127,160.56525234294725,-3.23295607813634e-05,0.0872892439365387,0,0,0
15051,501839.5220603427,2010-08-25 09:45:59,87.13917089091274,4,41,0.5042418837547302,4.199976921081543,44.72675702211398,43.70446931740806,177.56986130865516,160.56525234294725,3.24249267578125e-05,0.0872892439365387,0,0,0
15052,501885.3182295676,2010-08-25 09:46:45,132.93534011575002,4,41,0.4540324807167053,4.199491024017334,44.73282956661178,43.70446931740806,177.59536465892378,160.56525234294725,-6.47544875391759e-05,0.0872892439365387,0,0,0
15053,501960.8014644595,2010-08-25 09:48:01,208.41857500269904,4,41,0.4040037095546722,4.199653148651123,44.74179750897781,43.70446931740806,177.63302802007516,160.56525234294725,-3.23295607813634e-05,0.0872892439365387,0,0,0
15054,502062.1905589848,2010-08-25 09:49:42,309.8076695379253,4,41,0.3539749383926391,4.199653148651123,44.75245316429523,43.70446931740806,177.67777947053042,160.56525234294725,0.0,0.0872892439365387,0,0,0
15055,502188.3917728458,2010-08-25 09:51:48,436.0088833889848,4,41,0.3039461672306061,4.199653148651123,44.76396979947226,43.70446931740806,177.7261468281164,160.56525234294725,-3.23295607813634e-05,0.0872892439365387,0,0,0
15056,502339.4676063428,2010-08-25 09:54:19,587.0847168909436,4,41,0.253917396068573,4.199653148651123,44.77564960054183,43.70446931740806,177.77519944908883,160.56525234294725,-3.23295607813634e-05,0.0872892439365387,0,0,0
15057,502525.6679221322,2010-08-25 09:57:25,773.2850326802956,4,41,0.2038886249065399,4.199653148651123,44.78745126893851,43.70446931740806,177.8247638752341,160.56525234294725,-3.23295607813634e-05,0.0872892439365387,0,0,0
15058,502768.5236321213,2010-08-25 10:01:28,1016.1407426644098,4,41,0.1538598537445068,4.199653148651123,44.799454581790414,43.70446931740806,177.87517512617856,160.56525234294725,0.0,0.0872892439365387,0,0,0
15059,503118.6277169198,2010-08-25 10:07:18,1366.2448274630617,4,41,0.1038310900330543,4.199653148651123,44.81185245011472,43.70446931740806,177.92724339269878,160.56525234294725,-3.23295607813634e-05,0.0872892439365387,0,0,0
15060,503744.2276340808,2010-08-25 10:17:44,1991.8447446239088,4,41,0.0538023225963115,4.199653148651123,44.825103457205046,43.70446931740806,177.9828947997511,160.56525234294725,-6.47544875391759e-05,0.0872892439365387,0,0,0
15061,503823.6639208343,2010-08-25 10:19:03,2071.2810313724203,4,41,0.0498289167881011,4.199653148651123,44.82625706569941,43.70446931740806,177.98773969773026,160.56525234294725,0.0,0.0872892439365387,0,0,0
15062,503853.6914942927,2010-08-25 10:19:34,30.015161788611618,5,41,0.0,4.192530155181885,44.82625706569941,43.70446931740806,177.98773969773026,160.56525234294725,-6.47544875391759e-05,0.0872892439365387,0,0,0
15063,503883.691056758,2010-08-25 10:20:04,60.01472426393473,5,41,0.0,4.191235065460205,44.82625706569941,43.70446931740806,177.98773969773026,160.56525234294725,-3.24249267578125e-05,0.0872892439365387,0,0,0
15064,503883.87645989575,2010-08-25 10:20:04,0.187726411980629,6,41,-1.9243103452026844e-05,4.191235065460205,44.82625706569941,43.70446931841152,177.98773969773026,160.56525234715295,0.0,0.0906857252120971,0,0,0
15065,503888.70439824864,2010-08-25 10:20:09,5.015664759863044,6,41,0.0007031940040178,4.191235065460205,44.82625803791044,43.70446931857728,177.98774377263246,160.56525234784766,-3.24249267578125e-05,0.0906857252120971,0,0,0
15066,503918.7172379563,2010-08-25 10:20:39,30.015181046608472,7,41,-1.0997490882873535,4.028054237365723,44.82625803791044,43.71363726142928,177.98774377263246,160.60236902294182,-0.0008742332574911,0.0906857252120971,0,0,0
15067,503948.73254888674,2010-08-25 10:21:09,60.030491956877135,7,41,-1.099568486213684,4.002638339996338,44.82625803791044,43.72280519294984,177.98774377263246,160.6391726282977,-0.0005827903514727,0.0906857252120971,0,0,0
15068,503978.74757488177,2010-08-25 10:21:39,90.04551794202476,7,41,-1.099568486213684,3.985316514968872,44.82625803791044,43.7319729965743,177.98774377263246,160.6757849521533,-0.0004209041653666,0.0906857252120971,0,0,0
15069,504008.7627419837,2010-08-25 10:22:09,120.06068504889107,7,41,-1.0993878841400146,3.971879959106445,44.82625803791044,43.74114079271624,177.98774377263246,160.71225777149428,-0.0003237724304199,0.0906857252120971,0,0,0
15070,504038.7780370895,2010-08-25 10:22:39,150.0759802650452,7,41,-1.099568486213684,3.960386037826538,44.82625803791044,43.75030861565824,177.98774377263246,160.74861778391866,-0.0002913951757363,0.0906857252120971,0,0,0
15071,504068.7932952333,2010-08-25 10:23:09,180.09123832359109,7,41,-1.0997490882873535,3.950187206268311,44.82625803791044,43.759476379346985,177.98774377263246,160.7848795145466,-0.0002913951757363,0.0906857252120971,0,0,0
15072,504098.8083849473,2010-08-25 10:23:39,210.1063280074956,7,41,-1.0997490882873535,3.9411215782165527,44.82625803791044,43.768644159356064,177.98774377263246,160.8210519699857,-0.0002266406954731,0.0906857252120971,0,0,0
15073,504128.8234306917,2010-08-25 10:24:09,240.12137375188937,7,41,-1.0997490882873535,3.932055950164795,44.82625803791044,43.77781191691948,177.98774377263246,160.8571408601363,-0.0002266406954731,0.0906857252120971,0,0,0
15074,504158.83859851526,2010-08-25 10:24:39,270.13654158055465,7,41,-1.0993878841400146,3.923637866973877,44.82625803791044,43.78697969596895,177.98774377263246,160.893150118132,-0.0001942634553415,0.0906857252120971,0,0,0
15075,504188.853910398,2010-08-25 10:25:09,300.1518534582343,7,41,-1.099568486213684,3.915219783782959,44.82625803791044,43.79614757876264,177.98774377263246,160.92908311237355,-0.0002266406954731,0.0906857252120971,0,0,0
15076,504218.8689504633,2010-08-25 10:25:39,330.1668935284864,7,41,-1.099568486213684,3.90728759765625,44.82625803791044,43.805315367328205,177.98774377263246,160.96494136747194,-0.0002266406954731,0.0906857252120971,0,0,0
15077,504248.88414215134,2010-08-25 10:26:09,360.1820852366668,7,41,-1.0993878841400146,3.899517059326172,44.82625803791044,43.81448318629284,177.98774377263246,161.00072693569092,-0.0002266406954731,0.0906857252120971,0,0,0
15078,504278.89947694616,2010-08-25 10:26:39,390.19742010163793,7,41,-1.099568486213684,3.891908407211304,44.82625803791044,43.82365104926681,177.98774377263246,161.036441524723,-0.0001942634553415,0.0906857252120971,0,0,0
15079,504308.91447726736,2010-08-25 10:27:09,420.2124203376106,7,41,-1.0993878841400146,3.884299755096436,44.82625803791044,43.83281878459992,177.98774377263246,161.07208585088102,-0.0001942634553415,0.0906857252120971,0,0,0
15080,504338.929632234,2010-08-25 10:27:39,450.2275752941947,7,41,-1.099568486213684,3.876852989196777,44.82625803791044,43.84198660224941,177.98774377263246,161.10766163940391,-0.0001618862152099,0.0906857252120971,0,0,0
15081,504368.9448019072,2010-08-25 10:28:09,480.2427449724699,7,41,-1.0997490882873535,3.869244337081909,44.82625803791044,43.85115448141208,177.98774377263246,161.1431698025161,-0.0002266406954731,0.0906857252120971,0,0,0
15082,504398.95997064817,2010-08-25 10:28:39,510.2579137083963,7,41,-1.0997490882873535,3.862121343612671,44.82625803791044,43.86032233841512,177.98774377263246,161.17861076080996,-0.0002266406954731,0.0906857252120971,0,0,0
15083,504428.9751516247,2010-08-25 10:29:09,540.27309468483,7,41,-1.099568486213684,3.8551602363586426,44.82625803791044,43.86949020434452,177.98774377263246,161.21398581508842,-0.0001618862152099,0.0906857252120971,0,0,0
15084,504458.9903346913,2010-08-25 10:29:39,570.2882777564854,7,41,-1.099568486213684,3.8481991291046143,44.82625803791044,43.87865813474859,177.98774377263246,161.24929613058944,-0.0001618862152099,0.0906857252120971,0,0,0
15085,504489.0054841792,2010-08-25 10:30:09,600.3034272394275,7,41,-1.099568486213684,3.841076135635376,44.82625803791044,43.88782594713215,177.98774377263246,161.2845419152788,-0.0001942634553415,0.0906857252120971,0,0,0
15086,504519.02078164095,2010-08-25 10:30:39,630.3187247011783,7,41,-1.099568486213684,3.8342769145965576,44.82625803791044,43.896993884465004,177.98774377263246,161.31972489736202,-0.0001618862152099,0.0906857252120971,0,0,0
15087,504549.0359876749,2010-08-25 10:31:09,660.3339307450877,7,41,-1.099568486213684,3.827639818191528,44.82625803791044,43.90616174750043,177.98774377263246,161.35484548424256,-0.0001295089750783,0.0906857252120971,0,0,0
15088,504579.0510065473,2010-08-25 10:31:39,690.3489496124957,7,41,-1.099568486213684,3.82100248336792,44.82625803791044,43.91532955915529,177.98774377263246,161.3899050137468,-0.0001618862152099,0.0906857252120971,0,0,0
15089,504609.0661718947,2010-08-25 10:32:09,720.3641149549647,7,41,-1.0997490882873535,3.814365148544312,44.82625803791044,43.92449735954133,177.98774377263246,161.42490456120447,-0.0001942634553415,0.0906857252120971,0,0,0
15090,504639.0813450016,2010-08-25 10:32:39,750.3792880868472,7,41,-1.0997490882873535,3.808051586151123,44.82625803791044,43.93366517727964,177.98774377263246,161.4598445458541,-0.0001942634553415,0.0906857252120971,0,0,0
15091,504669.0965442736,2010-08-25 10:33:09,780.3944873438415,7,41,-1.099568486213684,3.801738023757935,44.82625803791044,43.94283297569975,177.98774377263246,161.49472635606372,-0.0001618862152099,0.0906857252120971,0,0,0
15092,504699.1116958617,2010-08-25 10:33:39,810.4096389320307,7,41,-1.099568486213684,3.795586347579956,44.82625803791044,43.95200083015915,177.98774377263246,161.5295515077155,-0.0001618862152099,0.0906857252120971,0,0,0
15093,504729.1268802567,2010-08-25 10:34:09,840.4248233219716,7,41,-1.0997490882873535,3.7894346714019775,44.82625803791044,43.961168685598544,177.98774377263246,161.56432067415943,-0.0001942634553415,0.0906857252120971,0,0,0
15094,504759.1420353687,2010-08-25 10:34:39,870.439978433943,7,41,-1.099568486213684,3.783606767654419,44.82625803791044,43.97033658537573,177.98774377263246,161.59903496633046,-0.0001618862152099,0.0906857252120971,0,0,0
15095,504789.1572088916,2010-08-25 10:35:09,900.4551519568,7,41,-1.0997490882873535,3.7776169776916495,44.82625803791044,43.979504458548405,177.98774377263246,161.6336953682264,-0.0001618862152099,0.0906857252120971,0,0,0
15096,504819.1723763744,2010-08-25 10:35:39,930.4703194396034,7,41,-1.099568486213684,3.7719509601593018,44.82625803791044,43.98867240613941,177.98774377263246,161.66830305744332,-0.0001618862152099,0.0906857252120971,0,0,0
15097,504849.1875420276,2010-08-25 10:36:09,960.4854851179092,7,41,-1.0997490882873535,3.766284942626953,44.82625803791044,43.9978402125304,177.98774377263246,161.7028578319223,-0.0001295089750783,0.0906857252120971,0,0,0
15098,504879.2027375252,2010-08-25 10:36:39,990.500680595484,7,41,-1.0993878841400146,3.7607808113098153,44.82625803791044,44.00700812963316,177.98774377263246,161.73736157666536,-0.0001295089750783,0.0906857252120971,0,0,0
15099,504909.2179254439,2010-08-25 10:37:09,1020.51586851422,7,41,-1.099568486213684,3.755114793777466,44.82625803791044,44.01617601726206,177.98774377263246,161.77181506232654,-0.0001618862152099,0.0906857252120971,0,0,0
15100,504939.233103443,2010-08-25 10:37:39,1050.5310465082205,7,41,-1.099568486213684,3.749934673309326,44.82625803791044,44.025343906340886,177.98774377263246,161.80621954135145,-0.0001942634553415,0.0906857252120971,0,0,0
15101,504969.2482322294,2010-08-25 10:38:09,1080.5461752945805,7,41,-1.0997490882873535,3.7449162006378174,44.82625803791044,44.03451182303384,177.98774377263246,161.84057581643913,-0.0001295089750783,0.0906857252120971,0,0,0
15102,504999.263534458,2010-08-25 10:38:39,1110.5614775282245,7,41,-1.099568486213684,3.739735841751098,44.82625803791044,44.04367972521624,177.98774377263246,161.87488468582774,-9.713172767078504e-05,0.0906857252120971,0,0,0
15103,505029.2787851582,2010-08-25 10:39:09,1140.5767282234185,7,41,-1.099568486213684,3.7348792552948,44.82625803791044,44.05284761779625,177.98774377263246,161.90914706792515,-9.713172767078504e-05,0.0906857252120971,0,0,0
15104,505059.29388516286,2010-08-25 10:39:39,1170.591828233058,7,41,-1.0993878841400146,3.729860782623291,44.82625803791044,44.062015490767706,177.98774377263246,161.9433640083234,-9.713172767078504e-05,0.0906857252120971,0,0,0
15105,505089.3090900639,2010-08-25 10:40:09,1200.6070331291062,7,41,-1.0997490882873535,3.725166082382202,44.82625803791044,44.07118335223847,177.98774377263246,161.97753677680086,-0.0001295089750783,0.0906857252120971,0,0,0
15106,505119.3240921545,2010-08-25 10:40:39,1230.6220352197015,7,41,-1.099568486213684,3.720471382141113,44.82625803791044,44.08035120088255,177.98774377263246,162.0116659912144,-9.713172767078504e-05,0.0906857252120971,0,0,0
15107,505149.33927716094,2010-08-25 10:41:09,1260.6372202261791,7,41,-1.099568486213684,3.715776681900024,44.82625803791044,44.089519089990674,177.98774377263246,162.04575233329106,-0.0001295089750783,0.0906857252120971,0,0,0
15108,505179.354444348,2010-08-25 10:41:39,1290.6523874132454,7,41,-1.099568486213684,3.711081981658936,44.82625803791044,44.09868697821072,177.98774377263246,162.07979658890582,-0.0001295089750783,0.0906857252120971,0,0,0
15109,505209.3696048985,2010-08-25 10:42:10,1320.6675479687835,7,41,-1.0997490882873535,3.7065491676330566,44.82625803791044,44.10785482714192,177.98774377263246,162.11379903497286,-0.0001618862152099,0.0906857252120971,0,0,0
15110,505239.3849508362,2010-08-25 10:42:40,1350.6828939013387,7,41,-1.099568486213684,3.702178239822388,44.82625803791044,44.11702278792978,177.98774377263246,162.14776112166524,-0.0001295089750783,0.0906857252120971,0,0,0
15111,505269.4001653712,2010-08-25 10:43:10,1380.6981084514482,7,41,-1.0993878841400146,3.6979691982269287,44.82625803791044,44.12619075283901,177.98774377263246,162.18168300675484,-9.713172767078504e-05,0.0906857252120971,0,0,0
15112,505299.4016192705,2010-08-25 10:43:40,1410.6995623808568,7,41,-1.099568486213684,3.6937601566314697,44.82625803791044,44.13535457330988,177.98774377263246,162.2155504863531,-6.47544875391759e-05,0.0906857252120971,0,0,0
15113,505329.4149142013,2010-08-25 10:44:10,1440.712857286622,7,41,-1.0997490882873535,3.6895511150360103,44.82625803791044,44.14452195036576,177.98774377263246,162.24939265443032,-9.713172767078504e-05,0.0906857252120971,0,0,0
15114,505359.429839676,2010-08-25 10:44:40,1470.7277827412163,7,41,-1.0997490882873535,3.685342073440552,44.82625803791044,44.153689781209685,177.98774377263246,162.28319849442514,-9.713172767078504e-05,0.0906857252120971,0,0,0
15115,505389.4354657286,2010-08-25 10:45:10,1500.7334088239152,7,41,-1.099568486213684,3.6814568042755127,44.82625803791044,44.16285477807253,177.98774377263246,162.3169567065789,-0.0001295089750783,0.0906857252120971,0,0,0
15116,505419.4445567069,2010-08-25 10:45:40,1530.7424997771368,7,41,-1.0993878841400146,3.677409648895264,44.82625803791044,44.17202085430016,177.98774377263246,162.35068203660504,-9.713172767078504e-05,0.0906857252120971,0,0,0
15117,505449.45978907146,2010-08-25 10:46:10,1560.7577321316203,7,41,-1.0997490882873535,3.6732006072998047,44.82625803791044,44.18118881279353,177.98774377263246,162.38437807140602,-0.0001295089750783,0.0906857252120971,0,0,0
15118,505479.4779873529,2010-08-25 10:46:40,1590.7759304181193,7,41,-1.0997490882873535,3.6694774627685542,44.82625803791044,44.19035770629649,177.98774377263246,162.41804119220475,-9.713172767078504e-05,0.0906857252120971,0,0,0
15119,505509.4780971824,2010-08-25 10:47:10,1620.7760402726797,7,41,-1.0997490882873535,3.665592193603516,44.82625803791044,44.19952106589783,177.98774377263246,162.45164833793882,-9.713172767078504e-05,0.0906857252120971,0,0,0
15120,505539.489637851,2010-08-25 10:47:40,1650.787580911271,7,41,-1.0997490882873535,3.6618688106536874,44.82625803791044,44.2086878582864,177.98774377263246,162.4852334334006,-9.713172767078504e-05,0.0906857252120971,0,0,0
15121,505569.5049326662,2010-08-25 10:48:10,1680.8028757264258,7,41,-1.0997490882873535,3.6583073139190674,44.82625803791044,44.21785587923779,177.98774377263246,162.51878941404357,-9.713172767078504e-05,0.0906857252120971,0,0,0
15122,505599.5201677876,2010-08-25 10:48:40,1710.8181108578303,7,41,-1.099568486213684,3.654745817184448,44.82625803791044,44.2270238650292,177.98774377263246,162.55231222495357,-6.47544875391759e-05,0.0906857252120971,0,0,0
15123,505629.5352327649,2010-08-25 10:49:10,1740.833175850196,7,41,-1.0997490882873535,3.651184320449829,44.82625803791044,44.23619179164789,177.98774377263246,162.58580248539946,-6.47544875391759e-05,0.0906857252120971,0,0,0
15124,505659.55080507166,2010-08-25 10:49:40,1770.8487481318823,7,41,-1.099568486213684,3.64794659614563,44.82625803791044,44.24535992816384,177.98774377263246,162.6192619369205,-6.47544875391759e-05,0.0906857252120971,0,0,0
15125,505689.565564312,2010-08-25 10:50:10,1800.8635073972823,7,41,-1.099568486213684,3.6443850994110103,44.82625803791044,44.254527729557736,177.98774377263246,162.6526884459704,-6.47544875391759e-05,0.0906857252120971,0,0,0
15126,505719.5807508924,2010-08-25 10:50:40,1830.8786939776828,7,41,-1.099568486213684,3.641147375106812,44.82625803791044,44.263695728778025,177.98774377263246,162.68608606752176,-0.0001295089750783,0.0906857252120971,0,0,0
15127,505749.5958879594,2010-08-25 10:51:10,1860.893831029643,7,41,-1.0993878841400146,3.638395309448242,44.82625803791044,44.27286370332842,177.98774377263246,162.71945490254345,-3.237724376958795e-05,0.0906857252120971,0,0,0
15128,505779.6110256179,2010-08-25 10:51:40,1890.90896867809,7,41,-1.099568486213684,3.635157585144043,44.82625803791044,44.282031618551486,177.98774377263246,162.75279577489013,-9.713172767078504e-05,0.0906857252120971,0,0,0
15129,505809.6113385636,2010-08-25 10:52:10,1920.9092816488787,7,41,-1.0997490882873535,3.632243633270264,44.82625803791044,44.29119501474885,177.98774377263246,162.78609294178227,-9.713172767078504e-05,0.0906857252120971,0,0,0
15130,505839.625758799,2010-08-25 10:52:40,1950.9237018642616,7,41,-1.099568486213684,3.629329681396485,44.82625803791044,44.30036275916662,177.98774377263246,162.81937891227412,-9.713172767078504e-05,0.0906857252120971,0,0,0
15131,505869.6409471889,2010-08-25 10:53:10,1980.9388902491592,7,41,-1.099568486213684,3.626577615737915,44.82625803791044,44.30953071746595,177.98774377263246,162.85263889693988,-6.47544875391759e-05,0.0906857252120971,0,0,0
15132,505899.65815490665,2010-08-25 10:53:40,2010.9560979718683,7,41,-1.099568486213684,3.623663663864136,44.82625803791044,44.31869930254523,177.98774377263246,162.88587506821634,-6.47544875391759e-05,0.0906857252120971,0,0,0
15133,505929.6607457045,2010-08-25 10:54:10,2040.9586887947653,7,41,-1.0997490882873535,3.620749711990357,44.82625803791044,44.32786343514808,177.98774377263246,162.91906933569007,-9.713172767078504e-05,0.0906857252120971,0,0,0
15134,505959.6710552698,2010-08-25 10:54:40,2070.968998355132,7,41,-1.099568486213684,3.617997646331787,44.82625803791044,44.33702998544706,177.98774377263246,162.95224713067904,-9.713172767078504e-05,0.0906857252120971,0,0,0
15135,505989.6870877034,2010-08-25 10:55:10,2100.9850308738705,7,41,-1.0997490882873535,3.615083694458008,44.82625803791044,44.34619826866458,177.98774377263246,162.9854059256358,-9.713172767078504e-05,0.0906857252120971,0,0,0
15136,506019.6873379128,2010-08-25 10:55:40,2130.9852809980266,7,41,-1.0997490882873535,3.612493515014648,44.82625803791044,44.35536168810419,177.98774377263246,163.0185221725214,-9.713172767078504e-05,0.0906857252120971,0,0,0
15137,506049.701093993,2010-08-25 10:56:10,2160.999037058129,7,41,-1.0993878841400146,3.609741449356079,44.82625803791044,44.36452923079345,177.98774377263246,163.0516282174362,-9.713172767078504e-05,0.0906857252120971,0,0,0
15138,506079.718142584,2010-08-25 10:56:40,2191.0160856692837,7,41,-1.099568486213684,3.6069893836975098,44.82625803791044,44.37369782855316,177.98774377263246,163.08471276362926,-9.713172767078504e-05,0.0906857252120971,0,0,0
15139,506109.73113458994,2010-08-25 10:57:10,2221.0290777503164,7,41,-1.099568486213684,3.6043992042541504,44.82625803791044,44.38286514298261,177.98774377263246,163.11776710646342,-3.237724376958795e-05,0.0906857252120971,0,0,0
15140,506139.7462981128,2010-08-25 10:57:40,2251.0442411830254,7,41,-1.0997490882873535,3.601647138595581,44.82625803791044,44.39203315500989,177.98774377263246,163.15079916392068,-3.237724376958795e-05,0.0906857252120971,0,0,0
15141,506169.76158957457,2010-08-25 10:58:10,2281.059532634797,7,41,-1.099568486213684,3.598895072937012,44.82625803791044,44.401201149281725,177.98774377263246,163.18380619646712,-6.47544875391759e-05,0.0906857252120971,0,0,0
15142,506199.77664282767,2010-08-25 10:58:40,2311.0745858879054,7,41,-1.0997490882873535,3.5961430072784424,44.82625803791044,44.41036902347537,177.98774377263246,163.21678789680894,-6.47544875391759e-05,0.0906857252120971,0,0,0
15143,506229.79181042576,2010-08-25 10:59:10,2341.089753496021,7,41,-1.0997490882873535,3.593229055404663,44.82625803791044,44.4195369393325,177.98774377263246,163.24974461262877,-0.0001295089750783,0.0906857252120971,0,0,0
15144,506259.8069603949,2010-08-25 10:59:40,2371.1049034601624,7,41,-1.099568486213684,3.590639114379883,44.82625803791044,44.4287048732378,177.98774377263246,163.28267585315183,-3.237724376958795e-05,0.0906857252120971,0,0,0
15145,506289.8221313263,2010-08-25 11:00:10,2401.120074396573,7,41,-1.099568486213684,3.587887048721313,44.82625803791044,44.43787279495651,177.98774377263246,163.31558119589556,-6.47544875391759e-05,0.0906857252120971,0,0,0
15146,506319.8373329693,2010-08-25 11:00:40,2431.135276039514,7,41,-1.099568486213684,3.584973096847534,44.82625803791044,44.44704072155848,177.98774377263246,163.34846034669525,-6.47544875391759e-05,0.0906857252120971,0,0,0
15147,506349.8525028731,2010-08-25 11:01:10,2461.150445943351,7,41,-1.099568486213684,3.582059144973755,44.82625803791044,44.45620859903212,177.98774377263246,163.38131249910893,-6.47544875391759e-05,0.0906857252120971,0,0,0
15148,506379.86766883713,2010-08-25 11:01:40,2491.165611917394,7,41,-1.0993878841400146,3.5789833068847656,44.82625803791044,44.4653764283346,177.98774377263246,163.4141370622231,-6.47544875391759e-05,0.0906857252120971,0,0,0
15149,506409.882838721,2010-08-25 11:02:10,2521.1807817911567,7,41,-1.0993878841400146,3.5757455825805664,44.82625803791044,44.47454430830709,177.98774377263246,163.44693388622477,-6.47544875391759e-05,0.0906857252120971,0,0,0
15150,506439.89804420347,2010-08-25 11:02:40,2551.1959872686543,7,41,-1.0997490882873535,3.572507858276367,44.82625803791044,44.48371217961016,177.98774377263246,163.4797019290857,-0.0001295089750783,0.0906857252120971,0,0,0
15151,506469.9131834759,2010-08-25 11:03:10,2581.211126551173,7,41,-1.099568486213684,3.569270133972168,44.82625803791044,44.49288008179303,177.98774377263246,163.51244058014777,-6.47544875391759e-05,0.0906857252120971,0,0,0
15152,506499.92848421086,2010-08-25 11:03:40,2611.226427271045,7,41,-1.099568486213684,3.5660324096679688,44.82625803791044,44.50204802205872,177.98774377263246,163.5451492370763,-9.713172767078504e-05,0.0906857252120971,0,0,0
15153,506529.9435347121,2010-08-25 11:04:10,2641.2414777773065,7,41,-1.0997490882873535,3.56263279914856,44.82625803791044,44.5112158295452,177.98774377263246,163.57782668181088,-9.713172767078504e-05,0.0906857252120971,0,0,0
15154,506559.9616760466,2010-08-25 11:04:40,2671.259619116876,7,41,-1.099568486213684,3.5590713024139404,44.82625803791044,44.52038462472531,177.98774377263246,163.61047630573646,-0.0001295089750783,0.0906857252120971,0,0,0
15155,506589.97389090055,2010-08-25 11:05:10,2701.271833970819,7,41,-1.0993878841400146,3.5556716918945312,44.82625803791044,44.52955156310942,177.98774377263246,163.64308586456698,-3.237724376958795e-05,0.0906857252120971,0,0,0
15156,506619.9890585538,2010-08-25 11:05:40,2731.287001624048,7,41,-1.0997490882873535,3.5516245365142822,44.82625803791044,44.53871945341922,177.98774377263246,163.6756643868457,-9.713172767078504e-05,0.0906857252120971,0,0,0
15157,506650.0043911532,2010-08-25 11:06:10,2761.30233421836,7,41,-1.0997490882873535,3.547577381134033,44.82625803791044,44.54788744890367,177.98774377263246,163.70820776762338,-0.0001618862152099,0.0906857252120971,0,0,0
15158,506680.01942105306,2010-08-25 11:06:40,2791.317364118264,7,41,-1.0997490882873535,3.543530225753784,44.82625803791044,44.55705538110148,177.98774377263246,163.74071421569633,-0.0001295089750783,0.0906857252120971,0,0,0
15159,506710.0345788618,2010-08-25 11:07:10,2821.332521921944,7,41,-1.099568486213684,3.539483070373535,44.82625803791044,44.56622326114752,177.98774377263246,163.77318254597884,-6.47544875391759e-05,0.0906857252120971,0,0,0
15160,506740.0497574171,2010-08-25 11:07:40,2851.347700482356,7,41,-1.099568486213684,3.534950256347656,44.82625803791044,44.57539119051432,177.98774377263246,163.8056117173862,-0.0001618862152099,0.0906857252120971,0,0,0
15161,506770.0649376367,2010-08-25 11:08:10,2881.3628807219534,7,41,-1.099568486213684,3.5307412147521973,44.82625803791044,44.58455915902079,177.98774377263246,163.83800031676455,-6.47544875391759e-05,0.0906857252120971,0,0,0
15162,506800.0801209539,2010-08-25 11:08:40,2911.378064049246,7,41,-1.099568486213684,3.5257227420806885,44.82625803791044,44.59372707691891,177.98774377263246,163.8703469540528,-0.0001295089750783,0.0906857252120971,0,0,0
15163,506830.0952742214,2010-08-25 11:09:10,2941.3932172865448,7,41,-1.099568486213684,3.5210280418396,44.82625803791044,44.60289506021433,177.98774377263246,163.90264982205508,-0.0001295089750783,0.0906857252120971,0,0,0
15164,506860.1104778242,2010-08-25 11:09:40,2971.4084208843574,7,41,-1.099568486213684,3.515847682952881,44.82625803791044,44.61206296691768,177.98774377263246,163.9349063181653,-0.0001618862152099,0.0906857252120971,0,0,0
15165,506890.125593157,2010-08-25 11:10:10,3001.423536217188,7,41,-1.099568486213684,3.5105056762695312,44.82625803791044,44.62123086474482,177.98774377263246,163.96711461103635,-0.0001295089750783,0.0906857252120971,0,0,0
15166,506920.14078079496,2010-08-25 11:10:40,3031.438723855224,7,41,-1.0993878841400146,3.5048396587371826,44.82625803791044,44.6303988183024,177.98774377263246,163.99927184883114,-9.713172767078504e-05,0.0906857252120971,0,0,0
15167,506950.15594518,2010-08-25 11:11:10,3061.453888245319,7,41,-1.0993878841400146,3.498364210128784,44.82625803791044,44.63956673470264,177.98774377263246,164.03137369164642,-0.0001618862152099,0.0906857252120971,0,0,0
15168,506980.1708119434,2010-08-25 11:11:40,3091.4687546978626,7,41,-1.0997490882873535,3.491403102874756,44.82625803791044,44.64873464534915,177.98774377263246,164.06341561557505,-0.0002590179501567,0.0906857252120971,0,0,0
15169,507010.1862864314,2010-08-25 11:12:10,3121.484229501604,7,41,-1.099568486213684,3.4839563369750977,44.82625803791044,44.65790267606869,177.98774377263246,164.09539146950854,-0.0001942634553415,0.0906857252120971,0,0,0
15170,507040.2016704438,2010-08-25 11:12:40,3151.499613504041,7,41,-1.099568486213684,3.47505259513855,44.82625803791044,44.66707067757405,177.98774377263246,164.12729172541472,-0.0002266406954731,0.0906857252120971,0,0,0
15171,507070.2166614718,2010-08-25 11:13:10,3181.5146045420897,7,41,-1.099568486213684,3.4648537635803223,44.82625803791044,44.67623850781759,177.98774377263246,164.15910484597077,-0.0003237724304199,0.0906857252120971,0,0,0
15172,507100.2318085788,2010-08-25 11:13:40,3211.529751644098,7,41,-1.099568486213684,3.452712297439575,44.82625803791044,44.68540643588143,177.98774377263246,164.19081611935783,-0.0003237724304199,0.0906857252120971,0,0,0
15173,507130.247122637,2010-08-25 11:14:10,3241.545065707224,7,41,-1.099568486213684,3.437171220779419,44.82625803791044,44.69457443679354,177.98774377263246,164.22240209215704,-0.0004209041653666,0.0906857252120971,0,0,0
15174,507160.26231777365,2010-08-25 11:14:40,3271.5602608339245,7,41,-1.0997490882873535,3.417097568511963,44.82625803791044,44.70374234658246,177.98774377263246,164.2538266243625,-0.0006475448608398,0.0906857252120971,0,0,0
15175,507190.27737052046,2010-08-25 11:15:10,3301.575313585783,7,41,-1.099568486213684,3.3897387981414795,44.82625803791044,44.712910283192045,177.98774377263246,164.2850357926427,-0.0008741855854168,0.0906857252120971,0,0,0
15176,507220.2925076928,2010-08-25 11:15:40,3331.590450753031,7,41,-1.099568486213684,3.3520193099975586,44.82625803791044,44.72207819446171,177.98774377263246,164.31594950436994,-0.0011332035064697,0.0906857252120971,0,0,0
15177,507250.3076762733,2010-08-25 11:16:10,3361.605619338582,7,41,-1.0993878841400146,3.297302007675171,44.82625803791044,44.7312460938484,177.98774377263246,164.3464442018006,-0.0016836166614666,0.0906857252120971,0,0,0
15178,507280.3229009988,2010-08-25 11:16:40,3391.620844064052,7,41,-1.099568486213684,3.21619725227356,44.82625803791044,44.74041395916592,177.98774377263246,164.37632641169674,-0.0025578022468835,0.0906857252120971,0,0,0
15179,507310.3380239256,2010-08-25 11:17:11,3421.635966990808,7,41,-1.0993878841400146,3.0879838466644287,44.82625803791044,44.74958188401224,177.98774377263246,164.40527452235804,-0.0042414190247654,0.0906857252120971,0,0,0
15180,507334.712676239,2010-08-25 11:17:35,3446.0106193193037,7,41,-1.0993878841400146,2.8875691890716557,44.82625803791044,44.75702692712393,177.98774377263246,164.42762105934742,-0.0091951368376612,0.0906857252120971,0,0,0
15181,507347.3843486707,2010-08-25 11:17:48,3458.6822917409545,7,41,-1.0997490882873535,2.699620008468628,44.82625803791044,44.760897373735,177.98774377263246,164.43845145008444,-0.0129508497193455,0.0906857252120971,0,0,0
15182,507407.3865309656,2010-08-25 11:18:48,60.0148134411919,8,41,0.0,3.42875337600708,44.82625803791044,44.760897373735,177.98774377263246,164.43845145008444,0.0011979580158367,0.0906857252120971,0,0,0
15183,507407.5778054626,2010-08-25 11:18:48,0.187482629399426,9,41,-1.9243103452026844e-05,3.42875337600708,44.82625803791044,44.76089737473716,177.98774377263246,164.4384514535206,0.0,0.0859829038381576,0,0,0
15184,507412.40589674166,2010-08-25 11:18:53,5.015573908433327,9,41,0.0007031940040178,3.436038017272949,44.82625898474644,44.7608973748211,177.98774702301486,164.43845145380843,0.001068401383236,0.0859829038381576,0,0,0
