Data_Point,Test_Time(s),Date_Time,Step_Time(s),Step_Index,Cycle_Index,Current(A),Voltage(V),Charge_Capacity(Ah),Discharge_Capacity(Ah),Charge_Energy(Wh),Discharge_Energy(Wh),dV/dt(V/s),Internal_Resistance(Ohm),Is_FC_Data,AC_Impedance(Ohm),ACI_Phase_Angle(Deg)
7885,263616.87035749253,2010-08-22 15:35:13,30.01512859588513,1,22,0.0,3.3516955375671387,23.308850726925957,23.27742346185802,92.51098099752429,85.52983373622246,0.0007122516399249,0.0842081755399704,0,0,0
7886,263646.8856900818,2010-08-22 15:35:43,60.03046121525957,1,22,0.0,3.373064517974853,23.308850726925957,23.27742346185802,92.51098099752429,85.52983373622246,0.0004532813909463,0.0842081755399704,0,0,0
7887,263676.9011171616,2010-08-22 15:36:13,90.0458882750085,1,22,0.0,3.38909125328064,23.308850726925957,23.27742346185802,92.51098099752429,85.52983373622246,0.0003561496851034,0.0842081755399704,0,0,0
7888,263706.8694520582,2010-08-22 15:36:43,120.01422316658442,1,22,0.0,3.401556491851806,23.308850726925957,23.27742346185802,92.51098099752429,85.52983373622246,0.0002590179501567,0.0842081755399704,0,0,0
7889,263736.88356788026,2010-08-22 15:37:13,30.01534141128659,2,22,0.5501165986061096,3.5381879806518555,23.313437857475392,23.27742346185802,92.52705611337618,85.52983373622246,0.0015217304462566,0.0842081755399704,0,0,0
7890,263766.89888053486,2010-08-22 15:37:43,60.03065403582776,2,22,0.550297200679779,3.585458755493164,23.318025059102386,23.27742346185802,92.54340063651448,85.52983373622246,0.0011332035064697,0.0842081755399704,0,0,0
7891,263796.91434220085,2010-08-22 15:38:13,90.04611570182608,2,22,0.5501165986061096,3.621397256851196,23.322612217786705,23.27742346185802,92.55993257025249,85.52983373622246,0.0009389400365762,0.0842081755399704,0,0,0
7892,263826.92953967344,2010-08-22 15:38:43,120.061313204448,2,22,0.550297200679779,3.651022434234619,23.32719932858193,23.27742346185802,92.5766137859135,85.52983373622246,0.0007446765666827,0.0842081755399704,0,0,0
7893,263856.9448725184,2010-08-22 15:39:13,150.07664602432217,2,22,0.5499359965324402,3.675952672958374,23.33178640276684,23.27742346185802,92.59342022954856,85.52983373622246,0.0006151676061563,0.0842081755399704,0,0,0
7894,263886.96019752376,2010-08-22 15:39:43,180.09197102972024,2,22,0.550297200679779,3.697807312011719,23.33637347751685,23.27742346185802,92.61033407477606,85.52983373622246,0.0005504131549969,0.0842081755399704,0,0,0
7895,263916.9755309602,2010-08-22 15:40:13,210.10730446111847,2,22,0.5501165986061096,3.716424226760864,23.340960540460145,23.27742346185802,92.62734020715062,85.52983373622246,0.0004856586456298,0.0842081755399704,0,0,0
7896,263946.9908961407,2010-08-22 15:40:43,240.12266964665784,2,22,0.5501165986061096,3.7311558723449703,23.34554763271255,23.27742346185802,92.64442343403888,85.52983373622246,0.0003561496851034,0.0842081755399704,0,0,0
7897,263977.0063021179,2010-08-22 15:41:13,270.13807564892505,2,22,0.550297200679779,3.741678476333618,23.35013473242687,23.27742346185802,92.66156488366404,85.52983373622246,0.0002266406954731,0.0842081755399704,0,0,0
7898,264007.0215132044,2010-08-22 15:41:43,300.1532867103396,2,22,0.5501165986061096,3.7476682662963863,23.354721739005875,23.27742346185802,92.67874301770723,85.52983373622246,0.0001295089750783,0.0842081755399704,0,0,0
7899,264037.03696606844,2010-08-22 15:42:13,330.16873957440083,2,22,0.5501165986061096,3.751067876815796,23.359308821467675,23.27742346185802,92.6959421850714,85.52983373622246,6.47544875391759e-05,0.0842081755399704,0,0,0
7900,264067.0522871591,2010-08-22 15:42:43,360.18406066504207,2,22,0.5501165986061096,3.753657817840576,23.36389590350197,23.27742346185802,92.71315511993603,85.52983373622246,3.237724376958795e-05,0.0842081755399704,0,0,0
7901,264097.06749081204,2010-08-22 15:43:13,390.1992643179926,2,22,0.550297200679779,3.756247997283936,23.368482956555216,23.27742346185802,92.73037960916432,85.52983373622246,6.47544875391759e-05,0.0842081755399704,0,0,0
7902,264127.0828109653,2010-08-22 15:43:43,420.21458447129766,2,22,0.550297200679779,3.758676290512085,23.37307006402449,23.27742346185802,92.74761539423064,85.52983373622246,9.713172767078504e-05,0.0842081755399704,0,0,0
7903,264157.098168978,2010-08-22 15:44:13,450.22994250401,2,22,0.5501165986061096,3.760942697525024,23.37765713101927,23.27742346185802,92.76486191648436,85.52983373622246,9.713172767078504e-05,0.0842081755399704,0,0,0
7904,264187.113639867,2010-08-22 15:44:43,480.24541340803233,2,22,0.5501165986061096,3.763532876968384,23.382244236141677,23.27742346185802,92.78211951098852,85.52983373622246,9.713172767078504e-05,0.0842081755399704,0,0,0
7905,264217.1289446219,2010-08-22 15:45:13,510.260718132885,2,22,0.5501165986061096,3.765637397766113,23.386831349506927,23.27742346185802,92.7993881251229,85.52983373622246,6.47544875391759e-05,0.0842081755399704,0,0,0
7906,264247.14415160817,2010-08-22 15:45:43,540.2759251141306,2,22,0.550297200679779,3.7682275772094727,23.391418424185723,23.27742346185802,92.81666756134229,85.52983373622246,6.47544875391759e-05,0.0842081755399704,0,0,0
7907,264277.1596033093,2010-08-22 15:46:13,570.291376810281,2,22,0.5501165986061096,3.770493984222412,23.39600558185549,23.27742346185802,92.83395825328782,85.52983373622246,3.237724376958795e-05,0.0842081755399704,0,0,0
7908,264307.17478700256,2010-08-22 15:46:43,600.3065605034856,2,22,0.550297200679779,3.7729222774505615,23.400592720183305,23.27742346185802,92.85125975677866,85.52983373622246,6.47544875391759e-05,0.0842081755399704,0,0,0
7909,264337.1901107448,2010-08-22 15:47:13,630.3218842457355,2,22,0.5501165986061096,3.775512456893921,23.40517985657092,23.27742346185802,92.86857228708284,85.52983373622246,9.713172767078504e-05,0.0842081755399704,0,0,0
7910,264367.20545692794,2010-08-22 15:47:43,660.3372304589901,2,22,0.5501165986061096,3.777778863906861,23.40976703583037,23.27742346185802,92.885895941312,85.52983373622246,9.713172767078504e-05,0.0842081755399704,0,0,0
7911,264397.22079863,2010-08-22 15:48:13,690.3525721359388,2,22,0.5501165986061096,3.78036904335022,23.414354168650917,23.27742346185802,92.90323055443658,85.52983373622246,9.713172767078504e-05,0.0842081755399704,0,0,0
7912,264427.2361047934,2010-08-22 15:48:43,720.3678782943645,2,22,0.5501165986061096,3.782635450363159,23.41894124422348,23.27742346185802,92.92057623077548,85.52983373622246,6.47544875391759e-05,0.0842081755399704,0,0,0
7913,264457.2515474871,2010-08-22 15:49:13,750.383320998103,2,22,0.5501165986061096,3.785225629806519,23.423528302669496,23.27742346185802,92.93793355289309,85.52983373622246,6.47544875391759e-05,0.0842081755399704,0,0,0
7914,264487.2667603029,2010-08-22 15:49:43,780.3985338088775,2,22,0.5501165986061096,3.787977695465088,23.42811532226819,23.27742346185802,92.95530286288248,85.52983373622246,6.47544875391759e-05,0.0842081755399704,0,0,0
7915,264517.2848002347,2010-08-22 15:50:13,810.41657382592,2,22,0.550297200679779,3.790891647338867,23.432702798055537,23.27742346185802,92.9726866144332,85.52983373622246,9.713172767078504e-05,0.0842081755399704,0,0,0
7916,264547.29754418234,2010-08-22 15:50:43,840.4293177284155,2,22,0.550297200679779,3.7938055992126474,23.4372894666059,23.27742346185802,92.9900805744616,85.52983373622246,9.713172767078504e-05,0.0842081755399704,0,0,0
7917,264577.312768587,2010-08-22 15:51:13,870.4445420879731,2,22,0.5501165986061096,3.796881437301636,23.441876568989976,23.27742346185802,93.00749011074087,85.52983373622246,9.713172767078504e-05,0.0842081755399704,0,0,0
7918,264607.32806033955,2010-08-22 15:51:43,900.4598338505199,2,22,0.5499359965324402,3.800119161605835,23.44646364170172,23.27742346185802,93.0249140809828,85.52983373622246,9.713172767078504e-05,0.0842081755399704,0,0,0
7919,264637.343422683,2010-08-22 15:52:13,930.4751961839509,2,22,0.5501165986061096,3.803356885910034,23.45105074574505,23.27742346185802,93.0423531847825,85.52983373622246,6.47544875391759e-05,0.0842081755399704,0,0,0
7920,264667.35873968847,2010-08-22 15:52:43,960.4905131894104,2,22,0.550297200679779,3.806918382644653,23.45563790087503,23.27742346185802,93.05980786383635,85.52983373622246,9.713172767078504e-05,0.0842081755399704,0,0,0
7921,264697.37404911005,2010-08-22 15:53:13,990.5058226109688,2,22,0.5499359965324402,3.8099942207336426,23.460225070900005,23.27742346185802,93.0772781003099,85.52983373622246,6.47544875391759e-05,0.0842081755399704,0,0,0
7922,264727.3896513213,2010-08-22 15:53:43,1020.5214249425492,2,22,0.5501165986061096,3.8135557174682617,23.464812222007065,23.27742346185802,93.09476384669382,85.52983373622246,9.713172767078504e-05,0.0842081755399704,0,0,0
7923,264757.40472371713,2010-08-22 15:54:13,1050.5364972180666,2,22,0.5501165986061096,3.817117214202881,23.46939930679655,23.27742346185802,93.11226505055866,85.52983373622246,9.713172767078504e-05,0.0842081755399704,0,0,0
7924,264787.42008127866,2010-08-22 15:54:43,1080.5518548197049,2,22,0.550297200679779,3.82019305229187,23.473986386343007,23.27742346185802,93.1297813770301,85.52983373622246,6.47544875391759e-05,0.0842081755399704,0,0,0
7925,264817.4353538033,2010-08-22 15:55:13,1110.5671273092169,2,22,0.5501165986061096,3.823430776596069,23.478573462663803,23.27742346185802,93.1473125757106,85.52983373622246,9.713172767078504e-05,0.0842081755399704,0,0,0
7926,264847.450792908,2010-08-22 15:55:44,1140.5825664340357,2,22,0.5501165986061096,3.826668500900269,23.48316055730401,23.27742346185802,93.16485842534814,85.52983373622246,9.713172767078504e-05,0.0842081755399704,0,0,0
7927,264877.4662928244,2010-08-22 15:56:14,1170.5980663453531,2,22,0.5501165986061096,3.829744338989258,23.487747698172832,23.27742346185802,93.18241881136429,85.52983373622246,9.713172767078504e-05,0.0842081755399704,0,0,0
7928,264907.48145485856,2010-08-22 15:56:44,1200.6132283545144,2,22,0.5501165986061096,3.832658290863037,23.49233478322882,23.27742346185802,93.19999313033576,85.52983373622246,6.47544875391759e-05,0.0842081755399704,0,0,0
7929,264937.4966580704,2010-08-22 15:57:14,1230.628431571378,2,22,0.5501165986061096,3.8357338905334473,23.49692187661127,23.27742346185802,93.21758141871392,85.52983373622246,6.47544875391759e-05,0.0842081755399704,0,0,0
7930,264967.5121058969,2010-08-22 15:57:44,1260.643879397884,2,22,0.5499359965324402,3.838809728622437,23.50150893455225,23.27742346185802,93.23518341428964,85.52983373622246,9.713172767078504e-05,0.0842081755399704,0,0,0
7931,264997.5273354594,2010-08-22 15:58:14,1290.6591089854714,2,22,0.5501165986061096,3.841723680496216,23.50609600575298,23.27742346185802,93.25279902710362,85.52983373622246,6.47544875391759e-05,0.0842081755399704,0,0,0
7932,265027.5426348811,2010-08-22 15:58:44,1320.6744083820445,2,22,0.550297200679779,3.844475746154785,23.510683071434556,23.27742346185802,93.27042781619214,85.52983373622246,6.47544875391759e-05,0.0842081755399704,0,0,0
7933,265057.55796409195,2010-08-22 15:59:14,1350.6897376179863,2,22,0.550297200679779,3.847389698028565,23.51527013759094,23.27742346185802,93.28806935321872,85.52983373622246,9.713172767078504e-05,0.0842081755399704,0,0,0
7934,265087.5733050171,2010-08-22 15:59:44,1380.7050785480735,2,22,0.5501165986061096,3.849817991256714,23.51985729484932,23.27742346185802,93.30572344491247,85.52983373622246,3.237724376958795e-05,0.0842081755399704,0,0,0
7935,265117.5886451802,2010-08-22 16:00:14,1410.7204186962122,2,22,0.550297200679779,3.8522462844848633,23.524444472254004,23.27742346185802,93.32338916568476,85.52983373622246,6.47544875391759e-05,0.0842081755399704,0,0,0
7936,265147.6042023342,2010-08-22 16:00:44,1440.7359758602208,2,22,0.5501165986061096,3.8545126914978023,23.529031626938487,23.27742346185802,93.34106549297694,85.52983373622246,6.47544875391759e-05,0.0842081755399704,0,0,0
7937,265177.6192820833,2010-08-22 16:01:14,1470.7510555742774,2,22,0.5501165986061096,3.856617212295532,23.53361867890817,23.27742346185802,93.3587514713767,85.52983373622246,3.237724376958795e-05,0.0842081755399704,0,0,0
7938,265207.6346416298,2010-08-22 16:01:44,1500.7664151508377,2,22,0.5501165986061096,3.858559846878052,23.538205875406657,23.27742346185802,93.37644722393432,85.52983373622246,3.237724376958795e-05,0.0842081755399704,0,0,0
7939,265237.64997229935,2010-08-22 16:02:14,1530.7817457952897,2,22,0.550297200679779,3.8605024814605713,23.542792958296857,23.27742346185802,93.3941508554931,85.52983373622246,9.713172767078504e-05,0.0842081755399704,0,0,0
7940,265267.6652656408,2010-08-22 16:02:44,1560.7970391367717,2,22,0.550297200679779,3.861959457397461,23.547380096667208,23.27742346185802,93.411862415815,85.52983373622246,3.237724376958795e-05,0.0842081755399704,0,0,0
7941,265297.6805639497,2010-08-22 16:03:14,1590.8123374506465,2,22,0.5501165986061096,3.863416433334351,23.55196717617642,23.27742346185802,93.42958083408324,85.52983373622246,3.237724376958795e-05,0.0842081755399704,0,0,0
7942,265327.69586723595,2010-08-22 16:03:44,1620.8276407569635,2,22,0.5501165986061096,3.8647115230560303,23.55655424110511,23.27742346185802,93.44730556454029,85.52983373622246,0.0,0.0842081755399704,0,0,0
7943,265357.7114453522,2010-08-22 16:04:14,1650.8432188731915,2,22,0.5501165986061096,3.8658447265625,23.561141250267063,23.27742346185802,93.46503607915302,85.52983373622246,-3.237724376958795e-05,0.0842081755399704,0,0,0
7944,265387.72661790263,2010-08-22 16:04:44,1680.8583914587125,2,22,0.5501165986061096,3.86713981628418,23.56572825431403,23.27742346185802,93.48277213677028,85.52983373622246,3.237724376958795e-05,0.0842081755399704,0,0,0
7945,265417.7420528069,2010-08-22 16:05:14,1710.873826307875,2,22,0.550297200679779,3.8684349060058594,23.570315361652405,23.27742346185802,93.50051382755366,85.52983373622246,6.47544875391759e-05,0.0842081755399704,0,0,0
7946,265447.7573550757,2010-08-22 16:05:44,1740.889128601669,2,22,0.550297200679779,3.869406223297119,23.57490255021558,23.27742346185802,93.51826082744668,85.52983373622246,6.47544875391759e-05,0.0842081755399704,0,0,0
7947,265477.77258714946,2010-08-22 16:06:14,1770.90436065039,2,22,0.5501165986061096,3.870377540588379,23.579489669342777,23.27742346185802,93.53601229823154,85.52983373622246,3.237724376958795e-05,0.0842081755399704,0,0,0
7948,265507.78789734794,2010-08-22 16:06:44,1800.9196708538975,2,22,0.550297200679779,3.8715107440948486,23.58407676948291,23.27742346185802,93.5537683034346,85.52983373622246,6.47544875391759e-05,0.0842081755399704,0,0,0
7949,265537.8032134762,2010-08-22 16:07:14,1830.9349870022209,2,22,0.5501165986061096,3.872482061386109,23.58866391479319,23.27742346185802,93.571528904855,85.52983373622246,6.47544875391759e-05,0.0842081755399704,0,0,0
7950,265567.81854101294,2010-08-22 16:07:44,1860.9503145188776,2,22,0.5501165986061096,3.873291492462158,23.593251047289268,23.27742346185802,93.5892938446344,85.52983373622246,3.237724376958795e-05,0.0842081755399704,0,0,0
7951,265597.83387731144,2010-08-22 16:08:14,1890.9656508124096,2,22,0.550297200679779,3.874100923538208,23.59783821566342,23.27742346185802,93.60706317294074,85.52983373622246,0.0,0.0842081755399704,0,0,0
7952,265627.84921624657,2010-08-22 16:08:44,1920.9809897475243,2,22,0.5501165986061096,3.875072240829468,23.602425327419237,23.27742346185802,93.6248363044883,85.52983373622246,3.237724376958795e-05,0.0842081755399704,0,0,0
7953,265657.8645216732,2010-08-22 16:09:14,1950.9962952042013,2,22,0.5499359965324402,3.8758816719055176,23.60701242620904,23.27742346185802,93.64261363929975,85.52983373622246,0.0,0.0842081755399704,0,0,0
7954,265687.87997265754,2010-08-22 16:09:44,1981.0117461635152,2,22,0.5501165986061096,3.876852989196777,23.61159952106226,23.27742346185802,93.66039506692776,85.52983373622246,3.237724376958795e-05,0.0842081755399704,0,0,0
7955,265717.89518379915,2010-08-22 16:10:14,2011.0269573101425,2,22,0.5501165986061096,3.877824306488037,23.61618656083276,23.27742346185802,93.67818039686269,85.52983373622246,3.237724376958795e-05,0.0842081755399704,0,0,0
7956,265747.91063237755,2010-08-22 16:10:44,2041.0424058885224,2,22,0.5501165986061096,3.878633737564087,23.620773678236,23.27742346185802,93.69597013997114,85.52983373622246,3.237724376958795e-05,0.0842081755399704,0,0,0
7957,265777.92585223087,2010-08-22 16:11:14,2071.057625736836,2,22,0.5501165986061096,3.8794431686401367,23.625360767912458,23.27742346185802,93.71376383341604,85.52983373622246,0.0,0.0842081755399704,0,0,0
7958,265807.9411605597,2010-08-22 16:11:44,2101.0729340656712,2,22,0.550297200679779,3.8805763721466064,23.62994788643815,23.27742346185802,93.73156171753958,85.52983373622246,3.237724376958795e-05,0.0842081755399704,0,0,0
7959,265837.95653365995,2010-08-22 16:12:14,2131.0883071859867,2,22,0.5501165986061096,3.881385803222656,23.63453500571948,23.27742346185802,93.7493637186674,85.52983373622246,6.47544875391759e-05,0.0842081755399704,0,0,0
7960,265867.97183085105,2010-08-22 16:12:44,2161.103604357013,2,22,0.5501165986061096,3.882195234298706,23.63912213086619,23.27742346185802,93.76716987247174,85.52983373622246,3.237724376958795e-05,0.0842081755399704,0,0,0
7961,265897.98722977063,2010-08-22 16:13:14,2191.1190032716154,2,22,0.550297200679779,3.883166551589966,23.643709241562124,23.27742346185802,93.78498017873696,85.52983373622246,3.237724376958795e-05,0.0842081755399704,0,0,0
7962,265928.00262765266,2010-08-22 16:13:44,2221.134401158657,2,22,0.550297200679779,3.8841378688812256,23.648296348443235,23.27742346185802,93.8027946869093,85.52983373622246,6.47544875391759e-05,0.0842081755399704,0,0,0
7963,265958.017833436,2010-08-22 16:14:14,2251.1496069419168,2,22,0.5501165986061096,3.8849472999572754,23.65288343763275,23.27742346185802,93.82061322786134,85.52983373622246,3.237724376958795e-05,0.0842081755399704,0,0,0
7964,265988.0332600997,2010-08-22 16:14:44,2281.165033600666,2,22,0.550297200679779,3.885918617248535,23.657470574519067,23.27742346185802,93.83843629699358,85.52983373622246,0.0,0.0842081755399704,0,0,0
7965,266018.04846146697,2010-08-22 16:15:14,2311.18023496792,2,22,0.5501165986061096,3.886889934539795,23.66205770607112,23.27742346185802,93.8562637228427,85.52983373622246,3.237724376958795e-05,0.0842081755399704,0,0,0
7966,266048.06381188065,2010-08-22 16:15:44,2341.1955853816435,2,22,0.5501165986061096,3.887861251831055,23.6666448678502,23.27742346185802,93.87409561115405,85.52983373622246,3.237724376958795e-05,0.0842081755399704,0,0,0
7967,266078.0792549353,2010-08-22 16:16:14,2371.2110284362566,2,22,0.5501165986061096,3.8888325691223145,23.671232010284285,23.27742346185802,93.89193186632822,85.52983373622246,3.237724376958795e-05,0.0842081755399704,0,0,0
7968,266108.0945651088,2010-08-22 16:16:44,2401.2263386197137,2,22,0.5501165986061096,3.889803886413574,23.67581913386088,23.27742346185802,93.90977257673626,85.52983373622246,6.47544875391759e-05,0.0842081755399704,0,0,0
7969,266138.1097878643,2010-08-22 16:17:14,2431.241561365249,2,22,0.5499359965324402,3.890613317489624,23.680406289725248,23.27742346185802,93.92761793197202,85.52983373622246,-3.237724376958795e-05,0.0842081755399704,0,0,0
7970,266168.1251333257,2010-08-22 16:17:44,2461.2569068516923,2,22,0.5501165986061096,3.891908407211304,23.6849934063422,23.27742346185802,93.9454677557782,85.52983373622246,3.237724376958795e-05,0.0842081755399704,0,0,0
7971,266198.14049418544,2010-08-22 16:18:14,2491.2722677716,2,22,0.5501165986061096,3.892879724502564,23.6895805503325,23.27742346185802,93.96332237006078,85.52983373622246,3.237724376958795e-05,0.0842081755399704,0,0,0
7972,266228.1559108743,2010-08-22 16:18:44,2521.287684380302,2,22,0.5501165986061096,3.8938510417938232,23.69416772260256,23.27742346185802,93.98118188134411,85.52983373622246,3.237724376958795e-05,0.0842081755399704,0,0,0
7973,266258.1713402298,2010-08-22 16:19:14,2551.30311385106,2,22,0.5501165986061096,3.894822359085083,23.698754889754618,23.27742346185802,93.99904618388994,85.52983373622246,0.0,0.0842081755399704,0,0,0
7974,266288.1863991069,2010-08-22 16:19:44,2581.3181726329467,2,22,0.550297200679779,3.8959555625915527,23.70334204388147,23.27742346185802,94.01691477249156,85.52983373622246,3.237724376958795e-05,0.0842081755399704,0,0,0
7975,266318.2019503712,2010-08-22 16:20:14,2611.333723872189,2,22,0.550297200679779,3.896926879882813,23.70792923928291,23.27742346185802,94.0347887254229,85.52983373622246,0.0,0.0842081755399704,0,0,0
7976,266348.2170631577,2010-08-22 16:20:44,2641.348836663685,2,22,0.550297200679779,3.898221969604492,23.712516361434304,23.27742346185802,94.05266741114032,85.52983373622246,3.237724376958795e-05,0.0842081755399704,0,0,0
7977,266378.2323954112,2010-08-22 16:21:14,2671.364168912135,2,22,0.550297200679779,3.899355173110962,23.717103466112352,23.27742346185802,94.07055117859004,85.52983373622246,6.47544875391759e-05,0.0842081755399704,0,0,0
7978,266408.2477190983,2010-08-22 16:21:44,2701.37949260426,2,22,0.550297200679779,3.9003264904022217,23.72169060232471,23.27742346185802,94.08844019337856,85.52983373622246,3.237724376958795e-05,0.0842081755399704,0,0,0
7979,266438.265708434,2010-08-22 16:22:14,2731.3974819349764,2,22,0.550297200679779,3.901621580123901,23.726278181642197,23.27742346185802,94.10633618207962,85.52983373622246,0.0,0.0842081755399704,0,0,0
7980,266468.2783991991,2010-08-22 16:22:44,2761.4101727000366,2,22,0.5501165986061096,3.902592897415161,23.73086489394748,23.27742346185802,94.12423415001294,85.52983373622246,0.0,0.0842081755399704,0,0,0
7981,266498.2937132321,2010-08-22 16:23:14,2791.425486738101,2,22,0.550297200679779,3.904049873352051,23.73545204377052,23.27742346185802,94.14213921266122,85.52983373622246,9.713172767078504e-05,0.0842081755399704,0,0,0
7982,266528.30902764114,2010-08-22 16:23:44,2821.4408011470896,2,22,0.5501165986061096,3.905021190643311,23.740039220150603,23.27742346185802,94.1600499245808,85.52983373622246,0.0,0.0842081755399704,0,0,0
7983,266558.3244945702,2010-08-22 16:24:14,2851.456268081218,2,22,0.5501165986061096,3.9063162803649902,23.74462634706492,23.27742346185802,94.17796581650369,85.52983373622246,6.47544875391759e-05,0.0842081755399704,0,0,0
7984,266588.3396735116,2010-08-22 16:24:44,2881.4714470125546,2,22,0.5501165986061096,3.90761137008667,23.749213465951648,23.27742346185802,94.19588738839424,85.52983373622246,3.237724376958795e-05,0.0842081755399704,0,0,0
7985,266618.35515816486,2010-08-22 16:25:14,2911.486931665844,2,22,0.550297200679779,3.90874457359314,23.753800641696973,23.27742346185802,94.2138148807842,85.52983373622246,3.237724376958795e-05,0.0842081755399704,0,0,0
7986,266648.3703366301,2010-08-22 16:25:44,2941.502110156081,2,22,0.550297200679779,3.9100396633148193,23.7583877431055,23.27742346185802,94.2317479277129,85.52983373622246,0.0,0.0842081755399704,0,0,0
7987,266678.38568694855,2010-08-22 16:26:14,2971.517460449505,2,22,0.5501165986061096,3.911334753036499,23.76297490081137,23.27742346185802,94.24968701717506,85.52983373622246,3.237724376958795e-05,0.0842081755399704,0,0,0
7988,266708.4009966558,2010-08-22 16:26:44,3001.532770161788,2,22,0.550297200679779,3.9127917289733887,23.76756197454121,23.27742346185802,94.26763179847484,85.52983373622246,6.47544875391759e-05,0.0842081755399704,0,0,0
7989,266738.4163261123,2010-08-22 16:27:14,3031.54809961828,2,22,0.550297200679779,3.9139246940612793,23.77214913856223,23.27742346185802,94.28558295717392,85.52983373622246,3.237724376958795e-05,0.0842081755399704,0,0,0
7990,266768.43164633075,2010-08-22 16:27:45,3061.563419831735,2,22,0.5501165986061096,3.915381669998169,23.776736298916813,23.27742346185802,94.30354023684608,85.52983373622246,3.237724376958795e-05,0.0842081755399704,0,0,0
7991,266798.4472694291,2010-08-22 16:28:15,3091.579042930072,2,22,0.5501165986061096,3.9166767597198486,23.78132353058028,23.27742346185802,94.32150387162903,85.52983373622246,3.237724376958795e-05,0.0842081755399704,0,0,0
7992,266828.46242691705,2010-08-22 16:28:45,3121.5942004179647,2,22,0.550297200679779,3.9181337356567374,23.78591063372773,23.27742346185802,94.33947336882156,85.52983373622246,6.47544875391759e-05,0.0842081755399704,0,0,0
7993,266858.4777671103,2010-08-22 16:29:15,3151.609540616228,2,22,0.5499359965324402,3.919428825378418,23.79049776706875,23.27742346185802,94.35744932385428,85.52983373622246,3.237724376958795e-05,0.0842081755399704,0,0,0
7994,266888.4929777556,2010-08-22 16:29:45,3181.624751281656,2,22,0.5501165986061096,3.920885801315308,23.7950848595598,23.27742346185802,94.37543161997648,85.52983373622246,3.237724376958795e-05,0.0842081755399704,0,0,0
7995,266918.50856714,2010-08-22 16:30:15,3211.6403406459176,2,22,0.550297200679779,3.922342777252197,23.79967197918465,23.27742346185802,94.39342042340132,85.52983373622246,6.47544875391759e-05,0.0842081755399704,0,0,0
7996,266948.5236153555,2010-08-22 16:30:45,3241.6553888564576,2,22,0.5501165986061096,3.923637866973877,23.804259056143536,23.27742346185802,94.41141570731092,85.52983373622246,3.237724376958795e-05,0.0842081755399704,0,0,0
7997,266978.53895950364,2010-08-22 16:31:15,3271.670733009578,2,22,0.550297200679779,3.925256729125977,23.80884617075819,23.27742346185802,94.42941777077708,85.52983373622246,3.237724376958795e-05,0.0842081755399704,0,0,0
7998,267008.55428394256,2010-08-22 16:31:45,3301.686057468614,2,22,0.5501165986061096,3.926713705062866,23.813433294001207,23.27742346185802,94.44742654906864,85.52983373622246,6.47544875391759e-05,0.0842081755399704,0,0,0
7999,267038.5696188978,2010-08-22 16:32:15,3331.701392398747,2,22,0.5504778623580933,3.928332567214966,23.818020395914843,23.27742346185802,94.46544201320783,85.52983373622246,6.47544875391759e-05,0.0842081755399704,0,0,0
8000,267068.5852646276,2010-08-22 16:32:45,3361.717038153552,2,22,0.5499359965324402,3.9296276569366455,23.82260757204881,23.27742346185802,94.48346464702016,85.52983373622246,3.237724376958795e-05,0.0842081755399704,0,0,0
8001,267098.6002805977,2010-08-22 16:33:15,3391.732054098677,2,22,0.550297200679779,3.931246519088745,23.827194681188992,23.27742346185802,94.50149397418338,85.52983373622246,3.237724376958795e-05,0.0842081755399704,0,0,0
8002,267128.61558230006,2010-08-22 16:33:45,3421.7473558110214,2,22,0.5501165986061096,3.9327034950256343,23.83178184401505,23.27742346185802,94.5195305080014,85.52983373622246,3.237724376958795e-05,0.0842081755399704,0,0,0
8003,267158.63092264865,2010-08-22 16:34:15,3451.762696149635,2,22,0.550297200679779,3.9343223571777344,23.836369003260447,23.27742346185802,94.53757411403733,85.52983373622246,3.237724376958795e-05,0.0842081755399704,0,0,0
8004,267188.6463795428,2010-08-22 16:34:45,3481.7781530487523,2,22,0.550297200679779,3.935941219329834,23.84095616748992,23.27742346185802,94.55562500237414,85.52983373622246,6.47544875391759e-05,0.0842081755399704,0,0,0
8005,267218.6615911456,2010-08-22 16:35:15,3511.793364651516,2,22,0.5499359965324402,3.937398195266724,23.845543331751763,23.27742346185802,94.5736830819,85.52983373622246,3.237724376958795e-05,0.0842081755399704,0,0,0
8006,267248.67692797544,2010-08-22 16:35:45,3541.808701476372,2,22,0.550297200679779,3.9390170574188232,23.85013044966692,23.27742346185802,94.59174844060898,85.52983373622246,0.0,0.0842081755399704,0,0,0
8007,267278.6925135001,2010-08-22 16:36:15,3571.824287031139,2,22,0.5501165986061096,3.940797805786133,23.854717608303503,23.27742346185802,94.6098215196434,85.52983373622246,6.47544875391759e-05,0.0842081755399704,0,0,0
8008,267308.7075900413,2010-08-22 16:36:45,3601.839363542213,2,22,0.550297200679779,3.9425785541534415,23.859304736757995,23.27742346185802,94.6279020559642,85.52983373622246,9.713172767078504e-05,0.0842081755399704,0,0,0
8009,267338.7228356939,2010-08-22 16:37:15,3631.854609194839,2,22,0.5501165986061096,3.944035530090332,23.863891176660537,23.27742346185802,94.64598752237306,85.52983373622246,0.0,0.0842081755399704,0,0,0
8010,267368.7381583083,2010-08-22 16:37:45,3661.8699318142912,2,22,0.5501165986061096,3.9458162784576416,23.8684774085014,23.27742346185802,94.66407998888567,85.52983373622246,6.47544875391759e-05,0.0842081755399704,0,0,0
8011,267398.75367465056,2010-08-22 16:38:15,3691.885448161572,2,22,0.5501165986061096,3.947435140609741,23.87306382778037,23.27742346185802,94.6821811392897,85.52983373622246,3.237724376958795e-05,0.0842081755399704,0,0,0
8012,267428.76883854944,2010-08-22 16:38:45,3721.9006120504177,2,22,0.5501165986061096,3.9493777751922607,23.877649996599285,23.27742346185802,94.70028940092766,85.52983373622246,3.237724376958795e-05,0.0842081755399704,0,0,0
8013,267458.78417065257,2010-08-22 16:39:15,3751.91594416353,2,22,0.5501165986061096,3.9511585235595694,23.88223615401824,23.27742346185802,94.71840585476296,85.52983373622246,3.237724376958795e-05,0.0842081755399704,0,0,0
8014,267488.79950011906,2010-08-22 16:39:45,3781.931273620022,2,22,0.5501165986061096,3.95310115814209,23.8868223019712,23.27742346185802,94.73653058441894,85.52983373622246,6.47544875391759e-05,0.0842081755399704,0,0,0
8015,267518.81485128467,2010-08-22 16:40:15,3811.9466247856194,2,22,0.5501165986061096,3.9548819065094,23.89140893850621,23.27742346185802,94.75466575368812,85.52983373622246,6.47544875391759e-05,0.0842081755399704,0,0,0
8016,267548.83015191933,2010-08-22 16:40:45,3841.9619254503536,2,22,0.5501165986061096,3.956662654876709,23.89599606609493,23.27742346185802,94.77281149256254,85.52983373622246,0.0,0.0842081755399704,0,0,0
8017,267578.8454801477,2010-08-22 16:41:15,3871.977253673771,2,22,0.5501165986061096,3.958605289459229,23.90058326257762,23.27742346185802,94.79096596573252,85.52983373622246,6.47544875391759e-05,0.0842081755399704,0,0,0
8018,267608.86080008553,2010-08-22 16:41:45,3901.9925736115392,2,22,0.550297200679779,3.960547924041748,23.905170478533076,23.27742346185802,94.80912924228345,85.52983373622246,6.47544875391759e-05,0.0842081755399704,0,0,0
8019,267638.8761335871,2010-08-22 16:42:15,3932.0079071131127,2,22,0.5501165986061096,3.9623286724090576,23.909757605913416,23.27742346185802,94.82730081070405,85.52983373622246,3.237724376958795e-05,0.0842081755399704,0,0,0
8020,267668.8915839048,2010-08-22 16:42:45,3962.02335743584,2,22,0.5501165986061096,3.964433193206787,23.914344859144723,23.27742346185802,94.84548162930044,85.52983373622246,6.47544875391759e-05,0.0842081755399704,0,0,0
8021,267698.9067995276,2010-08-22 16:43:15,3992.0385730335606,2,22,0.5501165986061096,3.9662139415740967,23.91893207470642,23.27742346185802,94.86367107948575,85.52983373622246,3.237724376958795e-05,0.0842081755399704,0,0,0
8022,267728.92215182097,2010-08-22 16:43:45,4022.053925326969,2,22,0.5501165986061096,3.9679946899414062,23.92351934363403,23.27742346185802,94.88186954387044,85.52983373622246,3.237724376958795e-05,0.0842081755399704,0,0,0
8023,267758.9374698791,2010-08-22 16:44:15,4052.06924338004,2,22,0.550297200679779,3.970099210739136,23.92810658998965,23.27742346185802,94.9000767556428,85.52983373622246,3.237724376958795e-05,0.0842081755399704,0,0,0
8024,267788.9527705939,2010-08-22 16:44:45,4082.084544099911,2,22,0.5501165986061096,3.9720418453216553,23.932693800818125,23.27742346185802,94.9182927308354,85.52983373622246,3.237724376958795e-05,0.0842081755399704,0,0,0
8025,267818.96810359426,2010-08-22 16:45:15,4112.099877095222,2,22,0.5501165986061096,3.973984479904175,23.937280974875545,23.27742346185802,94.9365174465124,85.52983373622246,6.47544875391759e-05,0.0842081755399704,0,0,0
8026,267848.9834255621,2010-08-22 16:45:45,4142.115199073074,2,22,0.5499359965324402,3.9759271144866943,23.94186819424024,23.27742346185802,94.9547513357666,85.52983373622246,3.237724376958795e-05,0.0842081755399704,0,0,0
8027,267878.99889539345,2010-08-22 16:46:15,4172.130668919461,2,22,0.5501165986061096,3.977707862854004,23.946455447389532,23.27742346185802,94.9729943581028,85.52983373622246,0.0,0.0842081755399704,0,0,0
8028,267909.0141034875,2010-08-22 16:46:45,4202.145877018493,2,22,0.5501165986061096,3.979974269866944,23.951042612601903,23.27742346185802,94.9912457816614,85.52983373622246,9.713172767078504e-05,0.0842081755399704,0,0,0
8029,267939.0294470842,2010-08-22 16:47:15,4232.161220615226,2,22,0.5501165986061096,3.981755018234253,23.9556298126596,23.27742346185802,95.00950682732156,85.52983373622246,0.0,0.0842081755399704,0,0,0
8030,267969.0448606353,2010-08-22 16:47:45,4262.176634166307,2,22,0.5501165986061096,3.9838595390319824,23.960217017650884,23.27742346185802,95.02777705078093,85.52983373622246,6.47544875391759e-05,0.0842081755399704,0,0,0
8031,267999.06006859895,2010-08-22 16:48:15,4292.191842130001,2,22,0.550297200679779,3.986125946044922,23.964804178615665,23.27742346185802,95.04605630875268,85.52983373622246,9.713172767078504e-05,0.0842081755399704,0,0,0
8032,268029.0755236736,2010-08-22 16:48:45,4322.207297164472,2,22,0.5501165986061096,3.987906694412232,23.96939145899704,23.27742346185802,95.06434540362096,85.52983373622246,6.47544875391759e-05,0.0842081755399704,0,0,0
8033,268059.0906950912,2010-08-22 16:49:15,4352.222468622182,2,22,0.5501165986061096,3.990011215209961,23.973978551062004,23.27742346185802,95.08264298416016,85.52983373622246,6.47544875391759e-05,0.0842081755399704,0,0,0
8034,268089.10602592607,2010-08-22 16:49:45,4382.237799447084,2,22,0.5501165986061096,3.991953849792481,23.97856569765701,23.27742346185802,95.10095029592372,85.52983373622246,3.237724376958795e-05,0.0842081755399704,0,0,0
8035,268119.1214095927,2010-08-22 16:50:15,4412.253183093633,2,22,0.5501165986061096,3.994058132171631,23.98315285717529,23.27742346185802,95.11926723741706,85.52983373622246,6.470680091297254e-05,0.0842081755399704,0,0,0
8036,268149.13673591136,2010-08-22 16:50:45,4442.268509437367,2,22,0.5501165986061096,3.99616265296936,23.98773998026827,23.27742346185802,95.13759369801856,85.52983373622246,6.47544875391759e-05,0.0842081755399704,0,0,0
8037,268179.15205719747,2010-08-22 16:51:15,4472.283830703445,2,22,0.550297200679779,3.9984290599823,23.9923271389601,23.27742346185802,95.15593006554236,85.52983373622246,6.47544875391759e-05,0.0842081755399704,0,0,0
8038,268209.1675188334,2010-08-22 16:51:45,4502.299292344381,2,22,0.5499359965324402,4.000533580780029,23.99691429227288,23.27742346185802,95.17427612352412,85.52983373622246,9.70840483205393e-05,0.0842081755399704,0,0,0
8039,268239.18306484463,2010-08-22 16:52:15,4532.314838345568,2,22,0.550297200679779,4.002799987792969,24.001501424472732,23.27742346185802,95.19263208417036,85.52983373622246,6.47544875391759e-05,0.0842081755399704,0,0,0
8040,268269.1980360733,2010-08-22 16:52:45,4562.329809579259,2,22,0.550297200679779,4.005066394805908,24.006088510193617,23.27742346185802,95.21099793907668,85.52983373622246,9.70840483205393e-05,0.0842081755399704,0,0,0
8041,268299.21347942366,2010-08-22 16:53:15,4592.345252954672,2,22,0.5501165986061096,4.007171154022217,24.010675738841336,23.27742346185802,95.22937449986652,85.52983373622246,9.71794142969884e-05,0.0842081755399704,0,0,0
8042,268329.22868136235,2010-08-22 16:53:45,4622.360454863275,2,22,0.5501165986061096,4.009275436401367,24.015262869189822,23.27742346185802,95.2477608678454,85.52983373622246,6.47544875391759e-05,0.0842081755399704,0,0,0
8043,268359.24703302607,2010-08-22 16:54:15,4652.378806527036,2,22,0.5501165986061096,4.011541843414307,24.019850498878213,23.27742346185802,95.26615954578712,85.52983373622246,3.23295607813634e-05,0.0842081755399704,0,0,0
8044,268389.2593557689,2010-08-22 16:54:45,4682.391129299948,2,22,0.5501165986061096,4.013970375061035,24.02443724081357,23.27742346185802,95.28456513698528,85.52983373622246,6.47544875391759e-05,0.0842081755399704,0,0,0
8045,268419.2746649499,2010-08-22 16:55:15,4712.406438450831,2,22,0.550297200679779,4.016236782073975,24.029024404386643,23.27742346185802,95.3029829408854,85.52983373622246,6.47544875391759e-05,0.0842081755399704,0,0,0
8046,268449.2899916896,2010-08-22 16:55:45,4742.421765195564,2,22,0.5501165986061096,4.018503189086914,24.03361151822836,23.27742346185802,95.32141119666852,85.52983373622246,6.47544875391759e-05,0.0842081755399704,0,0,0
8047,268479.3053316873,2010-08-22 16:56:15,4772.4371051933285,2,22,0.5501165986061096,4.020931243896484,24.03819869169141,23.27742346185802,95.33985036053367,85.52983373622246,6.47544875391759e-05,0.0842081755399704,0,0,0
8048,268509.3206528933,2010-08-22 16:56:45,4802.452426394244,2,22,0.5501165986061096,4.023359775543213,24.042785821483253,23.27742346185802,95.35830024857732,85.52983373622246,9.71794142969884e-05,0.0842081755399704,0,0,0
8049,268539.33599879075,2010-08-22 16:57:15,4832.467772296724,2,22,0.550297200679779,4.025626182556152,24.04737294810129,23.27742346185802,95.37676108376404,85.52983373622246,6.47544875391759e-05,0.0842081755399704,0,0,0
8050,268569.3514005123,2010-08-22 16:57:45,4862.483174068448,2,22,0.5501165986061096,4.028054237365723,24.05196008232341,23.27742346185802,95.39523303339878,85.52983373622246,3.23295607813634e-05,0.0842081755399704,0,0,0
8051,268599.36678004364,2010-08-22 16:58:15,4892.498553554628,2,22,0.5501165986061096,4.030482769012451,24.056547250608997,23.27742346185802,95.41371626220108,85.52983373622246,3.24249267578125e-05,0.0842081755399704,0,0,0
8052,268629.381960574,2010-08-22 16:58:45,4922.513734079937,2,22,0.550297200679779,4.033234596252441,24.06113437721331,23.27742346185802,95.43221057743824,85.52983373622246,9.70840483205393e-05,0.0842081755399704,0,0,0
8053,268659.3973083662,2010-08-22 16:59:15,4952.52908189719,2,22,0.550297200679779,4.035338878631592,24.065722030057213,23.27742346185802,95.45071842563344,85.52983373622246,0.0,0.0842081755399704,0,0,0
8054,268689.41257365776,2010-08-22 16:59:46,4982.544347163701,2,22,0.550297200679779,4.03809118270874,24.070309979238893,23.27742346185802,95.46923896515048,85.52983373622246,9.71794142969884e-05,0.0842081755399704,0,0,0
8055,268719.42820442014,2010-08-22 17:00:16,5012.559977911102,2,22,0.550297200679779,4.0406813621521,24.074897938494217,23.27742346185802,95.48777111820586,85.52983373622246,9.71794142969884e-05,0.0842081755399704,0,0,0
8056,268749.4433692263,2010-08-22 17:00:46,5042.575142767359,2,22,0.5504778623580933,4.043271541595459,24.0794858915969,23.27742346185802,95.5063149386876,85.52983373622246,9.71794142969884e-05,0.0842081755399704,0,0,0
8057,268779.4586055808,2010-08-22 17:01:16,5072.590379086723,2,22,0.5504778623580933,4.045861721038818,24.084073884603143,23.27742346185802,95.52487075369068,85.52983373622246,9.71794142969884e-05,0.0842081755399704,0,0,0
8058,268809.4739005112,2010-08-22 17:01:46,5102.605674012153,2,22,0.550297200679779,4.048289775848389,24.088661932862387,23.27742346185802,95.5434387163577,85.52983373622246,6.47544875391759e-05,0.0842081755399704,0,0,0
8059,268839.4893767034,2010-08-22 17:02:16,5132.621150209368,2,22,0.5501165986061096,4.050879955291748,24.0932496750533,23.27742346185802,95.56201741469866,85.52983373622246,6.47544875391759e-05,0.0842081755399704,0,0,0
8060,268869.50470605964,2010-08-22 17:02:46,5162.63647958566,2,22,0.5501165986061096,4.0536322593688965,24.09783695170131,23.27742346185802,95.58060632425054,85.52983373622246,6.47544875391759e-05,0.0842081755399704,0,0,0
8061,268899.5198868406,2010-08-22 17:03:16,5192.651660341543,2,22,0.550297200679779,4.056384086608887,24.10242425472331,23.27742346185802,95.59920760342573,85.52983373622246,9.70840483205393e-05,0.0842081755399704,0,0,0
8062,268929.53520847764,2010-08-22 17:03:46,5222.666982003609,2,22,0.5499359965324402,4.058812618255615,24.10701156679915,23.27742346185802,95.61782127713276,85.52983373622246,6.47544875391759e-05,0.0842081755399704,0,0,0
8063,268959.5505379942,2010-08-22 17:04:16,5252.6823115002,2,22,0.5501165986061096,4.0615644454956055,24.111598829224317,23.27742346185802,95.63644704043652,85.52983373622246,3.23295607813634e-05,0.0842081755399704,0,0,0
8064,268989.56602218136,2010-08-22 17:04:46,5282.697795687328,2,22,0.5501165986061096,4.064478397369385,24.11618604879167,23.27742346185802,95.65508512357026,85.52983373622246,0.0001295089750783,0.0842081755399704,0,0,0
8065,269019.5813070417,2010-08-22 17:05:16,5312.7130805677225,2,22,0.5501165986061096,4.067230701446533,24.12077331502702,23.27742346185802,95.6737361035614,85.52983373622246,6.47544875391759e-05,0.0842081755399704,0,0,0
8066,269049.59649976244,2010-08-22 17:05:46,5342.728273268376,2,22,0.5501165986061096,4.069820880889893,24.125360568527658,23.27742346185802,95.69239983141462,85.52983373622246,6.47544875391759e-05,0.0842081755399704,0,0,0
8067,269079.6118453692,2010-08-22 17:06:16,5372.74361887512,2,22,0.550297200679779,4.072896480560303,24.129947895971075,23.27742346185802,95.71107677314792,85.52983373622246,6.47544875391759e-05,0.0842081755399704,0,0,0
8068,269109.6272872108,2010-08-22 17:06:46,5402.759060716709,2,22,0.550297200679779,4.075810432434082,24.13453518862996,23.27742346185802,95.729766658957,85.52983373622246,6.47544875391759e-05,0.0842081755399704,0,0,0
8069,269139.64249304414,2010-08-22 17:07:16,5432.774266550094,2,22,0.5501165986061096,4.078724384307861,24.139122456511807,23.27742346185802,95.74846961225006,85.52983373622246,9.70840483205393e-05,0.0842081755399704,0,0,0
8070,269169.65795372764,2010-08-22 17:07:46,5462.789727233644,2,22,0.550297200679779,4.08147668838501,24.14370979191876,23.27742346185802,95.76718616372342,85.52983373622246,9.71794142969884e-05,0.0842081755399704,0,0,0
8071,269199.67340407043,2010-08-22 17:08:16,5492.805177596471,2,22,0.5501165986061096,4.084390640258789,24.14829708764568,23.27742346185802,95.7859158735137,85.52983373622246,9.71794142969884e-05,0.0842081755399704,0,0,0
8072,269229.68849266664,2010-08-22 17:08:46,5522.820266172615,2,22,0.5501165986061096,4.087304592132568,24.152884364945816,23.27742346185802,95.8046591201469,85.52983373622246,3.24249267578125e-05,0.0842081755399704,0,0,0
8073,269259.7039327489,2010-08-22 17:09:16,5552.835706254819,2,22,0.550297200679779,4.0903801918029785,24.15747162777947,23.27742346185802,95.8234159486346,85.52983373622246,9.70840483205393e-05,0.0842081755399704,0,0,0
8074,269289.7191325572,2010-08-22 17:09:46,5582.850906063188,2,22,0.550297200679779,4.093456268310547,24.162058937651405,23.27742346185802,95.84218676555184,85.52983373622246,6.47544875391759e-05,0.0842081755399704,0,0,0
8075,269319.73460539104,2010-08-22 17:10:16,5612.8663788920085,2,22,0.5501165986061096,4.096370220184326,24.16664622733981,23.27742346185802,95.86097143776948,85.52983373622246,0.0,0.0842081755399704,0,0,0
8076,269349.7498027884,2010-08-22 17:10:46,5642.8815762943805,2,22,0.550297200679779,4.099607944488525,24.171233542353217,23.27742346185802,95.8797702790567,85.52983373622246,6.47544875391759e-05,0.0842081755399704,0,0,0
8077,269379.7651161598,2010-08-22 17:11:16,5672.89688966077,2,22,0.550297200679779,4.102521896362305,24.175820893616866,23.27742346185802,95.89858340652732,85.52983373622246,6.47544875391759e-05,0.0842081755399704,0,0,0
8078,269409.7804580573,2010-08-22 17:11:46,5702.912231578319,2,22,0.5501165986061096,4.105597496032715,24.18040822532511,23.27742346185802,95.91741082070078,85.52983373622246,6.47544875391759e-05,0.0842081755399704,0,0,0
8079,269439.79577823065,2010-08-22 17:12:16,5732.927551761698,2,22,0.5501165986061096,4.108997344970703,24.184995511170182,23.27742346185802,95.93625247204476,85.52983373622246,9.71794142969884e-05,0.0842081755399704,0,0,0
8080,269469.8110980732,2010-08-22 17:12:46,5762.942871579166,2,22,0.5501165986061096,4.112235069274902,24.18958280512719,23.27742346185802,95.95510872000476,85.52983373622246,9.71794142969884e-05,0.0842081755399704,0,0,0
8081,269499.82655547856,2010-08-22 17:13:16,5792.958328984547,2,22,0.5501165986061096,4.1153106689453125,24.19417014601527,23.27742346185802,95.97397975047808,85.52983373622246,9.71794142969884e-05,0.0842081755399704,0,0,0
8082,269529.8418317576,2010-08-22 17:13:46,5822.973605313628,2,22,0.550297200679779,4.118710041046143,24.19875744800548,23.27742346185802,95.99286546619216,85.52983373622246,9.70840483205393e-05,0.0842081755399704,0,0,0
8083,269559.8570916707,2010-08-22 17:14:16,5852.988865171659,2,22,0.550297200679779,4.121947765350342,24.203344784260075,23.27742346185802,96.0117662428502,85.52983373622246,9.70840483205393e-05,0.0842081755399704,0,0,0
8084,269589.87253229925,2010-08-22 17:14:46,5883.00430581025,2,22,0.5501165986061096,4.12502384185791,24.20793219600753,23.27742346185802,96.03068234800064,85.52983373622246,6.47544875391759e-05,0.0842081755399704,0,0,0
8085,269619.8877768692,2010-08-22 17:15:16,5913.019550395215,2,22,0.5501165986061096,4.12842321395874,24.212519465260577,23.27742346185802,96.0496130302651,85.52983373622246,0.0001295089750783,0.0842081755399704,0,0,0
8086,269649.9030636844,2010-08-22 17:15:46,5943.03483718537,2,22,0.5501165986061096,4.13166093826294,24.217106723964243,23.27742346185802,96.06855895710844,85.52983373622246,6.47544875391759e-05,0.0842081755399704,0,0,0
8087,269679.91839816346,2010-08-22 17:16:16,5973.050171669391,2,22,0.5501165986061096,4.135060787200928,24.22169405416725,23.27742346185802,96.0875205957093,85.52983373622246,9.71794142969884e-05,0.0842081755399704,0,0,0
8088,269709.9337135649,2010-08-22 17:16:46,6003.065487070854,2,22,0.550297200679779,4.138622283935547,24.22628134491042,23.27742346185802,96.10649761774918,85.52983373622246,9.71794142969884e-05,0.0842081755399704,0,0,0
8089,269739.94911972753,2010-08-22 17:17:16,6033.080893233521,2,22,0.5499359965324402,4.141860008239746,24.230868690021907,23.27742346185802,96.12549055428862,85.52983373622246,6.47544875391759e-05,0.0842081755399704,0,0,0
8090,269769.9643691094,2010-08-22 17:17:46,6063.096142615441,2,22,0.5501165986061096,4.145583152770996,24.23545596013824,23.27742346185802,96.1444990544982,85.52983373622246,9.70840483205393e-05,0.0842081755399704,0,0,0
8091,269799.9797116135,2010-08-22 17:18:16,6093.111485114439,2,22,0.550297200679779,4.148983001708984,24.240043227416056,23.27742346185802,96.16352372848276,85.52983373622246,6.47544875391759e-05,0.0842081755399704,0,0,0
8092,269829.99507523514,2010-08-22 17:18:46,6123.126848741093,2,22,0.550297200679779,4.152544498443604,24.244630559900457,23.27742346185802,96.18256471879629,85.52983373622246,9.71794142969884e-05,0.0842081755399704,0,0,0
8093,269860.0103585416,2010-08-22 17:19:16,6153.1421320425525,2,22,0.5501165986061096,4.156105995178223,24.249217864647324,23.27742346185802,96.20162177272633,85.52983373622246,0.0001295089750783,0.0842081755399704,0,0,0
8094,269890.02499607863,2010-08-22 17:19:46,6183.156769584581,2,22,0.5501165986061096,4.159667491912842,24.253802741317184,23.27742346185802,96.22068500870311,85.52983373622246,9.71794142969884e-05,0.0842081755399704,0,0,0
8095,269920.0253895049,2010-08-22 17:20:16,6213.157163010888,2,22,0.5501165986061096,4.163390636444092,24.25839005860654,23.27742346185802,96.239774844675,85.52983373622246,0.0001295089750783,0.0842081755399704,0,0,0
8096,269950.04085386766,2010-08-22 17:20:46,6243.172627373608,2,22,0.5501165986061096,4.16679048538208,24.262977347625164,23.27742346185802,96.25888103106462,85.52983373622246,6.47544875391759e-05,0.0842081755399704,0,0,0
8097,269980.0561844369,2010-08-22 17:21:16,6273.18795795791,2,22,0.550297200679779,4.17051362991333,24.26756462743709,23.27742346185802,96.27800389602406,85.52983373622246,0.0001295089750783,0.0842081755399704,0,0,0
8098,270010.0713726514,2010-08-22 17:21:46,6303.203146157346,2,22,0.5501165986061096,4.174237251281738,24.272151892320995,23.27742346185802,96.29714353120244,85.52983373622246,9.71794142969884e-05,0.0842081755399704,0,0,0
8099,270040.08668708045,2010-08-22 17:22:16,6333.218460586385,2,22,0.5501165986061096,4.177960395812988,24.27673917231152,23.27742346185802,96.31630009985612,85.52983373622246,9.70840483205393e-05,0.0842081755399704,0,0,0
8100,270070.1020415142,2010-08-22 17:22:46,6363.2338150151145,2,22,0.5499359965324402,4.181521892547607,24.28132640152196,23.27742346185802,96.33547355311268,85.52983373622246,9.70840483205393e-05,0.0842081755399704,0,0,0
8101,270100.1173445448,2010-08-22 17:23:16,6393.249118050757,2,22,0.550297200679779,4.185407161712647,24.28591368840309,23.27742346185802,96.35466443933608,85.52983373622246,0.0001295089750783,0.0842081755399704,0,0,0
8102,270130.13267849246,2010-08-22 17:23:46,6423.264451998442,2,22,0.550297200679779,4.1892924308776855,24.29050096229076,23.27742346185802,96.37387264647984,85.52983373622246,0.0001295089750783,0.0842081755399704,0,0,0
8103,270160.148140384,2010-08-22 17:24:16,6453.279913915065,2,22,0.550297200679779,4.193016052246094,24.29508827486377,23.27742346185802,96.39309852175708,85.52983373622246,9.71794142969884e-05,0.0842081755399704,0,0,0
8104,270190.1635757996,2010-08-22 17:24:46,6483.295349325627,2,22,0.5501165986061096,4.196900844573975,24.299675567821645,23.27742346185802,96.41234189483448,85.52983373622246,9.70840483205393e-05,0.0842081755399704,0,0,0
8105,270213.86621910485,2010-08-22 17:25:10,6506.997992610815,2,22,0.550297200679779,4.200138568878174,24.303298088666207,23.27742346185802,96.42755066388747,85.52983373622246,0.0001618385285837,0.0842081755399704,0,0,0
8106,270243.88235712453,2010-08-22 17:25:40,30.01534956661217,3,22,0.0,4.1277756690979,24.303298088666207,23.27742346185802,96.42755066388747,85.52983373622246,-0.0003885269106831,0.0842081755399704,0,0,0
8107,270273.89778581826,2010-08-22 17:26:10,60.03077823537123,3,22,0.0,4.1190338134765625,24.303298088666207,23.27742346185802,96.42755066388747,85.52983373622246,-0.0001942634553415,0.0842081755399704,0,0,0
8108,270303.912988569,2010-08-22 17:26:40,90.04598098607299,3,22,0.0,4.113853931427002,24.303298088666207,23.27742346185802,96.42755066388747,85.52983373622246,-0.0001295089750783,0.0842081755399704,0,0,0
8109,270333.88144916383,2010-08-22 17:27:10,120.0144415809402,3,22,0.0,4.110616207122803,24.303298088666207,23.27742346185802,96.42755066388747,85.52983373622246,-6.47544875391759e-05,0.0842081755399704,0,0,0
8110,270333.8834404982,2010-08-22 17:27:10,0.015647543493013,4,22,0.9965827465057372,4.199814796447754,24.30330242035292,23.27742346185802,96.42756885616944,85.52983373622246,0.0,0.0842081755399704,0,0,0
8111,270334.78980824555,2010-08-22 17:27:11,0.922015300826676,4,22,0.9463733434677124,4.199653148651123,24.3035453977776,23.27742346185802,96.42858927675388,85.52983373622246,-3.23295607813634e-05,0.0842081755399704,0,0,0
8112,270336.8677867624,2010-08-22 17:27:13,2.999993812656158,4,22,0.8959833979606628,4.199653148651123,24.30407591806472,23.27742346185802,96.43081726677325,85.52983373622246,-3.23295607813634e-05,0.0842081755399704,0,0,0
8113,270340.0089314564,2010-08-22 17:27:16,6.141138612002221,4,22,0.8457739949226379,4.199491024017334,24.30483464541886,23.27742346185802,96.43400364469872,85.52983373622246,-3.24249267578125e-05,0.0842081755399704,0,0,0
8114,270344.1958464118,2010-08-22 17:27:21,10.328053482140104,4,22,0.7957452535629272,4.199653148651123,24.30578807504476,23.27742346185802,96.4380077279361,85.52983373622246,0.0,0.0842081755399704,0,0,0
8115,270349.53951268736,2010-08-22 17:27:26,15.671719737653843,4,22,0.7457164525985718,4.199814796447754,24.306930607721917,23.27742346185802,96.44280598591892,85.52983373622246,3.23295607813634e-05,0.0842081755399704,0,0,0
8116,270356.3520311846,2010-08-22 17:27:33,22.484238315108424,4,22,0.6955071091651917,4.199653148651123,24.30829226718302,23.27742346185802,96.44852450122715,85.52983373622246,3.24249267578125e-05,0.0842081755399704,0,0,0
8117,270365.25810306607,2010-08-22 17:27:42,31.390310111354456,4,22,0.6454783082008362,4.199653148651123,24.309948303600464,23.27742346185802,96.4554793248035,85.52983373622246,0.0,0.0842081755399704,0,0,0
8118,270377.38310887135,2010-08-22 17:27:54,43.51531591659212,4,22,0.5954495668411255,4.199814796447754,24.31203389064813,23.27742346185802,96.46423811271892,85.52983373622246,0.0,0.0842081755399704,0,0,0
8119,270394.9140638954,2010-08-22 17:28:11,61.04627094566458,4,22,0.5452401638031006,4.199653148651123,24.31480414169832,23.27742346185802,96.47587226349368,85.52983373622246,-3.23295607813634e-05,0.0842081755399704,0,0,0
8120,270422.2107054401,2010-08-22 17:28:39,88.34291251041056,4,22,0.495030790567398,4.199653148651123,24.31873503104463,23.27742346185802,96.49238069487448,85.52983373622246,0.0,0.0842081755399704,0,0,0
8121,270467.6164818158,2010-08-22 17:29:24,133.74868886609704,4,22,0.445002019405365,4.199653148651123,24.32463883403897,23.27742346185802,96.51717476718868,85.52983373622246,0.0,0.0842081755399704,0,0,0
8122,270538.6939006284,2010-08-22 17:30:35,204.8261076937907,4,22,0.3949732482433319,4.199491024017334,24.332900843792327,23.27742346185802,96.5518725539844,85.52983373622246,-3.24249267578125e-05,0.0842081755399704,0,0,0
8123,270634.30232646863,2010-08-22 17:32:11,300.43453351892407,4,22,0.3449444770812988,4.199814796447754,24.34270561952053,23.27742346185802,96.59304951906697,85.52983373622246,3.23295607813634e-05,0.0842081755399704,0,0,0
8124,270752.4886726734,2010-08-22 17:34:09,418.6208797186835,4,22,0.2949157059192657,4.199653148651123,24.35319222300445,23.27742346185802,96.6370899141972,85.52983373622246,-3.23295607813634e-05,0.0842081755399704,0,0,0
8125,270895.0810102482,2010-08-22 17:36:31,561.2132173185478,4,22,0.2448869347572326,4.199491024017334,24.363858915705773,23.27742346185802,96.68188653195604,85.52983373622246,-3.24249267578125e-05,0.0842081755399704,0,0,0
8126,271072.0948687544,2010-08-22 17:39:28,738.2270757996853,4,22,0.1948581635951995,4.199653148651123,24.374636694409222,23.27742346185802,96.727149707099,85.52983373622246,0.0,0.0842081755399704,0,0,0
8127,271305.4052376565,2010-08-22 17:43:22,971.5374447068076,4,22,0.1448293924331665,4.199653148651123,24.385578162182203,23.27742346185802,96.77310038957958,85.52983373622246,0.0,0.0842081755399704,0,0,0
8128,271649.32349720533,2010-08-22 17:49:06,1315.455704250594,4,22,0.094800628721714,4.199653148651123,24.39686901547066,23.27742346185802,96.8205183265926,85.52983373622246,0.0,0.0842081755399704,0,0,0
8129,272204.3961289301,2010-08-22 17:58:21,1870.5283359804432,4,22,0.0498289167881011,4.199491024017334,24.407669406622293,23.27742346185802,96.8658764780822,85.52983373622246,-3.24249267578125e-05,0.0842081755399704,0,0,0
8130,272234.4007330036,2010-08-22 17:58:51,30.01533599278201,5,22,0.0,4.193016052246094,24.407669406622293,23.27742346185802,96.8658764780822,85.52983373622246,-3.23295607813634e-05,0.0842081755399704,0,0,0
8131,272264.4004474126,2010-08-22 17:59:21,60.015050401770566,5,22,0.0,4.191882610321045,24.407669406622293,23.27742346185802,96.8658764780822,85.52983373622246,-6.47544875391759e-05,0.0842081755399704,0,0,0
8132,272264.5935512782,2010-08-22 17:59:21,0.187621475446497,6,22,-0.0001998523803194,4.191882610321045,24.407669406622293,23.277423472273743,96.8658764780822,85.52983377988393,0.0,0.0850178673863411,0,0,0
8133,272269.42149905453,2010-08-22 17:59:26,5.015569276890095,6,22,0.0007031940040178,4.192044734954834,24.407670357315023,23.277423473136977,96.86588046340056,85.52983378350251,0.0,0.0850178673863411,0,0,0
8134,272299.4267364765,2010-08-22 17:59:56,30.01532672969555,7,22,-1.0997490882873535,4.04278564453125,24.407670357315023,23.28659351148893,96.86588046340056,85.56707484478159,-0.0007770538213662,0.0850178673863411,0,0,0
8135,272329.44207128126,2010-08-22 18:00:26,60.0306615295043,7,22,-1.0997490882873535,4.0202836990356445,24.407670357315023,23.29576353785588,96.86588046340056,85.60403616149512,-0.0004857063177041,0.0850178673863411,0,0,0
8136,272359.4575278947,2010-08-22 18:00:56,90.04611814792251,7,22,-1.0997490882873535,4.005228519439697,24.407670357315023,23.30493357081139,96.86588046340056,85.64082916075263,-0.0002913475036621,0.0850178673863411,0,0,0
8137,272389.4727169764,2010-08-22 18:01:26,120.06130722454424,7,22,-1.0997490882873535,3.99292516708374,24.407670357315023,23.31410344183782,96.86588046340056,85.67749716441122,-0.0002589702489785,0.0850178673863411,0,0,0
8138,272419.4880360469,2010-08-22 18:01:56,150.076626295151,7,22,-1.099568486213684,3.9824025630950928,24.407670357315023,23.323273419988787,96.86588046340056,85.71406247387777,-0.0002590179501567,0.0850178673863411,0,0,0
8139,272449.50349693594,2010-08-22 18:02:26,180.09208718922545,7,22,-1.099929690361023,3.972851276397705,24.407670357315023,23.332443325945636,96.86588046340056,85.75053591840269,-0.0002266406954731,0.0850178673863411,0,0,0
8140,272479.51868906524,2010-08-22 18:02:56,210.10727931845523,7,22,-1.099929690361023,3.9637856483459473,24.407670357315023,23.34161313973738,96.86588046340056,85.7869242949483,-0.0002590179501567,0.0850178673863411,0,0,0
8141,272509.53401806555,2010-08-22 18:03:26,240.12260831379749,7,22,-1.099929690361023,3.955367565155029,24.407670357315023,23.35078297163951,96.86588046340056,85.82323272063503,-0.0002266406954731,0.0850178673863411,0,0,0
8142,272539.54946428805,2010-08-22 18:03:56,270.13805454633086,7,22,-1.1001102924346924,3.9469494819641113,24.407670357315023,23.359952806771737,96.86588046340056,85.85946419494982,-0.0002266406954731,0.0850178673863411,0,0,0
8143,272569.56493770337,2010-08-22 18:04:26,300.1535279766495,7,22,-1.099929690361023,3.9390170574188232,24.407670357315023,23.36912261270876,96.86588046340056,85.89562098640744,-0.0002266406954731,0.0850178673863411,0,0,0
8144,272599.57999740256,2010-08-22 18:04:56,330.16858765577285,7,22,-1.0997490882873535,3.931084632873535,24.407670357315023,23.37829243285496,96.86588046340056,85.9317049844218,-0.0001942634553415,0.0850178673863411,0,0,0
8145,272629.5953261723,2010-08-22 18:05:26,360.1839164205404,7,22,-1.0997490882873535,3.923475980758667,24.407670357315023,23.387462286930745,96.86588046340056,85.96771784932986,-0.0002266406954731,0.0850178673863411,0,0,0
8146,272659.6111489232,2010-08-22 18:05:56,390.1997392065609,7,22,-1.099929690361023,3.915705442428589,24.407670357315023,23.39663237494509,96.86588046340056,86.0036615613457,-0.0002266406954731,0.0850178673863411,0,0,0
8147,272689.6287901313,2010-08-22 18:06:26,420.2173803895864,7,22,-1.099929690361023,3.90842080116272,24.407670357315023,23.405802915266527,96.86588046340056,86.039538220399,-0.0002266406954731,0.0850178673863411,0,0,0
8148,272719.6413276044,2010-08-22 18:06:56,450.2299178575834,7,22,-1.0997490882873535,3.9009740352630615,24.407670357315023,23.414971948408457,96.86588046340056,86.07534116411925,-0.0002590179501567,0.0850178673863411,0,0,0
8149,272749.6566580884,2010-08-22 18:07:26,480.24524834163606,7,22,-1.099929690361023,3.8938510417938232,24.407670357315023,23.424141855951856,96.86588046340056,86.11108058189085,-0.0001942634553415,0.0850178673863411,0,0,0
8150,272779.67212009523,2010-08-22 18:07:56,510.2607103735464,7,22,-1.1001102924346924,3.886728048324585,24.407670357315023,23.43331178968465,96.86588046340056,86.14675451332837,-0.0001942634553415,0.0850178673863411,0,0,0
8151,272809.6872964401,2010-08-22 18:08:26,540.2758866883618,7,22,-1.099929690361023,3.8797669410705566,24.407670357315023,23.442481638693597,96.86588046340056,86.18236285025976,-0.0001618862152099,0.0850178673863411,0,0,0
8152,272839.702623656,2010-08-22 18:08:56,570.2912139092816,7,22,-1.0997490882873535,3.872805833816528,24.407670357315023,23.451651484552823,96.86588046340056,86.21790669289744,-0.0001618862152099,0.0850178673863411,0,0,0
8153,272869.7180619889,2010-08-22 18:09:26,600.3066522421266,7,22,-1.1001102924346924,3.86568284034729,24.407670357315023,23.460821487872,96.86588046340056,86.25338756475188,-0.0002266406954731,0.0850178673863411,0,0,0
8154,272899.733260499,2010-08-22 18:09:56,630.3218507522595,7,22,-1.0997490882873535,3.8590455055236816,24.407670357315023,23.46999134361537,96.86588046340056,86.28880513480156,-0.0001618862152099,0.0850178673863411,0,0,0
8155,272929.74873113737,2010-08-22 18:10:26,660.3373213956322,7,22,-1.0997490882873535,3.8522462844848633,24.407670357315023,23.47916129824938,96.86588046340056,86.32416106232913,-0.0001942634553415,0.0850178673863411,0,0,0
8156,272959.76409123524,2010-08-22 18:10:56,690.3526815135415,7,22,-1.0997490882873535,3.845608949661255,24.407670357315023,23.48833122901024,96.86588046340056,86.35945572897135,-0.0001942634553415,0.0850178673863411,0,0,0
8157,272989.77926489845,2010-08-22 18:11:26,720.3678551717358,7,22,-1.099929690361023,3.839133501052856,24.407670357315023,23.497501067195824,96.86588046340056,86.39468985151937,-0.0001618862152099,0.0850178673863411,0,0,0
8158,273019.7945889715,2010-08-22 18:11:57,750.3831792197477,7,22,-1.0997490882873535,3.832820177078247,24.407670357315023,23.50667102763119,96.86588046340056,86.42986503182586,-0.0001294612884521,0.0850178673863411,0,0,0
8159,273049.8102018544,2010-08-22 18:12:27,780.3987920976125,7,22,-1.0997490882873535,3.8263447284698486,24.407670357315023,23.515841079450286,96.86588046340056,86.4649822013817,-0.0001942634553415,0.0850178673863411,0,0,0
8160,273079.8253494927,2010-08-22 18:12:57,810.4139397409698,7,22,-1.0997490882873535,3.82019305229187,24.407670357315023,23.52501097639097,96.86588046340056,86.50004128855079,-0.0001618862152099,0.0850178673863411,0,0,0
8161,273109.84054895025,2010-08-22 18:13:27,840.4291392034763,7,22,-1.099929690361023,3.814041376113892,24.407670357315023,23.53418082790957,96.86588046340056,86.53504349748052,-0.0001618862152099,0.0850178673863411,0,0,0
8162,273139.8558663968,2010-08-22 18:13:57,870.444456655048,7,22,-1.0997490882873535,3.807889699935913,24.407670357315023,23.543350770319464,96.86588046340056,86.56998976326946,-0.0001942634553415,0.0850178673863411,0,0,0
8163,273169.8712080136,2010-08-22 18:14:27,900.4597982618218,7,22,-1.0997490882873535,3.8020617961883545,24.407670357315023,23.55252069971637,96.86588046340056,86.60488112196656,-0.0001618862152099,0.0850178673863411,0,0,0
8164,273199.8866783512,2010-08-22 18:14:57,930.475268604445,7,22,-1.099929690361023,3.796233892440796,24.407670357315023,23.56169068382924,96.86588046340056,86.6397189845561,-0.0001618862152099,0.0850178673863411,0,0,0
8165,273229.90184985904,2010-08-22 18:15:27,960.4904401323298,7,22,-1.099929690361023,3.7905678749084473,24.407670357315023,23.57086056548199,96.86588046340056,86.67450365018024,-0.0001295089750783,0.0850178673863411,0,0,0
8166,273259.91731375054,2010-08-22 18:15:57,990.5059040038248,7,22,-1.0997490882873535,3.7850637435913086,24.407670357315023,23.580030556514178,96.86588046340056,86.70923685699779,-9.713172767078504e-05,0.0850178673863411,0,0,0
8167,273289.9325241303,2010-08-22 18:16:27,1020.521114378528,7,22,-1.099929690361023,3.77955961227417,24.407670357315023,23.589200500794103,96.86588046340056,86.74391891011231,-0.0001295089750783,0.0850178673863411,0,0,0
8168,273319.94797533023,2010-08-22 18:16:57,1050.5365655884666,7,22,-1.099929690361023,3.773893594741821,24.407670357315023,23.59837052715504,96.86588046340056,86.77855150039362,-0.0001618862152099,0.0850178673863411,0,0,0
8169,273349.96328439086,2010-08-22 18:17:27,1080.5518746391006,7,22,-1.0997490882873535,3.768875122070313,24.407670357315023,23.607540498656626,96.86588046340056,86.81313484022466,-9.713172767078504e-05,0.0850178673863411,0,0,0
8170,273379.9784852418,2010-08-22 18:17:57,1110.5670754900675,7,22,-1.099929690361023,3.763532876968384,24.407670357315023,23.61671042209373,96.86588046340056,86.84767008460159,-0.0001295089750783,0.0850178673863411,0,0,0
8171,273409.99383388617,2010-08-22 18:18:27,1140.5824241594437,7,22,-1.0997490882873535,3.758514404296875,24.407670357315023,23.625880384851527,96.86588046340056,86.88215841122955,-0.0001295089750783,0.0850178673863411,0,0,0
8172,273440.0092600888,2010-08-22 18:18:57,1170.5978503670688,7,22,-1.0997490882873535,3.753495931625366,24.407670357315023,23.63505041240972,96.86588046340056,86.91660080193728,-0.0001295089750783,0.0850178673863411,0,0,0
8173,273470.0244532556,2010-08-22 18:19:27,1200.613043508822,7,22,-1.099929690361023,3.748477697372437,24.407670357315023,23.644220393215846,96.86588046340056,86.9509975238926,-0.0001618862152099,0.0850178673863411,0,0,0
8174,273500.0397790429,2010-08-22 18:19:57,1230.6283692911566,7,22,-1.0997490882873535,3.743782997131348,24.407670357315023,23.65339036186205,96.86588046340056,86.98534981547594,-0.0001618862152099,0.0850178673863411,0,0,0
8175,273530.0551247499,2010-08-22 18:20:27,1260.6437150031618,7,22,-1.0997490882873535,3.739088296890259,24.407670357315023,23.662560384368263,96.86588046340056,87.01965860253212,-0.0001295089750783,0.0850178673863411,0,0,0
8176,273560.0705510077,2010-08-22 18:20:57,1290.6591412959992,7,22,-1.0997490882873535,3.73455548286438,24.407670357315023,23.67173037912632,96.86588046340056,87.05392444134165,-9.713172767078504e-05,0.0850178673863411,0,0,0
8177,273590.08576333226,2010-08-22 18:21:27,1320.6743535854746,7,22,-1.0997490882873535,3.730022668838501,24.407670357315023,23.68090041760197,96.86588046340056,87.08814820584772,-9.713172767078504e-05,0.0850178673863411,0,0,0
8178,273620.10110147536,2010-08-22 18:21:57,1350.6896917436536,7,22,-1.1001102924346924,3.725489854812622,24.407670357315023,23.6900703707889,96.86588046340056,87.12233075970182,-9.713172767078504e-05,0.0850178673863411,0,0,0
8179,273650.11659212864,2010-08-22 18:22:27,1380.705182386872,7,22,-1.0997490882873535,3.720957040786743,24.407670357315023,23.69924038635231,96.86588046340056,87.15647289173609,-0.0001295089750783,0.0850178673863411,0,0,0
8180,273680.1317525288,2010-08-22 18:22:57,1410.720342776998,7,22,-1.099929690361023,3.716747999191284,24.407670357315023,23.708410336559577,96.86588046340056,87.19057478804251,-0.0001295089750783,0.0850178673863411,0,0,0
8181,273710.1470773337,2010-08-22 18:23:27,1440.735667586909,7,22,-1.0997490882873535,3.712538957595825,24.407670357315023,23.71758036184004,96.86588046340056,87.22463757614928,-9.713172767078504e-05,0.0850178673863411,0,0,0
8182,273740.16241977253,2010-08-22 18:23:57,1470.7510100257564,7,22,-1.0997490882873535,3.708168029785156,24.407670357315023,23.72675038451632,96.86588046340056,87.25866170585651,-0.0001295089750783,0.0850178673863411,0,0,0
8183,273770.17775300343,2010-08-22 18:24:27,1500.766343256655,7,22,-1.0997490882873535,3.704282760620117,24.407670357315023,23.73592030620763,96.86588046340056,87.29264766486716,-9.713172767078504e-05,0.0850178673863411,0,0,0
8184,273800.1930476231,2010-08-22 18:24:57,1530.78163787131,7,22,-1.099929690361023,3.700073719024658,24.407670357315023,23.745090339667243,96.86588046340056,87.32659666286656,-0.0001295089750783,0.0850178673863411,0,0,0
8185,273830.20839918964,2010-08-22 18:25:27,1560.7969894379069,7,22,-1.0997490882873535,3.696350336074829,24.407670357315023,23.75426035764458,96.86588046340056,87.36050887547513,-9.713172767078504e-05,0.0850178673863411,0,0,0
8186,273860.22369508253,2010-08-22 18:25:57,1590.8122853307475,7,22,-1.099568486213684,3.69246506690979,24.407670357315023,23.763430349898844,96.86588046340056,87.39438499323902,-6.47544875391759e-05,0.0850178673863411,0,0,0
8187,273890.23916333995,2010-08-22 18:26:27,1620.8277535881734,7,22,-1.0997490882873535,3.688579797744751,24.407670357315023,23.772600455599537,96.86588046340056,87.4282262419658,-6.47544875391759e-05,0.0850178673863411,0,0,0
8188,273920.2545104604,2010-08-22 18:26:57,1650.8431007287393,7,22,-1.099929690361023,3.684856414794922,24.407670357315023,23.781770378606076,96.86588046340056,87.46203192371183,-6.47544875391759e-05,0.0850178673863411,0,0,0
8189,273950.2696652967,2010-08-22 18:27:27,1680.8582555750486,7,22,-1.099568486213684,3.6811330318450928,24.407670357315023,23.79094032232461,96.86588046340056,87.49580370932934,-9.713172767078504e-05,0.0850178673863411,0,0,0
8190,273980.28511006065,2010-08-22 18:27:57,1710.873700298822,7,22,-1.099929690361023,3.6772477626800537,24.407670357315023,23.800110363216945,96.86588046340056,87.52954223435015,-0.0001295089750783,0.0850178673863411,0,0,0
8191,274010.30036479584,2010-08-22 18:28:27,1740.8889550491224,7,22,-1.099929690361023,3.6736862659454346,24.407670357315023,23.80928031511278,96.86588046340056,87.56324770348563,-0.0001295089750783,0.0850178673863411,0,0,0
8192,274040.31569782627,2010-08-22 18:28:57,1770.9042880995712,7,22,-1.099929690361023,3.6704487800598153,24.407670357315023,23.81845026025448,96.86588046340056,87.59692087055016,-9.713172767078504e-05,0.0850178673863411,0,0,0
8193,274070.3310248116,2010-08-22 18:29:27,1800.9196150598414,7,22,-1.099929690361023,3.6668872833251953,24.407670357315023,23.82762033245036,96.86588046340056,87.63056288096192,-9.713172767078504e-05,0.0850178673863411,0,0,0
8194,274100.3463245992,2010-08-22 18:29:57,1830.9349148473889,7,22,-1.0997490882873535,3.663649559020996,24.407670357315023,23.83679028337424,96.86588046340056,87.66417387955455,-6.47544875391759e-05,0.0850178673863411,0,0,0
8195,274130.36166481744,2010-08-22 18:30:27,1860.950255065702,7,22,-1.099929690361023,3.660573720932007,24.407670357315023,23.845960270675217,96.86588046340056,87.69775476722059,-6.47544875391759e-05,0.0850178673863411,0,0,0
8196,274160.37698541686,2010-08-22 18:30:57,1890.965575665119,7,22,-1.099929690361023,3.6571741104125977,24.407670357315023,23.85513027140504,96.86588046340056,87.73130616428354,-9.713172767078504e-05,0.0850178673863411,0,0,0
8197,274190.3923417704,2010-08-22 18:31:27,1920.9809320236589,7,22,-1.0997490882873535,3.654098272323608,24.407670357315023,23.86430025384804,96.86588046340056,87.76482868436946,-9.713172767078504e-05,0.0850178673863411,0,0,0
8198,274220.4076397836,2010-08-22 18:31:57,1950.996230031772,7,22,-1.0997490882873535,3.651184320449829,24.407670357315023,23.873470233999416,96.86588046340056,87.79832327923809,-6.47544875391759e-05,0.0850178673863411,0,0,0
8199,274250.4229750545,2010-08-22 18:32:27,1981.0115653328296,7,22,-1.0997490882873535,3.64827036857605,24.407670357315023,23.882640275258275,96.86588046340056,87.83179095278167,-9.713172767078504e-05,0.0850178673863411,0,0,0
8200,274280.4383821144,2010-08-22 18:32:57,2011.02697238772,7,22,-1.1001102924346924,3.6453564167022714,24.407670357315023,23.891810532459576,96.86588046340056,87.86523256095052,-6.47544875391759e-05,0.0850178673863411,0,0,0
8201,274310.45373669855,2010-08-22 18:33:27,2041.0423269568,7,22,-1.099929690361023,3.642604351043701,24.407670357315023,23.900981244587577,96.86588046340056,87.89864998229291,-6.47544875391759e-05,0.0850178673863411,0,0,0
8202,274340.468910061,2010-08-22 18:33:57,2071.057500329282,7,22,-1.1001102924346924,3.639852285385132,24.407670357315023,23.910151915782468,96.86588046340056,87.93204226936518,-9.713172767078504e-05,0.0850178673863411,0,0,0
8203,274370.48425690585,2010-08-22 18:34:27,2101.072847179123,7,22,-1.1001102924346924,3.637262105941773,24.407670357315023,23.919322666754745,96.86588046340056,87.96541040432345,-9.713172767078504e-05,0.0850178673863411,0,0,0
8204,274400.4995721269,2010-08-22 18:34:57,2131.0881623800856,7,22,-1.0997490882873535,3.634671926498413,24.407670357315023,23.92849305523092,96.86588046340056,87.99875356070831,-6.47544875391759e-05,0.0850178673863411,0,0,0
8205,274430.51489857584,2010-08-22 18:35:27,2161.103488824069,7,22,-1.099929690361023,3.6320817470550537,24.407670357315023,23.937662923560552,96.86588046340056,88.03207160166447,-9.713172767078504e-05,0.0850178673863411,0,0,0
8206,274460.5303646378,2010-08-22 18:35:57,2191.1189549110863,7,22,-1.0997490882873535,3.629815340042114,24.407670357315023,23.946832792566333,96.86588046340056,88.06536677439574,-6.47544875391759e-05,0.0850178673863411,0,0,0
8207,274490.5457604848,2010-08-22 18:36:27,2221.1343507329807,7,22,-1.099929690361023,3.627225160598755,24.407670357315023,23.95600270114281,96.86588046340056,88.09863933139142,-9.713172767078504e-05,0.0850178673863411,0,0,0
8208,274520.5608747399,2010-08-22 18:36:57,2251.149464998149,7,22,-1.099929690361023,3.6247968673706055,24.407670357315023,23.965172509328458,96.86588046340056,88.13188906526257,-6.47544875391759e-05,0.0850178673863411,0,0,0
8209,274550.5762079207,2010-08-22 18:37:27,2281.164798168898,7,22,-1.099929690361023,3.622368574142456,24.407670357315023,23.974342413279224,96.86588046340056,88.16511710280288,-6.47544875391759e-05,0.0850178673863411,0,0,0
8210,274580.5916669401,2010-08-22 18:37:57,2311.180257198325,7,22,-1.099929690361023,3.619940280914306,24.407670357315023,23.983512354102068,96.86588046340056,88.19832295816556,-6.47544875391759e-05,0.0850178673863411,0,0,0
8211,274610.60955471767,2010-08-22 18:38:27,2341.1981449709274,7,22,-1.099929690361023,3.617511987686157,24.407670357315023,23.99268300015644,96.86588046340056,88.23150927347332,-6.47544875391759e-05,0.0850178673863411,0,0,0
8212,274640.62235373753,2010-08-22 18:38:57,2371.210943995805,7,22,-1.099929690361023,3.615083694458008,24.407670357315023,24.001852136316725,96.86588046340056,88.26466773226709,-9.713172767078504e-05,0.0850178673863411,0,0,0
8213,274670.63753382175,2010-08-22 18:39:27,2401.226124069989,7,22,-1.099929690361023,3.612493515014648,24.407670357315023,24.011021972683384,96.86588046340056,88.29780640750036,-9.713172767078504e-05,0.0850178673863411,0,0,0
8214,274700.6529595632,2010-08-22 18:39:57,2431.2415498114533,7,22,-1.099568486213684,3.610227108001709,24.407670357315023,24.02019181200613,96.86588046340056,88.33092225737958,-6.47544875391759e-05,0.0850178673863411,0,0,0
8215,274730.6681919678,2010-08-22 18:40:27,2461.256782221074,7,22,-1.0997490882873535,3.6076369285583496,24.407670357315023,24.02936169444826,96.86588046340056,88.3640150849083,-6.47544875391759e-05,0.0850178673863411,0,0,0
8216,274760.6834840913,2010-08-22 18:40:57,2491.272074349533,7,22,-1.0997490882873535,3.60488486289978,24.407670357315023,24.038531524503757,96.86588046340056,88.39708420189116,-0.0001295089750783,0.0850178673863411,0,0,0
8217,274790.69880655536,2010-08-22 18:41:27,2521.287396803572,7,22,-1.0997490882873535,3.602456569671631,24.407670357315023,24.04770130394105,96.86588046340056,88.4301291355835,-3.237724376958795e-05,0.0850178673863411,0,0,0
8218,274820.71412521496,2010-08-22 18:41:57,2551.3027154681668,7,22,-1.0997490882873535,3.599704504013061,24.407670357315023,24.056871186986164,96.86588046340056,88.46314983628163,-6.47544875391759e-05,0.0850178673863411,0,0,0
8219,274850.7294636638,2010-08-22 18:42:27,2581.3180539170703,7,22,-1.0997490882873535,3.596952438354492,24.407670357315023,24.06604112674365,96.86588046340056,88.49614570297362,-3.237724376958795e-05,0.0850178673863411,0,0,0
8220,274880.74479935085,2010-08-22 18:42:57,2611.3333895990777,7,22,-1.099568486213684,3.594200372695923,24.407670357315023,24.07521101022298,96.86588046340056,88.52911564833833,-6.47544875391759e-05,0.0850178673863411,0,0,0
8221,274910.7601084767,2010-08-22 18:43:27,2641.348698734924,7,22,-1.0997490882873535,3.5911247730255127,24.407670357315023,24.084380921571373,96.86588046340056,88.56205937984419,-6.47544875391759e-05,0.0850178673863411,0,0,0
8222,274940.7754367753,2010-08-22 18:43:58,2671.364027033529,7,22,-1.0997490882873535,3.5882108211517334,24.407670357315023,24.093550851514955,96.86588046340056,88.59497583518514,-3.237724376958795e-05,0.0850178673863411,0,0,0
8223,274970.79104036,2010-08-22 18:44:28,2701.379630613221,7,22,-1.0997490882873535,3.584973096847534,24.407670357315023,24.102720918139223,96.86588046340056,88.62786469360394,-9.713172767078504e-05,0.0850178673863411,0,0,0
8224,275000.80621692043,2010-08-22 18:44:58,2731.3948071686355,7,22,-1.0997490882873535,3.581573486328125,24.407670357315023,24.111890777956763,96.86588046340056,88.66072372957241,-0.0001295089750783,0.0850178673863411,0,0,0
8225,275030.8214172,2010-08-22 18:45:28,2761.410007448179,7,22,-1.0997490882873535,3.578497648239136,24.407670357315023,24.121060632154663,96.86588046340056,88.6935526730668,-6.47544875391759e-05,0.0850178673863411,0,0,0
8226,275060.8367319197,2010-08-22 18:45:58,2791.425322177967,7,22,-1.0997490882873535,3.5749361515045166,24.407670357315023,24.13023052200965,96.86588046340056,88.72635067753652,-9.713172767078504e-05,0.0850178673863411,0,0,0
8227,275090.85208322067,2010-08-22 18:46:28,2821.4406734738886,7,22,-1.0997490882873535,3.571374654769897,24.407670357315023,24.139400397344787,96.86588046340056,88.75911615577316,-0.0001295089750783,0.0850178673863411,0,0,0
8228,275120.86738338915,2010-08-22 18:46:58,2851.455973647398,7,22,-1.0997490882873535,3.5678131580352783,24.407670357315023,24.148570232890595,96.86588046340056,88.7918478946813,-6.47544875391759e-05,0.0850178673863411,0,0,0
8229,275150.8827123895,2010-08-22 18:47:28,2881.4713026477525,7,22,-1.099929690361023,3.56360411643982,24.407670357315023,24.1577400694282,96.86588046340056,88.82454447598032,-0.0001295089750783,0.0850178673863411,0,0,0
8230,275180.8981919952,2010-08-22 18:47:58,2911.4867822634874,7,22,-1.0997490882873535,3.5597188472747803,24.407670357315023,24.16690988958348,96.86588046340056,88.85720486858719,-0.0001295089750783,0.0850178673863411,0,0,0
8231,275210.9133836683,2010-08-22 18:48:28,2941.501973926556,7,22,-1.099929690361023,3.5553479194641118,24.407670357315023,24.176079680828536,96.86588046340056,88.88982697330442,-9.713172767078504e-05,0.0850178673863411,0,0,0
8232,275240.92881748994,2010-08-22 18:48:58,2971.517407763194,7,22,-1.099568486213684,3.5513007640838623,24.407670357315023,24.185249523399698,96.86588046340056,88.92240962099903,-6.47544875391759e-05,0.0850178673863411,0,0,0
8233,275270.944020421,2010-08-22 18:49:28,3001.532610669284,7,22,-1.099929690361023,3.5464441776275635,24.407670357315023,24.19441927728544,96.86588046340056,88.95495074777504,-9.713172767078504e-05,0.0850178673863411,0,0,0
8234,275300.9593702984,2010-08-22 18:49:58,3031.547960571733,7,22,-1.099929690361023,3.541911363601685,24.407670357315023,24.20358916963005,96.86588046340056,88.9874499234988,-0.0001295089750783,0.0850178673863411,0,0,0
8235,275330.974800892,2010-08-22 18:50:28,3061.5633911502514,7,22,-1.099929690361023,3.536892890930176,24.407670357315023,24.21275912272129,96.86588046340056,89.01990589629705,-0.0001295089750783,0.0850178673863411,0,0,0
8236,275360.98999891593,2010-08-22 18:50:58,3091.578589164148,7,22,-1.099929690361023,3.531874418258667,24.407670357315023,24.2219289913729,96.86588046340056,89.05231664327087,-0.0001618862152099,0.0850178673863411,0,0,0
8237,275391.00532492885,2010-08-22 18:51:28,3121.5939151770567,7,22,-1.099929690361023,3.526855945587158,24.407670357315023,24.23109886798059,96.86588046340056,89.0846815221129,-0.0001618862152099,0.0850178673863411,0,0,0
8238,275421.02075827424,2010-08-22 18:51:58,3151.609348527484,7,22,-1.0997490882873535,3.5216755867004395,24.407670357315023,24.240268163370875,96.86588046340056,89.11699657868954,-0.0001295089750783,0.0850178673863411,0,0,0
8239,275451.0361754193,2010-08-22 18:52:28,3181.6247656675096,7,22,-1.0997490882873535,3.515847682952881,24.407670357315023,24.24943735758789,96.86588046340056,89.14926127694973,-0.0001618862152099,0.0850178673863411,0,0,0
8240,275481.0512992934,2010-08-22 18:52:58,3211.639889541627,7,22,-1.099929690361023,3.5098581314086914,24.407670357315023,24.25860645501552,96.86588046340056,89.18147214220193,-0.0001618862152099,0.0850178673863411,0,0,0
8241,275511.0666370807,2010-08-22 18:53:28,3241.655227328881,7,22,-1.0997490882873535,3.503382682800293,24.407670357315023,24.26777567792524,96.86588046340056,89.21362574668707,-0.0001618862152099,0.0850178673863411,0,0,0
8242,275541.0819479057,2010-08-22 18:53:58,3271.6705381439124,7,22,-1.0997490882873535,3.4959359169006348,24.407670357315023,24.27694556215433,96.86588046340056,89.24571752817498,-0.0002266406954731,0.0850178673863411,0,0,0
8243,275571.0973022091,2010-08-22 18:54:28,3301.6858924573557,7,22,-1.099929690361023,3.487355947494507,24.407670357315023,24.286115428107745,96.86588046340056,89.27773663520614,-0.0002590179501567,0.0850178673863411,0,0,0
8244,275601.1126161219,2010-08-22 18:54:58,3331.7012063951697,7,22,-1.0997490882873535,3.4773190021514893,24.407670357315023,24.295285322765302,96.86588046340056,89.30967085140614,-0.0002590179501567,0.0850178673863411,0,0,0
8245,275631.1279184959,2010-08-22 18:55:28,3361.7165087290628,7,22,-1.099929690361023,3.4648537635803223,24.407670357315023,24.304455226041824,96.86588046340056,89.34150234156587,-0.0003885269106831,0.0850178673863411,0,0,0
8246,275661.14324676944,2010-08-22 18:55:58,3391.731837032681,7,22,-1.0997490882873535,3.448988914489746,24.407670357315023,24.31362509149745,96.86588046340056,89.37320559018052,-0.0004856586456298,0.0850178673863411,0,0,0
8247,275691.15859199525,2010-08-22 18:56:28,3421.7471822334123,7,22,-1.0997490882873535,3.4276201725006104,24.407670357315023,24.322794990063528,96.86588046340056,89.40474013814926,-0.0006799221155233,0.0850178673863411,0,0,0
8248,275721.173937226,2010-08-22 18:56:58,3451.762527474244,7,22,-1.0997490882873535,3.397347450256348,24.407670357315023,24.33196488394247,96.86588046340056,89.43604023133288,-0.0009389400365762,0.0850178673863411,0,0,0
8249,275751.18936403515,2010-08-22 18:57:28,3481.7779542933927,7,22,-1.0997490882873535,3.3529906272888184,24.407670357315023,24.341134784393837,96.86588046340056,89.46700287110593,-0.0013598442310467,0.0850178673863411,0,0,0
8250,275781.204561242,2010-08-22 18:57:58,3511.7931515153155,7,22,-1.0997490882873535,3.287912607192993,24.407670357315023,24.350304643097825,96.86588046340056,89.49746964183227,-0.0020073889754712,0.0850178673863411,0,0,0
8251,275811.22000949463,2010-08-22 18:58:28,3541.8085997678827,7,22,-1.0997490882873535,3.191104888916016,24.407670357315023,24.359474520410917,96.86588046340056,89.52720726131214,-0.0031082152854651,0.0850178673863411,0,0,0
8252,275841.2353225953,2010-08-22 18:58:58,3571.823912873624,7,22,-1.0997490882873535,3.029542922973633,24.407670357315023,24.36864439553432,96.86588046340056,89.55580710339966,-0.0057307719253003,0.0850178673863411,0,0,0
8253,275858.2039156052,2010-08-22 18:59:15,3588.79250586346,7,22,-1.099568486213684,2.8292903900146484,24.407670357315023,24.373828409452745,96.86588046340056,89.5710667187741,-0.0127565860748291,0.0850178673863411,0,0,0
8254,275865.0162078135,2010-08-22 18:59:22,3595.604798061708,7,22,-1.099929690361023,2.699458122253418,24.407670357315023,24.37590959504049,96.86588046340056,89.57682275483901,-0.0156381614506244,0.0850178673863411,0,0,0
8255,275925.02585883334,2010-08-22 19:00:22,60.015142290786265,8,22,0.0,3.3121955394744877,24.407670357315023,24.37590959504049,96.86588046340056,89.57682275483901,0.0011979580158367,0.0850178673863411,0,0,0
8256,275925.208331613,2010-08-22 19:00:22,0.187489311052161,9,22,-1.9243103452026844e-05,3.3123574256896973,24.407670357315023,24.37590959604268,96.86588046340056,89.57682275815861,0.0,0.0856727808713913,0,0,0
8257,275930.0364233081,2010-08-22 19:00:27,5.015580996097967,9,22,0.0005225847125984,3.319642305374145,24.407671213290996,24.375909596126576,96.86588330227684,89.5768227584365,0.0010684489971026,0.0856727808713913,0,0,0
