Data_Point,Test_Time(s),Date_Time,Step_Time(s),Step_Index,Cycle_Index,Current(A),Voltage(V),Charge_Capacity(Ah),Discharge_Capacity(Ah),Charge_Energy(Wh),Discharge_Energy(Wh),dV/dt(V/s),Internal_Resistance(Ohm),Is_FC_Data,AC_Impedance(Ohm),ACI_Phase_Angle(Deg)
6766,226511.28875087333,2010-08-22 05:16:44,30.01530258953083,1,19,0.0,3.3523430824279785,20.008354148510357,19.978149451246896,79.42815269509018,73.37745752063142,0.0007446288946084,0.0842843055725097,0,0,0
6767,226541.3041281841,2010-08-22 05:17:14,60.030679895277466,1,19,0.0,3.374521493911743,20.008354148510357,19.978149451246896,79.42815269509018,73.37745752063142,0.0005180359003134,0.0842843055725097,0,0,0
6768,226571.31933233835,2010-08-22 05:17:44,90.0458840845646,1,19,0.0,3.391033887863159,20.008354148510357,19.978149451246896,79.42815269509018,73.37745752063142,0.0003885269106831,0.0842843055725097,0,0,0
6769,226601.2879022206,2010-08-22 05:18:14,120.01445393673464,1,19,0.0,3.403984785079956,20.008354148510357,19.978149451246896,79.42815269509018,73.37745752063142,0.0002913951757363,0.0842843055725097,0,0,0
6770,226631.3096107185,2010-08-22 05:18:44,30.01533598776952,2,19,0.5501165986061096,3.540454387664795,20.012941332615164,19.978149451246896,79.44423802856583,73.37745752063142,0.0015541076427325,0.0842843055725097,0,0,0
6771,226661.32489958385,2010-08-22 05:19:14,60.03062484808292,2,19,0.550297200679779,3.5875632762908936,20.017528594918403,19.978149451246896,79.46059209982357,73.37745752063142,0.0011332035064697,0.0842843055725097,0,0,0
6772,226691.34019261456,2010-08-22 05:19:44,90.04591790385268,2,19,0.5501165986061096,3.623016119003296,20.02211564100014,19.978149451246896,79.47713250379088,73.37745752063142,0.0008418083307333,0.0842843055725097,0,0,0
6773,226721.35561178965,2010-08-22 05:20:14,120.06133705890063,2,19,0.5501165986061096,3.6528031826019287,20.026702000886985,19.978149451246896,79.4938193301862,73.37745752063142,0.0007446765666827,0.0842843055725097,0,0,0
6774,226751.37099189736,2010-08-22 05:20:44,150.07671714658073,2,19,0.5501165986061096,3.6778953075408936,20.031288496424946,19.978149451246896,79.51063164198685,73.37745752063142,0.0006475448608398,0.0842843055725097,0,0,0
6775,226781.3861884777,2010-08-22 05:21:14,180.09191374194145,2,19,0.5501165986061096,3.699588060379028,20.035875649187247,19.978149451246896,79.52755356292103,73.37745752063142,0.0005180359003134,0.0842843055725097,0,0,0
6776,226811.40146763885,2010-08-22 05:21:44,210.10719289806903,2,19,0.550297200679779,3.718043088912964,20.040462830513498,19.978149451246896,79.54456756540854,73.37745752063142,0.0004856586456298,0.0842843055725097,0,0,0
6777,226841.4167788198,2010-08-22 05:22:14,240.12250407901232,2,19,0.5501165986061096,3.7327747344970703,20.04505002088566,19.978149451246896,79.56165804386198,73.37745752063142,0.0003561496851034,0.0842843055725097,0,0,0
6778,226871.43211408576,2010-08-22 05:22:44,270.1378393499954,2,19,0.5501165986061096,3.742811679840088,20.04963717506288,19.978149451246896,79.57880558659633,73.37745752063142,0.0002266406954731,0.0842843055725097,0,0,0
6779,226901.44740898116,2010-08-22 05:23:14,300.15313424535,2,19,0.5501165986061096,3.7483158111572266,20.05422432438417,19.978149451246896,79.59598861939094,73.37745752063142,9.713172767078504e-05,0.0842843055725097,0,0,0
6780,226931.46272998155,2010-08-22 05:23:44,330.1684552407539,2,19,0.550297200679779,3.7518773078918457,20.05881148799468,19.978149451246896,79.61319135619497,73.37745752063142,9.713172767078504e-05,0.0842843055725097,0,0,0
6781,226961.47802927787,2010-08-22 05:24:14,360.18375453707705,2,19,0.5501165986061096,3.754467248916626,20.06339862861149,19.978149451246896,79.63040737290594,73.37745752063142,6.47544875391759e-05,0.0842843055725097,0,0,0
6782,226991.49349745509,2010-08-22 05:24:44,390.1992227193159,2,19,0.550297200679779,3.756895542144776,20.06798583967616,19.978149451246896,79.64763505352288,73.37745752063142,9.713172767078504e-05,0.0842843055725097,0,0,0
6783,227021.5086544568,2010-08-22 05:25:14,420.2143797159845,2,19,0.550297200679779,3.759161949157715,20.072572967378825,19.978149451246896,79.66487335647082,73.37745752063142,6.47544875391759e-05,0.0842843055725097,0,0,0
6784,227051.52394588347,2010-08-22 05:25:44,450.2296711426941,2,19,0.5501165986061096,3.761590242385864,20.07716015030571,19.978149451246896,79.68212264026508,73.37745752063142,9.713172767078504e-05,0.0842843055725097,0,0,0
6785,227081.5392558464,2010-08-22 05:26:14,480.24498110560165,2,19,0.5501165986061096,3.7636947631835938,20.08174732996469,19.978149451246896,79.69938275072369,73.37745752063142,0.0,0.0842843055725097,0,0,0
6786,227111.5545870021,2010-08-22 05:26:44,510.2603122663408,2,19,0.550297200679779,3.766284942626953,20.086334529650426,19.978149451246896,79.71665389071127,73.37745752063142,6.47544875391759e-05,0.0842843055725097,0,0,0
6787,227141.56987650905,2010-08-22 05:27:14,540.2756017732656,2,19,0.5501165986061096,3.768713235855103,20.090921760741537,19.978149451246896,79.73393610145885,73.37745752063142,6.47544875391759e-05,0.0842843055725097,0,0,0
6788,227171.5851655097,2010-08-22 05:27:44,570.2908907689164,2,19,0.5501165986061096,3.770979642868042,20.095508933410365,19.978149451246896,79.75122894003735,73.37745752063142,6.47544875391759e-05,0.0842843055725097,0,0,0
6789,227201.60057442423,2010-08-22 05:28:14,600.3062997736666,2,19,0.5501165986061096,3.773246049880981,20.10009615594129,19.978149451246896,79.76853293241908,73.37745752063142,3.237724376958795e-05,0.0842843055725097,0,0,0
6790,227231.6157969291,2010-08-22 05:28:44,630.3215221933897,2,19,0.550297200679779,3.775836229324341,20.10468336758419,19.978149451246896,79.78584788635082,73.37745752063142,6.47544875391759e-05,0.0842843055725097,0,0,0
6791,227261.6312194927,2010-08-22 05:29:14,660.3369447569327,2,19,0.550297200679779,3.77826452255249,20.109270574854506,19.978149451246896,79.80317382524112,73.37745752063142,6.47544875391759e-05,0.0842843055725097,0,0,0
6792,227291.64652003217,2010-08-22 05:29:44,690.3522452913414,2,19,0.5501165986061096,3.78069281578064,20.113857733101117,19.978149451246896,79.82051076079719,73.37745752063142,3.237724376958795e-05,0.0842843055725097,0,0,0
6793,227321.66170417643,2010-08-22 05:30:14,720.3674294356705,2,19,0.5499359965324402,3.783282995223999,20.11844489709972,19.978149451246896,79.83785907439703,73.37745752063142,9.713172767078504e-05,0.0842843055725097,0,0,0
6794,227351.6770258686,2010-08-22 05:30:44,750.3827511328232,2,19,0.5501165986061096,3.7858731746673584,20.123032093108566,19.978149451246896,79.85521932291827,73.37745752063142,6.47544875391759e-05,0.0842843055725097,0,0,0
6795,227381.6923271549,2010-08-22 05:31:14,780.3980524140936,2,19,0.550297200679779,3.7884633541107178,20.127619281099875,19.978149451246896,79.87259171050502,73.37745752063142,3.237724376958795e-05,0.0842843055725097,0,0,0
6796,227411.70763947864,2010-08-22 05:31:44,810.4133647679602,2,19,0.5501165986061096,3.791215419769287,20.132206469571365,19.978149451246896,79.88997687804459,73.37745752063142,0.0,0.0842843055725097,0,0,0
6797,227441.72294036896,2010-08-22 05:32:14,840.4286656382059,2,19,0.5501165986061096,3.794291257858277,20.136793637463587,19.978149451246896,79.90737530385447,73.37745752063142,6.47544875391759e-05,0.0842843055725097,0,0,0
6798,227471.73847843532,2010-08-22 05:32:44,870.4442036996052,2,19,0.5501165986061096,3.7973670959472656,20.14138088067283,19.978149451246896,79.92478808512469,73.37745752063142,9.713172767078504e-05,0.0842843055725097,0,0,0
6799,227501.75356363307,2010-08-22 05:33:14,900.4592888973287,2,19,0.550297200679779,3.8009285926818848,20.145967989380267,19.978149451246896,79.94221497953889,73.37745752063142,0.0001295089750783,0.0842843055725097,0,0,0
6800,227531.76886598705,2010-08-22 05:33:44,930.4745912462598,2,19,0.5501165986061096,3.804166316986084,20.150555194140065,19.978149451246896,79.95965730058063,73.37745752063142,9.713172767078504e-05,0.0842843055725097,0,0,0
6801,227561.78416867185,2010-08-22 05:34:14,960.489893931028,2,19,0.5499359965324402,3.807404041290283,20.155142367974,19.978149451246896,79.97711496803754,73.37745752063142,6.47544875391759e-05,0.0842843055725097,0,0,0
6802,227591.802189496,2010-08-22 05:34:44,990.507914755236,2,19,0.5501165986061096,3.8109655380249023,20.15972999457587,19.978149451246896,79.99458999370556,73.37745752063142,9.713172767078504e-05,0.0842843055725097,0,0,0
6803,227621.8148277903,2010-08-22 05:35:14,1020.520553074586,2,19,0.550297200679779,3.814365148544312,20.164316793860777,19.978149451246896,80.01207759168807,73.37745752063142,9.713172767078504e-05,0.0842843055725097,0,0,0
6804,227651.83010690636,2010-08-22 05:35:44,1050.5358321705637,2,19,0.5504778623580933,3.81792664527893,20.168904017852302,19.978149451246896,80.02958249667269,73.37745752063142,0.0001618862152099,0.0842843055725097,0,0,0
6805,227681.84540675904,2010-08-22 05:36:14,1080.551132018261,2,19,0.550297200679779,3.82116436958313,20.17349124285957,19.978149451246896,80.04710269911689,73.37745752063142,0.0001295089750783,0.0842843055725097,0,0,0
6806,227711.86085591887,2010-08-22 05:36:44,1110.5665811881152,2,19,0.550297200679779,3.824240207672119,20.17807847493737,19.978149451246896,80.06463783825389,73.37745752063142,9.713172767078504e-05,0.0842843055725097,0,0,0
6807,227741.8760261535,2010-08-22 05:37:14,1140.5817514177645,2,19,0.5499359965324402,3.827316045761109,20.182665651810503,19.978149451246896,80.08218739365915,73.37745752063142,9.713172767078504e-05,0.0842843055725097,0,0,0
6808,227771.89133903373,2010-08-22 05:37:44,1170.59706429293,2,19,0.550297200679779,3.830553770065308,20.18725285023093,19.978149451246896,80.09975140666053,73.37745752063142,9.713172767078504e-05,0.0842843055725097,0,0,0
6809,227801.9066475881,2010-08-22 05:38:14,1200.6123728473272,2,19,0.550297200679779,3.833467483520508,20.19184011025736,19.978149451246896,80.1173298465381,73.37745752063142,6.470680091297254e-05,0.0842843055725097,0,0,0
6810,227831.9219753604,2010-08-22 05:38:44,1230.6277006496962,2,19,0.550297200679779,3.836543321609497,20.19642733525433,19.978149451246896,80.1349222008928,73.37745752063142,6.47544875391759e-05,0.0842843055725097,0,0,0
6811,227861.93740824467,2010-08-22 05:39:14,1260.6431335088987,2,19,0.550297200679779,3.8396191596984863,20.201014575038773,19.978149451246896,80.15252846408696,73.37745752063142,9.713172767078504e-05,0.0842843055725097,0,0,0
6812,227891.9525738428,2010-08-22 05:39:44,1290.6582991019927,2,19,0.5499359965324402,3.8425331115722656,20.20560183193685,19.978149451246896,80.170148512628,73.37745752063142,9.713172767078504e-05,0.0842843055725097,0,0,0
6813,227921.96799999024,2010-08-22 05:40:15,1320.673725249468,2,19,0.5501165986061096,3.845447063446045,20.21018907499249,19.978149451246896,80.18778173027279,73.37745752063142,3.237724376958795e-05,0.0842843055725097,0,0,0
6814,227951.98272135612,2010-08-22 05:40:45,1350.688446304636,2,19,0.550297200679779,3.8481991291046143,20.214776225876676,19.978149451246896,80.2054275087562,73.37745752063142,9.713172767078504e-05,0.0842843055725097,0,0,0
6815,227981.98327527748,2010-08-22 05:41:15,1380.6890005467474,2,19,0.5501165986061096,3.850627422332764,20.219361181502503,19.978149451246896,80.22307712777885,73.37745752063142,3.237724376958795e-05,0.0842843055725097,0,0,0
6816,228011.99831258587,2010-08-22 05:41:45,1410.7040378450906,2,19,0.550297200679779,3.853217601776123,20.22394835586784,19.978149451246896,80.24074696545573,73.37745752063142,6.47544875391759e-05,0.0842843055725097,0,0,0
6817,228042.01349560745,2010-08-22 05:42:15,1440.7192208716338,2,19,0.5499359965324402,3.8554840087890634,20.228535536379407,19.978149451246896,80.25842761157212,73.37745752063142,3.237724376958795e-05,0.0842843055725097,0,0,0
6818,228072.02886143955,2010-08-22 05:42:45,1470.7345867889974,2,19,0.5501165986061096,3.857588529586792,20.23312271467385,19.978149451246896,80.27611839528451,73.37745752063142,6.47544875391759e-05,0.0842843055725097,0,0,0
6819,228102.04412952813,2010-08-22 05:43:15,1500.7498547923285,2,19,0.5501165986061096,3.8593692779541016,20.237709957078337,19.978149451246896,80.29381872398957,73.37745752063142,0.0,0.0842843055725097,0,0,0
6820,228132.05955282343,2010-08-22 05:43:45,1530.765278092708,2,19,0.5501165986061096,3.861311912536621,20.24229717675363,19.978149451246896,80.3115274732736,73.37745752063142,3.237724376958795e-05,0.0842843055725097,0,0,0
6821,228162.0747288476,2010-08-22 05:44:15,1560.780454136849,2,19,0.5501165986061096,3.862768888473511,20.24688438222948,19.978149451246896,80.32924390978575,73.37745752063142,0.0,0.0842843055725097,0,0,0
6822,228192.090184273,2010-08-22 05:44:45,1590.7959096775812,2,19,0.5501165986061096,3.86454963684082,20.251471624514423,19.978149451246896,80.34696751535348,73.37745752063142,6.47544875391759e-05,0.0842843055725097,0,0,0
6823,228222.1053619963,2010-08-22 05:45:15,1620.811087260557,2,19,0.5501165986061096,3.8658447265625,20.2560587371645,19.978149451246896,80.36469712681101,73.37745752063142,0.0,0.0842843055725097,0,0,0
6824,228252.12076652487,2010-08-22 05:45:45,1650.8264917841389,2,19,0.550297200679779,3.8669779300689697,20.26064602904941,19.978149451246896,80.3824333754361,73.37745752063142,3.237724376958795e-05,0.0842843055725097,0,0,0
6825,228282.13595974687,2010-08-22 05:46:15,1680.841685006092,2,19,0.5504778623580933,3.8684349060058594,20.26523384310896,19.978149451246896,80.40017725544563,73.37745752063142,0.0001295089750783,0.0842843055725097,0,0,0
6826,228312.1513897389,2010-08-22 05:46:45,1710.8571149981492,2,19,0.550297200679779,3.869568109512329,20.26982182192424,19.978149451246896,80.41792703210281,73.37745752063142,9.713172767078504e-05,0.0842843055725097,0,0,0
6827,228342.1665879383,2010-08-22 05:47:15,1740.8723131975075,2,19,0.550297200679779,3.870377540588379,20.274409774038432,19.978149451246896,80.4356816916371,73.37745752063142,3.237724376958795e-05,0.0842843055725097,0,0,0
6828,228372.18185866345,2010-08-22 05:47:45,1770.8875839526977,2,19,0.5499359965324402,3.8711869716644287,20.27899778716619,19.978149451246896,80.45344134523268,73.37745752063142,0.0,0.0842843055725097,0,0,0
6829,228402.19724618964,2010-08-22 05:48:15,1800.9029714488418,2,19,0.550297200679779,3.8723201751708975,20.28358579310563,19.978149451246896,80.47120552343257,73.37745752063142,0.0,0.0842843055725097,0,0,0
6830,228432.2125062933,2010-08-22 05:48:45,1830.918231567522,2,19,0.5499359965324402,3.873129606246948,20.288173662090244,19.978149451246896,80.48897363945662,73.37745752063142,0.0,0.0842843055725097,0,0,0
6831,228462.22807139205,2010-08-22 05:49:15,1860.9337966813443,2,19,0.5501165986061096,3.874262809753418,20.292760854785445,19.978149451246896,80.50674339167068,73.37745752063142,3.237724376958795e-05,0.0842843055725097,0,0,0
6832,228492.24314642945,2010-08-22 05:49:45,1890.9488716886704,2,19,0.5501165986061096,3.875072240829468,20.297347971582298,19.978149451246896,80.52451691116599,73.37745752063142,0.0,0.0842843055725097,0,0,0
6833,228522.2584546029,2010-08-22 05:50:15,1920.9641798621176,2,19,0.550297200679779,3.8762054443359375,20.301934976970383,19.978149451246896,80.54229425828552,73.37745752063142,3.237724376958795e-05,0.0842843055725097,0,0,0
6834,228552.27377118228,2010-08-22 05:50:45,1950.979496441516,2,19,0.550297200679779,3.876852989196777,20.306522123749705,19.978149451246896,80.56007627949242,73.37745752063142,0.0,0.0842843055725097,0,0,0
6835,228582.28914605195,2010-08-22 05:51:15,1980.9948713362533,2,19,0.550297200679779,3.877824306488037,20.311109223576704,19.978149451246896,80.57786215268963,73.37745752063142,3.237724376958795e-05,0.0842843055725097,0,0,0
6836,228612.3044051281,2010-08-22 05:51:45,2011.0101303922847,2,19,0.5501165986061096,3.878633737564087,20.315696281435205,19.978149451246896,80.5956519504016,73.37745752063142,0.0,0.0842843055725097,0,0,0
6837,228642.31992079364,2010-08-22 05:52:15,2041.0256460729047,2,19,0.550297200679779,3.8796050548553462,20.320283425681748,19.978149451246896,80.61344611581589,73.37745752063142,0.0,0.0842843055725097,0,0,0
6838,228672.33501673816,2010-08-22 05:52:45,2071.0407420023757,2,19,0.5501165986061096,3.8805763721466064,20.32487049870637,19.978149451246896,80.63124406671275,73.37745752063142,6.47544875391759e-05,0.0842843055725097,0,0,0
6839,228702.35032606949,2010-08-22 05:53:15,2101.0560513286964,2,19,0.550297200679779,3.881385803222656,20.32945757881572,19.978149451246896,80.64904611305244,73.37745752063142,0.0,0.0842843055725097,0,0,0
6840,228732.3656203884,2010-08-22 05:53:45,2131.0713456526264,2,19,0.5501165986061096,3.882357120513916,20.33404466971697,19.978149451246896,80.66685225135579,73.37745752063142,3.237724376958795e-05,0.0842843055725097,0,0,0
6841,228762.3809401407,2010-08-22 05:54:15,2161.0866654049323,2,19,0.5501165986061096,3.883166551589966,20.338631754182437,19.978149451246896,80.68466249725684,73.37745752063142,3.237724376958795e-05,0.0842843055725097,0,0,0
6842,228792.39623335184,2010-08-22 05:54:45,2191.1019586110765,2,19,0.5499359965324402,3.883975982666016,20.343218825929725,19.978149451246896,80.70247681877025,73.37745752063142,0.0,0.0842843055725097,0,0,0
6843,228822.4115715401,2010-08-22 05:55:15,2221.117296804344,2,19,0.550297200679779,3.885109186172485,20.34780598208197,19.978149451246896,80.72029550311892,73.37745752063142,6.47544875391759e-05,0.0842843055725097,0,0,0
6844,228852.42685537293,2010-08-22 05:55:45,2251.132580632114,2,19,0.550297200679779,3.885918617248535,20.35239303955104,19.978149451246896,80.7381180330308,73.37745752063142,6.47544875391759e-05,0.0842843055725097,0,0,0
6845,228882.4421781327,2010-08-22 05:56:15,2281.1479033919154,2,19,0.5499359965324402,3.886728048324585,20.356980102322517,19.978149451246896,80.75594484672084,73.37745752063142,3.237724376958795e-05,0.0842843055725097,0,0,0
6846,228912.45747004065,2010-08-22 05:56:45,2311.163195299824,2,19,0.550297200679779,3.887861251831055,20.361567143288884,19.978149451246896,80.77377578718641,73.37745752063142,6.47544875391759e-05,0.0842843055725097,0,0,0
6847,228942.472926228,2010-08-22 05:57:15,2341.1786514921805,2,19,0.550297200679779,3.888670682907105,20.36615417696187,19.978149451246896,80.79161107697603,73.37745752063142,3.237724376958795e-05,0.0842843055725097,0,0,0
6848,228972.4880991343,2010-08-22 05:57:45,2371.193824398501,2,19,0.5501165986061096,3.889642000198364,20.37074122152113,19.978149451246896,80.80945085004059,73.37745752063142,6.47544875391759e-05,0.0842843055725097,0,0,0
6849,229002.5033999344,2010-08-22 05:58:15,2401.209125198572,2,19,0.5499359965324402,3.890451431274414,20.37532839543732,19.978149451246896,80.82729546489136,73.37745752063142,0.0,0.0842843055725097,0,0,0
6850,229032.51873050863,2010-08-22 05:58:45,2431.224455772849,2,19,0.550297200679779,3.891584634780884,20.379915418416868,19.978149451246896,80.84514405778025,73.37745752063142,0.0,0.0842843055725097,0,0,0
6851,229062.5340246922,2010-08-22 05:59:15,2461.23974995643,2,19,0.5499359965324402,3.892555952072144,20.38450252014612,19.978149451246896,80.8629975285286,73.37745752063142,0.0,0.0842843055725097,0,0,0
6852,229092.5493279985,2010-08-22 05:59:45,2491.2550532577343,2,19,0.5499359965324402,3.8935272693634033,20.38908958706195,19.978149451246896,80.88085554222707,73.37745752063142,3.237724376958795e-05,0.0842843055725097,0,0,0
6853,229122.56463340507,2010-08-22 06:00:15,2521.2703586642865,2,19,0.5501165986061096,3.894660472869873,20.393676728775425,19.978149451246896,80.8987185876711,73.37745752063142,0.0,0.0842843055725097,0,0,0
6854,229152.579938561,2010-08-22 06:00:45,2551.285663825226,2,19,0.550297200679779,3.895793676376343,20.398263933127243,19.978149451246896,80.91658610456976,73.37745752063142,6.47544875391759e-05,0.0842843055725097,0,0,0
6855,229182.5954070941,2010-08-22 06:01:15,2581.301132353327,2,19,0.5501165986061096,3.8966031074523926,20.40285100776791,19.978149451246896,80.9344581008479,73.37745752063142,3.237724376958795e-05,0.0842843055725097,0,0,0
6856,229212.61070016996,2010-08-22 06:01:45,2611.316425439172,2,19,0.5501165986061096,3.897574424743652,20.407438166998883,19.978149451246896,80.95233538017033,73.37745752063142,0.0,0.0842843055725097,0,0,0
6857,229242.625897046,2010-08-22 06:02:15,2641.331622330269,2,19,0.5501165986061096,3.898869514465332,20.41202522756545,19.978149451246896,80.9702172579154,73.37745752063142,3.237724376958795e-05,0.0842843055725097,0,0,0
6858,229272.6412986222,2010-08-22 06:02:45,2671.347023906505,2,19,0.5501165986061096,3.9000027179718018,20.416612392208293,19.978149451246896,80.98810467252459,73.37745752063142,3.237724376958795e-05,0.0842843055725097,0,0,0
6859,229302.65649559352,2010-08-22 06:03:15,2701.3622208527404,2,19,0.550297200679779,3.9009740352630615,20.421199470955568,19.978149451246896,81.00599679476136,73.37745752063142,0.0,0.0842843055725097,0,0,0
6860,229332.67192036257,2010-08-22 06:03:45,2731.37764562178,2,19,0.5501165986061096,3.9021072387695312,20.425786562659997,19.978149451246896,81.02389422002366,73.37745752063142,0.0,0.0842843055725097,0,0,0
6861,229362.68710982017,2010-08-22 06:04:15,2761.3928350793512,2,19,0.550297200679779,3.903402328491211,20.43037355813488,19.978149451246896,81.04179653102838,73.37745752063142,3.237724376958795e-05,0.0842843055725097,0,0,0
6862,229392.7024202342,2010-08-22 06:04:45,2791.408145498396,2,19,0.5501165986061096,3.9045355319976807,20.434960599950852,19.978149451246896,81.0597044495559,73.37745752063142,0.0,0.0842843055725097,0,0,0
6863,229422.71796324287,2010-08-22 06:05:15,2821.423688502113,2,19,0.550297200679779,3.90583062171936,20.439547756407404,19.978149451246896,81.07761820159745,73.37745752063142,6.47544875391759e-05,0.0842843055725097,0,0,0
6864,229452.7330549268,2010-08-22 06:05:45,2851.438780186002,2,19,0.550297200679779,3.90712571144104,20.44413483401781,19.978149451246896,81.09553721027387,73.37745752063142,3.237724376958795e-05,0.0842843055725097,0,0,0
6865,229482.74831559684,2010-08-22 06:06:15,2881.4540408660814,2,19,0.5501165986061096,3.9080970287323,20.448721854793018,19.978149451246896,81.1134615903455,73.37745752063142,0.0,0.0842843055725097,0,0,0
6866,229512.76362704343,2010-08-22 06:06:45,2911.469352302662,2,19,0.550297200679779,3.9095540046691895,20.453308869420617,19.978149451246896,81.13139162663641,73.37745752063142,6.47544875391759e-05,0.0842843055725097,0,0,0
6867,229542.78163830383,2010-08-22 06:07:15,2941.4873635630343,2,19,0.5499359965324402,3.910525321960449,20.45789638676748,19.978149451246896,81.14932945957443,73.37745752063142,-3.237724376958795e-05,0.0842843055725097,0,0,0
6868,229572.79432271805,2010-08-22 06:07:45,2971.500047977266,2,19,0.5499359965324402,3.911982297897339,20.46248299573149,19.978149451246896,81.1672695779089,73.37745752063142,0.0,0.0842843055725097,0,0,0
6869,229602.80963336767,2010-08-22 06:08:15,3001.515358626885,2,19,0.5501165986061096,3.9132773876190186,20.467070063282083,19.978149451246896,81.18521745418775,73.37745752063142,3.237724376958795e-05,0.0842843055725097,0,0,0
6870,229632.82491315532,2010-08-22 06:08:45,3031.5306384196,2,19,0.5501165986061096,3.914734125137329,20.471657152912737,19.978149451246896,81.20317148550907,73.37745752063142,6.47544875391759e-05,0.0842843055725097,0,0,0
6871,229662.8402559802,2010-08-22 06:09:15,3061.5459812594468,2,19,0.550297200679779,3.916029214859009,20.476244209469066,19.978149451246896,81.22113135281162,73.37745752063142,3.237724376958795e-05,0.0842843055725097,0,0,0
6872,229692.8555507803,2010-08-22 06:09:45,3091.561276044526,2,19,0.5501165986061096,3.917324304580689,20.4808312340126,19.978149451246896,81.23909731843231,73.37745752063142,3.237724376958795e-05,0.0842843055725097,0,0,0
6873,229722.870836578,2010-08-22 06:10:15,3121.576561842207,2,19,0.550297200679779,3.918781280517578,20.48541828978693,19.978149451246896,81.25706968901767,73.37745752063142,3.237724376958795e-05,0.0842843055725097,0,0,0
6874,229752.88614772385,2010-08-22 06:10:45,3151.59187298305,2,19,0.5499359965324402,3.920076370239258,20.490005302302613,19.978149451246896,81.27504826596707,73.37745752063142,0.0,0.0842843055725097,0,0,0
6875,229782.9014667092,2010-08-22 06:11:15,3181.607191993507,2,19,0.5501165986061096,3.921533346176148,20.49459237881919,19.978149451246896,81.29303343905808,73.37745752063142,6.47544875391759e-05,0.0842843055725097,0,0,0
6876,229812.91676726367,2010-08-22 06:11:45,3211.622492522903,2,19,0.5501165986061096,3.922990322113037,20.4991794042202,19.978149451246896,81.31102493033772,73.37745752063142,3.237724376958795e-05,0.0842843055725097,0,0,0
6877,229842.93207571283,2010-08-22 06:12:15,3241.637800972038,2,19,0.550297200679779,3.924447298049927,20.50376646488481,19.978149451246896,81.3290230869731,73.37745752063142,3.237724376958795e-05,0.0842843055725097,0,0,0
6878,229872.9473985378,2010-08-22 06:12:46,3271.653123822064,2,19,0.550297200679779,3.925904273986816,20.508353548784605,19.978149451246896,81.34702802575374,73.37745752063142,3.237724376958795e-05,0.0842843055725097,0,0,0
6879,229902.96296986716,2010-08-22 06:13:16,3301.6686951263146,2,19,0.5501165986061096,3.927199363708496,20.512940638013003,19.978149451246896,81.36503953437811,73.37745752063142,3.237724376958795e-05,0.0842843055725097,0,0,0
6880,229932.97812201167,2010-08-22 06:13:46,3331.6838472708905,2,19,0.5499359965324402,3.9286563396453857,20.517527631725898,19.978149451246896,81.38305749397428,73.37745752063142,3.237724376958795e-05,0.0842843055725097,0,0,0
6881,229962.99330469736,2010-08-22 06:14:16,3361.699029966609,2,19,0.5499359965324402,3.930275201797485,20.522114643571403,19.978149451246896,81.40108235031877,73.37745752063142,3.237724376958795e-05,0.0842843055725097,0,0,0
6882,229993.00861339213,2010-08-22 06:14:46,3391.714338656343,2,19,0.5501165986061096,3.931570291519165,20.526701696443308,19.978149451246896,81.41911430770816,73.37745752063142,0.0,0.0842843055725097,0,0,0
6883,230023.0239344276,2010-08-22 06:15:16,3421.7296596918472,2,19,0.5501165986061096,3.9333510398864746,20.53128874048415,19.978149451246896,81.4371532288506,73.37745752063142,3.237724376958795e-05,0.0842843055725097,0,0,0
6884,230053.03922867132,2010-08-22 06:15:46,3451.7449539305658,2,19,0.5501165986061096,3.934969902038574,20.535875822055097,19.978149451246896,81.4551993902009,73.37745752063142,6.47544875391759e-05,0.0842843055725097,0,0,0
6885,230083.0545603083,2010-08-22 06:16:16,3481.760285567492,2,19,0.5499359965324402,3.936264991760254,20.54046290413957,19.978149451246896,81.47325269833246,73.37745752063142,0.0,0.0842843055725097,0,0,0
6886,230113.0698547124,2010-08-22 06:16:46,3511.7755799766346,2,19,0.5501165986061096,3.938045740127564,20.545049932066945,19.978149451246896,81.49131301785013,73.37745752063142,6.47544875391759e-05,0.0842843055725097,0,0,0
6887,230143.08532988705,2010-08-22 06:17:16,3541.7910551513,2,19,0.5501165986061096,3.939664602279663,20.54963702559449,19.978149451246896,81.50938104619284,73.37745752063142,6.47544875391759e-05,0.0842843055725097,0,0,0
6888,230173.10071227048,2010-08-22 06:17:46,3571.806437534702,2,19,0.550297200679779,3.9414453506469727,20.554224071856417,19.978149451246896,81.52745636572669,73.37745752063142,6.47544875391759e-05,0.0842843055725097,0,0,0
6889,230203.11578316253,2010-08-22 06:18:16,3601.821508431784,2,19,0.550297200679779,3.943064212799072,20.55881109160958,19.978149451246896,81.54553909735985,73.37745752063142,6.47544875391759e-05,0.0842843055725097,0,0,0
6890,230233.1310957019,2010-08-22 06:18:46,3631.8368209661,2,19,0.5501165986061096,3.944521188735962,20.56339822538681,19.978149451246896,81.56363002383166,73.37745752063142,0.0,0.0842843055725097,0,0,0
6891,230263.1464065971,2010-08-22 06:19:16,3661.852131861331,2,19,0.550297200679779,3.9464638233184814,20.56798534961348,19.978149451246896,81.58172877836817,73.37745752063142,6.47544875391759e-05,0.0842843055725097,0,0,0
6892,230293.16168204905,2010-08-22 06:19:46,3691.867407333277,2,19,0.5499359965324402,3.948082685470581,20.572572407659116,19.978149451246896,81.59983507532264,73.37745752063142,3.237724376958795e-05,0.0842843055725097,0,0,0
6893,230323.17699746048,2010-08-22 06:20:16,3721.882722744764,2,19,0.5501165986061096,3.94986343383789,20.57715941888157,19.978149451246896,81.61794929998706,73.37745752063142,6.47544875391759e-05,0.0842843055725097,0,0,0
6894,230353.1923030926,2010-08-22 06:20:46,3751.898028376877,2,19,0.5501165986061096,3.9516441822052,20.581746417810063,19.978149451246896,81.63607168190946,73.37745752063142,3.237724376958795e-05,0.0842843055725097,0,0,0
6895,230383.20783596608,2010-08-22 06:21:16,3781.9135612503474,2,19,0.5501165986061096,3.95358681678772,20.586333443233823,19.978149451246896,81.6542023905912,73.37745752063142,6.47544875391759e-05,0.0842843055725097,0,0,0
6896,230413.22293527395,2010-08-22 06:21:46,3811.928660528162,2,19,0.550297200679779,3.955367565155029,20.59092039914917,19.978149451246896,81.67234122676274,73.37745752063142,3.237724376958795e-05,0.0842843055725097,0,0,0
6897,230443.23823847505,2010-08-22 06:22:16,3841.9439637392425,2,19,0.5501165986061096,3.957148313522339,20.595507501673676,19.978149451246896,81.69048910140508,73.37745752063142,3.237724376958795e-05,0.0842843055725097,0,0,0
6898,230473.25354314476,2010-08-22 06:22:46,3871.959268408958,2,19,0.5501165986061096,3.9590909481048575,20.600094616248924,19.978149451246896,81.70864548309872,73.37745752063142,6.47544875391759e-05,0.0842843055725097,0,0,0
6899,230503.2688937539,2010-08-22 06:23:16,3901.974619038218,2,19,0.550297200679779,3.961033582687378,20.604681736769532,19.978149451246896,81.726810481064,73.37745752063142,6.47544875391759e-05,0.0842843055725097,0,0,0
6900,230533.2843231545,2010-08-22 06:23:46,3931.990048503964,2,19,0.5501165986061096,3.962814331054688,20.609268906150124,19.978149451246896,81.74498433254445,73.37745752063142,3.237724376958795e-05,0.0842843055725097,0,0,0
6901,230563.29952993023,2010-08-22 06:24:16,3962.005255189472,2,19,0.5501165986061096,3.964595079421997,20.613855995984903,19.978149451246896,81.76316658954069,73.37745752063142,3.237724376958795e-05,0.0842843055725097,0,0,0
6902,230593.314794084,2010-08-22 06:24:46,3992.020519348222,2,19,0.550297200679779,3.966699600219727,20.61844309455312,19.978149451246896,81.78135763067638,73.37745752063142,6.47544875391759e-05,0.0842843055725097,0,0,0
6903,230623.33023149453,2010-08-22 06:25:16,4022.0359567537553,2,19,0.5501165986061096,3.968480348587036,20.623030285952925,19.978149451246896,81.79955775815368,73.37745752063142,6.47544875391759e-05,0.0842843055725097,0,0,0
6904,230653.3455367507,2010-08-22 06:25:46,4052.051262019957,2,19,0.5504778623580933,3.9705848693847656,20.627617417415667,19.978149451246896,81.81776642172521,73.37745752063142,9.713172767078504e-05,0.0842843055725097,0,0,0
6905,230683.36071015327,2010-08-22 06:26:16,4082.0664354175024,2,19,0.5501165986061096,3.972365617752075,20.632204519148228,19.978149451246896,81.83598382965432,73.37745752063142,3.237724376958795e-05,0.0842843055725097,0,0,0
6906,230713.3760372389,2010-08-22 06:26:46,4112.081762523135,2,19,0.5501165986061096,3.9743082523345943,20.63679166859172,19.978149451246896,81.85421026640813,73.37745752063142,3.237724376958795e-05,0.0842843055725097,0,0,0
6907,230743.39133721188,2010-08-22 06:27:16,4142.097062471082,2,19,0.550297200679779,3.976412773132324,20.641378798420284,19.978149451246896,81.8724455605703,73.37745752063142,6.47544875391759e-05,0.0842843055725097,0,0,0
6908,230773.40663958085,2010-08-22 06:27:46,4172.112364845076,2,19,0.550297200679779,3.977869749069214,20.6459659679258,19.978149451246896,81.89068973650969,73.37745752063142,3.237724376958795e-05,0.0842843055725097,0,0,0
6909,230803.42196015012,2010-08-22 06:28:16,4202.127685409405,2,19,0.5499359965324402,3.980136156082153,20.65055303465448,19.978149451246896,81.90894260055893,73.37745752063142,3.237724376958795e-05,0.0842843055725097,0,0,0
6910,230833.43725496533,2010-08-22 06:28:46,4232.14298022456,2,19,0.5499359965324402,3.982240676879883,20.655140083745863,19.978149451246896,81.92720460915623,73.37745752063142,3.237724376958795e-05,0.0842843055725097,0,0,0
6911,230863.45258632657,2010-08-22 06:29:16,4262.158311590812,2,19,0.5501165986061096,3.9841833114624015,20.659727106470147,19.978149451246896,81.94547559206222,73.37745752063142,6.47544875391759e-05,0.0842843055725097,0,0,0
6912,230893.4679010764,2010-08-22 06:29:46,4292.173626370724,2,19,0.550297200679779,3.986287832260132,20.66431414844144,19.978149451246896,81.96375585896553,73.37745752063142,9.713172767078504e-05,0.0842843055725097,0,0,0
6913,230923.4832062825,2010-08-22 06:30:16,4322.188931561738,2,19,0.550297200679779,3.9880685806274414,20.668901125572177,19.978149451246896,81.98204510670841,73.37745752063142,0.0,0.0842843055725097,0,0,0
6914,230953.49850306756,2010-08-22 06:30:46,4352.204228326753,2,19,0.5501165986061096,3.990334987640381,20.67348818463877,19.978149451246896,82.00034391468076,73.37745752063142,3.237724376958795e-05,0.0842843055725097,0,0,0
6915,230983.51389238823,2010-08-22 06:31:16,4382.2196176725065,2,19,0.550297200679779,3.992277622222901,20.678075232682083,19.978149451246896,82.01865210307115,73.37745752063142,3.237724376958795e-05,0.0842843055725097,0,0,0
6916,231013.5291268379,2010-08-22 06:31:46,4412.234852102162,2,19,0.550297200679779,3.994381904602051,20.682662359169985,19.978149451246896,82.03697011387213,73.37745752063142,6.47544875391759e-05,0.0842843055725097,0,0,0
6917,231043.54442772825,2010-08-22 06:32:16,4442.250152992458,2,19,0.5501165986061096,3.9966483116149902,20.68724945249696,19.978149451246896,82.05529754832423,73.37745752063142,9.713172767078504e-05,0.0842843055725097,0,0,0
6918,231073.5597550895,2010-08-22 06:32:46,4472.265480348716,2,19,0.5501165986061096,3.9984290599823,20.69183651653045,19.978149451246896,82.07363455726183,73.37745752063142,3.237724376958795e-05,0.0842843055725097,0,0,0
6919,231103.57506398976,2010-08-22 06:33:16,4502.280789248974,2,19,0.5499359965324402,4.000695705413818,20.69642358992888,19.978149451246896,82.0919812956424,73.37745752063142,3.24249267578125e-05,0.0842843055725097,0,0,0
6920,231133.59054540496,2010-08-22 06:33:46,4532.296270669206,2,19,0.5501165986061096,4.002962112426758,20.701010597591537,19.978149451246896,82.11033765176839,73.37745752063142,6.47544875391759e-05,0.0842843055725097,0,0,0
6921,231163.6056841061,2010-08-22 06:34:16,4562.311409365264,2,19,0.5501165986061096,4.005066394805908,20.705597567138625,19.978149451246896,82.12870379732645,73.37745752063142,3.23295607813634e-05,0.0842843055725097,0,0,0
6922,231193.6209991466,2010-08-22 06:34:46,4592.326724435902,2,19,0.5501165986061096,4.007332801818848,20.710184567034684,19.978149451246896,82.14708018814906,73.37745752063142,6.47544875391759e-05,0.0842843055725097,0,0,0
6923,231223.63631378612,2010-08-22 06:35:16,4622.342039045389,2,19,0.5501165986061096,4.009599208831787,20.714771553888923,19.978149451246896,82.16546665222776,73.37745752063142,9.70840483205393e-05,0.0842843055725097,0,0,0
6924,231253.65175332705,2010-08-22 06:35:46,4652.357478586246,2,19,0.5501165986061096,4.011865615844727,20.71935855641332,19.978149451246896,82.1838634417868,73.37745752063142,9.70840483205393e-05,0.0842843055725097,0,0,0
6925,231283.66704897425,2010-08-22 06:36:16,4682.372774273575,2,19,0.5499359965324402,4.013808250427246,20.72394554380241,19.978149451246896,82.20227054470297,73.37745752063142,3.23295607813634e-05,0.0842843055725097,0,0,0
6926,231313.68222386047,2010-08-22 06:36:46,4712.387949144792,2,19,0.5501165986061096,4.0163984298706055,20.728532547679265,19.978149451246896,82.22068818214464,73.37745752063142,6.47544875391759e-05,0.0842843055725097,0,0,0
6927,231343.69768631848,2010-08-22 06:37:16,4742.403411597751,2,19,0.5499359965324402,4.018503189086914,20.73311964475015,19.978149451246896,82.2391168121186,73.37745752063142,3.24249267578125e-05,0.0842843055725097,0,0,0
6928,231373.71285722984,2010-08-22 06:37:46,4772.418582514112,2,19,0.5501165986061096,4.020931243896484,20.737706700585893,19.978149451246896,82.25755583707704,73.37745752063142,6.47544875391759e-05,0.0842843055725097,0,0,0
6929,231403.7281435087,2010-08-22 06:38:16,4802.433868767929,2,19,0.5501165986061096,4.023359775543213,20.742293744344387,19.978149451246896,82.27600570763195,73.37745752063142,6.47544875391759e-05,0.0842843055725097,0,0,0
6930,231433.7435782476,2010-08-22 06:38:46,4832.4493035168425,2,19,0.550297200679779,4.025626182556152,20.74688081125316,19.978149451246896,82.29446654915148,73.37745752063142,3.24249267578125e-05,0.0842843055725097,0,0,0
6931,231463.76140325377,2010-08-22 06:39:16,4862.467128512986,2,19,0.5501165986061096,4.028216361999512,20.75146827935165,19.978149451246896,82.31294001878595,73.37745752063142,6.47544875391759e-05,0.0842843055725097,0,0,0
6932,231493.77408956777,2010-08-22 06:39:46,4892.479814852016,2,19,0.550297200679779,4.030644416809082,20.75605491827732,19.978149451246896,82.33142124927782,73.37745752063142,6.47544875391759e-05,0.0842843055725097,0,0,0
6933,231523.7894079767,2010-08-22 06:40:16,4922.495133240924,2,19,0.550297200679779,4.0330729484558105,20.76064192536244,19.978149451246896,82.34991509506142,73.37745752063142,9.71794142969884e-05,0.0842843055725097,0,0,0
6934,231553.80474436044,2010-08-22 06:40:46,4952.510469629693,2,19,0.5501165986061096,4.035338878631592,20.765228950498884,19.978149451246896,82.3684203426532,73.37745752063142,0.0,0.0842843055725097,0,0,0
6935,231583.82003425836,2010-08-22 06:41:16,4982.525759517567,2,19,0.550297200679779,4.03809118270874,20.769815995998787,19.978149451246896,82.38693708771488,73.37745752063142,9.71794142969884e-05,0.0842843055725097,0,0,0
6936,231613.83531580545,2010-08-22 06:41:46,5012.541041069666,2,19,0.5501165986061096,4.04035758972168,20.77440304973928,19.978149451246896,82.40546533198663,73.37745752063142,3.24249267578125e-05,0.0842843055725097,0,0,0
6937,231643.85063347247,2010-08-22 06:42:16,5042.556358756824,2,19,0.5501165986061096,4.04310941696167,20.778990097878328,19.978149451246896,82.42400518171263,73.37745752063142,9.70840483205393e-05,0.0842843055725097,0,0,0
6938,231673.86593532524,2010-08-22 06:42:46,5072.571660584456,2,19,0.550297200679779,4.045537948608398,20.78357718323584,19.978149451246896,82.44255693633907,73.37745752063142,6.47544875391759e-05,0.0842843055725097,0,0,0
6939,231703.88115815097,2010-08-22 06:43:16,5102.586883435254,2,19,0.5501165986061096,4.048289775848389,20.788164243749048,19.978149451246896,82.46112041289095,73.37745752063142,6.47544875391759e-05,0.0842843055725097,0,0,0
6940,231733.89653787776,2010-08-22 06:43:46,5132.602263136972,2,19,0.550297200679779,4.050879955291748,20.792751380125413,19.978149451246896,82.47969614501243,73.37745752063142,9.70840483205393e-05,0.0842843055725097,0,0,0
6941,231763.91194751408,2010-08-22 06:44:16,5162.617672773297,2,19,0.550297200679779,4.0536322593688965,20.797338596949512,19.978149451246896,82.49828424216797,73.37745752063142,0.0001295089750783,0.0842843055725097,0,0,0
6942,231793.92720053004,2010-08-22 06:44:47,5192.632925789275,2,19,0.5499359965324402,4.056060314178467,20.80192561130241,19.978149451246896,82.5168836732829,73.37745752063142,6.47544875391759e-05,0.0842843055725097,0,0,0
6943,231823.9427936487,2010-08-22 06:45:17,5222.648518912906,2,19,0.5501165986061096,4.058812618255615,20.806512680079344,19.978149451246896,82.53549563276331,73.37745752063142,6.47544875391759e-05,0.0842843055725097,0,0,0
6944,231853.95794442485,2010-08-22 06:45:47,5252.663669694084,2,19,0.5501165986061096,4.061402797698975,20.8110996568674,19.978149451246896,82.55411941497258,73.37745752063142,9.71794142969884e-05,0.0842843055725097,0,0,0
6945,231883.973123692,2010-08-22 06:46:17,5282.678848951233,2,19,0.5501165986061096,4.064154624938965,20.81568660765205,19.978149451246896,82.57275544242347,73.37745752063142,6.47544875391759e-05,0.0842843055725097,0,0,0
6946,231913.9884415095,2010-08-22 06:46:47,5312.694166768716,2,19,0.550297200679779,4.067068576812744,20.8202735603206,19.978149451246896,82.59140412239672,73.37745752063142,9.70840483205393e-05,0.0842843055725097,0,0,0
6947,231944.00375501625,2010-08-22 06:47:17,5342.709480275456,2,19,0.5501165986061096,4.069658756256104,20.824860509891725,19.978149451246896,82.61006554755457,73.37745752063142,3.23295607813634e-05,0.0842843055725097,0,0,0
6948,231974.01908638247,2010-08-22 06:47:47,5372.72481166677,2,19,0.5501165986061096,4.072572708129883,20.829447508404986,19.978149451246896,82.62874000764111,73.37745752063142,6.47544875391759e-05,0.0842843055725097,0,0,0
6949,232004.0343725661,2010-08-22 06:48:17,5402.740097830361,2,19,0.550297200679779,4.075486660003662,20.834034502455022,19.978149451246896,82.64742740846235,73.37745752063142,6.47544875391759e-05,0.0842843055725097,0,0,0
6950,232034.04968680468,2010-08-22 06:48:47,5432.755412088975,2,19,0.5501165986061096,4.0782389640808105,20.838621457212252,19.978149451246896,82.66612774712934,73.37745752063142,6.47544875391759e-05,0.0842843055725097,0,0,0
6951,232064.06511872652,2010-08-22 06:49:17,5462.77084398578,2,19,0.5501165986061096,4.08115291595459,20.843208433589,19.978149451246896,82.68484142163179,73.37745752063142,6.47544875391759e-05,0.0842843055725097,0,0,0
6952,232094.0804985436,2010-08-22 06:49:47,5492.78622381281,2,19,0.5501165986061096,4.084066867828369,20.847795411109228,19.978149451246896,82.70356834163881,73.37745752063142,9.71794142969884e-05,0.0842843055725097,0,0,0
6953,232124.0955851548,2010-08-22 06:50:17,5522.801310419044,2,19,0.5501165986061096,4.087142467498779,20.852382295322627,19.978149451246896,82.72230839005445,73.37745752063142,9.70840483205393e-05,0.0842843055725097,0,0,0
6954,232154.11102504152,2010-08-22 06:50:47,5552.816750310775,2,19,0.5501165986061096,4.090056419372559,20.856969256724497,19.978149451246896,82.74106234585862,73.37745752063142,6.47544875391759e-05,0.0842843055725097,0,0,0
6955,232184.12624266933,2010-08-22 06:51:17,5582.831967948579,2,19,0.550297200679779,4.093132495880127,20.86155624129537,19.978149451246896,82.75983013032608,73.37745752063142,9.71794142969884e-05,0.0842843055725097,0,0,0
6956,232214.1416444912,2010-08-22 06:51:47,5612.847369775441,2,19,0.5501165986061096,4.096046447753906,20.866143289075712,19.978149451246896,82.77861203884407,73.37745752063142,6.47544875391759e-05,0.0842843055725097,0,0,0
6957,232244.15719670785,2010-08-22 06:52:17,5642.862921977081,2,19,0.5501165986061096,4.099122047424316,20.870730291173167,19.978149451246896,82.79740772147308,73.37745752063142,6.47544875391759e-05,0.0842843055725097,0,0,0
6958,232274.1721541321,2010-08-22 06:52:47,5672.877879401354,2,19,0.5501165986061096,4.102035999298096,20.87531723069277,19.978149451246896,82.81621724013493,73.37745752063142,6.47544875391759e-05,0.0842843055725097,0,0,0
6959,232304.1876946597,2010-08-22 06:53:17,5702.8934199489495,2,19,0.5501165986061096,4.105273723602295,20.87990427834854,19.978149451246896,82.83504140473066,73.37745752063142,9.70840483205393e-05,0.0842843055725097,0,0,0
6960,232334.2027693512,2010-08-22 06:53:47,5732.908494610414,2,19,0.5501165986061096,4.108511447906494,20.884491305571007,19.978149451246896,82.85387989191334,73.37745752063142,9.70840483205393e-05,0.0842843055725097,0,0,0
6961,232364.21811660205,2010-08-22 06:54:17,5762.923841866267,2,19,0.5499359965324402,4.111587524414063,20.889078316027117,19.978149451246896,82.87273275094235,73.37745752063142,3.24249267578125e-05,0.0842843055725097,0,0,0
6962,232394.23339648492,2010-08-22 06:54:47,5792.939121769256,2,19,0.5501165986061096,4.114824771881104,20.893665304240717,19.978149451246896,82.89160007472789,73.37745752063142,6.46591215627268e-05,0.0842843055725097,0,0,0
6963,232424.24871447287,2010-08-22 06:55:17,5822.954439742127,2,19,0.5501165986061096,4.118062496185303,20.898252296996617,19.978149451246896,82.91048214589402,73.37745752063142,9.70840483205393e-05,0.0842843055725097,0,0,0
6964,232454.264118806,2010-08-22 06:55:47,5852.969844070221,2,19,0.5501165986061096,4.121300220489502,20.90283927486337,19.978149451246896,82.92937900986239,73.37745752063142,9.70840483205393e-05,0.0842843055725097,0,0,0
6965,232484.27942750076,2010-08-22 06:56:17,5882.985152764968,2,19,0.5501165986061096,4.124537944793701,20.90742625370496,19.978149451246896,82.94829078263331,73.37745752063142,9.70840483205393e-05,0.0842843055725097,0,0,0
6966,232514.2946198756,2010-08-22 06:56:47,5913.000345164873,2,19,0.5499359965324402,4.1277756690979,20.9120132302453,19.978149451246896,82.9672176714799,73.37745752063142,6.47544875391759e-05,0.0842843055725097,0,0,0
6967,232544.3099638883,2010-08-22 06:57:17,5943.015689147567,2,19,0.550297200679779,4.13133716583252,20.916600248727622,19.978149451246896,82.98615993662311,73.37745752063142,0.0001295089750783,0.0842843055725097,0,0,0
6968,232574.3252399668,2010-08-22 06:57:47,5973.030965226026,2,19,0.5501165986061096,4.134574890136719,20.92118727847048,19.978149451246896,83.00511761830349,73.37745752063142,9.70840483205393e-05,0.0842843055725097,0,0,0
6969,232604.34055771912,2010-08-22 06:58:17,6003.046282983359,2,19,0.5501165986061096,4.137974739074707,20.92577425882853,19.978149451246896,83.02409054338058,73.37745752063142,9.71794142969884e-05,0.0842843055725097,0,0,0
6970,232634.35597145063,2010-08-22 06:58:47,6033.061696714889,2,19,0.550297200679779,4.141374111175537,20.93036124350228,19.978149451246896,83.04307907122487,73.37745752063142,9.70840483205393e-05,0.0842843055725097,0,0,0
6971,232664.3711699207,2010-08-22 06:59:17,6063.07689517991,2,19,0.5499359965324402,4.144773960113525,20.93494820086652,19.978149451246896,83.06208325892104,73.37745752063142,9.71794142969884e-05,0.0842843055725097,0,0,0
6972,232694.3865387704,2010-08-22 06:59:47,6093.092264129831,2,19,0.5501165986061096,4.1483354568481445,20.93953516993976,19.978149451246896,83.08110366838291,73.37745752063142,9.71794142969884e-05,0.0842843055725097,0,0,0
6973,232724.4017854456,2010-08-22 07:00:17,6123.1075107097695,2,19,0.5501165986061096,4.151896953582764,20.944122087239737,19.978149451246896,83.10013983730893,73.37745752063142,0.0001295089750783,0.0842843055725097,0,0,0
6974,232754.4170983658,2010-08-22 07:00:47,6153.12282361501,2,19,0.5501165986061096,4.155296325683594,20.948709048663,19.978149451246896,83.11919231047058,73.37745752063142,9.70840483205393e-05,0.0842843055725097,0,0,0
6975,232784.43253400692,2010-08-22 07:01:17,6183.13825926617,2,19,0.5501165986061096,4.159019947052002,20.953296022393424,19.978149451246896,83.13826107928331,73.37745752063142,9.71794142969884e-05,0.0842843055725097,0,0,0
6976,232814.44772649207,2010-08-22 07:01:47,6213.15345177635,2,19,0.5501165986061096,4.162419319152832,20.957882924723823,19.978149451246896,83.15734590423638,73.37745752063142,6.47544875391759e-05,0.0842843055725097,0,0,0
6977,232844.46301871075,2010-08-22 07:02:17,6243.168743969972,2,19,0.5501165986061096,4.16614294052124,20.96246983526638,19.978149451246896,83.17644722340431,73.37745752063142,9.71794142969884e-05,0.0842843055725097,0,0,0
6978,232874.4783283579,2010-08-22 07:02:47,6273.184053632129,2,19,0.5501165986061096,4.169704437255859,20.967056722115142,19.978149451246896,83.19556507566304,73.37745752063142,9.71794142969884e-05,0.0842843055725097,0,0,0
6979,232904.49364809511,2010-08-22 07:03:17,6303.19937335436,2,19,0.550297200679779,4.173589706420898,20.97164368475384,19.978149451246896,83.2147000261665,73.37745752063142,0.0001619339018361,0.0842843055725097,0,0,0
6980,232934.5090762827,2010-08-22 07:03:47,6333.214801546932,2,19,0.5499359965324402,4.177151203155518,20.976230694609765,19.978149451246896,83.23385206986623,73.37745752063142,0.0001295089750783,0.0842843055725097,0,0,0
6981,232964.52427198584,2010-08-22 07:04:17,6363.229997255082,2,19,0.5501165986061096,4.180712699890137,20.980817691397217,19.978149451246896,83.25302106039982,73.37745752063142,3.24249267578125e-05,0.0842843055725097,0,0,0
6982,232994.53956769823,2010-08-22 07:04:47,6393.24529298251,2,19,0.5501165986061096,4.184597969055176,20.98540463512733,19.978149451246896,83.27220700939543,73.37745752063142,9.71794142969884e-05,0.0842843055725097,0,0,0
6983,233024.55490117977,2010-08-22 07:05:17,6423.2606264640335,2,19,0.5501165986061096,4.188321113586426,20.989991635781227,19.978149451246896,83.29141041889203,73.37745752063142,9.70840483205393e-05,0.0842843055725097,0,0,0
6984,233054.57027488653,2010-08-22 07:05:47,6453.276000155773,2,19,0.5501165986061096,4.192206382751465,20.99457862241742,19.978149451246896,83.31063127442857,73.37745752063142,0.0001295089750783,0.0842843055725097,0,0,0
6985,233084.5854732964,2010-08-22 07:06:17,6483.291198575681,2,19,0.5501165986061096,4.196091651916504,20.999165606671145,19.978149451246896,83.32986969567236,73.37745752063142,0.0001295089750783,0.0842843055725097,0,0,0
6986,233113.8664775636,2010-08-22 07:06:46,6512.572202837841,2,19,0.550297200679779,4.200138568878174,21.0036403318449,19.978149451246896,83.34865431542603,73.37745752063142,0.0001618385285837,0.0842843055725097,0,0,0
6987,233143.8786204062,2010-08-22 07:07:17,30.015319000431845,3,19,0.0,4.1274518966674805,21.0036403318449,19.978149451246896,83.34865431542603,73.37745752063142,-0.0003237724304199,0.0842843055725097,0,0,0
6988,233173.89392329147,2010-08-22 07:07:47,60.03062189071224,3,19,0.0,4.118386268615723,21.0036403318449,19.978149451246896,83.34865431542603,73.37745752063142,-0.0001942634553415,0.0842843055725097,0,0,0
6989,233203.90922653265,2010-08-22 07:08:17,90.04592510179216,3,19,0.0,4.113206386566162,21.0036403318449,19.978149451246896,83.34865431542603,73.37745752063142,-9.70840483205393e-05,0.0842843055725097,0,0,0
6990,233233.8777397386,2010-08-22 07:08:47,120.01443833785744,3,19,0.0,4.109806537628174,21.0036403318449,19.978149451246896,83.34865431542603,73.37745752063142,-9.71794142969884e-05,0.0842843055725097,0,0,0
6991,233233.8914309493,2010-08-22 07:08:47,0.015632546114933,4,19,0.9938735961914062,4.199814796447754,21.003644661734945,19.978149451246896,83.34867250016231,73.37745752063142,0.0,0.0842843055725097,0,0,0
6992,233234.95389137257,2010-08-22 07:08:48,1.078092929300719,4,19,0.9433029890060424,4.199653148651123,21.00392903612351,19.978149451246896,83.34986677101564,73.37745752063142,-3.23295607813634e-05,0.0842843055725097,0,0,0
6993,233237.1569645087,2010-08-22 07:08:50,3.281166070437089,4,19,0.8925517797470093,4.199653148651123,21.00448960026021,19.978149451246896,83.35222093152804,73.37745752063142,-3.23295607813634e-05,0.0842843055725097,0,0,0
6994,233240.3912980581,2010-08-22 07:08:53,6.51549961982171,4,19,0.8425230383872986,4.199653148651123,21.00526802136232,19.978149451246896,83.35549002166206,73.37745752063142,0.0,0.0842843055725097,0,0,0
6995,233244.6728021787,2010-08-22 07:08:58,10.797003750501249,4,19,0.7924942374229431,4.199653148651123,21.006239325797296,19.978149451246896,83.35956915919652,73.37745752063142,0.0,0.0842843055725097,0,0,0
6996,233250.15683890565,2010-08-22 07:09:03,16.28104046238317,4,19,0.7424654960632324,4.199653148651123,21.007407124344933,19.978149451246896,83.36447352559969,73.37745752063142,0.0,0.0842843055725097,0,0,0
6997,233257.156791356,2010-08-22 07:09:10,23.280992912720937,4,19,0.6920754909515381,4.199653148651123,21.008799881179847,19.978149451246896,83.37032262905224,73.37745752063142,0.0,0.0842843055725097,0,0,0
6998,233266.37540152404,2010-08-22 07:09:19,32.499603080755115,4,19,0.641866147518158,4.199653148651123,21.01050501028976,19.978149451246896,83.37748361159626,73.37745752063142,3.24249267578125e-05,0.0842843055725097,0,0,0
6999,233278.9223842556,2010-08-22 07:09:32,45.04658583739474,4,19,0.5916567444801331,4.199653148651123,21.01265014045369,19.978149451246896,83.38649246215033,73.37745752063142,-3.23295607813634e-05,0.0842843055725097,0,0,0
7000,233297.09383470137,2010-08-22 07:09:50,63.218036288133504,4,19,0.5416280031204224,4.199653148651123,21.015502900321284,19.978149451246896,83.39847308946133,73.37745752063142,6.47544875391759e-05,0.0842843055725097,0,0,0
7001,233325.67193986263,2010-08-22 07:10:19,91.79614142940868,4,19,0.4915992021560669,4.199491024017334,21.019589969032417,19.978149451246896,83.41563741868539,73.37745752063142,-3.24249267578125e-05,0.0842843055725097,0,0,0
7002,233372.8743208549,2010-08-22 07:11:06,138.99852241162588,4,19,0.4415704309940338,4.199653148651123,21.02568395099563,19.978149451246896,83.44123007216301,73.37745752063142,3.24249267578125e-05,0.0842843055725097,0,0,0
7003,233447.10801790407,2010-08-22 07:12:20,213.2322194858725,4,19,0.3915416598320007,4.199653148651123,21.03424600877761,19.978149451246896,83.47718785246529,73.37745752063142,0.0,0.0842843055725097,0,0,0
7004,233545.70060187453,2010-08-22 07:13:59,311.82480343124405,4,19,0.3415128886699676,4.199491024017334,21.044262289808312,19.978149451246896,83.51925293279297,73.37745752063142,0.0,0.0842843055725097,0,0,0
7005,233666.65249748933,2010-08-22 07:16:00,432.7766990761591,4,19,0.2914841175079345,4.199814796447754,21.054875534334908,19.978149451246896,83.56382504371612,73.37745752063142,3.23295607813634e-05,0.0842843055725097,0,0,0
7006,233812.6040784824,2010-08-22 07:18:25,578.7282800390974,4,19,0.2410941421985626,4.199491024017334,21.06565402098279,19.978149451246896,83.60909113140741,73.37745752063142,-3.24249267578125e-05,0.0842843055725097,0,0,0
7007,233994.75840012945,2010-08-22 07:21:28,760.8826017111878,4,19,0.1910653710365295,4.199491024017334,21.0765664616434,19.978149451246896,83.6549198037471,73.37745752063142,-3.24249267578125e-05,0.0842843055725097,0,0,0
7008,234236.0060332512,2010-08-22 07:25:29,1002.1302348329684,4,19,0.1410365998744964,4.199491024017334,21.087641372010506,19.978149451246896,83.70143078170116,73.37745752063142,-3.24249267578125e-05,0.0842843055725097,0,0,0
7009,234598.9086391123,2010-08-22 07:31:32,1365.0328407241896,4,19,0.0910078287124633,4.199653148651123,21.099167024529933,19.978149451246896,83.74983433964316,73.37745752063142,-3.23295607813634e-05,0.0842843055725097,0,0,0
7010,235132.13705480951,2010-08-22 07:40:25,1898.261256371264,4,19,0.0498289167881011,4.199491024017334,21.10929686432062,19.978149451246896,83.7923764036594,73.37745752063142,-6.47544875391759e-05,0.0842843055725097,0,0,0
7011,235162.15471937665,2010-08-22 07:40:55,30.01520752259477,5,19,0.0,4.193016052246094,21.10929686432062,19.978149451246896,83.7923764036594,73.37745752063142,3.24249267578125e-05,0.0842843055725097,0,0,0
7012,235192.15440559536,2010-08-22 07:41:25,60.01489374132453,5,19,0.0,4.191882610321045,21.10929686432062,19.978149451246896,83.7923764036594,73.37745752063142,-3.24249267578125e-05,0.0842843055725097,0,0,0
7013,235192.34492012733,2010-08-22 07:41:25,0.187433577146118,6,19,-1.9243103452026844e-05,4.191720962524414,21.10929686432062,19.978149452248783,83.7923764036594,73.37745752483106,0.0,0.086637258529663,0,0,0
7014,235197.17319432227,2010-08-22 07:41:30,5.01570777206268,6,19,0.0005225847125984,4.192044734954834,21.10929774533756,19.97814945241576,83.79238009688987,73.37745752553096,0.0,0.086637258529663,0,0,0
7015,235227.19144336256,2010-08-22 07:42:00,30.0153106847065,7,19,-1.1001102924346924,4.04181432723999,21.10929774533756,19.98731939189449,83.79238009688987,73.41469101777395,-0.0007770538213662,0.086637258529663,0,0,0
7016,235257.2067547891,2010-08-22 07:42:30,60.0306221162744,7,19,-1.0997490882873535,4.019150733947754,21.10929774533756,19.99648930587115,83.79238009688987,73.45164301503972,-0.0005180359003134,0.086637258529663,0,0,0
7017,235287.20685503475,2010-08-22 07:43:00,90.0307224019865,7,19,-1.0997490882873535,4.003933429718018,21.10929774533756,20.00565454759229,83.79238009688987,73.48840681720147,-0.0003885269106831,0.086637258529663,0,0,0
7018,235317.22172030932,2010-08-22 07:43:30,120.045587666569,7,19,-1.099929690361023,3.991630077362061,21.10929774533756,20.01482419845613,83.79238009688987,73.52506322758295,-0.0002913951757363,0.086637258529663,0,0,0
7019,235347.2370887931,2010-08-22 07:44:00,150.06095614531603,7,19,-1.0997490882873535,3.981107473373413,21.10929774533756,20.02399391510239,83.79238009688987,73.56161638803913,-0.0002590179501567,0.086637258529663,0,0,0
7020,235377.25231523285,2010-08-22 07:44:30,180.07618256500817,7,19,-1.099929690361023,3.9715561866760254,21.10929774533756,20.033163478982317,83.79238009688987,73.59807704533894,-0.0002266406954731,0.086637258529663,0,0,0
7021,235407.2676388648,2010-08-22 07:45:00,210.0915062170332,7,19,-1.0997490882873535,3.9626524448394775,21.10929774533756,20.042333184294503,83.79238009688987,73.63445357106427,-0.0001942634553415,0.086637258529663,0,0,0
7022,235437.28295778504,2010-08-22 07:45:30,240.10682510217777,7,19,-1.0997490882873535,3.9540724754333496,21.10929774533756,20.051502826149047,83.79238009688987,73.67074966078204,-0.0002266406954731,0.086637258529663,0,0,0
7023,235467.2982818581,2010-08-22 07:46:00,270.12214919530214,7,19,-1.099929690361023,3.9458162784576416,21.10929774533756,20.060672519225573,83.79238009688987,73.70696897695066,-0.0001942634553415,0.086637258529663,0,0,0
7024,235497.3135624829,2010-08-22 07:46:31,300.1374298100651,7,19,-1.099929690361023,3.937721967697144,21.10929774533756,20.06984220319088,83.79238009688987,73.74311376881447,-0.0002266406954731,0.086637258529663,0,0,0
7025,235527.3291829948,2010-08-22 07:47:01,330.15305032696875,7,19,-1.0997490882873535,3.9299514293670654,21.10929774533756,20.079011970313303,83.79238009688987,73.7791862376515,-0.0001942634553415,0.086637258529663,0,0,0
7026,235557.34430453813,2010-08-22 07:47:31,360.1681718652642,7,19,-1.0997490882873535,3.9221808910369873,21.10929774533756,20.088181587500088,83.79238009688987,73.81518693094728,-0.0002266406954731,0.086637258529663,0,0,0
7027,235587.35948957468,2010-08-22 07:48:01,390.18335690181686,7,19,-1.0997490882873535,3.914734125137329,21.10929774533756,20.097351253660637,83.79238009688987,73.85111783951395,-0.0001618862152099,0.086637258529663,0,0,0
7028,235617.37479723684,2010-08-22 07:48:31,420.19866456399023,7,19,-1.0997490882873535,3.90728759765625,21.10929774533756,20.106520909107715,83.79238009688987,73.88697993979962,-0.0001618862152099,0.086637258529663,0,0,0
7029,235647.3901191395,2010-08-22 07:49:01,450.21398646665534,7,19,-1.0997490882873535,3.9000027179718018,21.10929774533756,20.11569050940429,83.79238009688987,73.92277404893747,-0.0001942634553415,0.086637258529663,0,0,0
7030,235677.40554507647,2010-08-22 07:49:31,480.2294124136309,7,19,-1.099929690361023,3.8927178382873535,21.10929774533756,20.124860209091977,83.79238009688987,73.95850184679207,-0.0002266406954731,0.086637258529663,0,0,0
7031,235707.42070664457,2010-08-22 07:50:01,510.2445739716678,7,19,-1.0997490882873535,3.8855948448181152,21.10929774533756,20.134029873091738,83.79238009688987,73.99416407735517,-0.0001942634553415,0.086637258529663,0,0,0
7032,235737.43603396064,2010-08-22 07:50:31,540.2599012928375,7,19,-1.0997490882873535,3.878471851348877,21.10929774533756,20.14319960769152,83.79238009688987,74.02976141254311,-0.0001942634553415,0.086637258529663,0,0,0
7033,235767.4513692216,2010-08-22 07:51:01,570.2752365537956,7,19,-1.099929690361023,3.8716726303100586,21.10929774533756,20.15236933854564,83.79238009688987,74.06529443106996,-0.0001295089750783,0.086637258529663,0,0,0
7034,235797.46689862144,2010-08-22 07:51:31,600.29076595862,7,19,-1.099929690361023,3.86454963684082,21.10929774533756,20.16153909556309,83.79238009688987,74.10076414944777,-0.0002266406954731,0.086637258529663,0,0,0
7035,235827.48199082664,2010-08-22 07:52:01,630.3058581587958,7,19,-1.099929690361023,3.857912302017212,21.10929774533756,20.170708677457178,83.79238009688987,74.13617052769482,-0.0001618862152099,0.086637258529663,0,0,0
7036,235857.49730941103,2010-08-22 07:52:31,660.3211767482032,7,19,-1.0997490882873535,3.851274967193604,21.10929774533756,20.179878411861285,83.79238009688987,74.17151541028122,-0.0001618862152099,0.086637258529663,0,0,0
7037,235887.5126496043,2010-08-22 07:53:01,690.336516951479,7,19,-1.0997490882873535,3.844637632369995,21.10929774533756,20.189048152111493,83.79238009688987,74.20679932911654,-0.0001618862152099,0.086637258529663,0,0,0
7038,235917.5279177329,2010-08-22 07:53:31,720.3517850700978,7,19,-1.0997490882873535,3.8380002975463863,21.10929774533756,20.198217823010584,83.79238009688987,74.2420228486529,-0.0001942634553415,0.086637258529663,0,0,0
7039,235947.54338792016,2010-08-22 07:54:01,750.3672552523211,7,19,-1.0997490882873535,3.831686973571777,21.10929774533756,20.20738760823988,83.79238009688987,74.27718742497545,-0.0001618862152099,0.086637258529663,0,0,0
7040,235977.5586356129,2010-08-22 07:54:31,780.3825029700947,7,19,-1.099929690361023,3.825373411178589,21.10929774533756,20.216557317722376,83.79238009688987,74.31229336987364,-0.0001618862152099,0.086637258529663,0,0,0
7041,236007.5741099956,2010-08-22 07:55:01,810.397977322712,7,19,-1.099929690361023,3.8192217350006095,21.10929774533756,20.225727098893096,83.79238009688987,74.34734217124561,-0.0001295089750783,0.086637258529663,0,0,0
7042,236037.58916263716,2010-08-22 07:55:31,840.4130299693081,7,19,-1.099929690361023,3.812908172607422,21.10929774533756,20.234896770159065,83.79238009688987,74.38233405398138,-0.0001942634553415,0.086637258529663,0,0,0
7043,236067.60447026923,2010-08-22 07:56:01,870.4283376014066,7,19,-1.099929690361023,3.806918382644653,21.10929774533756,20.24406641523933,83.79238009688987,74.41726959981285,-0.0001618862152099,0.086637258529663,0,0,0
7044,236097.6197827735,2010-08-22 07:56:31,900.443650105648,7,19,-1.1001102924346924,3.8009285926818848,21.10929774533756,20.25323606932816,83.79238009688987,74.45215055488836,-0.0001618862152099,0.086637258529663,0,0,0
7045,236127.63510968865,2010-08-22 07:57:01,930.4589770157932,7,19,-1.099929690361023,3.795100688934326,21.10929774533756,20.262405740194183,83.79238009688987,74.48697793922412,-0.0001618862152099,0.086637258529663,0,0,0
7046,236157.65041725052,2010-08-22 07:57:31,960.4742845777168,7,19,-1.099929690361023,3.7894346714019775,21.10929774533756,20.271575480212476,83.79238009688987,74.52175281357513,-0.0001942634553415,0.086637258529663,0,0,0
7047,236187.6658330723,2010-08-22 07:58:01,990.489700409482,7,19,-1.099929690361023,3.783930540084839,21.10929774533756,20.280745237708626,83.79238009688987,74.55647604470295,-0.0001618862152099,0.086637258529663,0,0,0
7048,236217.6810656624,2010-08-22 07:58:31,1020.5049330396528,7,19,-1.099568486213684,3.77858829498291,21.10929774533756,20.289914955606683,83.79238009688987,74.59114822230815,-0.0001295089750783,0.086637258529663,0,0,0
7049,236247.6963460265,2010-08-22 07:59:01,1050.520213353666,7,19,-1.0997490882873535,3.773084163665772,21.10929774533756,20.299084617801128,83.79238009688987,74.62577030580672,-0.0001295089750783,0.086637258529663,0,0,0
7050,236277.71165101705,2010-08-22 07:59:31,1080.535518344181,7,19,-1.0997490882873535,3.7677419185638423,21.10929774533756,20.30825430836984,83.79238009688987,74.66034353058832,-0.0001295089750783,0.086637258529663,0,0,0
7051,236307.7269542883,2010-08-22 08:00:01,1110.5508216204232,7,19,-1.099929690361023,3.762399673461914,21.10929774533756,20.31742403836087,83.79238009688987,74.6948689715608,-0.0001942634553415,0.086637258529663,0,0,0
7052,236337.74225810083,2010-08-22 08:00:31,1140.5661254380148,7,19,-1.0997490882873535,3.7575430870056152,21.10929774533756,20.326593746995997,83.79238009688987,74.72934734453601,-0.0001295089750783,0.086637258529663,0,0,0
7053,236367.75762175256,2010-08-22 08:01:01,1170.5814891047687,7,19,-1.0997490882873535,3.752686738967896,21.10929774533756,20.335763516669367,83.79238009688987,74.76377962504587,-9.70840483205393e-05,0.086637258529663,0,0,0
7054,236397.77288318952,2010-08-22 08:01:31,1200.5967505266974,7,19,-1.099568486213684,3.7478301525115967,21.10929774533756,20.344933257392817,83.79238009688987,74.79816639940252,-9.713172767078504e-05,0.086637258529663,0,0,0
7055,236427.78822601936,2010-08-22 08:02:01,1230.6120933565192,7,19,-1.099929690361023,3.742811679840088,21.10929774533756,20.354103058368835,83.79238009688987,74.83250899401136,-0.0001295089750783,0.086637258529663,0,0,0
7056,236457.80365534977,2010-08-22 08:02:31,1260.627522681915,7,19,-1.0997490882873535,3.738116979598999,21.10929774533756,20.363272778593632,83.79238009688987,74.86680765142303,-0.0001295089750783,0.086637258529663,0,0,0
7057,236487.81883060196,2010-08-22 08:03:01,1290.6426979340818,7,19,-1.099929690361023,3.73342227935791,21.10929774533756,20.37244245685376,83.79238009688987,74.90106333484415,-0.0001295089750783,0.086637258529663,0,0,0
7058,236517.8341220136,2010-08-22 08:03:31,1320.657989365804,7,19,-1.0997490882873535,3.7288894653320312,21.10929774533756,20.38161215123272,83.79238009688987,74.93527692785901,-0.0001618862152099,0.086637258529663,0,0,0
7059,236547.8494274653,2010-08-22 08:04:01,1350.6732948024307,7,19,-1.099568486213684,3.7245185375213614,21.10929774533756,20.39078189838492,83.79238009688987,74.96945019716183,-9.713172767078504e-05,0.086637258529663,0,0,0
7060,236577.8647592225,2010-08-22 08:04:31,1380.6886265496314,7,19,-1.0997490882873535,3.720147609710693,21.10929774533756,20.399951596648684,83.79238009688987,75.0035826448433,-9.713172767078504e-05,0.086637258529663,0,0,0
7061,236607.88006885457,2010-08-22 08:05:01,1410.7039361917396,7,19,-1.099929690361023,3.715776681900024,21.10929774533756,20.409121338317508,83.79238009688987,75.0376754110606,-9.713172767078504e-05,0.086637258529663,0,0,0
7062,236637.89536311835,2010-08-22 08:05:31,1440.719230445495,7,19,-1.0997490882873535,3.711567640304565,21.10929774533756,20.418291052175512,83.79238009688987,75.0717289761187,-0.0001295089750783,0.086637258529663,0,0,0
7063,236667.9107985389,2010-08-22 08:06:01,1470.7346658660815,7,19,-1.0997490882873535,3.7073585987091056,21.10929774533756,20.427460836282787,83.79238009688987,75.1057442022249,-9.713172767078504e-05,0.086637258529663,0,0,0
7064,236697.9259862321,2010-08-22 08:06:31,1500.749853564268,7,19,-1.0997490882873535,3.7033114433288574,21.10929774533756,20.4366305526608,83.79238009688987,75.13972140717917,-9.713172767078504e-05,0.086637258529663,0,0,0
7065,236727.9413101097,2010-08-22 08:07:01,1530.7651774468677,7,19,-1.0997490882873535,3.6994261741638175,21.10929774533756,20.445800348004987,83.79238009688987,75.17366175057347,-9.713172767078504e-05,0.086637258529663,0,0,0
7066,236757.95677843728,2010-08-22 08:07:31,1560.7806457594313,7,19,-1.0997490882873535,3.695379018783569,21.10929774533756,20.45497013893537,83.79238009688987,75.20756552609502,-9.713172767078504e-05,0.086637258529663,0,0,0
7067,236787.97192743403,2010-08-22 08:08:01,1590.795794791249,7,19,-1.099929690361023,3.6914937496185294,21.10929774533756,20.464139752603327,83.79238009688987,75.24143271869004,-9.713172767078504e-05,0.086637258529663,0,0,0
7068,236817.98722455493,2010-08-22 08:08:31,1620.8110918820755,7,19,-1.0997490882873535,3.687608480453491,21.10929774533756,20.47330946668285,83.79238009688987,75.27526496189812,-9.713172767078504e-05,0.086637258529663,0,0,0
7069,236848.00267077243,2010-08-22 08:09:01,1650.8265380995713,7,19,-1.099929690361023,3.683885097503662,21.10929774533756,20.48247932578299,83.79238009688987,75.30906318717818,-9.713172767078504e-05,0.086637258529663,0,0,0
7070,236878.01785112228,2010-08-22 08:09:31,1680.8417184494433,7,19,-1.099929690361023,3.679999828338623,21.10929774533756,20.49164909503663,83.79238009688987,75.34282691726266,-0.0001295089750783,0.086637258529663,0,0,0
7071,236908.0331560076,2010-08-22 08:10:01,1710.857023339708,7,19,-1.0997490882873535,3.676762104034424,21.10929774533756,20.50081880565984,83.79238009688987,75.3765569668679,-9.713172767078504e-05,0.086637258529663,0,0,0
7072,236938.0485925309,2010-08-22 08:10:31,1740.8724598580309,7,19,-1.0997490882873535,3.6730387210845943,21.10929774533756,20.50998858987354,83.79238009688987,75.41025471014898,-9.713172767078504e-05,0.086637258529663,0,0,0
7073,236968.06428533795,2010-08-22 08:11:01,1770.8881526851535,7,19,-1.0997490882873535,3.6696393489837646,21.10929774533756,20.519158422051408,83.79238009688987,75.44392044601857,-9.713172767078504e-05,0.086637258529663,0,0,0
7074,236998.0791222769,2010-08-22 08:11:31,1800.9029896040902,7,19,-1.0997490882873535,3.666239738464356,21.10929774533756,20.528327996047576,83.79238009688987,75.47755375038302,-9.713172767078504e-05,0.086637258529663,0,0,0
7075,237028.09377092664,2010-08-22 08:12:01,1830.9176382487897,7,19,-1.0997490882873535,3.663002014160156,21.10929774533756,20.537492972740523,83.79238009688987,75.51113954208463,-6.47544875391759e-05,0.086637258529663,0,0,0
7076,237058.0940928698,2010-08-22 08:12:31,1860.9179601969524,7,19,-1.0997490882873535,3.659764289855957,21.10929774533756,20.546662736094618,83.79238009688987,75.54471277032535,-6.47544875391759e-05,0.086637258529663,0,0,0
7077,237088.109471143,2010-08-22 08:13:01,1890.933338520235,7,19,-1.0997490882873535,3.656526565551758,21.10929774533756,20.55583247032433,83.79238009688987,75.57825630468764,-6.47544875391759e-05,0.086637258529663,0,0,0
7078,237118.12736792804,2010-08-22 08:13:31,1920.9512352601869,7,19,-1.099929690361023,3.653450727462769,21.10929774533756,20.565003013372856,83.79238009688987,75.61177435179056,-6.47544875391759e-05,0.086637258529663,0,0,0
7079,237148.14004362552,2010-08-22 08:14:01,1950.9639109526825,7,19,-1.099568486213684,3.650536775588989,21.10929774533756,20.57417189607297,83.79238009688987,75.64525836319372,-6.47544875391759e-05,0.086637258529663,0,0,0
7080,237178.15532495207,2010-08-22 08:14:31,1980.979192279219,7,19,-1.099929690361023,3.64729905128479,21.10929774533756,20.583341601957475,83.79238009688987,75.67871813246136,-9.713172767078504e-05,0.086637258529663,0,0,0
7081,237208.1707598614,2010-08-22 08:15:01,2010.994627188532,7,19,-1.099568486213684,3.644708871841431,21.10929774533756,20.592511299337275,83.79238009688987,75.71215095653459,-3.237724376958795e-05,0.086637258529663,0,0,0
7082,237238.18600475712,2010-08-22 08:15:31,2041.009872084272,7,19,-1.099929690361023,3.641956806182861,21.10929774533756,20.60168089509351,83.79238009688987,75.74555800003607,-3.237724376958795e-05,0.086637258529663,0,0,0
7083,237268.2012563696,2010-08-22 08:16:01,2071.0251237017646,7,19,-1.0997490882873535,3.639042854309082,21.10929774533756,20.610850549076893,83.79238009688987,75.77894030749387,-9.713172767078504e-05,0.086637258529663,0,0,0
7084,237298.2165763023,2010-08-22 08:16:31,2101.04044363452,7,19,-1.099929690361023,3.6366145610809326,21.10929774533756,20.620020239034996,83.79238009688987,75.81229842809884,-3.237724376958795e-05,0.086637258529663,0,0,0
7085,237328.23187426032,2010-08-22 08:17:01,2131.055741587495,7,19,-1.099929690361023,3.634024381637573,21.10929774533756,20.62918992105041,83.79238009688987,75.84563281961609,-6.47544875391759e-05,0.086637258529663,0,0,0
7086,237358.24722218787,2010-08-22 08:17:31,2161.0710895200345,7,19,-1.0997490882873535,3.631434202194214,21.10929774533756,20.638359621653315,83.79238009688987,75.8789439768134,-9.713172767078504e-05,0.086637258529663,0,0,0
7087,237388.2626580295,2010-08-22 08:18:01,2191.086525396758,7,19,-1.0997490882873535,3.629005908966065,21.10929774533756,20.647529333674196,83.79238009688987,75.91223244949549,-9.713172767078504e-05,0.086637258529663,0,0,0
7088,237418.277814159,2010-08-22 08:18:31,2221.1016814961904,7,19,-1.099929690361023,3.626577615737915,21.10929774533756,20.656699045459128,83.79238009688987,75.94549828248581,-3.237724376958795e-05,0.086637258529663,0,0,0
7089,237448.2931138664,2010-08-22 08:19:02,2251.116981198525,7,19,-1.0997490882873535,3.623987436294556,21.10929774533756,20.665868701954267,83.79238009688987,75.97874165074855,-9.713172767078504e-05,0.086637258529663,0,0,0
7090,237478.30890784052,2010-08-22 08:19:32,2281.132775288025,7,19,-1.0997490882873535,3.621721029281616,21.10929774533756,20.675038550692253,83.79238009688987,76.01196359489931,-6.47544875391759e-05,0.086637258529663,0,0,0
7091,237508.32386746537,2010-08-22 08:20:02,2311.1477347924824,7,19,-1.0997490882873535,3.6194546222686768,21.10929774533756,20.6842081445968,83.79238009688987,76.04516235197188,-6.47544875391759e-05,0.086637258529663,0,0,0
7092,237538.33927808912,2010-08-22 08:20:32,2341.163145411256,7,19,-1.0997490882873535,3.6170263290405273,21.10929774533756,20.693377926657664,83.79238009688987,76.0783395965988,-3.237724376958795e-05,0.086637258529663,0,0,0
7093,237568.3545034963,2010-08-22 08:21:02,2371.1783708585244,7,19,-1.0997490882873535,3.614598035812378,21.10929774533756,20.702547655029583,83.79238009688987,76.11149412171412,-3.237724376958795e-05,0.086637258529663,0,0,0
7094,237598.36967574092,2010-08-22 08:21:32,2401.1935430681083,7,19,-1.099929690361023,3.6118459701538086,21.10929774533756,20.711717341188184,83.79238009688987,76.14462606883282,-0.0001295089750783,0.086637258529663,0,0,0
7095,237628.3849728017,2010-08-22 08:22:02,2431.20884012886,7,19,-1.0997490882873535,3.609579563140869,21.10929774533756,20.720887063267213,83.79238009688987,76.17773528822556,-3.237724376958795e-05,0.086637258529663,0,0,0
7096,237658.4002951104,2010-08-22 08:22:32,2461.224162442549,7,19,-1.0997490882873535,3.6068274974823,21.10929774533756,20.730056804330307,83.79238009688987,76.21082142935671,-6.47544875391759e-05,0.086637258529663,0,0,0
7097,237688.41572169395,2010-08-22 08:23:02,2491.2395890210987,7,19,-1.099929690361023,3.6043992042541504,21.10929774533756,20.73922658756668,83.79238009688987,76.24388403243698,-6.47544875391759e-05,0.086637258529663,0,0,0
7098,237718.43092774283,2010-08-22 08:23:32,2521.254795075033,7,19,-1.099929690361023,3.601647138595581,21.10929774533756,20.7483962771866,83.79238009688987,76.27692235439895,-6.47544875391759e-05,0.086637258529663,0,0,0
7099,237748.44637432627,2010-08-22 08:24:02,2551.270241663454,7,19,-1.0997490882873535,3.5990569591522217,21.10929774533756,20.7575660748502,83.79238009688987,76.30993640595834,-6.47544875391759e-05,0.086637258529663,0,0,0
7100,237778.4615522952,2010-08-22 08:24:32,2581.285419622366,7,19,-1.0997490882873535,3.5961430072784424,21.10929774533756,20.766735745283498,83.79238009688987,76.34292472515293,-6.47544875391759e-05,0.086637258529663,0,0,0
7101,237808.4768454713,2010-08-22 08:25:02,2611.300712798436,7,19,-1.099568486213684,3.593390941619873,21.10929774533756,20.77590548872099,83.79238009688987,76.37588736401854,-6.47544875391759e-05,0.086637258529663,0,0,0
7102,237838.4921717549,2010-08-22 08:25:32,2641.3160390820194,7,19,-1.0997490882873535,3.590315341949463,21.10929774533756,20.785075304140268,83.79238009688987,76.40882371858955,-9.713172767078504e-05,0.086637258529663,0,0,0
7103,237868.50760557145,2010-08-22 08:26:02,2671.331472898609,7,19,-1.099929690361023,3.5872395038604736,21.10929774533756,20.794245106077987,83.79238009688987,76.44173269145223,-0.0001295089750783,0.086637258529663,0,0,0
7104,237898.52277320967,2010-08-22 08:26:32,2701.346640541812,7,19,-1.099929690361023,3.5841636657714844,21.10929774533756,20.803414807995043,83.79238009688987,76.47461317487407,-6.47544875391759e-05,0.086637258529663,0,0,0
7105,237928.5380962,2010-08-22 08:27:02,2731.361963527176,7,19,-1.0997490882873535,3.581087827682495,21.10929774533756,20.81258456524356,83.79238009688987,76.50746495780014,-6.47544875391759e-05,0.086637258529663,0,0,0
7106,237958.55361520892,2010-08-22 08:27:32,2761.3774825360906,7,19,-1.099929690361023,3.577688217163086,21.10929774533756,20.821754349130725,83.79238009688987,76.54028684191323,-9.713172767078504e-05,0.086637258529663,0,0,0
7107,237988.56873581995,2010-08-22 08:28:02,2791.3926031470746,7,19,-1.0997490882873535,3.574126720428467,21.10929774533756,20.830924021453477,83.79238009688987,76.57307717095115,-9.713172767078504e-05,0.086637258529663,0,0,0
7108,238018.58404594823,2010-08-22 08:28:32,2821.4079132804063,7,19,-1.099929690361023,3.570565223693848,21.10929774533756,20.8400937428395,83.79238009688987,76.60583541387142,-9.713172767078504e-05,0.086637258529663,0,0,0
7109,238048.5993291645,2010-08-22 08:29:02,2851.4231964916407,7,19,-1.0997490882873535,3.5670037269592285,21.10929774533756,20.849263454409865,83.79238009688987,76.63856016644945,-9.713172767078504e-05,0.086637258529663,0,0,0
7110,238078.6146745707,2010-08-22 08:29:32,2881.4385419028963,7,19,-1.0997490882873535,3.563118457794189,21.10929774533756,20.858433102579863,83.79238009688987,76.67124968036677,-6.47544875391759e-05,0.086637258529663,0,0,0
7111,238108.6299511705,2010-08-22 08:30:02,2911.45381849764,7,19,-1.0997490882873535,3.5590713024139404,21.10929774533756,20.8676027528368,83.79238009688987,76.70390365593768,-9.713172767078504e-05,0.086637258529663,0,0,0
7112,238138.64526236648,2010-08-22 08:30:32,2941.469129703646,7,19,-1.0997490882873535,3.5547003746032715,21.10929774533756,20.876772461217147,83.79238009688987,76.73651993949021,-0.0001295089750783,0.086637258529663,0,0,0
7113,238168.6605712216,2010-08-22 08:31:02,2971.4844385537804,7,19,-1.0997490882873535,3.5504913330078125,21.10929774533756,20.885942140051668,83.79238009688987,76.76909670149534,-9.713172767078504e-05,0.086637258529663,0,0,0
7114,238198.67653880356,2010-08-22 08:31:32,3001.5004061356763,7,19,-1.099929690361023,3.545796632766724,21.10929774533756,20.89511212893768,83.79238009688987,76.80163377112916,-0.0001618862152099,0.086637258529663,0,0,0
7115,238228.69120149323,2010-08-22 08:32:02,3031.51506884543,7,19,-1.099929690361023,3.5414257049560547,21.10929774533756,20.904281657766745,83.79238009688987,76.83412706049484,-9.713172767078504e-05,0.086637258529663,0,0,0
7116,238258.7065526839,2010-08-22 08:32:32,3061.530420011028,7,19,-1.0997490882873535,3.536569118499756,21.10929774533756,20.91345147390744,83.79238009688987,76.86657808471456,-0.0001295089750783,0.086637258529663,0,0,0
7117,238288.7218107374,2010-08-22 08:33:02,3091.5456780795985,7,19,-1.099929690361023,3.531550645828247,21.10929774533756,20.922621227935498,83.79238009688987,76.89898427406337,-0.0001295089750783,0.086637258529663,0,0,0
7118,238318.7371323544,2010-08-22 08:33:32,3121.560999676501,7,19,-1.0997490882873535,3.5265321731567383,21.10929774533756,20.93179100109424,83.79238009688987,76.93134478553085,-0.0001295089750783,0.086637258529663,0,0,0
7119,238348.75243601657,2010-08-22 08:34:02,3151.576303368781,7,19,-1.0997490882873535,3.5213518142700195,21.10929774533756,20.940960805750443,83.79238009688987,76.96365787833551,-9.713172767078504e-05,0.086637258529663,0,0,0
7120,238378.76775329767,2010-08-22 08:34:32,3181.59162063489,7,19,-1.099929690361023,3.515523910522461,21.10929774533756,20.95013056046081,83.79238009688987,76.99592128158874,-0.0001942634553415,0.086637258529663,0,0,0
7121,238408.78307629813,2010-08-22 08:35:02,3211.6069436503285,7,19,-1.099568486213684,3.5098581314086914,21.10929774533756,20.95930035263209,83.79238009688987,77.0281320412262,-0.0001618862152099,0.086637258529663,0,0,0
7122,238438.79837702803,2010-08-22 08:35:32,3241.6222443551624,7,19,-1.099929690361023,3.503058910369873,21.10929774533756,20.968470122313075,83.79238009688987,77.06028576607493,-0.0002266406954731,0.086637258529663,0,0,0
7123,238468.81368062503,2010-08-22 08:36:02,3271.6375479572166,7,19,-1.099929690361023,3.4959359169006348,21.10929774533756,20.97763988245595,83.79238009688987,77.0923764698431,-0.0001942634553415,0.086637258529663,0,0,0
7124,238498.8289983724,2010-08-22 08:36:32,3301.6528656995124,7,19,-1.099929690361023,3.487517833709717,21.10929774533756,20.9868096282765,83.79238009688987,77.1243961982255,-0.0002266406954731,0.086637258529663,0,0,0
7125,238528.8443157588,2010-08-22 08:37:02,3331.668183095947,7,19,-1.0997490882873535,3.477804660797119,21.10929774533756,20.995979398946144,83.79238009688987,77.15633354889728,-0.0003237724304199,0.086637258529663,0,0,0
7126,238558.85962905,2010-08-22 08:37:32,3361.6834963771244,7,19,-1.099929690361023,3.465986967086792,21.10929774533756,21.005149119600343,83.79238009688987,77.18817230333404,-0.0003237724304199,0.086637258529663,0,0,0
7127,238588.8749257298,2010-08-22 08:38:02,3391.698793061939,7,19,-1.0997490882873535,3.451093435287476,21.10929774533756,21.014318860680728,83.79238009688987,77.21988970345976,-0.0004856586456298,0.086637258529663,0,0,0
7128,238618.89027363723,2010-08-22 08:38:32,3421.7141409894666,7,19,-1.0997490882873535,3.431181669235229,21.10929774533756,21.023488695808368,83.79238009688987,77.25144947354104,-0.000615119934082,0.086637258529663,0,0,0
7129,238648.90556200137,2010-08-22 08:39:02,3451.7294293334926,7,19,-1.0997490882873535,3.4031753540039062,21.10929774533756,21.03265845994151,83.79238009688987,77.28279198931253,-0.0009065627818927,0.086637258529663,0,0,0
7130,238678.9210025447,2010-08-22 08:39:32,3481.7448698718345,7,19,-1.0997490882873535,3.362703800201416,21.10929774533756,21.041828325251,83.79238009688987,77.31382389321539,-0.0011979580158367,0.086637258529663,0,0,0
7131,238708.93629405665,2010-08-22 08:40:02,3511.7601613837564,7,19,-1.0997490882873535,3.3024823665618896,21.10929774533756,21.05099810631493,83.79238009688987,77.34439907700684,-0.0018131255637854,0.086637258529663,0,0,0
7132,238738.95147969463,2010-08-22 08:40:32,3541.775347026821,7,19,-1.0997490882873535,3.21409273147583,21.10929774533756,21.06016780619165,83.79238009688987,77.37430357978009,-0.0027844428550451,0.086637258529663,0,0,0
7133,238768.96678966252,2010-08-22 08:41:02,3571.790656994741,7,19,-1.1001102924346924,3.0719571113586426,21.10929774533756,21.06933759932705,83.79238009688987,77.40318536201751,-0.0048565864562988,0.086637258529663,0,0,0
7134,238789.77907133228,2010-08-22 08:41:23,3592.602938659428,7,19,-1.099929690361023,2.871380567550659,21.10929774533756,21.07569580647835,83.79238009688987,77.42217987781227,-0.0111701488494873,0.086637258529663,0,0,0
7135,238799.15397625,2010-08-22 08:41:32,3601.977843577069,7,19,-1.099929690361023,2.699458122253418,21.10929774533756,21.07855990030071,83.79238009688987,77.43016882662684,-0.0157352928072214,0.086637258529663,0,0,0
7136,238859.163179568,2010-08-22 08:42:33,60.015162882106175,8,19,0.0,3.313166856765747,21.10929774533756,21.07855990030071,83.79238009688987,77.43016882662684,0.0011979580158367,0.086637258529663,0,0,0
7137,238859.34509297516,2010-08-22 08:42:33,0.187420193790678,9,19,-1.9243103452026844e-05,3.313490629196167,21.10929774533756,21.078559901302533,83.79238009688987,77.43016882994635,0.0,0.0858275592327117,0,0,0
7138,238864.1734335004,2010-08-22 08:42:38,5.015760734060273,9,19,0.0003419754502829,3.3207755088806152,21.10929865392855,21.078559901386395,83.79238311130831,77.43016883022422,0.0010684489971026,0.0858275592327117,0,0,0
