Data_Point,Test_Time(s),Date_Time,Step_Time(s),Step_Index,Cycle_Index,Current(A),Voltage(V),Charge_Capacity(Ah),Discharge_Capacity(Ah),Charge_Energy(Wh),Discharge_Energy(Wh),dV/dt(V/s),Internal_Resistance(Ohm),Is_FC_Data,AC_Impedance(Ohm),ACI_Phase_Angle(Deg)
13016,434809.6553216758,2010-08-24 15:08:43,30.015168415126933,1,36,0.0,3.4629111289978027,38.43806126470225,38.37771156328946,152.59063558413808,141.0040914357016,0.0006151676061563,0.086481012403965,0,0,0
13017,434839.67049391055,2010-08-24 15:09:13,60.030340644760784,1,36,0.0,3.482661247253418,38.43806126470225,38.37771156328946,152.59063558413808,141.0040914357016,0.0004532813909463,0.086481012403965,0,0,0
13018,434869.6856852728,2010-08-24 15:09:43,90.04553201209167,1,36,0.0,3.496745347976685,38.43806126470225,38.37771156328946,152.59063558413808,141.0040914357016,0.0003237724304199,0.086481012403965,0,0,0
13019,434899.65393593954,2010-08-24 15:10:13,120.01378269880315,1,36,0.0,3.507753610610962,38.43806126470225,38.37771156328946,152.59063558413808,141.0040914357016,0.0002590179501567,0.086481012403965,0,0,0
13020,434929.6805477478,2010-08-24 15:10:43,30.0151734326321,2,36,0.5501165986061096,3.632567405700684,38.44264805571649,38.37771156328946,152.60717475061654,141.0040914357016,0.0011979580158367,0.086481012403965,0,0,0
13021,434959.69593178027,2010-08-24 15:11:13,60.03055749020636,2,36,0.550297200679779,3.668668031692505,38.44723484499382,38.37771156328946,152.62392422190618,141.0040914357016,0.0008418083307333,0.086481012403965,0,0,0
13022,434989.71092298377,2010-08-24 15:11:43,90.04554866860481,2,36,0.5499359965324402,3.69521713256836,38.45182152317168,38.37771156328946,152.6408151801885,141.0040914357016,0.0005827903514727,0.086481012403965,0,0,0
13023,435019.726076602,2010-08-24 15:12:13,120.06070229186588,2,36,0.5501165986061096,3.716424226760864,38.45640821062012,38.37771156328946,152.6578151183633,141.0040914357016,0.0004856586456298,0.086481012403965,0,0,0
13024,435049.7412727963,2010-08-24 15:12:43,150.07589848121472,2,36,0.5501165986061096,3.73293662071228,38.46099496115189,38.37771156328946,152.67490117991477,141.0040914357016,0.0003885269106831,0.086481012403965,0,0,0
13025,435079.7566085736,2010-08-24 15:13:13,180.09123427850952,2,36,0.550297200679779,3.7450780868530273,38.46558159324727,38.37771156328946,152.69205223799688,141.0040914357016,0.0002913951757363,0.086481012403965,0,0,0
13026,435109.7716160676,2010-08-24 15:13:43,210.1062417825966,2,36,0.550297200679779,3.752686738967896,38.47016828010271,38.37771156328946,152.7092483828729,141.0040914357016,0.0001295089750783,0.086481012403965,0,0,0
13027,435139.78676525486,2010-08-24 15:14:13,240.12139093972667,2,36,0.5497553944587708,3.7572193145751953,38.47475497818843,38.37771156328946,152.72647182290197,141.0040914357016,9.713172767078504e-05,0.086481012403965,0,0,0
13028,435169.801932462,2010-08-24 15:14:43,270.13655814684284,2,36,0.5499359965324402,3.7604570388793945,38.479341658119885,38.37771156328946,152.74371311152797,141.0040914357016,0.0,0.086481012403965,0,0,0
13029,435199.817115298,2010-08-24 15:15:13,300.15174098291124,2,36,0.5501165986061096,3.763532876968384,38.48392832131031,38.37771156328946,152.76096886376422,141.0040914357016,6.47544875391759e-05,0.086481012403965,0,0,0
13030,435229.8324037022,2010-08-24 15:15:43,330.1670293921003,2,36,0.550297200679779,3.766608715057373,38.48851505194607,38.37771156328946,152.77823845464218,141.0040914357016,6.47544875391759e-05,0.086481012403965,0,0,0
13031,435259.8474687096,2010-08-24 15:16:13,360.18209441454087,2,36,0.5501165986061096,3.7693607807159424,38.49310174834553,38.37771156328946,152.79552118247716,141.0040914357016,6.47544875391759e-05,0.086481012403965,0,0,0
13032,435289.8626177916,2010-08-24 15:16:43,390.1972434764336,2,36,0.5501165986061096,3.7722747325897217,38.49768847850141,38.37771156328946,152.81281715256355,141.0040914357016,6.47544875391759e-05,0.086481012403965,0,0,0
13033,435319.877934371,2010-08-24 15:17:13,420.2125600558314,2,36,0.5501165986061096,3.775188684463501,38.50227515977454,38.37771156328946,152.830126334031,141.0040914357016,6.47544875391759e-05,0.086481012403965,0,0,0
13034,435349.8929620203,2010-08-24 15:17:43,450.22758770512667,2,36,0.5499359965324402,3.77810263633728,38.506861854323525,38.37771156328946,152.8474488108545,141.0040914357016,6.47544875391759e-05,0.086481012403965,0,0,0
13035,435379.9081333176,2010-08-24 15:18:13,480.2427590024368,2,36,0.5501165986061096,3.7808547019958496,38.511448563883455,38.37771156328946,152.8647845638982,141.0040914357016,6.47544875391759e-05,0.086481012403965,0,0,0
13036,435409.92343731056,2010-08-24 15:18:43,510.2580629954657,2,36,0.5501165986061096,3.783768653869629,38.51603530912135,38.37771156328946,152.8821336130812,141.0040914357016,6.47544875391759e-05,0.086481012403965,0,0,0
13037,435439.93864416645,2010-08-24 15:19:13,540.2732706934976,2,36,0.5501165986061096,3.786682605743408,38.52062200331687,38.37771156328946,152.89949570683754,141.0040914357016,6.47544875391759e-05,0.086481012403965,0,0,0
13038,435469.95376733394,2010-08-24 15:19:43,570.2883930738918,2,36,0.5501165986061096,3.7897584438323975,38.52520858707575,38.37771156328946,152.916870606047,141.0040914357016,6.47544875391759e-05,0.086481012403965,0,0,0
13039,435499.96897059085,2010-08-24 15:20:13,600.3035962807304,2,36,0.5501165986061096,3.792510509490967,38.52979529013359,38.37771156328946,152.93425914545168,141.0040914357016,6.47544875391759e-05,0.086481012403965,0,0,0
13040,435529.9840005208,2010-08-24 15:20:43,630.3186262056973,2,36,0.550297200679779,3.795586347579956,38.534381930717984,38.37771156328946,152.95166085547126,141.0040914357016,9.713172767078504e-05,0.086481012403965,0,0,0
13041,435559.9991740938,2010-08-24 15:21:13,660.3337997836917,2,36,0.5501165986061096,3.798500299453736,38.53896861900529,38.37771156328946,152.96907634802608,141.0040914357016,6.47544875391759e-05,0.086481012403965,0,0,0
13042,435590.01433216815,2010-08-24 15:21:43,690.3489578580462,2,36,0.5501165986061096,3.8015761375427246,38.54355526573504,38.37771156328946,152.98650560304128,141.0040914357016,9.713172767078504e-05,0.086481012403965,0,0,0
13043,435620.029505691,2010-08-24 15:22:13,720.3641313909282,2,36,0.5501165986061096,3.804651975631714,38.54814193519323,38.37771156328946,153.0039491720807,141.0040914357016,6.47544875391759e-05,0.086481012403965,0,0,0
13044,435650.04468008113,2010-08-24 15:22:43,750.3793057709214,2,36,0.5501165986061096,3.807889699935913,38.55272861620229,38.37771156328946,153.02140765353846,141.0040914357016,6.47544875391759e-05,0.086481012403965,0,0,0
13045,435680.0598749521,2010-08-24 15:23:13,780.3945006419847,2,36,0.5499359965324402,3.811127424240112,38.557315373801394,38.37771156328946,153.03888164581488,141.0040914357016,3.237724376958795e-05,0.086481012403965,0,0,0
13046,435710.0750201093,2010-08-24 15:23:43,810.4096458191955,2,36,0.5499359965324402,3.814688920974731,38.56190157419104,38.37771156328946,153.05636909101608,141.0040914357016,3.237724376958795e-05,0.086481012403965,0,0,0
13047,435740.0903184032,2010-08-24 15:24:13,840.42494411302,2,36,0.5499359965324402,3.818412303924561,38.56648737088483,38.37771156328946,153.07387098149465,141.0040914357016,0.0001295089750783,0.086481012403965,0,0,0
13048,435770.105390423,2010-08-24 15:24:43,870.4400161128503,2,36,0.5501165986061096,3.8218119144439697,38.57107358392601,38.37771156328946,153.09139049952464,141.0040914357016,9.713172767078504e-05,0.086481012403965,0,0,0
13049,435800.1205785272,2010-08-24 15:25:13,900.4552042170486,2,36,0.5501165986061096,3.825211524963379,38.57566028734135,38.37771156328946,153.10892784259568,141.0040914357016,6.47544875391759e-05,0.086481012403965,0,0,0
13050,435830.1357829672,2010-08-24 15:25:43,930.4704086569604,2,36,0.5499359965324402,3.828611135482788,38.58024695532546,38.37771156328946,153.12648094266189,141.0040914357016,6.47544875391759e-05,0.086481012403965,0,0,0
13051,435860.1509122798,2010-08-24 15:26:13,960.4855379646192,2,36,0.5501165986061096,3.832010746002197,38.584833650958046,38.37771156328946,153.1440497871362,141.0040914357016,6.47544875391759e-05,0.086481012403965,0,0,0
13052,435890.16610896535,2010-08-24 15:26:43,990.5007346502052,2,36,0.5501165986061096,3.8352482318878174,38.58942028194015,38.37771156328946,153.16163361682274,141.0040914357016,6.47544875391759e-05,0.086481012403965,0,0,0
13053,435920.1814595043,2010-08-24 15:27:13,1020.5160851892408,2,36,0.5501165986061096,3.8386478424072266,38.59400698184498,38.37771156328946,153.17923278742043,141.0040914357016,0.0001295089750783,0.086481012403965,0,0,0
13054,435950.1964253396,2010-08-24 15:27:43,1050.5310510294887,2,36,0.5501165986061096,3.841723680496216,38.59859361446583,38.37771156328946,153.19684638267455,141.0040914357016,6.47544875391759e-05,0.086481012403965,0,0,0
13055,435980.2117195633,2010-08-24 15:28:13,1080.546345248157,2,36,0.5501165986061096,3.844799518585205,38.60318030711949,38.37771156328946,153.21447464817152,141.0040914357016,6.47544875391759e-05,0.086481012403965,0,0,0
13056,436010.2267721647,2010-08-24 15:28:43,1110.5613978546533,2,36,0.5501165986061096,3.848037242889404,38.60776695825994,38.37771156328946,153.23211697486008,141.0040914357016,9.713172767078504e-05,0.086481012403965,0,0,0
13057,436040.2419524496,2010-08-24 15:29:13,1140.5765781343505,2,36,0.5501165986061096,3.8507893085479736,38.6123536235346,38.37771156328946,153.2497731923919,141.0040914357016,3.237724376958795e-05,0.086481012403965,0,0,0
13058,436070.25711708015,2010-08-24 15:29:43,1170.5917427750703,2,36,0.5501165986061096,3.853703260421753,38.61694036374906,38.37771156328946,153.26744324717217,141.0040914357016,6.47544875391759e-05,0.086481012403965,0,0,0
13059,436100.2722978812,2010-08-24 15:30:14,1200.6069235760665,2,36,0.5501165986061096,3.856779098510742,38.62152705276248,38.37771156328946,153.2851261472717,141.0040914357016,6.47544875391759e-05,0.086481012403965,0,0,0
13060,436130.2878576867,2010-08-24 15:30:44,1230.6224833766464,2,36,0.5501165986061096,3.859207391738892,38.62611379481953,38.37771156328946,153.30282174141243,141.0040914357016,6.47544875391759e-05,0.086481012403965,0,0,0
13061,436160.3027745901,2010-08-24 15:31:14,1260.6374002999785,2,36,0.5501165986061096,3.861797571182251,38.63070042565148,38.37771156328946,153.3205287292254,141.0040914357016,9.713172767078504e-05,0.086481012403965,0,0,0
13062,436190.3179225994,2010-08-24 15:31:44,1290.6525482891975,2,36,0.5501165986061096,3.8642258644104,38.63528710196043,38.37771156328946,153.3382469809098,141.0040914357016,9.713172767078504e-05,0.086481012403965,0,0,0
13063,436220.3329809201,2010-08-24 15:32:14,1320.6676066099355,2,36,0.5499359965324402,3.86616849899292,38.63987371060739,38.37771156328946,153.3559752936715,141.0040914357016,3.237724376958795e-05,0.086481012403965,0,0,0
13064,436250.3481561371,2010-08-24 15:32:44,1350.682781827015,2,36,0.5501165986061096,3.8682730197906494,38.64446032851578,38.37771156328946,153.37371314934762,141.0040914357016,6.47544875391759e-05,0.086481012403965,0,0,0
13065,436280.3634767616,2010-08-24 15:33:14,1380.6981024565073,2,36,0.5501165986061096,3.870215654373169,38.6490470376334,38.37771156328946,153.391460169035,141.0040914357016,6.47544875391759e-05,0.086481012403965,0,0,0
13066,436310.378517288,2010-08-24 15:33:44,1410.7131430079585,2,36,0.5501165986061096,3.871834516525269,38.65363375341804,38.37771156328946,153.40921523535062,141.0040914357016,6.47544875391759e-05,0.086481012403965,0,0,0
13067,436340.39365305175,2010-08-24 15:34:14,1440.7282787466454,2,36,0.5501165986061096,3.873291492462158,38.65822044391564,38.37771156328946,153.42697747346614,141.0040914357016,3.237724376958795e-05,0.086481012403965,0,0,0
13068,436370.40883227886,2010-08-24 15:34:44,1470.7434579937692,2,36,0.5501165986061096,3.874586582183838,38.6628071768511,38.37771156328946,153.44474645269923,141.0040914357016,3.237724376958795e-05,0.086481012403965,0,0,0
13069,436400.4241424623,2010-08-24 15:35:14,1500.7587681471514,2,36,0.5501165986061096,3.8758816719055176,38.66739388634032,38.37771156328946,153.4625214558107,141.0040914357016,3.237724376958795e-05,0.086481012403965,0,0,0
13070,436430.4391850037,2010-08-24 15:35:44,1530.773810693575,2,36,0.5501165986061096,3.8773386478424072,38.67198056678348,38.37771156328946,153.48030204656013,141.0040914357016,6.47544875391759e-05,0.086481012403965,0,0,0
13071,436460.454442155,2010-08-24 15:36:14,1560.789067839847,2,36,0.5501165986061096,3.878309965133667,38.67656792262353,38.37771156328946,153.49809067117016,141.0040914357016,3.237724376958795e-05,0.086481012403965,0,0,0
13072,436490.46949358354,2010-08-24 15:36:44,1590.8041192684072,2,36,0.5501165986061096,3.879281282424927,38.68115548600328,38.37771156328946,153.5158852077882,141.0040914357016,0.0,0.086481012403965,0,0,0
13073,436520.48469945707,2010-08-24 15:37:14,1620.819325141892,2,36,0.5501165986061096,3.8802525997161865,38.68574290968953,38.37771156328946,153.53368404080362,141.0040914357016,-3.237724376958795e-05,0.086481012403965,0,0,0
13074,436550.499833682,2010-08-24 15:37:44,1650.8344593718189,2,36,0.5501165986061096,3.881547689437866,38.690330373366265,38.37771156328946,153.5514877910017,141.0040914357016,6.47544875391759e-05,0.086481012403965,0,0,0
13075,436580.5150070193,2010-08-24 15:38:14,1680.8496327092137,2,36,0.5501165986061096,3.882357120513916,38.6949178986586,38.37771156328946,153.56929641781423,141.0040914357016,0.0,0.086481012403965,0,0,0
13076,436610.5302075896,2010-08-24 15:38:44,1710.8648332744688,2,36,0.550297200679779,3.883652210235596,38.69950544680027,38.37771156328946,153.5871096937113,141.0040914357016,6.47544875391759e-05,0.086481012403965,0,0,0
13077,436640.54536928295,2010-08-24 15:39:14,1740.8799949728552,2,36,0.550297200679779,3.8844616413116455,38.70409261144777,38.37771156328946,153.6049260136327,141.0040914357016,6.47544875391759e-05,0.086481012403965,0,0,0
13078,436670.5606607097,2010-08-24 15:39:44,1770.8952863995653,2,36,0.5501165986061096,3.885432958602905,38.70867942743463,38.37771156328946,153.6227452153379,141.0040914357016,3.237724376958795e-05,0.086481012403965,0,0,0
13079,436700.57583245815,2010-08-24 15:40:14,1800.9104581429872,2,36,0.550297200679779,3.886404275894165,38.71326618252509,38.37771156328946,153.64056868036462,141.0040914357016,3.237724376958795e-05,0.086481012403965,0,0,0
13080,436730.59091843775,2010-08-24 15:40:44,1830.925544147722,2,36,0.5501165986061096,3.887213706970215,38.71785299332826,38.37771156328946,153.65839679387182,141.0040914357016,0.0,0.086481012403965,0,0,0
13081,436760.6060801412,2010-08-24 15:41:14,1860.940705831072,2,36,0.5501165986061096,3.8881850242614746,38.72243983651696,38.37771156328946,153.6762294625042,141.0040914357016,0.0,0.086481012403965,0,0,0
13082,436790.6212686264,2010-08-24 15:41:44,1890.9558943162187,2,36,0.550297200679779,3.889318227767944,38.72702670868316,38.37771156328946,153.69406669348157,141.0040914357016,3.237724376958795e-05,0.086481012403965,0,0,0
13083,436820.6364072723,2010-08-24 15:42:14,1920.971032962152,2,36,0.5501165986061096,3.890127658843994,38.73161357732671,38.37771156328946,153.7119082633027,141.0040914357016,3.237724376958795e-05,0.086481012403965,0,0,0
13084,436850.65157162223,2010-08-24 15:42:44,1950.9861972971096,2,36,0.550297200679779,3.891098976135254,38.73620040610636,38.37771156328946,153.72975411762133,141.0040914357016,3.237724376958795e-05,0.086481012403965,0,0,0
13085,436880.66696310334,2010-08-24 15:43:14,1981.001588813273,2,36,0.5501165986061096,3.8920702934265137,38.74078732919861,38.37771156328946,153.74760486158547,141.0040914357016,0.0,0.086481012403965,0,0,0
13086,436910.6820426369,2010-08-24 15:43:44,2011.01666832683,2,36,0.5501165986061096,3.893041610717773,38.74537418561548,38.37771156328946,153.76545982726893,141.0040914357016,0.0,0.086481012403965,0,0,0
13087,436940.6971100302,2010-08-24 15:44:14,2041.031735715167,2,36,0.5501165986061096,3.894174814224243,38.74996101080389,38.37771156328946,153.78331925021794,141.0040914357016,3.237724376958795e-05,0.086481012403965,0,0,0
13088,436970.71225632034,2010-08-24 15:44:44,2071.0468820051515,2,36,0.550297200679779,3.894984245300293,38.75454785524992,38.37771156328946,153.8011832075147,141.0040914357016,0.0,0.086481012403965,0,0,0
13089,437000.7276577562,2010-08-24 15:45:14,2101.06228344605,2,36,0.5501165986061096,3.8959555625915527,38.75913472916225,38.37771156328946,153.81905155958472,141.0040914357016,-3.237724376958795e-05,0.086481012403965,0,0,0
13090,437030.7426078472,2010-08-24 15:45:44,2131.077233532034,2,36,0.550297200679779,3.897250652313232,38.763721539526514,38.37771156328946,153.83692455754206,141.0040914357016,3.237724376958795e-05,0.086481012403965,0,0,0
13091,437060.75776735006,2010-08-24 15:46:14,2161.0923930399613,2,36,0.550297200679779,3.898221969604492,38.76830845500744,38.37771156328946,153.8548027341063,141.0040914357016,6.47544875391759e-05,0.086481012403965,0,0,0
13092,437090.7729456598,2010-08-24 15:46:44,2191.107571344736,2,36,0.550297200679779,3.899193286895752,38.77289522453009,38.37771156328946,153.87268512150612,141.0040914357016,0.0,0.086481012403965,0,0,0
13093,437120.78813557856,2010-08-24 15:47:14,2221.122761268469,2,36,0.550297200679779,3.900488376617432,38.777482008567056,38.37771156328946,153.89057244148725,141.0040914357016,9.713172767078504e-05,0.086481012403965,0,0,0
13094,437150.803302119,2010-08-24 15:47:44,2251.1379278289737,2,36,0.5501165986061096,3.9014596939086914,38.7820688270815,38.37771156328946,153.90846480822532,141.0040914357016,3.237724376958795e-05,0.086481012403965,0,0,0
13095,437180.81845813326,2010-08-24 15:48:14,2281.1530838281565,2,36,0.5501165986061096,3.902592897415161,38.786655651075165,38.37771156328946,153.92636219077716,141.0040914357016,6.47544875391759e-05,0.086481012403965,0,0,0
13096,437210.833628037,2010-08-24 15:48:44,2311.168253711944,2,36,0.5501165986061096,3.903402328491211,38.79124251311424,38.37771156328946,153.94426479548792,141.0040914357016,-3.237724376958795e-05,0.086481012403965,0,0,0
13097,437240.84893931326,2010-08-24 15:49:14,2341.1835650031617,2,36,0.5501165986061096,3.90469741821289,38.79582932198057,38.37771156328946,153.96217239323224,141.0040914357016,0.0,0.086481012403965,0,0,0
13098,437270.8639716593,2010-08-24 15:49:44,2371.1985973441497,2,36,0.550297200679779,3.90583062171936,38.80041608996503,38.37771156328946,153.98008483036668,141.0040914357016,3.237724376958795e-05,0.086481012403965,0,0,0
13099,437300.8791519039,2010-08-24 15:50:14,2401.2137775887595,2,36,0.5501165986061096,3.90712571144104,38.805002797835655,38.37771156328946,153.99800234460105,141.0040914357016,6.47544875391759e-05,0.086481012403965,0,0,0
13100,437330.8944379772,2010-08-24 15:50:44,2431.2290636721523,2,36,0.550297200679779,3.9082589149475098,38.809589578085244,38.37771156328946,154.01592541898373,141.0040914357016,6.47544875391759e-05,0.086481012403965,0,0,0
13101,437360.9097349026,2010-08-24 15:51:14,2461.244360617616,2,36,0.5499359965324402,3.9092302322387695,38.81417635646832,38.37771156328946,154.03385385304705,141.0040914357016,0.0,0.086481012403965,0,0,0
13102,437390.9246537559,2010-08-24 15:51:44,2491.259279445695,2,36,0.5501165986061096,3.910525321960449,38.81876308982748,38.37771156328946,154.0517876172269,141.0040914357016,3.237724376958795e-05,0.086481012403965,0,0,0
13103,437420.93982544914,2010-08-24 15:52:14,2521.274451138993,2,36,0.5501165986061096,3.911658525466919,38.82334991941378,38.37771156328946,154.0697271795781,141.0040914357016,-3.237724376958795e-05,0.086481012403965,0,0,0
13104,437450.9550073779,2010-08-24 15:52:44,2551.2896330627877,2,36,0.5499359965324402,3.912953615188599,38.827936715290015,38.37771156328946,154.08767222632147,141.0040914357016,3.237724376958795e-05,0.086481012403965,0,0,0
13105,437480.97032902495,2010-08-24 15:53:14,2581.304954709816,2,36,0.5501165986061096,3.914248466491699,38.83252357548642,38.37771156328946,154.10562317294102,141.0040914357016,0.0,0.086481012403965,0,0,0
13106,437510.9853495414,2010-08-24 15:53:44,2611.319975231346,2,36,0.550297200679779,3.915381669998169,38.8371104081825,38.37771156328946,154.12357979588927,141.0040914357016,3.237724376958795e-05,0.086481012403965,0,0,0
13107,437541.00052986125,2010-08-24 15:54:14,2641.335155551143,2,36,0.5501165986061096,3.9166767597198486,38.841697193889686,38.37771156328946,154.1415418102492,141.0040914357016,6.47544875391759e-05,0.086481012403965,0,0,0
13108,437571.0159519235,2010-08-24 15:54:44,2671.3505776535367,2,36,0.5501165986061096,3.9178099632263184,38.84628403156698,38.37771156328946,154.1595100249103,141.0040914357016,0.0,0.086481012403965,0,0,0
13109,437601.0308652128,2010-08-24 15:55:14,2701.3654908976987,2,36,0.5501165986061096,3.919266939163208,38.85087079718835,38.37771156328946,154.17748385643833,141.0040914357016,3.237724376958795e-05,0.086481012403965,0,0,0
13110,437631.0460315528,2010-08-24 15:55:44,2731.3806572376534,2,36,0.5501165986061096,3.9207239151000977,38.85545762356497,38.37771156328946,154.19546396487723,141.0040914357016,6.47544875391759e-05,0.086481012403965,0,0,0
13111,437661.0611987198,2010-08-24 15:56:14,2761.395824409683,2,36,0.5501165986061096,3.922019004821777,38.86004443203099,38.37771156328946,154.2134500253337,141.0040914357016,6.47544875391759e-05,0.086481012403965,0,0,0
13112,437691.0763634256,2010-08-24 15:56:44,2791.4109891205776,2,36,0.550297200679779,3.923314094543457,38.864631177354525,38.37771156328946,154.23144200941618,141.0040914357016,6.47544875391759e-05,0.086481012403965,0,0,0
13113,437721.094160041,2010-08-24 15:57:14,2821.4287857259637,2,36,0.550297200679779,3.9246091842651367,38.86921836547945,38.37771156328946,154.24944186445995,141.0040914357016,3.237724376958795e-05,0.086481012403965,0,0,0
13114,437751.1067354336,2010-08-24 15:57:44,2851.4413611234927,2,36,0.5501165986061096,3.9260661602020255,38.87380482522772,38.37771156328946,154.26744512999977,141.0040914357016,3.237724376958795e-05,0.086481012403965,0,0,0
13115,437781.121910786,2010-08-24 15:58:14,2881.4565364759096,2,36,0.5501165986061096,3.927361249923706,38.878391616057634,38.37771156328946,154.2854558464279,141.0040914357016,3.237724376958795e-05,0.086481012403965,0,0,0
13116,437811.13706476014,2010-08-24 15:58:44,2911.4716904500447,2,36,0.550297200679779,3.928818225860596,38.88297845713783,38.37771156328946,154.303473149007,141.0040914357016,6.47544875391759e-05,0.086481012403965,0,0,0
13117,437841.1524331286,2010-08-24 15:59:14,2941.4870588135045,2,36,0.5501165986061096,3.9301133155822754,38.8875652468539,38.37771156328946,154.3214966872388,141.0040914357016,3.237724376958795e-05,0.086481012403965,0,0,0
13118,437871.16739838745,2010-08-24 15:59:44,2971.502024072304,2,36,0.5501165986061096,3.931570291519165,38.89215204216948,38.37771156328946,154.3395266581058,141.0040914357016,6.47544875391759e-05,0.086481012403965,0,0,0
13119,437901.1825622613,2010-08-24 16:00:14,3001.517187946112,2,36,0.550297200679779,3.9331891536712646,38.89673889158891,38.37771156328946,154.35756338377576,141.0040914357016,9.713172767078504e-05,0.086481012403965,0,0,0
13120,437931.197810776,2010-08-24 16:00:44,3031.532436460872,2,36,0.550297200679779,3.934484243392944,38.901325776040366,38.37771156328946,154.3756068076368,141.0040914357016,3.237724376958795e-05,0.086481012403965,0,0,0
13121,437961.212920159,2010-08-24 16:01:14,3061.547545848885,2,36,0.5501165986061096,3.935941219329834,38.90591258725171,38.37771156328946,154.3936565747345,141.0040914357016,6.47544875391759e-05,0.086481012403965,0,0,0
13122,437991.2281223383,2010-08-24 16:01:44,3091.5627480331746,2,36,0.5501165986061096,3.9372363090515137,38.91049940329419,38.37771156328946,154.4117128827267,141.0040914357016,3.237724376958795e-05,0.086481012403965,0,0,0
13123,438021.243242824,2010-08-24 16:02:15,3121.577868513835,2,36,0.550297200679779,3.938855171203613,38.91508614171164,38.37771156328946,154.42977571280105,141.0040914357016,6.47544875391759e-05,0.086481012403965,0,0,0
13124,438051.25870424433,2010-08-24 16:02:45,3151.5933299292083,2,36,0.5501165986061096,3.940312147140503,38.91967298580932,38.37771156328946,154.44784566831376,141.0040914357016,3.237724376958795e-05,0.086481012403965,0,0,0
13125,438081.2737265904,2010-08-24 16:03:15,3181.608352275286,2,36,0.5501165986061096,3.9417691230773926,38.92425980127312,38.37771156328946,154.46592237993795,141.0040914357016,3.237724376958795e-05,0.086481012403965,0,0,0
13126,438111.288888399,2010-08-24 16:03:45,3211.623514114023,2,36,0.5499359965324402,3.943387985229492,38.92884654890442,38.37771156328946,154.4840057045623,141.0040914357016,6.47544875391759e-05,0.086481012403965,0,0,0
13127,438141.3039422086,2010-08-24 16:04:15,3241.638567893442,2,36,0.5501165986061096,3.944844961166382,38.93343337139013,38.37771156328946,154.5020963547496,141.0040914357016,6.47544875391759e-05,0.086481012403965,0,0,0
13128,438171.31910852354,2010-08-24 16:04:45,3271.653734213347,2,36,0.550297200679779,3.9464638233184814,38.93802017512309,38.37771156328946,154.5201940295681,141.0040914357016,3.237724376958795e-05,0.086481012403965,0,0,0
13129,438201.3342970838,2010-08-24 16:05:15,3301.6689227586444,2,36,0.5501165986061096,3.947920799255371,38.94260693839032,38.37771156328946,154.5382985673251,141.0040914357016,3.237724376958795e-05,0.086481012403965,0,0,0
13130,438231.3494372887,2010-08-24 16:05:45,3331.6840629734875,2,36,0.5501165986061096,3.949539661407471,38.947193725774845,38.37771156328946,154.5564105266344,141.0040914357016,3.237724376958795e-05,0.086481012403965,0,0,0
13131,438261.3646180295,2010-08-24 16:06:15,3361.699243704309,2,36,0.5501165986061096,3.9511585235595694,38.95178048441539,38.37771156328946,154.5745297443878,141.0040914357016,6.47544875391759e-05,0.086481012403965,0,0,0
13132,438291.3797924696,2010-08-24 16:06:45,3391.7144181444523,2,36,0.5501165986061096,3.95293927192688,38.95636730120526,38.37771156328946,154.5926566422642,141.0040914357016,6.47544875391759e-05,0.086481012403965,0,0,0
13133,438321.395093806,2010-08-24 16:07:15,3421.729719495898,2,36,0.5501165986061096,3.9543962478637695,38.96095409251309,38.37771156328946,154.61079104132165,141.0040914357016,3.237724376958795e-05,0.086481012403965,0,0,0
13134,438351.41013673344,2010-08-24 16:07:45,3451.744762418258,2,36,0.550297200679779,3.956176996231079,38.96554088795481,38.37771156328946,154.6289331991946,141.0040914357016,3.237724376958795e-05,0.086481012403965,0,0,0
13135,438381.42529619625,2010-08-24 16:08:15,3481.759921886085,2,36,0.5501165986061096,3.9579577445983887,38.97012772352683,38.37771156328946,154.64708324317434,141.0040914357016,3.237724376958795e-05,0.086481012403965,0,0,0
13136,438411.4404890172,2010-08-24 16:08:45,3511.775114727089,2,36,0.5501165986061096,3.9594147205352783,38.97471447962362,38.37771156328946,154.6652408638317,141.0040914357016,0.0,0.086481012403965,0,0,0
13137,438441.4557876368,2010-08-24 16:09:15,3541.7904133316883,2,36,0.5501165986061096,3.961357355117798,38.97930127886433,38.37771156328946,154.68340671482838,141.0040914357016,3.237724376958795e-05,0.086481012403965,0,0,0
13138,438471.4708350002,2010-08-24 16:09:45,3571.8054606901046,2,36,0.5501165986061096,3.963299989700317,38.98388811315417,38.37771156328946,154.7015808436702,141.0040914357016,9.713172767078504e-05,0.086481012403965,0,0,0
13139,438501.4859916811,2010-08-24 16:10:15,3601.8206173709864,2,36,0.5501165986061096,3.964756965637207,38.98847491630747,38.37771156328946,154.71976318271902,141.0040914357016,3.237724376958795e-05,0.086481012403965,0,0,0
13140,438531.5011444472,2010-08-24 16:10:45,3631.8357701320974,2,36,0.5501165986061096,3.966861486434937,38.993061782176426,38.37771156328946,154.73795415202588,141.0040914357016,3.237724376958795e-05,0.086481012403965,0,0,0
13141,438561.51634261647,2010-08-24 16:11:15,3661.8509683013817,2,36,0.5501165986061096,3.968642234802246,38.99764856588271,38.37771156328946,154.75615315348995,141.0040914357016,6.47544875391759e-05,0.086481012403965,0,0,0
13142,438591.5314945456,2010-08-24 16:11:45,3691.8661202304206,2,36,0.550297200679779,3.970422983169556,39.00223526181816,38.37771156328946,154.77436032170272,141.0040914357016,3.237724376958795e-05,0.086481012403965,0,0,0
13143,438621.546811957,2010-08-24 16:12:15,3721.881437671967,2,36,0.5501165986061096,3.972365617752075,39.00682206077568,38.37771156328946,154.7925765370104,141.0040914357016,6.47544875391759e-05,0.086481012403965,0,0,0
13144,438651.56308886985,2010-08-24 16:12:45,3751.8977145697754,2,36,0.5501165986061096,3.9743082523345943,39.01140902477659,38.37771156328946,154.8108019558488,141.0040914357016,6.47544875391759e-05,0.086481012403965,0,0,0
13145,438681.5770244774,2010-08-24 16:13:15,3781.911650152303,2,36,0.5499359965324402,3.976089000701904,39.01599565538117,38.37771156328946,154.82903476337256,141.0040914357016,6.47544875391759e-05,0.086481012403965,0,0,0
13146,438711.59218097787,2010-08-24 16:13:45,3811.926806667772,2,36,0.550297200679779,3.977869749069214,39.02058253167987,38.37771156328946,154.84727719189604,141.0040914357016,3.237724376958795e-05,0.086481012403965,0,0,0
13147,438741.60735186416,2010-08-24 16:14:15,3841.94197753902,2,36,0.550297200679779,3.980136156082153,39.02516934371214,38.37771156328946,154.86552797752827,141.0040914357016,6.47544875391759e-05,0.086481012403965,0,0,0
13148,438771.6226527144,2010-08-24 16:14:45,3871.957278404253,2,36,0.5501165986061096,3.981916904449463,39.02975609014021,38.37771156328946,154.88378769377363,141.0040914357016,0.0,0.086481012403965,0,0,0
13149,438801.6379157553,2010-08-24 16:15:15,3901.97254143018,2,36,0.550297200679779,3.984021425247192,39.03434286277095,38.37771156328946,154.9020564578842,141.0040914357016,9.713172767078504e-05,0.086481012403965,0,0,0
13150,438831.6529136805,2010-08-24 16:15:45,3931.987539370431,2,36,0.5501165986061096,3.985964059829712,39.038929580599024,38.37771156328946,154.92033396952,141.0040914357016,6.47544875391759e-05,0.086481012403965,0,0,0
13151,438861.6680430382,2010-08-24 16:16:15,3962.0026687131776,2,36,0.5499359965324402,3.9877448081970215,39.04351637976048,38.37771156328946,154.93862084212168,141.0040914357016,0.0,0.086481012403965,0,0,0
13152,438891.6832213281,2010-08-24 16:16:45,3992.017847002915,2,36,0.5501165986061096,3.989849328994751,39.04810315606569,38.37771156328946,154.9569165778884,141.0040914357016,6.47544875391759e-05,0.086481012403965,0,0,0
13153,438921.6986711696,2010-08-24 16:17:15,4022.03329685948,2,36,0.5499359965324402,3.9917919635772714,39.05268995316785,38.37771156328946,154.97522159368495,141.0040914357016,3.237724376958795e-05,0.086481012403965,0,0,0
13154,438951.71356615325,2010-08-24 16:17:45,4052.04819183812,2,36,0.5501165986061096,3.99373459815979,39.05727672796702,38.37771156328946,154.9935357459834,141.0040914357016,3.237724376958795e-05,0.086481012403965,0,0,0
13155,438981.7287299318,2010-08-24 16:18:15,4082.0633556066655,2,36,0.5501165986061096,3.995838880538941,39.0618634555842,38.37771156328946,155.01185896869137,141.0040914357016,3.237724376958795e-05,0.086481012403965,0,0,0
13156,439011.7440236994,2010-08-24 16:18:45,4112.078649389247,2,36,0.550297200679779,3.99810528755188,39.06645029283696,38.37771156328946,155.03019201099804,141.0040914357016,9.713172767078504e-05,0.086481012403965,0,0,0
13157,439041.7591437741,2010-08-24 16:19:15,4142.093769458882,2,36,0.5499359965324402,4.0000481605529785,39.0710369847571,38.37771156328946,155.048533773136,141.0040914357016,9.71794142969884e-05,0.086481012403965,0,0,0
13158,439071.77424628485,2010-08-24 16:19:45,4172.108871974768,2,36,0.5501165986061096,4.002152442932129,39.07562371619607,38.37771156328946,155.06688527025784,141.0040914357016,6.47544875391759e-05,0.086481012403965,0,0,0
13159,439101.789417492,2010-08-24 16:20:15,4202.124043176841,2,36,0.5499359965324402,4.004095077514648,39.080210453467465,38.37771156328946,155.0852464160999,141.0040914357016,6.47544875391759e-05,0.086481012403965,0,0,0
13160,439131.8045901778,2010-08-24 16:20:45,4232.139215852587,2,36,0.5501165986061096,4.006199836730957,39.08479714803559,38.37771156328946,155.10361717482698,141.0040914357016,0.0,0.086481012403965,0,0,0
13161,439161.819895048,2010-08-24 16:21:15,4262.154520742852,2,36,0.5501165986061096,4.0084662437438965,39.08938395540763,38.37771156328946,155.1219982430488,141.0040914357016,6.47544875391759e-05,0.086481012403965,0,0,0
13162,439191.8349250732,2010-08-24 16:21:45,4292.169550748019,2,36,0.5501165986061096,4.010570526123047,39.093970652262286,38.37771156328946,155.14038870255018,141.0040914357016,3.23295607813634e-05,0.086481012403965,0,0,0
13163,439221.8500917841,2010-08-24 16:22:15,4322.184717478947,2,36,0.5501165986061096,4.012836933135986,39.098557348552575,38.37771156328946,155.15878917800427,141.0040914357016,6.47544875391759e-05,0.086481012403965,0,0,0
13164,439251.86544366647,2010-08-24 16:22:45,4352.200069371356,2,36,0.5501165986061096,4.014941692352295,39.10314412965302,38.37771156328946,155.17720016454967,141.0040914357016,6.47544875391759e-05,0.086481012403965,0,0,0
13165,439281.88059537497,2010-08-24 16:23:15,4382.2152210698205,2,36,0.5501165986061096,4.017369747161865,39.107730876552445,38.37771156328946,155.1956212035142,141.0040914357016,9.70840483205393e-05,0.086481012403965,0,0,0
13166,439311.8956125782,2010-08-24 16:23:45,4412.230238263056,2,36,0.550297200679779,4.019312381744385,39.11231767815124,38.37771156328946,155.21405273405782,141.0040914357016,3.23295607813634e-05,0.086481012403965,0,0,0
13167,439341.91077874776,2010-08-24 16:24:15,4442.245404422561,2,36,0.550297200679779,4.021740913391113,39.11690434430541,38.37771156328946,155.23249411855534,141.0040914357016,6.47544875391759e-05,0.086481012403965,0,0,0
13168,439371.92595313775,2010-08-24 16:24:45,4472.260578822605,2,36,0.5501165986061096,4.024168968200684,39.12149108627144,38.37771156328946,155.2509464000366,141.0040914357016,6.47544875391759e-05,0.086481012403965,0,0,0
13169,439401.9412431459,2010-08-24 16:25:15,4502.275868830779,2,36,0.5501165986061096,4.026435375213623,39.126077777964326,38.37771156328946,155.26940908190912,141.0040914357016,6.47544875391759e-05,0.086481012403965,0,0,0
13170,439431.95629603806,2010-08-24 16:25:45,4532.290921717974,2,36,0.5501165986061096,4.029025554656982,39.13066444333616,38.37771156328946,155.28788244662405,141.0040914357016,0.0001295089750783,0.086481012403965,0,0,0
13171,439461.9715596505,2010-08-24 16:26:15,4562.306185340387,2,36,0.550297200679779,4.031291961669922,39.13525116972097,38.37771156328946,155.30636685342745,141.0040914357016,9.70840483205393e-05,0.086481012403965,0,0,0
13172,439491.9867964861,2010-08-24 16:26:45,4592.321422176039,2,36,0.5501165986061096,4.033558368682861,39.13983789010009,38.37771156328946,155.3248621826362,141.0040914357016,6.47544875391759e-05,0.086481012403965,0,0,0
13173,439522.00184616033,2010-08-24 16:27:15,4622.336471845214,2,36,0.550297200679779,4.035986423492432,39.14442463281676,38.37771156328946,155.3433687059042,141.0040914357016,6.47544875391759e-05,0.086481012403965,0,0,0
13174,439552.01712563226,2010-08-24 16:27:45,4652.351751307104,2,36,0.5501165986061096,4.03841495513916,39.149011414574375,38.37771156328946,155.36188658156516,141.0040914357016,6.47544875391759e-05,0.086481012403965,0,0,0
13175,439582.03218334645,2010-08-24 16:28:15,4682.366809036367,2,36,0.5501165986061096,4.0408430099487305,39.15359814252616,38.37771156328946,155.38041543970485,141.0040914357016,6.47544875391759e-05,0.086481012403965,0,0,0
13176,439612.04735002224,2010-08-24 16:28:45,4712.38197571216,2,36,0.5501165986061096,4.043271541595459,39.15818483964713,38.37771156328946,155.39895553496166,141.0040914357016,3.24249267578125e-05,0.086481012403965,0,0,0
13177,439642.0625404973,2010-08-24 16:29:15,4742.39716617223,2,36,0.5499359965324402,4.045861721038818,39.16277157109662,38.37771156328946,155.41750729791028,141.0040914357016,6.47544875391759e-05,0.086481012403965,0,0,0
13178,439672.06484997406,2010-08-24 16:29:45,4772.399475689024,2,36,0.5501165986061096,4.048613548278809,39.16735633001495,38.37771156328946,155.43606268485385,141.0040914357016,9.70840483205393e-05,0.086481012403965,0,0,0
13179,439702.0772863501,2010-08-24 16:30:15,4802.411912029983,2,36,0.5501165986061096,4.050879955291748,39.17194269571178,38.37771156328946,155.45463628487707,141.0040914357016,3.23295607813634e-05,0.086481012403965,0,0,0
13180,439732.0924075376,2010-08-24 16:30:45,4832.427033222415,2,36,0.550297200679779,4.053793907165527,39.17652946544223,38.37771156328946,155.47322337928924,141.0040914357016,6.47544875391759e-05,0.086481012403965,0,0,0
13181,439762.107708889,2010-08-24 16:31:15,4862.442334568849,2,36,0.5501165986061096,4.056222438812256,39.18111622119245,38.37771156328946,155.4918224188961,141.0040914357016,6.47544875391759e-05,0.086481012403965,0,0,0
13182,439792.1229724112,2010-08-24 16:31:45,4892.457598096024,2,36,0.5501165986061096,4.058812618255615,39.185703007610286,38.37771156328946,155.51043369624074,141.0040914357016,3.24249267578125e-05,0.086481012403965,0,0,0
13183,439822.1379060312,2010-08-24 16:32:15,4922.472531741031,2,36,0.550297200679779,4.0615644454956055,39.19028984116938,38.37771156328946,155.52905716519885,141.0040914357016,0.0001295089750783,0.086481012403965,0,0,0
13184,439852.1530796291,2010-08-24 16:32:45,4952.4877053140135,2,36,0.5501165986061096,4.064316749572754,39.19487660028298,38.37771156328946,155.5476924746797,141.0040914357016,9.71794142969884e-05,0.086481012403965,0,0,0
13185,439882.16823090153,2010-08-24 16:33:15,4982.502856586415,2,36,0.5501165986061096,4.066906929016113,39.19946336091379,38.37771156328946,155.56634019692046,141.0040914357016,6.47544875391759e-05,0.086481012403965,0,0,0
13186,439912.18347068445,2010-08-24 16:33:45,5012.518096369413,2,36,0.5499359965324402,4.069497108459473,39.20405001575037,38.37771156328946,155.58500002374436,141.0040914357016,6.47544875391759e-05,0.086481012403965,0,0,0
13187,439942.19876267767,2010-08-24 16:34:15,5042.533388362534,2,36,0.5501165986061096,4.072411060333252,39.20863678214501,38.37771156328946,155.6036729350892,141.0040914357016,9.71794142969884e-05,0.086481012403965,0,0,0
13188,439972.2138723513,2010-08-24 16:34:46,5072.548498046284,2,36,0.5499359965324402,4.075162887573242,39.21322344789214,38.37771156328946,155.62235818550954,141.0040914357016,6.47544875391759e-05,0.086481012403965,0,0,0
13189,440002.22925844905,2010-08-24 16:35:16,5102.563884143943,2,36,0.5501165986061096,4.077915191650391,39.21781015711984,38.37771156328946,155.64105646210132,141.0040914357016,6.47544875391759e-05,0.086481012403965,0,0,0
13190,440032.24433877465,2010-08-24 16:35:46,5132.578964484561,2,36,0.5501165986061096,4.080990791320801,39.22239681675184,38.37771156328946,155.65976751451515,141.0040914357016,9.70840483205393e-05,0.086481012403965,0,0,0
13191,440062.2593229706,2010-08-24 16:36:16,5162.593948655495,2,36,0.5501165986061096,4.08390474319458,39.22698351558643,38.37771156328946,155.67849169123343,141.0040914357016,0.0001295089750783,0.086481012403965,0,0,0
13192,440092.2744813006,2010-08-24 16:36:46,5192.609106985487,2,36,0.5501165986061096,4.0866570472717285,39.23157014681787,38.37771156328946,155.69722884361076,141.0040914357016,9.71794142969884e-05,0.086481012403965,0,0,0
13193,440122.28965317947,2010-08-24 16:37:16,5222.624278869259,2,36,0.5501165986061096,4.089570999145508,39.236156819201405,38.37771156328946,155.71597948818226,141.0040914357016,9.71794142969884e-05,0.086481012403965,0,0,0
13194,440152.30487442616,2010-08-24 16:37:46,5252.639500111046,2,36,0.5499359965324402,4.092484951019287,39.240743483341056,38.37771156328946,155.73474355598813,141.0040914357016,9.71794142969884e-05,0.086481012403965,0,0,0
13195,440182.3200052326,2010-08-24 16:38:16,5282.6546309274645,2,36,0.5501165986061096,4.095560550689697,39.24533016277252,38.37771156328946,155.75352131482933,141.0040914357016,9.70840483205393e-05,0.086481012403965,0,0,0
13196,440212.3351698933,2010-08-24 16:38:46,5312.669795578211,2,36,0.5501165986061096,4.098474502563477,39.24991681673088,38.37771156328946,155.77231268240092,141.0040914357016,6.47544875391759e-05,0.086481012403965,0,0,0
13197,440242.3503777919,2010-08-24 16:39:16,5342.685003481754,2,36,0.5501165986061096,4.101388454437256,39.25450356207172,38.37771156328946,155.7911183590782,141.0040914357016,6.47544875391759e-05,0.086481012403965,0,0,0
13198,440272.365656572,2010-08-24 16:39:46,5372.700282256933,2,36,0.5501165986061096,4.104464530944824,39.25909024722871,38.37771156328946,155.80993764458432,141.0040914357016,6.47544875391759e-05,0.086481012403965,0,0,0
13199,440302.3808134736,2010-08-24 16:40:16,5402.715439168389,2,36,0.5501165986061096,4.107702255249023,39.26367703488219,38.37771156328946,155.82877150955616,141.0040914357016,6.47544875391759e-05,0.086481012403965,0,0,0
13200,440332.39585519285,2010-08-24 16:40:46,5432.730480882738,2,36,0.5501165986061096,4.110939979553223,39.26826374769321,38.37771156328946,155.8476192492026,141.0040914357016,9.71794142969884e-05,0.086481012403965,0,0,0
13201,440362.4110236332,2010-08-24 16:41:16,5462.745649332953,2,36,0.5499359965324402,4.113691806793213,39.27285043545268,38.37771156328946,155.86648115714183,141.0040914357016,6.47544875391759e-05,0.086481012403965,0,0,0
13202,440392.4262149553,2010-08-24 16:41:46,5492.760840640134,2,36,0.5499359965324402,4.117091178894043,39.277437085426655,38.37771156328946,155.88535741579207,141.0040914357016,9.70840483205393e-05,0.086481012403965,0,0,0
13203,440422.4415522062,2010-08-24 16:42:16,5522.776177901076,2,36,0.550297200679779,4.120328903198242,39.28202383250062,38.37771156328946,155.9042486680093,141.0040914357016,9.70840483205393e-05,0.086481012403965,0,0,0
13204,440452.4565580411,2010-08-24 16:42:46,5552.791183751041,2,36,0.5501165986061096,4.123566627502441,39.28661055503448,38.37771156328946,155.92315454175505,141.0040914357016,0.0001295089750783,0.086481012403965,0,0,0
13205,440482.47183868085,2010-08-24 16:43:16,5582.806464365804,2,36,0.5499359965324402,4.12664270401001,39.29119728099264,38.37771156328946,155.94207530473346,141.0040914357016,9.71794142969884e-05,0.086481012403965,0,0,0
13206,440512.4868673628,2010-08-24 16:43:46,5612.821493037648,2,36,0.5501165986061096,4.13004207611084,39.29578399774401,38.37771156328946,155.96101103805685,141.0040914357016,9.70840483205393e-05,0.086481012403965,0,0,0
13207,440542.5020319935,2010-08-24 16:44:16,5642.836657698418,2,36,0.5501165986061096,4.133279800415039,39.300370726356086,38.37771156328946,155.97996194677015,141.0040914357016,9.70840483205393e-05,0.086481012403965,0,0,0
13208,440572.51720927074,2010-08-24 16:44:46,5672.851834970619,2,36,0.5501165986061096,4.136517524719238,39.30495737988081,38.37771156328946,155.99892770290367,141.0040914357016,9.70840483205393e-05,0.086481012403965,0,0,0
13209,440602.5323965479,2010-08-24 16:45:16,5702.867022242744,2,36,0.5501165986061096,4.140079021453857,39.309544032298014,38.37771156328946,156.017908904121,141.0040914357016,9.70840483205393e-05,0.086481012403965,0,0,0
13210,440632.5475663615,2010-08-24 16:45:46,5732.882192056356,2,36,0.5501165986061096,4.143316745758057,39.31413076290386,38.37771156328946,156.03690603451216,141.0040914357016,3.23295607813634e-05,0.086481012403965,0,0,0
13211,440662.56274386926,2010-08-24 16:46:16,5762.897369579182,2,36,0.5501165986061096,4.146878242492676,39.318717479268194,38.37771156328946,156.05591889556254,141.0040914357016,6.47544875391759e-05,0.086481012403965,0,0,0
13212,440692.5778958134,2010-08-24 16:46:46,5792.912521503208,2,36,0.5499359965324402,4.150278091430664,39.32330413639255,38.37771156328946,156.0749474462842,141.0040914357016,9.71794142969884e-05,0.086481012403965,0,0,0
13213,440722.5932192849,2010-08-24 16:47:16,5822.927844979796,2,36,0.5501165986061096,4.153839588165283,39.32789078895445,38.37771156328946,156.09399198702224,141.0040914357016,6.47544875391759e-05,0.086481012403965,0,0,0
13214,440752.6085265511,2010-08-24 16:47:46,5852.943152291095,2,36,0.5501165986061096,4.157401084899902,39.33247744642672,38.37771156328946,156.11305250755564,141.0040914357016,6.47544875391759e-05,0.086481012403965,0,0,0
13215,440782.6234127278,2010-08-24 16:48:16,5882.958038442735,2,36,0.5501165986061096,4.1609625816345215,39.33706409525576,38.37771156328946,156.13212922780895,141.0040914357016,9.71794142969884e-05,0.086481012403965,0,0,0
13216,440812.6385904711,2010-08-24 16:48:46,5912.973216156035,2,36,0.550297200679779,4.164524078369141,39.34165079487958,38.37771156328946,156.15122249049062,141.0040914357016,6.47544875391759e-05,0.086481012403965,0,0,0
13217,440842.6537572222,2010-08-24 16:49:16,5942.988382942102,2,36,0.5501165986061096,4.16808557510376,39.34623743486567,38.37771156328946,156.17033196276182,141.0040914357016,9.71794142969884e-05,0.086481012403965,0,0,0
13218,440872.6691268738,2010-08-24 16:49:46,5973.003752568709,2,36,0.550297200679779,4.17180871963501,39.35082413671507,38.37771156328946,156.18945835438848,141.0040914357016,9.70840483205393e-05,0.086481012403965,0,0,0
13219,440902.6841138066,2010-08-24 16:50:16,6003.0187394814775,2,36,0.5501165986061096,4.175532341003418,39.35541086066069,38.37771156328946,156.20860163862858,141.0040914357016,9.71794142969884e-05,0.086481012403965,0,0,0
13220,440932.6992768082,2010-08-24 16:50:46,6033.0339024981495,2,36,0.5501165986061096,4.179255485534668,39.35999760064532,38.37771156328946,156.2277619619225,141.0040914357016,9.70840483205393e-05,0.086481012403965,0,0,0
13221,440962.714573448,2010-08-24 16:51:16,6063.049199132839,2,36,0.5501165986061096,4.182979106903076,39.36458436397614,38.37771156328946,156.24693950222246,141.0040914357016,0.0001295089750783,0.086481012403965,0,0,0
13222,440992.72964073607,2010-08-24 16:51:46,6093.064266420926,2,36,0.550297200679779,4.186864376068115,39.369171092783326,38.37771156328946,156.26613413406167,141.0040914357016,0.0001619339018361,0.086481012403965,0,0,0
13223,441022.74481136166,2010-08-24 16:52:16,6123.079437051575,2,36,0.5499359965324402,4.190425872802734,39.37375773956813,38.37771156328946,156.28534585403844,141.0040914357016,9.71794142969884e-05,0.086481012403965,0,0,0
13224,441052.75997260393,2010-08-24 16:52:46,6153.094598293825,2,36,0.550297200679779,4.194472789764404,39.37834444132861,38.37771156328946,156.30457539853072,141.0040914357016,9.70840483205393e-05,0.086481012403965,0,0,0
13225,441082.7751543974,2010-08-24 16:53:16,6183.109780082282,2,36,0.5499359965324402,4.198195934295654,39.38293117489387,38.37771156328946,156.32382280637538,141.0040914357016,0.0001295089750783,0.086481012403965,0,0,0
13226,441095.6343121251,2010-08-24 16:53:29,6195.968937815016,2,36,0.550297200679779,4.200138568878174,39.38489622252892,38.37771156328946,156.3320742516572,141.0040914357016,0.0001295089750783,0.086481012403965,0,0,0
13227,441125.6607569753,2010-08-24 16:53:59,30.015197592846786,3,36,0.0,4.121947765350342,39.38489622252892,38.37771156328946,156.3320742516572,141.0040914357016,-0.0003561973571777,0.086481012403965,0,0,0
13228,441155.6759225032,2010-08-24 16:54:29,60.03036313080292,3,36,0.0,4.112072944641113,39.38489622252892,38.37771156328946,156.3320742516572,141.0040914357016,-0.0001619339018361,0.086481012403965,0,0,0
13229,441185.6910829736,2010-08-24 16:54:59,90.04552360112896,3,36,0.0,4.106245040893555,39.38489622252892,38.37771156328946,156.3320742516572,141.0040914357016,-9.71794142969884e-05,0.086481012403965,0,0,0
13230,441215.6593630836,2010-08-24 16:55:29,120.01380371117246,3,36,0.0,4.102198123931885,39.38489622252892,38.37771156328946,156.3320742516572,141.0040914357016,-0.0001295089750783,0.086481012403965,0,0,0
13231,441215.6724306444,2010-08-24 16:55:29,2.541333786e-06,4,36,1.0050714015960691,4.199814796447754,39.38489622323844,38.37771156328946,156.33207425463698,141.0040914357016,0.0,0.086481012403965,0,0,0
13232,441216.6411401715,2010-08-24 16:55:30,0.968712053502576,4,36,0.9545007944107056,4.199814796447754,39.385158479018095,38.37771156328946,156.3331756742163,141.0040914357016,0.0,0.086481012403965,0,0,0
13233,441218.7506284053,2010-08-24 16:55:32,3.078200287254388,4,36,0.9042913913726808,4.199814796447754,39.38570195817212,38.37771156328946,156.33545815205994,141.0040914357016,0.0,0.086481012403965,0,0,0
13234,441221.891072373,2010-08-24 16:55:35,6.218644264937228,4,36,0.85426265001297,4.199814796447754,39.38646776281723,38.37771156328946,156.33867434890433,141.0040914357016,3.23295607813634e-05,0.086481012403965,0,0,0
13235,441226.0472607433,2010-08-24 16:55:40,10.374832620145591,4,36,0.8040532469749451,4.199653148651123,39.38742372301782,38.37771156328946,156.3426891596553,141.0040914357016,0.0,0.086481012403965,0,0,0
13236,441231.359896822,2010-08-24 16:55:45,15.687468708936118,4,36,0.7540245056152344,4.199976921081543,39.3885719086199,38.37771156328946,156.34751128550457,141.0040914357016,6.47544875391759e-05,0.086481012403965,0,0,0
13237,441238.07832209504,2010-08-24 16:55:52,22.40589398192418,4,36,0.7039957046508789,4.199653148651123,39.38993056694351,38.37771156328946,156.35321736240968,141.0040914357016,0.0,0.086481012403965,0,0,0
13238,441246.8751090548,2010-08-24 16:56:00,31.20268093170672,4,36,0.6539669632911682,4.199814796447754,39.3915870666717,38.37771156328946,156.36017430986487,141.0040914357016,3.23295607813634e-05,0.086481012403965,0,0,0
13239,441258.781133411,2010-08-24 16:56:12,43.108705287794194,4,36,0.6039381623268127,4.199814796447754,39.39366283760144,38.37771156328946,156.3688921150253,141.0040914357016,0.0,0.086481012403965,0,0,0
13240,441275.9997456556,2010-08-24 16:56:30,60.32731755259261,4,36,0.553909420967102,4.199653148651123,39.39642399250295,38.37771156328946,156.38048838949047,141.0040914357016,-3.23295607813634e-05,0.086481012403965,0,0,0
13241,441302.8588178228,2010-08-24 16:56:56,87.1863897247756,4,36,0.5038806200027466,4.199814796447754,39.40035597505037,38.37771156328946,156.39700190968338,141.0040914357016,0.0,0.086481012403965,0,0,0
13242,441349.0610153,2010-08-24 16:57:43,133.388587186912,4,36,0.4538518786430359,4.199814796447754,39.40647565631605,38.37771156328946,156.42270328445034,141.0040914357016,0.0,0.086481012403965,0,0,0
13243,441423.8723968768,2010-08-24 16:58:57,208.19996876870047,4,36,0.4038231074810028,4.199976921081543,39.41535574091402,38.37771156328946,156.45999776442153,141.0040914357016,6.47544875391759e-05,0.086481012403965,0,0,0
13244,441525.7614792606,2010-08-24 17:00:39,310.08905115248774,4,36,0.3537943363189697,4.199653148651123,39.426057373658416,38.37771156328946,156.5049424802636,141.0040914357016,-3.23295607813634e-05,0.086481012403965,0,0,0
13245,441650.1816331773,2010-08-24 17:02:44,434.5092050791974,4,36,0.3037655651569366,4.199653148651123,39.43740772315499,38.37771156328946,156.55261161079335,141.0040914357016,-3.23295607813634e-05,0.086481012403965,0,0,0
13246,441801.44483560027,2010-08-24 17:05:15,585.7724075121843,4,36,0.2537367939949035,4.199814796447754,39.449103582200266,38.37771156328946,156.60173188115172,141.0040914357016,0.0,0.086481012403965,0,0,0
13247,441987.7232714789,2010-08-24 17:08:21,772.0508433657732,4,36,0.2037080228328704,4.199653148651123,39.460902246346194,38.37771156328946,156.65128395492655,141.0040914357016,-3.23295607813634e-05,0.086481012403965,0,0,0
13248,442231.6883185724,2010-08-24 17:12:25,1016.0158904592984,4,36,0.1534986495971679,4.199814796447754,39.47294426276032,38.37771156328946,156.70185802457985,141.0040914357016,0.0,0.086481012403965,0,0,0
13249,442583.4642829995,2010-08-24 17:18:17,1367.7918549114718,4,36,0.1034698709845542,4.199653148651123,39.48536619002669,38.37771156328946,156.75402761259176,141.0040914357016,-3.23295607813634e-05,0.086481012403965,0,0,0
13250,443213.642182932,2010-08-24 17:28:47,1997.9697548089084,4,36,0.0534411035478115,4.199814796447754,39.498671183268286,38.37771156328946,156.80990586417093,141.0040914357016,3.23295607813634e-05,0.086481012403965,0,0,0
13251,443287.7504323471,2010-08-24 17:30:01,2072.078004249051,4,36,0.0498289167881011,4.199814796447754,39.49974224901939,38.37771156328946,156.8144040542027,141.0040914357016,0.0,0.086481012403965,0,0,0
13252,443317.76310902426,2010-08-24 17:30:31,30.01513384897745,5,36,0.0,4.192368507385254,39.49974224901939,38.37771156328946,156.8144040542027,141.0040914357016,-6.47544875391759e-05,0.086481012403965,0,0,0
13253,443347.7626641613,2010-08-24 17:31:01,60.01468900606125,5,36,0.0,4.191558837890625,39.49974224901939,38.37771156328946,156.8144040542027,141.0040914357016,0.0,0.086481012403965,0,0,0
13254,443347.9487576778,2010-08-24 17:31:02,0.187649851167525,6,36,-1.9243103452026844e-05,4.191235065460205,39.49974224901939,38.3777115642925,156.8144040542027,141.0040914399056,0.0,0.0906038731336593,0,0,0
13255,443352.7766431088,2010-08-24 17:31:07,5.015535302214751,6,36,0.0007031940040178,4.191235065460205,39.49974322752684,38.37771156445867,156.81440815545122,141.00409144060205,0.0,0.0906038731336593,0,0,0
13256,443382.7904689711,2010-08-24 17:31:37,30.015272664949567,7,36,-1.099568486213684,4.027406692504883,39.49974322752684,38.38687951483557,156.81440815545122,141.04120428498234,-0.0008742332574911,0.0906038731336593,0,0,0
13257,443412.8055303896,2010-08-24 17:32:07,60.03033407839538,7,36,-1.099568486213684,4.002314567565918,39.49974322752684,38.39604738603371,156.81440815545122,141.07800296709158,-0.0004856109735555,0.0906038731336593,0,0,0
13258,443442.8206813011,2010-08-24 17:32:37,90.0454849949104,7,36,-1.099568486213684,3.984830856323242,39.49974322752684,38.40521523055419,156.81440815545122,141.1146100019005,-0.0003885269106831,0.0906038731336593,0,0,0
13259,443472.83586970606,2010-08-24 17:33:07,120.06067337479564,7,36,-1.0992072820663452,3.971394300460816,39.49974322752684,38.414383020097176,156.81440815545122,141.1510769224495,-0.0002913951757363,0.0906038731336593,0,0,0
13260,443502.8510654543,2010-08-24 17:33:37,150.0758691481076,7,36,-1.0993878841400146,3.959900379180908,39.49974322752684,38.423550775674414,156.81440815545122,141.1874305636738,-0.0002913951757363,0.0906038731336593,0,0,0
13261,443532.8662050676,2010-08-24 17:34:07,180.09100874140165,7,36,-1.0993878841400146,3.9497015476226807,39.49974322752684,38.43271847394826,156.81440815545122,141.22368556916854,-0.0002590179501567,0.0906038731336593,0,0,0
13262,443562.881443783,2010-08-24 17:34:37,210.1062474818008,7,36,-1.0992072820663452,3.940312147140503,39.49974322752684,38.44188625277673,156.81440815545122,141.25985138066113,-0.0002266406954731,0.0906038731336593,0,0,0
13263,443592.89653101575,2010-08-24 17:35:07,240.1213346995589,7,36,-1.0997490882873535,3.931246519088745,39.49974322752684,38.45105396041097,156.81440815545122,141.29593312990582,-0.0002266406954731,0.0906038731336593,0,0,0
13264,443622.9117165686,2010-08-24 17:35:37,270.13652026743574,7,36,-1.099568486213684,3.922828435897827,39.49974322752684,38.46022175283933,156.81440815545122,141.33193522281675,-0.0002590179501567,0.0906038731336593,0,0,0
13265,443652.9268901416,2010-08-24 17:36:07,300.1516938103427,7,36,-1.099568486213684,3.914572238922119,39.49974322752684,38.469389563146606,156.81440815545122,141.36786018730908,-0.0001942634553415,0.0906038731336593,0,0,0
13266,443682.9420420606,2010-08-24 17:36:37,330.1668457243437,7,36,-1.099568486213684,3.9064781665802,39.49974322752684,38.47855733242047,156.81440815545122,141.40371019423492,-0.0001942634553415,0.0906038731336593,0,0,0
13267,443712.95747061406,2010-08-24 17:37:07,360.1822743830778,7,36,-1.099568486213684,3.898545742034912,39.49974322752684,38.48772518158934,156.81440815545122,141.43948754286083,-0.0002266406954731,0.0906038731336593,0,0,0
13268,443742.97239292593,2010-08-24 17:37:37,390.1971965945896,7,36,-1.099568486213684,3.890775203704834,39.49974322752684,38.49689280576012,156.81440815545122,141.47519251940992,-0.0002266406954731,0.0906038731336593,0,0,0
13269,443772.9878112137,2010-08-24 17:38:07,420.2126148874888,7,36,-1.099568486213684,3.883328437805176,39.49974322752684,38.506060597773285,156.81440815545122,141.51082837288192,-0.0001942634553415,0.0906038731336593,0,0,0
13270,443803.0027314102,2010-08-24 17:38:37,450.2275350839786,7,36,-1.099568486213684,3.875719785690308,39.49974322752684,38.51522827316218,156.81440815545122,141.54639481570507,-0.0002266406954731,0.0906038731336593,0,0,0
13271,443833.0180161953,2010-08-24 17:39:07,480.2428198741478,7,36,-1.0997490882873535,3.8682730197906494,39.49974322752684,38.524396038183504,156.81440815545122,141.5818935554977,-0.0001942634553415,0.0906038731336593,0,0,0
13272,443863.0331914676,2010-08-24 17:39:37,510.2579951413523,7,36,-1.0997490882873535,3.861150026321411,39.49974322752684,38.53356383379613,156.81440815545122,141.6173252294899,-0.0001618862152099,0.0906038731336593,0,0,0
13273,443893.0483173668,2010-08-24 17:40:07,540.2731210355039,7,36,-1.099568486213684,3.854027032852173,39.49974322752684,38.542731614724055,156.81440815545122,141.65269078019907,-0.0001942634553415,0.0906038731336593,0,0,0
13274,443923.0634336118,2010-08-24 17:40:37,570.288237300657,7,36,-1.0997490882873535,3.846904039382935,39.49974322752684,38.55189937577113,156.81440815545122,141.68799119885085,-0.0001942634553415,0.0906038731336593,0,0,0
13275,443953.07856804726,2010-08-24 17:41:07,600.3033717160462,7,36,-1.099568486213684,3.840104818344116,39.49974322752684,38.56106717161936,156.81440815545122,141.7232276169427,-0.0001942634553415,0.0906038731336593,0,0,0
13276,443983.0937448985,2010-08-24 17:41:37,630.3185485722107,7,36,-1.099568486213684,3.833305597305298,39.49974322752684,38.57023495402886,156.81440815545122,141.7584008906843,-0.0001618862152099,0.0906038731336593,0,0,0
13277,444013.108916276,2010-08-24 17:42:07,660.3337199447084,7,36,-1.0993878841400146,3.8265066146850586,39.49974322752684,38.579402760116665,156.81440815545122,141.79351215420525,-0.0001942634553415,0.0906038731336593,0,0,0
13278,444043.1242056525,2010-08-24 17:42:37,690.3490093313335,7,36,-1.099568486213684,3.82003116607666,39.49974322752684,38.58857060498443,156.81440815545122,141.82856248445262,-0.0001295089750783,0.0906038731336593,0,0,0
13279,444073.1392511765,2010-08-24 17:43:07,720.364054870215,7,36,-1.099568486213684,3.8135557174682617,39.49974322752684,38.597738349951904,156.81440815545122,141.8635527796482,-0.0001295089750783,0.0906038731336593,0,0,0
13280,444103.15441953146,2010-08-24 17:43:37,750.3792232001296,7,36,-1.099568486213684,3.806918382644653,39.49974322752684,38.6069060676042,156.81440815545122,141.89848351073002,-0.0001942634553415,0.0906038731336593,0,0,0
13281,444133.1696075253,2010-08-24 17:44:07,780.3944111940529,7,36,-1.099568486213684,3.800766706466675,39.49974322752684,38.6160738571956,156.81440815545122,141.93335628573666,-0.0001295089750783,0.0906038731336593,0,0,0
13282,444163.1847458505,2010-08-24 17:44:37,810.4095495292114,7,36,-1.0997490882873535,3.794615030288696,39.49974322752684,38.62524166966608,156.81440815545122,141.96817214133432,-0.0001295089750783,0.0906038731336593,0,0,0
13283,444193.19991940336,2010-08-24 17:45:07,840.4247230971808,7,36,-1.099568486213684,3.7884633541107178,39.49974322752684,38.63440939213636,156.81440815545122,142.00293154207483,-0.0001618862152099,0.0906038731336593,0,0,0
13284,444223.2150797484,2010-08-24 17:45:37,870.4398834221445,7,36,-1.0997490882873535,3.782473564147949,39.49974322752684,38.643577140312026,156.81440815545122,142.0376358500748,-0.0001618862152099,0.0906038731336593,0,0,0
13285,444253.23042079376,2010-08-24 17:46:07,900.4552244574941,7,36,-1.0993878841400146,3.7768075466156006,39.49974322752684,38.65274489820563,156.81440815545122,142.07228609917507,-9.713172767078504e-05,0.0906038731336593,0,0,0
13286,444283.2454546586,2010-08-24 17:46:37,930.4702583272926,7,36,-1.099568486213684,3.770979642868042,39.49974322752684,38.66191268587684,156.81440815545122,142.10688369430906,-0.0001618862152099,0.0906038731336593,0,0,0
13287,444313.2607452331,2010-08-24 17:47:07,960.485548916916,7,36,-1.099568486213684,3.7651517391204834,39.49974322752684,38.67108047543036,156.81440815545122,142.1414293792245,-0.0001618862152099,0.0906038731336593,0,0,0
13288,444343.2759445453,2010-08-24 17:47:37,990.5007482240352,7,36,-1.0993878841400146,3.7599713802337646,39.49974322752684,38.68024833394136,156.81440815545122,142.1759246109231,-0.0001618862152099,0.0906038731336593,0,0,0
13289,444373.2909744251,2010-08-24 17:48:07,1020.5157781239396,7,36,-1.099568486213684,3.754467248916626,39.49974322752684,38.68941606279981,156.81440815545122,142.2103693013098,-0.0001295089750783,0.0906038731336593,0,0,0
13290,444403.3061311762,2010-08-24 17:48:37,1050.5309348499338,7,36,-1.099568486213684,3.749125242233277,39.49974322752684,38.69858388316055,156.81440815545122,142.2447649309584,-0.0001295089750783,0.0906038731336593,0,0,0
13291,444433.3213686283,2010-08-24 17:49:07,1080.5461723121473,7,36,-1.099568486213684,3.744106769561768,39.49974322752684,38.7077517592977,156.81440815545122,142.279112798766,-9.713172767078504e-05,0.0906038731336593,0,0,0
13292,444463.336473054,2010-08-24 17:49:37,1110.5612767327802,7,36,-1.0997490882873535,3.738926410675049,39.49974322752684,38.716919597619054,156.81440815545122,142.3134131886586,-0.0001295089750783,0.0906038731336593,0,0,0
13293,444493.3516521607,2010-08-24 17:50:07,1140.576455829529,7,36,-1.099568486213684,3.73390793800354,39.49974322752684,38.72608741991503,156.81440815545122,142.34766729621006,-0.0001295089750783,0.0906038731336593,0,0,0
13294,444523.3669288007,2010-08-24 17:50:37,1170.5917324994602,7,36,-1.099568486213684,3.729051351547241,39.49974322752684,38.73525526166422,156.81440815545122,142.38187598485675,-0.0001295089750783,0.0906038731336593,0,0,0
13295,444553.3819960186,2010-08-24 17:51:07,1200.60679971236,7,36,-1.0993878841400146,3.7241947650909424,39.49974322752684,38.74442303926184,156.81440815545122,142.41604035879362,-0.0001295089750783,0.0906038731336593,0,0,0
13296,444583.3971643535,2010-08-24 17:51:37,1230.621968037262,7,36,-1.099568486213684,3.7195000648498535,39.49974322752684,38.75359086686883,156.81440815545122,142.450160813398,-9.713172767078504e-05,0.0906038731336593,0,0,0
13297,444613.4123476557,2010-08-24 17:52:07,1260.6371513244546,7,36,-1.0997490882873535,3.7146434783935542,39.49974322752684,38.762758692982565,156.81440815545122,142.4842382264273,-0.0001618862152099,0.0906038731336593,0,0,0
13298,444643.4275276949,2010-08-24 17:52:37,1290.6523313886146,7,36,-1.099568486213684,3.710110664367676,39.49974322752684,38.7719265468014,156.81440815545122,142.51827323697916,-9.713172767078504e-05,0.0906038731336593,0,0,0
13299,444673.4426550275,2010-08-24 17:53:07,1320.6674587213515,7,36,-1.0997490882873535,3.705577850341797,39.49974322752684,38.78109436616504,156.81440815545122,142.55226657899323,-0.0001618862152099,0.0906038731336593,0,0,0
13300,444703.4578291469,2010-08-24 17:53:37,1350.6826328156328,7,36,-1.0997490882873535,3.701206922531128,39.49974322752684,38.79026224328638,156.81440815545122,142.58621931953115,-9.713172767078504e-05,0.0906038731336593,0,0,0
13301,444733.4732171142,2010-08-24 17:54:07,1380.698020787964,7,36,-1.099568486213684,3.696835994720459,39.49974322752684,38.79943012599679,156.81440815545122,142.6201316577718,-0.0001295089750783,0.0906038731336593,0,0,0
13302,444763.4883393643,2010-08-24 17:54:37,1410.713143068108,7,36,-1.099568486213684,3.692626953125,39.49974322752684,38.8085980038324,156.81440815545122,142.65400456865237,-0.0001295089750783,0.0906038731336593,0,0,0
13303,444793.50334075314,2010-08-24 17:55:07,1440.7281444268792,7,36,-1.0997490882873535,3.688417911529541,39.49974322752684,38.81776578509711,156.81440815545122,142.6878386201411,-0.0001295089750783,0.0906038731336593,0,0,0
13304,444823.5185063011,2010-08-24 17:55:37,1470.7433099798727,7,36,-1.099568486213684,3.684370756149292,39.49974322752684,38.82693357109462,156.81440815545122,142.72163438409513,-9.713172767078504e-05,0.0906038731336593,0,0,0
13305,444853.5336809417,2010-08-24 17:56:07,1500.7584846155034,7,36,-1.099568486213684,3.680323600769043,39.49974322752684,38.83610140333796,156.81440815545122,142.75539293792988,-6.47544875391759e-05,0.0906038731336593,0,0,0
13306,444883.5488484496,2010-08-24 17:56:37,1530.7736521384063,7,36,-1.099568486213684,3.676114559173584,39.49974322752684,38.84526928526533,156.81440815545122,142.78911477488634,-0.0001618862152099,0.0906038731336593,0,0,0
13307,444913.5640070152,2010-08-24 17:57:08,1560.7888106939604,7,36,-1.099568486213684,3.672391414642334,39.49974322752684,38.85443714533579,156.81440815545122,142.82280069006762,-9.70840483205393e-05,0.0906038731336593,0,0,0
13308,444943.5794473029,2010-08-24 17:57:38,1590.8042509716524,7,36,-1.0993878841400146,3.668668031692505,39.49974322752684,38.86360509590201,156.81440815545122,142.85645146646584,-9.713172767078504e-05,0.0906038731336593,0,0,0
13309,444973.5945069169,2010-08-24 17:58:08,1620.819310610676,7,36,-1.099568486213684,3.664944648742676,39.49974322752684,38.872772898864525,156.81440815545122,142.89006716546547,-3.237724376958795e-05,0.0906038731336593,0,0,0
13310,445003.6095265612,2010-08-24 17:58:38,1650.8343302550202,7,36,-1.0997490882873535,3.6610593795776367,39.49974322752684,38.88194061351721,156.81440815545122,142.92364838089804,-9.713172767078504e-05,0.0906038731336593,0,0,0
13311,445033.624804805,2010-08-24 17:59:08,1680.8496084988742,7,36,-1.0993878841400146,3.6574978828430176,39.49974322752684,38.89110852142869,156.81440815545122,142.9571966367216,-9.713172767078504e-05,0.0906038731336593,0,0,0
13312,445063.6399746588,2010-08-24 17:59:38,1710.8647783375488,7,36,-1.0997490882873535,3.653774499893189,39.49974322752684,38.900276427365085,156.81440815545122,142.99071183366695,-0.0001295089750783,0.0906038731336593,0,0,0
13313,445093.6550274757,2010-08-24 18:00:08,1740.879831169607,7,36,-1.0993878841400146,3.650698661804199,39.49974322752684,38.909444232139805,156.81440815545122,143.0241943958728,-3.237724376958795e-05,0.0906038731336593,0,0,0
13314,445123.6701864925,2010-08-24 18:00:38,1770.8949901662606,7,36,-1.0993878841400146,3.64713716506958,39.49974322752684,38.91861209016309,156.81440815545122,143.05764545291584,-6.47544875391759e-05,0.0906038731336593,0,0,0
13315,445153.6853466871,2010-08-24 18:01:08,1800.9101503809495,7,36,-1.099568486213684,3.643737554550171,39.49974322752684,38.92777985482471,156.81440815545122,143.09106471887148,-3.237724376958795e-05,0.0906038731336593,0,0,0
13316,445183.7005502398,2010-08-24 18:01:38,1830.9253539236247,7,36,-1.099568486213684,3.640499830245972,39.49974322752684,38.93694762026276,156.81440815545122,143.12445410229327,-6.47544875391759e-05,0.0906038731336593,0,0,0
13317,445213.7158329398,2010-08-24 18:02:08,1860.9406365985224,7,36,-1.099568486213684,3.637262105941773,39.49974322752684,38.94611543652854,156.81440815545122,143.15781424081294,-9.713172767078504e-05,0.0906038731336593,0,0,0
13318,445243.7308638623,2010-08-24 18:02:38,1890.9556675310005,7,36,-1.099568486213684,3.634186267852783,39.49974322752684,38.955283117869286,156.81440815545122,143.1911452185227,-9.713172767078504e-05,0.0906038731336593,0,0,0
13319,445273.74602972605,2010-08-24 18:03:08,1920.9708334047937,7,36,-1.0997490882873535,3.631110429763794,39.49974322752684,38.96445090786005,156.81440815545122,143.22444885656262,-6.47544875391759e-05,0.0906038731336593,0,0,0
13320,445303.7612793084,2010-08-24 18:03:38,1950.9860830323269,7,36,-1.0997490882873535,3.628196477890015,39.49974322752684,38.97361872341011,156.81440815545122,143.257725529863,-9.713172767078504e-05,0.0906038731336593,0,0,0
13321,445333.776509683,2010-08-24 18:04:08,1981.001313361763,7,36,-1.099568486213684,3.625444412231445,39.49974322752684,38.98278657911308,156.81440815545122,143.2909757753858,-3.237724376958795e-05,0.0906038731336593,0,0,0
13322,445363.7915357734,2010-08-24 18:04:38,2011.016339442148,7,36,-1.0997490882873535,3.622530460357666,39.49974322752684,38.99195430909885,156.81440815545122,143.32419990412825,-9.713172767078504e-05,0.0906038731336593,0,0,0
13323,445393.80674994254,2010-08-24 18:05:08,2041.0315536263456,7,36,-1.099568486213684,3.619940280914306,39.49974322752684,39.00112214917568,156.81440815545122,143.35739867055756,-6.47544875391759e-05,0.0906038731336593,0,0,0
13324,445423.82187142567,2010-08-24 18:05:38,2071.046675104491,7,36,-1.099568486213684,3.617188215255737,39.49974322752684,39.01029000391725,156.81440815545122,143.39057225382695,-6.47544875391759e-05,0.0906038731336593,0,0,0
13325,445453.8370453896,2010-08-24 18:06:08,2101.061849058423,7,36,-1.099568486213684,3.614436149597168,39.49974322752684,39.019457828614655,156.81440815545122,143.42372114992187,-0.0001295089750783,0.0906038731336593,0,0,0
13326,445483.8521903362,2010-08-24 18:06:38,2131.076994030121,7,36,-1.099568486213684,3.6118459701538086,39.49974322752684,39.02862568115403,156.81440815545122,143.45684573371736,-6.47544875391759e-05,0.0906038731336593,0,0,0
13327,445513.8674848106,2010-08-24 18:07:08,2161.092288499414,7,36,-1.0997490882873535,3.6090939044952393,39.49974322752684,39.0377935726546,156.81440815545122,143.48994588807585,-6.47544875391759e-05,0.0906038731336593,0,0,0
13328,445543.8825645999,2010-08-24 18:07:38,2191.1073682686083,7,36,-1.099568486213684,3.60650372505188,39.49974322752684,39.046961422164735,156.81440815545122,143.52302127221952,-6.47544875391759e-05,0.0906038731336593,0,0,0
13329,445573.8977553456,2010-08-24 18:08:08,2221.122559039452,7,36,-1.099568486213684,3.603751659393311,39.49974322752684,39.05612924443961,156.81440815545122,143.55607172444817,-6.47544875391759e-05,0.0906038731336593,0,0,0
13330,445603.9128947485,2010-08-24 18:08:38,2251.137698442272,7,36,-1.099568486213684,3.600999593734741,39.49974322752684,39.06529710082119,156.81440815545122,143.58909778250003,-9.713172767078504e-05,0.0906038731336593,0,0,0
13331,445633.928085439,2010-08-24 18:09:08,2281.1528891078538,7,36,-1.0997490882873535,3.598247528076172,39.49974322752684,39.07446492369253,156.81440815545122,143.6220989894413,-9.713172767078504e-05,0.0906038731336593,0,0,0
13332,445663.9432543455,2010-08-24 18:09:38,2311.1680580693424,7,36,-1.099568486213684,3.5954954624176025,39.49974322752684,39.0836327827562,156.81440815545122,143.65507535718933,-6.47544875391759e-05,0.0906038731336593,0,0,0
13333,445693.95860278927,2010-08-24 18:10:08,2341.1834064580185,7,36,-1.0997490882873535,3.592743396759033,39.49974322752684,39.09280072234833,156.81440815545122,143.68802651433668,-9.713172767078504e-05,0.0906038731336593,0,0,0
13334,445723.9736899669,2010-08-24 18:10:38,2371.1984936406893,7,36,-1.0997490882873535,3.589667797088623,39.49974322752684,39.10196852038004,156.81440815545122,143.72095116115648,-9.713172767078504e-05,0.0906038731336593,0,0,0
13335,445753.98877255816,2010-08-24 18:11:08,2401.2135762569787,7,36,-1.099568486213684,3.587077617645264,39.49974322752684,39.11113630130292,156.81440815545122,143.75384933457846,-9.713172767078504e-05,0.0906038731336593,0,0,0
13336,445784.00389751,2010-08-24 18:11:38,2431.2287011787066,7,36,-1.0993878841400146,3.5840017795562744,39.49974322752684,39.1203041081821,156.81440815545122,143.78672086769137,-9.713172767078504e-05,0.0906038731336593,0,0,0
13337,445814.01908534346,2010-08-24 18:12:08,2461.243889017243,7,36,-1.099568486213684,3.581087827682495,39.49974322752684,39.129471763660014,156.81440815545122,143.81956467624144,-6.47544875391759e-05,0.0906038731336593,0,0,0
13338,445844.03423151816,2010-08-24 18:12:38,2491.2590351919403,7,36,-1.0997490882873535,3.577850103378296,39.49974322752684,39.13863885289644,156.81440815545122,143.85237866591984,-9.713172767078504e-05,0.0906038731336593,0,0,0
13339,445874.0494232866,2010-08-24 18:13:08,2521.2742269552577,7,36,-1.0997490882873535,3.5746123790740967,39.49974322752684,39.14780609140682,156.81440815545122,143.8851650274906,-0.0001295089750783,0.0906038731336593,0,0,0
13340,445904.0646127641,2010-08-24 18:13:38,2551.289416432879,7,36,-1.0993878841400146,3.5720221996307373,39.49974322752684,39.156973934456914,156.81440815545122,143.91792474307962,-6.47544875391759e-05,0.0906038731336593,0,0,0
13341,445934.0797751593,2010-08-24 18:14:08,2581.3045788280024,7,36,-1.099568486213684,3.568460702896118,39.49974322752684,39.16614186830871,156.81440815545122,143.95065527299425,-9.713172767078504e-05,0.0906038731336593,0,0,0
13342,445964.09493239154,2010-08-24 18:14:38,2611.3197360652703,7,36,-1.099568486213684,3.565222978591919,39.49974322752684,39.17530972311637,156.81440815545122,143.98335531127336,-6.47544875391759e-05,0.0906038731336593,0,0,0
13343,445994.1100984558,2010-08-24 18:15:08,2641.3349021245253,7,36,-1.099568486213684,3.5616614818573,39.49974322752684,39.184477582134114,156.81440815545122,144.01602417978933,-0.0001295089750783,0.0906038731336593,0,0,0
13344,446024.1254456164,2010-08-24 18:15:38,2671.3502493001797,7,36,-1.0997490882873535,3.5580999851226807,39.49974322752684,39.19364555837822,156.81440815545122,144.04866170547518,-9.713172767078504e-05,0.0906038731336593,0,0,0
13345,446054.14044385735,2010-08-24 18:16:08,2701.365247531154,7,36,-1.099568486213684,3.554538488388061,39.49974322752684,39.202813428296295,156.81440815545122,144.08126592049388,-9.713172767078504e-05,0.0906038731336593,0,0,0
13346,446084.1555986085,2010-08-24 18:16:38,2731.3804022772138,7,36,-1.0993878841400146,3.5509769916534424,39.49974322752684,39.21198132804192,156.81440815545122,144.11383636458703,-6.47544875391759e-05,0.0906038731336593,0,0,0
13347,446114.1707911938,2010-08-24 18:17:08,2761.395594902681,7,36,-1.0993878841400146,3.5469298362731934,39.49974322752684,39.22114925610004,156.81440815545122,144.1463716307825,-9.713172767078504e-05,0.0906038731336593,0,0,0
13348,446144.1859468472,2010-08-24 18:17:38,2791.4107505259262,7,36,-1.099568486213684,3.5427207946777344,39.49974322752684,39.23031723085589,156.81440815545122,144.17887021059252,-0.0001295089750783,0.0906038731336593,0,0,0
13349,446174.2012910103,2010-08-24 18:18:08,2821.4260946890718,7,36,-1.099568486213684,3.5386736392974854,39.49974322752684,39.23948519136232,156.81440815545122,144.21133105240798,-9.713172767078504e-05,0.0906038731336593,0,0,0
13350,446204.21627817873,2010-08-24 18:18:38,2851.4410818474507,7,36,-1.0997490882873535,3.5341408252716064,39.49974322752684,39.24865309838477,156.81440815545122,144.24375272856312,-0.0001618862152099,0.0906038731336593,0,0,0
13351,446234.2315928633,2010-08-24 18:19:08,2881.4563965321263,7,36,-1.099568486213684,3.5299317836761475,39.49974322752684,39.257821038242696,156.81440815545122,144.27613443255,-9.713172767078504e-05,0.0906038731336593,0,0,0
13352,446264.2467448375,2010-08-24 18:19:38,2911.4715485313395,7,36,-1.099568486213684,3.5252370834350586,39.49974322752684,39.266988988505545,156.81440815545122,144.30847478546926,-0.0001295089750783,0.0906038731336593,0,0,0
13353,446294.26179773966,2010-08-24 18:20:08,2941.4866014085105,7,36,-1.0997490882873535,3.52038049697876,39.49974322752684,39.276156878591046,156.81440815545122,144.34077152279346,-0.0001618862152099,0.0906038731336593,0,0,0
13354,446324.2769563103,2010-08-24 18:20:38,2971.5017599791017,7,36,-1.0997490882873535,3.515362024307251,39.49974322752684,39.28532478735496,156.81440815545122,144.37302336971328,-0.0001295089750783,0.0906038731336593,0,0,0
13355,446354.29212409887,2010-08-24 18:21:08,3001.516927767667,7,36,-1.099568486213684,3.5100200176239014,39.49974322752684,39.2944927870774,156.81440815545122,144.40522797590447,-0.0001618862152099,0.0906038731336593,0,0,0
13356,446384.30733297486,2010-08-24 18:21:38,3031.532136648648,7,36,-1.0997490882873535,3.5043540000915527,39.49974322752684,39.30366082918282,156.81440815545122,144.4373826754364,-0.0001618862152099,0.0906038731336593,0,0,0
13357,446414.322484137,2010-08-24 18:22:08,3061.5472878057626,7,36,-1.0997490882873535,3.498364210128784,39.49974322752684,39.31282877954145,156.81440815545122,144.46948289747883,-0.0001618862152099,0.0906038731336593,0,0,0
13358,446444.3376561109,2010-08-24 18:22:38,3091.562459799809,7,36,-1.099568486213684,3.491726875305176,39.49974322752684,39.32199671974015,156.81440815545122,144.50152492345495,-0.0001618862152099,0.0906038731336593,0,0,0
13359,446474.35280451126,2010-08-24 18:23:08,3121.5776081800022,7,36,-1.099568486213684,3.4842801094055176,39.49974322752684,39.33116464219251,156.81440815545122,144.5335028829244,-0.0002266406954731,0.0906038731336593,0,0,0
13360,446504.3679814777,2010-08-24 18:23:38,3151.592785171504,7,36,-1.099568486213684,3.4760239124298096,39.49974322752684,39.34033254325871,156.81440815545122,144.565409081427,-0.0002266406954731,0.0906038731336593,0,0,0
13361,446534.3831545294,2010-08-24 18:24:08,3181.6079581981244,7,36,-1.099568486213684,3.466310739517212,39.49974322752684,39.349500369099566,156.81440815545122,144.59723326676345,-0.0002913951757363,0.0906038731336593,0,0,0
13362,446564.3983694855,2010-08-24 18:24:38,3211.6231731542466,7,36,-1.0997490882873535,3.4548168182373047,39.49974322752684,39.35866826744572,156.81440815545122,144.6289613585072,-0.0003237724304199,0.0906038731336593,0,0,0
13363,446594.4134846028,2010-08-24 18:25:08,3241.6382882865755,7,36,-1.099568486213684,3.440894603729248,39.49974322752684,39.367836218640974,156.81440815545122,144.66057291393886,-0.0004209041653666,0.0906038731336593,0,0,0
13364,446624.42865290766,2010-08-24 18:25:38,3271.653456586416,7,36,-1.099568486213684,3.4227635860443115,39.49974322752684,39.37700415980701,156.81440815545122,144.69203833939196,-0.0005180359003134,0.0906038731336593,0,0,0
13365,446654.4440499024,2010-08-24 18:26:08,3301.6688535962708,7,36,-1.099568486213684,3.3984806537628174,39.49974322752684,39.38617214336436,156.81440815545122,144.7233129593177,-0.0007770538213662,0.0906038731336593,0,0,0
13366,446684.4590549504,2010-08-24 18:26:38,3331.6838587294487,7,36,-1.0997490882873535,3.3654558658599854,39.49974322752684,39.39534006632943,156.81440815545122,144.75432824524466,-0.0010360718006268,0.0906038731336593,0,0,0
13367,446714.4743413195,2010-08-24 18:27:08,3361.6991450183536,7,36,-1.099568486213684,3.317861557006836,39.49974322752684,39.40450808087138,156.81440815545122,144.78497851278308,-0.0014569759368896,0.0906038731336593,0,0,0
13368,446744.4893556005,2010-08-24 18:27:38,3391.7141592592307,7,36,-1.099568486213684,3.247926950454712,39.49974322752684,39.41367599532905,156.81440815545122,144.81509634769128,-0.0021368979942053,0.0906038731336593,0,0,0
13369,446774.50451933895,2010-08-24 18:28:08,3421.7293230127398,7,36,-1.099568486213684,3.139787197113037,39.49974322752684,39.42284400120924,156.81440815545122,144.84441583105686,-0.0035291195381432,0.0906038731336593,0,0,0
13370,446804.5196774735,2010-08-24 18:28:38,3451.744481147244,7,36,-1.0997490882873535,2.943258047103882,39.49974322752684,39.43201203851015,156.81440815545122,144.87242077461255,-0.0074790953658521,0.0906038731336593,0,0,0
13371,446819.6914623648,2010-08-24 18:28:54,3466.9162660334214,7,36,-1.0993878841400146,2.7430052757263184,39.49974322752684,39.436646153602126,156.81440815545122,144.88563257801184,-0.0123356822878122,0.0906038731336593,0,0,0
13372,446822.3475608945,2010-08-24 18:28:56,3469.5723645682315,7,36,-1.0997490882873535,2.699781894683838,39.49974322752684,39.43745743892987,156.81440815545122,144.88784054554293,-0.0128860948607325,0.0906038731336593,0,0,0
13373,446882.3665540735,2010-08-24 18:29:56,60.01470730165953,8,36,0.0,3.43037223815918,39.49974322752684,39.43745743892987,156.81440815545122,144.88784054554293,0.0012303352123126,0.0906038731336593,0,0,0
13374,446882.55942670687,2010-08-24 18:29:57,0.187647264721305,9,36,-1.9243103452026844e-05,3.4305341243743896,39.49974322752684,39.4374574399329,156.81440815545122,144.8878405489839,0.0,0.0865590572357177,0,0,0
13375,446887.387341877,2010-08-24 18:30:02,5.015562449875073,9,36,0.0005225847125984,3.437656879425049,39.49974416627124,39.43745744001604,156.81441137973206,144.8878405492691,0.0010360718006268,0.0865590572357177,0,0,0
