Data_Point,Test_Time(s),Date_Time,Step_Time(s),Step_Index,Cycle_Index,Current(A),Voltage(V),Charge_Capacity(Ah),Discharge_Capacity(Ah),Charge_Energy(Wh),Discharge_Energy(Wh),dV/dt(V/s),Internal_Resistance(Ohm),Is_FC_Data,AC_Impedance(Ohm),ACI_Phase_Angle(Deg)
2277,76850.33368703672,2010-08-20 11:42:08,30.015166866266696,1,7,0.0,3.372902631759644,6.765709906183314,6.738121697688574,26.874936545383708,24.70446722322287,0.0007770538213662,0.0860607847571373,0,0,0
2278,76880.34887700055,2010-08-20 11:42:38,60.0303568551621,1,7,0.0,3.3968617916107178,6.765709906183314,6.738121697688574,26.874936545383708,24.70446722322287,0.0005827903514727,0.0860607847571373,0,0,0
2279,76910.36670727986,2010-08-20 11:43:08,90.04818712946113,1,7,0.0,3.4153168201446533,6.765709906183314,6.738121697688574,26.874936545383708,24.70446722322287,0.0004532813909463,0.0860607847571373,0,0,0
2280,76940.33235718461,2010-08-20 11:43:38,120.0138370141738,1,7,0.0,3.43004846572876,6.765709906183314,6.738121697688574,26.874936545383708,24.70446722322287,0.0003561496851034,0.0860607847571373,0,0,0
2281,76970.34572613274,2010-08-20 11:44:08,30.01517949273574,2,7,0.5501165986061096,3.568784475326538,6.770296539625228,6.738121697688574,26.891153235444666,24.70446722322287,0.0014893531333655,0.0860607847571373,0,0,0
2282,77000.36092128952,2010-08-20 11:44:38,60.03037463447362,2,7,0.5501165986061096,3.615083694458008,6.774883038503103,6.738121697688574,26.90763329735397,24.70446722322287,0.0010684489971026,0.0860607847571373,0,0,0
2283,77030.376225463,2010-08-20 11:45:08,90.0456788229896,2,7,0.5499359965324402,3.650213003158569,6.779469656515095,6.738121697688574,26.92429786020834,24.70446722322287,0.0008741855854168,0.0860607847571373,0,0,0
2284,77060.39126775377,2010-08-20 11:45:38,120.0607210887134,2,7,0.550297200679779,3.678704738616944,6.784056249132859,6.738121697688574,26.941107331272487,24.70446722322287,0.0007122993702068,0.0860607847571373,0,0,0
2285,77090.40656216293,2010-08-20 11:46:09,150.07601551790617,2,7,0.550297200679779,3.7029876708984375,6.788642824106662,6.738121697688574,26.95803678352089,24.70446722322287,0.0006475448608398,0.0860607847571373,0,0,0
2286,77120.42190642633,2010-08-20 11:46:39,180.0913597562386,2,7,0.5501165986061096,3.7233853340148926,6.793229450724431,6.738121697688574,26.975068639082053,24.70446722322287,0.0005180359003134,0.0860607847571373,0,0,0
2287,77150.4369202311,2010-08-20 11:47:09,210.10637356604155,2,7,0.5499359965324402,3.740059614181519,6.797816001926298,6.738121697688574,26.992185719385667,24.70446722322287,0.0004209041653666,0.0860607847571373,0,0,0
2288,77180.4519871533,2010-08-20 11:47:39,240.12144048320428,2,7,0.5501165986061096,3.751715421676636,6.802402543936814,6.738121697688574,27.00936883329263,24.70446722322287,0.0001942634553415,0.0860607847571373,0,0,0
2289,77210.46715460601,2010-08-20 11:48:09,270.1366079609951,2,7,0.5501165986061096,3.758028745651245,6.806989164490039,6.738121697688574,27.02659308762231,24.70446722322287,9.713172767078504e-05,0.0860607847571373,0,0,0
2290,77240.48236935661,2010-08-20 11:48:39,300.15182269155434,2,7,0.5501165986061096,3.7614283561706543,6.811575796457396,6.738121697688574,27.04383833320487,24.70446722322287,3.237724376958795e-05,0.0860607847571373,0,0,0
2291,77270.49754579175,2010-08-20 11:49:09,330.16699914170704,2,7,0.5499359965324402,3.763856649398804,6.816162333352008,6.738121697688574,27.06109618046889,24.70446722322287,3.237724376958795e-05,0.0860607847571373,0,0,0
2292,77300.51282249676,2010-08-20 11:49:39,360.1822758367007,2,7,0.5501165986061096,3.766284942626953,6.820748929861193,6.738121697688574,27.078365261267667,24.70446722322287,6.47544875391759e-05,0.0860607847571373,0,0,0
2293,77330.52787782003,2010-08-20 11:50:09,390.1973311800179,2,7,0.5501165986061096,3.768713235855103,6.825335482008364,6.738121697688574,27.095644656489444,24.70446722322287,9.713172767078504e-05,0.0860607847571373,0,0,0
2294,77360.54320525649,2010-08-20 11:50:39,420.2126586114624,2,7,0.5501165986061096,3.770817756652832,6.829922043629973,6.738121697688574,27.112934676909447,24.70446722322287,3.237724376958795e-05,0.0860607847571373,0,0,0
2295,77390.5583725839,2010-08-20 11:51:09,450.227825933866,2,7,0.5501165986061096,3.773246049880981,6.834508573774076,6.738121697688574,27.13023536423117,24.70446722322287,6.47544875391759e-05,0.0860607847571373,0,0,0
2296,77420.57342748111,2010-08-20 11:51:39,480.2428808160337,2,7,0.5499359965324402,3.775674343109131,6.839095079828268,6.738121697688574,27.147547046182016,24.70446722322287,6.47544875391759e-05,0.0860607847571373,0,0,0
2297,77450.58862881831,2010-08-20 11:52:09,510.2580821682501,2,7,0.550297200679779,3.77826452255249,6.843681545228463,6.738121697688574,27.164869958587097,24.70446722322287,6.47544875391759e-05,0.0860607847571373,0,0,0
2298,77480.60378433125,2010-08-20 11:52:39,540.2732376661834,2,7,0.5501165986061096,3.78069281578064,6.848268128853841,6.738121697688574,27.18220499136442,24.70446722322287,3.237724376958795e-05,0.0860607847571373,0,0,0
2299,77510.6189528767,2010-08-20 11:53:09,570.288406231685,2,7,0.5501165986061096,3.783444881439209,6.852854687631333,6.738121697688574,27.199551474019675,24.70446722322287,6.47544875391759e-05,0.0860607847571373,0,0,0
2300,77540.6341309158,2010-08-20 11:53:39,600.3035842758105,2,7,0.5499359965324402,3.7858731746673584,6.857441248491991,6.738121697688574,27.21690980743133,24.70446722322287,6.47544875391759e-05,0.0860607847571373,0,0,0
2301,77570.64938354082,2010-08-20 11:54:09,630.3188368857768,2,7,0.5501165986061096,3.7884633541107178,6.862027796222995,6.738121697688574,27.234280003841803,24.70446722322287,3.237724376958795e-05,0.0860607847571373,0,0,0
2302,77600.664705659,2010-08-20 11:54:39,660.3341589889417,2,7,0.5501165986061096,3.791215419769287,6.866614406747643,6.738121697688574,27.25166258695564,24.70446722322287,6.47544875391759e-05,0.0860607847571373,0,0,0
2303,77630.67966861709,2010-08-20 11:55:09,690.3491219770813,2,7,0.5499359965324402,3.7938055992126474,6.871200919972045,6.738121697688574,27.269057068932508,24.70446722322287,6.47544875391759e-05,0.0860607847571373,0,0,0
2304,77660.69486381898,2010-08-20 11:55:39,720.3643171789691,2,7,0.5501165986061096,3.796557664871216,6.875787513190786,6.738121697688574,27.286464430405186,24.70446722322287,3.237724376958795e-05,0.0860607847571373,0,0,0
2305,77690.71002866521,2010-08-20 11:56:09,750.3794819951263,2,7,0.5501165986061096,3.799471616744995,6.880374120195279,6.738121697688574,27.30388474312628,24.70446722322287,6.47544875391759e-05,0.0860607847571373,0,0,0
2306,77720.72575644444,2010-08-20 11:56:39,780.3952097893982,2,7,0.5499359965324402,3.8023855686187744,6.884960819481433,6.738121697688574,27.32131876700311,24.70446722322287,6.47544875391759e-05,0.0860607847571373,0,0,0
2307,77750.7404160665,2010-08-20 11:57:09,810.4098694014313,2,7,0.5501165986061096,3.8056232929229736,6.889547319217925,6.738121697688574,27.338765942564265,24.70446722322287,9.713172767078504e-05,0.0860607847571373,0,0,0
2308,77780.75555854199,2010-08-20 11:57:39,840.4250118718961,2,7,0.5501165986061096,3.809022903442383,6.894133976716887,6.738121697688574,27.35622830460588,24.70446722322287,0.0001295089750783,0.0860607847571373,0,0,0
2309,77810.77073977405,2010-08-20 11:58:09,870.4401931290292,2,7,0.5501165986061096,3.811936855316162,6.898720642157437,6.738121697688574,27.37370574218665,24.70446722322287,3.237724376958795e-05,0.0860607847571373,0,0,0
2310,77840.78592728177,2010-08-20 11:58:39,900.4553806417533,2,7,0.5499359965324402,3.815660238265991,6.903307206921637,6.738121697688574,27.39119851054267,24.70446722322287,9.713172767078504e-05,0.0860607847571373,0,0,0
2311,77870.8010851055,2010-08-20 11:59:09,930.4705384604708,2,7,0.550297200679779,3.8192217350006095,6.907893792356722,6.738121697688574,27.40870719072017,24.70446722322287,0.0001295089750783,0.0860607847571373,0,0,0
2312,77900.81623709468,2010-08-20 11:59:39,960.4856904546716,2,7,0.5501165986061096,3.82262134552002,6.912480331910737,6.738121697688574,27.426231545822365,24.70446722322287,6.47544875391759e-05,0.0860607847571373,0,0,0
2313,77930.83142198586,2010-08-20 12:00:09,990.5008753408496,2,7,0.550297200679779,3.8260209560394287,6.917066868379559,6.738121697688574,27.44377167942193,24.70446722322287,9.713172767078504e-05,0.0860607847571373,0,0,0
2314,77960.84660649611,2010-08-20 12:00:39,1020.5160598510904,2,7,0.5499359965324402,3.829258680343628,6.921653421934941,6.738121697688574,27.46132758343421,24.70446722322287,9.713172767078504e-05,0.0860607847571373,0,0,0
2315,77990.86189131635,2010-08-20 12:01:09,1050.5313446613095,2,7,0.5499359965324402,3.832658290863037,6.926240099024803,6.738121697688574,27.47889940038037,24.70446722322287,6.47544875391759e-05,0.0860607847571373,0,0,0
2316,78020.87696105054,2010-08-20 12:01:39,1080.546414380456,2,7,0.5501165986061096,3.835895776748657,6.930826807674187,6.738121697688574,27.49648630037258,24.70446722322287,9.713172767078504e-05,0.0860607847571373,0,0,0
2317,78050.89211641814,2010-08-20 12:02:09,1110.5615697781395,2,7,0.5501165986061096,3.8389716148376474,6.93541351245504,6.738121697688574,27.51408791246143,24.70446722322287,6.47544875391759e-05,0.0860607847571373,0,0,0
2318,78080.90732787555,2010-08-20 12:02:39,1140.5767812305285,2,7,0.5499359965324402,3.8422093391418457,6.940000214007038,6.738121697688574,27.53170390319976,24.70446722322287,9.713172767078504e-05,0.0860607847571373,0,0,0
2319,78110.92247650136,2010-08-20 12:03:09,1170.5919298463093,2,7,0.5501165986061096,3.845123291015625,6.944586896856968,6.738121697688574,27.54933395384798,24.70446722322287,6.47544875391759e-05,0.0860607847571373,0,0,0
2320,78140.93766071084,2010-08-20 12:03:39,1200.6071140708382,2,7,0.5501165986061096,3.848361015319824,6.949173543954997,6.738121697688574,27.56697791778013,24.70446722322287,6.47544875391759e-05,0.0860607847571373,0,0,0
2321,78170.95283325127,2010-08-20 12:04:09,1230.6222866112464,2,7,0.5501165986061096,3.851274967193604,6.953760245469131,6.738121697688574,27.584636020253715,24.70446722322287,6.47544875391759e-05,0.0860607847571373,0,0,0
2322,78200.96802356596,2010-08-20 12:04:39,1260.637476895879,2,7,0.5501165986061096,3.8543508052825928,6.958347018377084,6.738121697688574,27.602308130076832,24.70446722322287,9.713172767078504e-05,0.0860607847571373,0,0,0
2323,78230.98332477204,2010-08-20 12:05:09,1290.6527781019618,2,7,0.550297200679779,3.857426643371582,6.962933689105275,6.738121697688574,27.61999330230119,24.70446722322287,9.713172767078504e-05,0.0860607847571373,0,0,0
2324,78260.99858216893,2010-08-20 12:05:39,1320.6680355088836,2,7,0.5499359965324402,3.860016822814941,6.967520389161245,6.738121697688574,27.63769165907715,24.70446722322287,6.47544875391759e-05,0.0860607847571373,0,0,0
2325,78291.0137022486,2010-08-20 12:06:09,1350.683155603581,2,7,0.5499359965324402,3.862768888473511,6.972107093166855,6.738121697688574,27.655402632463527,24.70446722322287,9.713172767078504e-05,0.0860607847571373,0,0,0
2326,78321.02874919097,2010-08-20 12:06:39,1380.6982025259108,2,7,0.5501165986061096,3.86519718170166,6.976694531856717,6.738121697688574,27.67312844053241,24.70446722322287,3.237724376958795e-05,0.0860607847571373,0,0,0
2327,78351.04403725933,2010-08-20 12:07:09,1410.7134905892378,2,7,0.550297200679779,3.8676254749298096,6.981282073615561,6.738121697688574,27.69086600000424,24.70446722322287,6.47544875391759e-05,0.0860607847571373,0,0,0
2328,78381.05910539953,2010-08-20 12:07:39,1440.7285587294489,2,7,0.5501165986061096,3.869891881942749,6.985868827321558,6.738121697688574,27.70861101523071,24.70446722322287,6.47544875391759e-05,0.0860607847571373,0,0,0
2329,78411.07429022556,2010-08-20 12:08:09,1470.7437435604893,2,7,0.5499359965324402,3.871834516525269,6.990455426360386,6.738121697688574,27.726365145623426,24.70446722322287,6.47544875391759e-05,0.0860607847571373,0,0,0
2330,78441.08948423446,2010-08-20 12:08:39,1500.7589375694038,2,7,0.5501165986061096,3.873777151107788,6.995042090222472,6.738121697688574,27.744128394781136,24.70446722322287,6.47544875391759e-05,0.0860607847571373,0,0,0
2331,78471.10464275494,2010-08-20 12:09:09,1530.7740960848575,2,7,0.550297200679779,3.875396013259888,6.999628786696643,6.738121697688574,27.76189958087109,24.70446722322287,6.47544875391759e-05,0.0860607847571373,0,0,0
2332,78501.12001041668,2010-08-20 12:09:39,1560.7894637565937,2,7,0.550297200679779,3.876852989196777,7.00421545674167,6.738121697688574,27.77967779209198,24.70446722322287,6.47544875391759e-05,0.0860607847571373,0,0,0
2333,78531.13501185061,2010-08-20 12:10:09,1590.804465180527,2,7,0.5497553944587708,3.877986192703247,7.008802066673778,6.738121697688574,27.79746218291209,24.70446722322287,3.237724376958795e-05,0.0860607847571373,0,0,0
2334,78561.15040475523,2010-08-20 12:10:39,1620.8198581152255,2,7,0.5499359965324402,3.879281282424927,7.013388738374431,6.738121697688574,27.815252627826947,24.70446722322287,3.237724376958795e-05,0.0860607847571373,0,0,0
2335,78591.16536730227,2010-08-20 12:11:09,1650.8348206372036,2,7,0.550297200679779,3.880414485931397,7.017975391106241,6.738121697688574,27.833048189921385,24.70446722322287,0.0,0.0860607847571373,0,0,0
2336,78621.18054235395,2010-08-20 12:11:39,1680.8499956888709,2,7,0.5501165986061096,3.881385803222656,7.022562063592512,6.738121697688574,27.85084873419001,24.70446722322287,0.0,0.0860607847571373,0,0,0
2337,78651.19571931536,2010-08-20 12:12:09,1710.8651726553103,2,7,0.5501165986061096,3.882357120513916,7.027148811274774,6.738121697688574,27.86865416091017,24.70446722322287,-3.237724376958795e-05,0.0860607847571373,0,0,0
2338,78681.213600677,2010-08-20 12:12:39,1740.8830540069096,2,7,0.550297200679779,3.883328437805176,7.03173593429772,6.738121697688574,27.88646543334143,24.70446722322287,0.0,0.0860607847571373,0,0,0
2339,78711.22613664626,2010-08-20 12:13:09,1770.8955899962211,2,7,0.5499359965324402,3.8841378688812256,7.036322265156566,6.738121697688574,27.904277843771624,24.70446722322287,0.0,0.0860607847571373,0,0,0
2340,78741.24128608909,2010-08-20 12:13:39,1800.9107394190137,2,7,0.550297200679779,3.885109186172485,7.040909024854524,6.738121697688574,27.92209576995608,24.70446722322287,3.237724376958795e-05,0.0860607847571373,0,0,0
2341,78771.2564511659,2010-08-20 12:14:09,1830.925904525896,2,7,0.5501165986061096,3.885918617248535,7.045495668812166,6.738121697688574,27.939917251795837,24.70446722322287,6.47544875391759e-05,0.0860607847571373,0,0,0
2342,78801.27163787161,2010-08-20 12:14:39,1860.941091201533,2,7,0.5499359965324402,3.886728048324585,7.050082335359708,6.738121697688574,27.957742693044896,24.70446722322287,0.0,0.0860607847571373,0,0,0
2343,78831.28685550942,2010-08-20 12:15:09,1890.9563089596377,2,7,0.5501165986061096,3.8876993656158447,7.054668989937483,6.738121697688574,27.97557179171184,24.70446722322287,3.237724376958795e-05,0.0860607847571373,0,0,0
2344,78861.3020215837,2010-08-20 12:15:39,1920.971474918644,2,7,0.5501165986061096,3.8885087966918954,7.059255675981603,6.738121697688574,27.993404810003028,24.70446722322287,3.237724376958795e-05,0.0860607847571373,0,0,0
2345,78891.3171537134,2010-08-20 12:16:09,1950.9866070433231,2,7,0.550297200679779,3.889318227767944,7.063842390922326,6.738121697688574,28.011241689349216,24.70446722322287,3.237724376958795e-05,0.0860607847571373,0,0,0
2346,78921.33236049916,2010-08-20 12:16:39,1981.001813854144,2,7,0.5501165986061096,3.889965772628784,7.068429093992701,6.738121697688574,28.02908209915757,24.70446722322287,3.237724376958795e-05,0.0860607847571373,0,0,0
2347,78951.3475080924,2010-08-20 12:17:09,2011.016961422314,2,7,0.5501165986061096,3.890775203704834,7.07301579649379,6.738121697688574,28.04692618966975,24.70446722322287,0.0,0.0860607847571373,0,0,0
2348,78981.36269048737,2010-08-20 12:17:39,2041.0321438122703,2,7,0.5501165986061096,3.8917465209960938,7.077602489215585,6.738121697688574,28.06477386761881,24.70446722322287,6.47544875391759e-05,0.0860607847571373,0,0,0
2349,79011.37786660167,2010-08-20 12:18:10,2071.047319936611,2,7,0.5499359965324402,3.892232179641724,7.082189165738583,6.738121697688574,28.08262514998604,24.70446722322287,-3.237724376958795e-05,0.0860607847571373,0,0,0
2350,79041.39332962607,2010-08-20 12:18:40,2101.0627829609957,2,7,0.5501165986061096,3.893203496932984,7.086775977748647,6.738121697688574,28.10048060947322,24.70446722322287,3.237724376958795e-05,0.0860607847571373,0,0,0
2351,79071.40835164633,2010-08-20 12:19:10,2131.077804981261,2,7,0.550297200679779,3.894012928009033,7.091362721443759,6.738121697688574,28.118339519428428,24.70446722322287,3.237724376958795e-05,0.0860607847571373,0,0,0
2352,79101.42339523535,2010-08-20 12:19:40,2161.092848575295,2,7,0.5501165986061096,3.894822359085083,7.095949474761909,6.738121697688574,28.1362022041385,24.70446722322287,3.237724376958795e-05,0.0860607847571373,0,0,0
2353,79131.4385972041,2010-08-20 12:20:10,2191.1080505340237,2,7,0.5499359965324402,3.895469903945923,7.100536237500084,6.738121697688574,28.154068013198827,24.70446722322287,3.237724376958795e-05,0.0860607847571373,0,0,0
2354,79161.4537676944,2010-08-20 12:20:40,2221.1232210243224,2,7,0.5501165986061096,3.896441221237183,7.10512294673006,6.738121697688574,28.171937682574065,24.70446722322287,3.237724376958795e-05,0.0860607847571373,0,0,0
2355,79191.46893544789,2010-08-20 12:21:10,2251.138388782813,2,7,0.550297200679779,3.897250652313232,7.109709670906892,6.738121697688574,28.189811263866915,24.70446722322287,0.0,0.0860607847571373,0,0,0
2356,79221.48411736668,2010-08-20 12:21:40,2281.153570701595,2,7,0.5501165986061096,3.898060083389282,7.114296407869799,6.738121697688574,28.207688737888887,24.70446722322287,0.0,0.0860607847571373,0,0,0
2357,79251.49942183589,2010-08-20 12:22:10,2311.168875185848,2,7,0.5501165986061096,3.899031400680542,7.118883081116582,6.738121697688574,28.22556993006288,24.70446722322287,3.237724376958795e-05,0.0860607847571373,0,0,0
2358,79281.51464462653,2010-08-20 12:22:40,2341.184097976495,2,7,0.5501165986061096,3.899840831756592,7.123469790324728,6.738121697688574,28.24345531408343,24.70446722322287,3.237724376958795e-05,0.0860607847571373,0,0,0
2359,79311.52977323243,2010-08-20 12:23:10,2371.19922657238,2,7,0.5501165986061096,3.9006502628326416,7.128056467021507,6.738121697688574,28.26134454909135,24.70446722322287,3.237724376958795e-05,0.0860607847571373,0,0,0
2360,79341.54485202419,2010-08-20 12:23:40,2401.214305359126,2,7,0.5501165986061096,3.9014596939086914,7.132643080440953,6.738121697688574,28.27923774252193,24.70446722322287,-3.237724376958795e-05,0.0860607847571373,0,0,0
2361,79371.56000373268,2010-08-20 12:24:10,2431.229457072627,2,7,0.5501165986061096,3.902592897415161,7.137229746159427,6.738121697688574,28.297135374947526,24.70446722322287,3.237724376958795e-05,0.0860607847571373,0,0,0
2362,79401.57519864386,2010-08-20 12:24:40,2461.244651973765,2,7,0.5499359965324402,3.903564214706421,7.141816462520477,6.738121697688574,28.31503748680394,24.70446722322287,3.237724376958795e-05,0.0860607847571373,0,0,0
2363,79431.59037437722,2010-08-20 12:25:10,2491.2598277071315,2,7,0.5501165986061096,3.9045355319976807,7.146403127170246,6.738121697688574,28.332943799903045,24.70446722322287,6.47544875391759e-05,0.0860607847571373,0,0,0
2364,79461.60553979488,2010-08-20 12:25:40,2521.2749931298004,2,7,0.5501165986061096,3.9053449630737305,7.150989814871545,6.738121697688574,28.350854625613827,24.70446722322287,0.0,0.0860607847571373,0,0,0
2365,79491.62072556827,2010-08-20 12:26:10,2551.290178898177,2,7,0.5501165986061096,3.9063162803649902,7.155576469355807,6.738121697688574,28.368769792094724,24.70446722322287,0.0,0.0860607847571373,0,0,0
2366,79521.63612727984,2010-08-20 12:26:40,2581.3055806097505,2,7,0.5501165986061096,3.90744948387146,7.160163220778895,6.738121697688574,28.386689982985352,24.70446722322287,0.0,0.0860607847571373,0,0,0
2367,79551.65110108994,2010-08-20 12:27:10,2611.3205544198618,2,7,0.5501165986061096,3.9085826873779297,7.164749914605843,6.738121697688574,28.404614605224992,24.70446722322287,6.47544875391759e-05,0.0860607847571373,0,0,0
2368,79581.6662564776,2010-08-20 12:27:40,2641.3357098125325,2,7,0.5501165986061096,3.9095540046691895,7.169336596263983,6.738121697688574,28.422543956707457,24.70446722322287,6.47544875391759e-05,0.0860607847571373,0,0,0
2369,79611.6814296947,2010-08-20 12:28:10,2671.350883029628,2,7,0.550297200679779,3.910525321960449,7.17392322447108,6.738121697688574,28.440477906881284,24.70446722322287,0.0,0.0860607847571373,0,0,0
2370,79641.69663869096,2010-08-20 12:28:40,2701.3660920208827,2,7,0.5501165986061096,3.911658525466919,7.17850986730855,6.738121697688574,28.45841681916049,24.70446722322287,0.0,0.0860607847571373,0,0,0
2371,79671.71188108047,2010-08-20 12:29:10,2731.381334415389,2,7,0.5499359965324402,3.9127917289733887,7.183096513770336,6.738121697688574,28.47636080151942,24.70446722322287,3.237724376958795e-05,0.0860607847571373,0,0,0
2372,79701.72711996622,2010-08-20 12:29:40,2761.3965732961383,2,7,0.550297200679779,3.914086580276489,7.187683213285553,6.738121697688574,28.49431008300048,24.70446722322287,3.237724376958795e-05,0.0860607847571373,0,0,0
2373,79731.74227738394,2010-08-20 12:30:10,2791.411730713856,2,7,0.5501165986061096,3.915057897567749,7.192269866774516,6.738121697688574,28.512264402807084,24.70446722322287,0.0,0.0860607847571373,0,0,0
2374,79761.75735772957,2010-08-20 12:30:40,2821.4268110845496,2,7,0.5499359965324402,3.9161911010742183,7.196856508601165,6.738121697688574,28.5302238418385,24.70446722322287,6.47544875391759e-05,0.0860607847571373,0,0,0
2375,79791.77251001449,2010-08-20 12:31:10,2851.441963349425,2,7,0.5499359965324402,3.917324304580689,7.20144308560096,6.738121697688574,28.54818849379607,24.70446722322287,3.237724376958795e-05,0.0860607847571373,0,0,0
2376,79821.78768396842,2010-08-20 12:31:40,2881.457137298344,2,7,0.550297200679779,3.918619394302368,7.20602972517437,6.738121697688574,28.56615887558076,24.70446722322287,3.237724376958795e-05,0.0860607847571373,0,0,0
2377,79851.80286490978,2010-08-20 12:32:10,2911.4723182396897,2,7,0.5501165986061096,3.919914484024048,7.210616288643396,6.738121697688574,28.58413455111504,24.70446722322287,3.237724376958795e-05,0.0860607847571373,0,0,0
2378,79881.81805268314,2010-08-20 12:32:40,2941.4875060130635,2,7,0.5501165986061096,3.9210476875305176,7.215202991047105,6.738121697688574,28.602116428551955,24.70446722322287,3.237724376958795e-05,0.0860607847571373,0,0,0
2379,79911.83337705697,2010-08-20 12:33:10,2971.5028303969125,2,7,0.5501165986061096,3.922342777252197,7.219789615511991,6.738121697688574,28.620103766737948,24.70446722322287,0.0,0.0860607847571373,0,0,0
2380,79941.84841715229,2010-08-20 12:33:40,3001.5178704872146,2,7,0.550297200679779,3.923637866973877,7.224376205888441,6.738121697688574,28.638096836670268,24.70446722322287,3.237724376958795e-05,0.0860607847571373,0,0,0
2381,79971.86360926648,2010-08-20 12:34:10,3031.5330625963943,2,7,0.5501165986061096,3.9249329566955566,7.228962945232076,6.738121697688574,28.65609644389228,24.70446722322287,3.237724376958795e-05,0.0860607847571373,0,0,0
2382,80001.8787815663,2010-08-20 12:34:40,3061.548234896203,2,7,0.5501165986061096,3.926228046417236,7.233549646165682,6.738121697688574,28.674101892163872,24.70446722322287,3.237724376958795e-05,0.0860607847571373,0,0,0
2383,80031.89393610183,2010-08-20 12:35:10,3091.563389431737,2,7,0.5501165986061096,3.927685022354126,7.238136365345113,6.738121697688574,28.692113496951965,24.70446722322287,6.47544875391759e-05,0.0860607847571373,0,0,0
2384,80061.90910713347,2010-08-20 12:35:40,3121.578560473411,2,7,0.550297200679779,3.929141998291016,7.242723063724524,6.738121697688574,28.71013129452642,24.70446722322287,6.47544875391759e-05,0.0860607847571373,0,0,0
2385,80091.92428754349,2010-08-20 12:36:10,3151.5937408834325,2,7,0.5499359965324402,3.930275201797485,7.247309715696254,6.738121697688574,28.728155264888056,24.70446722322287,6.47544875391759e-05,0.0860607847571373,0,0,0
2386,80121.93948475538,2010-08-20 12:36:40,3181.608938090317,2,7,0.550297200679779,3.931732177734375,7.251896394390522,6.738121697688574,28.74618572472152,24.70446722322287,3.237724376958795e-05,0.0860607847571373,0,0,0
2387,80151.95465536097,2010-08-20 12:37:10,3211.624108690891,2,7,0.5501165986061096,3.933027267456055,7.25648304147555,6.738121697688574,28.76422257736965,24.70446722322287,0.0,0.0860607847571373,0,0,0
2388,80181.96995791541,2010-08-20 12:37:40,3241.6394112754097,2,7,0.550297200679779,3.9346461296081534,7.26106974753816,6.738121697688574,28.782266236446432,24.70446722322287,3.237724376958795e-05,0.0860607847571373,0,0,0
2389,80211.98500812595,2010-08-20 12:38:10,3271.6544614558597,2,7,0.5501165986061096,3.936264991760254,7.265656417358143,6.738121697688574,28.8003164453312,24.70446722322287,6.47544875391759e-05,0.0860607847571373,0,0,0
2390,80242.00032375297,2010-08-20 12:38:40,3301.6697770929086,2,7,0.550297200679779,3.9375600814819336,7.27024314809549,6.738121697688574,28.818373471528883,24.70446722322287,3.237724376958795e-05,0.0860607847571373,0,0,0
2391,80272.01548920569,2010-08-20 12:39:10,3331.6849425456526,2,7,0.5501165986061096,3.939178943634033,7.274829882444803,6.738121697688574,28.83643745585298,24.70446722322287,6.47544875391759e-05,0.0860607847571373,0,0,0
2392,80302.03054018314,2010-08-20 12:39:40,3361.699993518076,2,7,0.5501165986061096,3.940474033355713,7.279416579713263,6.738121697688574,28.85450827382419,24.70446722322287,3.237724376958795e-05,0.0860607847571373,0,0,0
2393,80332.04572288888,2010-08-20 12:40:10,3391.715176228832,2,7,0.5501165986061096,3.942092895507813,7.284003305283455,6.738121697688574,28.872586161692222,24.70446722322287,3.237724376958795e-05,0.0860607847571373,0,0,0
2394,80362.06090679763,2010-08-20 12:40:40,3421.730360157624,2,7,0.5501165986061096,3.943711757659912,7.288590027157121,6.738121697688574,28.890671109276564,24.70446722322287,6.47544875391759e-05,0.0860607847571373,0,0,0
2395,80392.0762414621,2010-08-20 12:41:10,3451.7456948170825,2,7,0.5501165986061096,3.9451687335968018,7.29317676918864,6.738121697688574,28.90876326536207,24.70446722322287,6.47544875391759e-05,0.0860607847571373,0,0,0
2396,80422.09125081079,2010-08-20 12:41:40,3481.7607041407045,2,7,0.550297200679779,3.946787595748901,7.29776345616311,6.738121697688574,28.9268624652737,24.70446722322287,3.237724376958795e-05,0.0860607847571373,0,0,0
2397,80452.10642948147,2010-08-20 12:42:10,3511.775882811391,2,7,0.550297200679779,3.948568344116211,7.302350121125699,6.738121697688574,28.944968774788418,24.70446722322287,6.47544875391759e-05,0.0860607847571373,0,0,0
2398,80482.1218076594,2010-08-20 12:42:40,3541.7912609943246,2,7,0.5501165986061096,3.9500253200531006,7.306936783155807,6.738121697688574,28.9630824750254,24.70446722322287,3.237724376958795e-05,0.0860607847571373,0,0,0
2399,80512.13680121873,2010-08-20 12:43:10,3571.806254548644,2,7,0.5499359965324402,3.9516441822052,7.311523452445901,6.738121697688574,28.981203769640867,24.70446722322287,3.237724376958795e-05,0.0860607847571373,0,0,0
2400,80542.15196704741,2010-08-20 12:43:40,3601.821420377325,2,7,0.5501165986061096,3.9534249305725098,7.316110144721689,6.738121697688574,28.99933269276157,24.70446722322287,3.237724376958795e-05,0.0860607847571373,0,0,0
2401,80572.16714265046,2010-08-20 12:44:10,3631.8365959803664,2,7,0.550297200679779,3.9552056789398193,7.320696832945843,6.738121697688574,29.01746928047968,24.70446722322287,0.0001295089750783,0.0860607847571373,0,0,0
2402,80602.18351172298,2010-08-20 12:44:40,3661.8529650529017,2,7,0.5501165986061096,3.956662654876709,7.325283763444899,6.738121697688574,29.03561462840217,24.70446722322287,3.237724376958795e-05,0.0860607847571373,0,0,0
2403,80632.19755665303,2010-08-20 12:45:10,3691.8670099779447,2,7,0.5501165986061096,3.9584434032440186,7.32987029966711,6.738121697688574,29.0537661273735,24.70446722322287,3.237724376958795e-05,0.0860607847571373,0,0,0
2404,80662.21270553449,2010-08-20 12:45:40,3721.882158864401,2,7,0.5501165986061096,3.960062265396118,7.334456996525829,6.738121697688574,29.071926290358057,24.70446722322287,0.0,0.0860607847571373,0,0,0
2405,80692.22788982416,2010-08-20 12:46:10,3751.897343154092,2,7,0.550297200679779,3.9620048999786377,7.339043654790553,6.738121697688574,29.090094399307024,24.70446722322287,3.237724376958795e-05,0.0860607847571373,0,0,0
2406,80722.24307107128,2010-08-20 12:46:40,3781.912524406213,2,7,0.550297200679779,3.964109420776367,7.343630356776849,6.738121697688574,29.108270819150867,24.70446722322287,0.0001295089750783,0.0860607847571373,0,0,0
2407,80752.25822882484,2010-08-20 12:47:10,3811.9276821597673,2,7,0.5501165986061096,3.965728282928467,7.348217036486126,6.738121697688574,29.126455481544784,24.70446722322287,9.713172767078504e-05,0.0860607847571373,0,0,0
2408,80782.27341107445,2010-08-20 12:47:40,3841.9428644043614,2,7,0.5501165986061096,3.9673471450805664,7.352803822761312,6.738121697688574,29.144649019840884,24.70446722322287,3.237724376958795e-05,0.0860607847571373,0,0,0
2409,80812.28860149943,2010-08-20 12:48:10,3871.9580548644312,2,7,0.550297200679779,3.969289779663086,7.357390600397489,6.738121697688574,29.162850859151764,24.70446722322287,3.237724376958795e-05,0.0860607847571373,0,0,0
2410,80842.30379436049,2010-08-20 12:48:40,3901.973247720473,2,7,0.5501165986061096,3.9712324142456055,7.361977364401503,6.738121697688574,29.181061238744185,24.70446722322287,6.47544875391759e-05,0.0860607847571373,0,0,0
2411,80872.31894252013,2010-08-20 12:49:10,3931.9883958550554,2,7,0.550297200679779,3.973175048828125,7.366564080315644,6.738121697688574,29.19928008871275,24.70446722322287,9.713172767078504e-05,0.0860607847571373,0,0,0
2412,80902.33424756577,2010-08-20 12:49:40,3962.0037009107314,2,7,0.5499359965324402,3.9747939109802246,7.371150741698654,6.738121697688574,29.21750738060747,24.70446722322287,3.237724376958795e-05,0.0860607847571373,0,0,0
2413,80932.34929589662,2010-08-20 12:50:11,3992.018749251596,2,7,0.550297200679779,3.976736545562744,7.375737418139462,6.738121697688574,29.235743419566745,24.70446722322287,3.237724376958795e-05,0.0860607847571373,0,0,0
2414,80962.36476877057,2010-08-20 12:50:41,4022.034222120515,2,7,0.5499359965324402,3.9788410663604736,7.380324142411564,6.738121697688574,29.253987960116827,24.70446722322287,0.0001618862152099,0.0860607847571373,0,0,0
2415,80992.37978644497,2010-08-20 12:51:11,4052.049239779913,2,7,0.5501165986061096,3.980783700942993,7.384910746978208,6.738121697688574,29.27224119560412,24.70446722322287,9.713172767078504e-05,0.0860607847571373,0,0,0
2416,81022.39488679045,2010-08-20 12:51:41,4082.0643401253888,2,7,0.5499359965324402,3.9824025630950928,7.389497390463666,6.738121697688574,29.29050342562636,24.70446722322287,0.0,0.0860607847571373,0,0,0
2417,81052.41001534625,2010-08-20 12:52:11,4112.079468676162,2,7,0.5501165986061096,3.984668970108032,7.394083992542866,6.738121697688574,29.30877421562432,24.70446722322287,9.713172767078504e-05,0.0860607847571373,0,0,0
2418,81082.42521023235,2010-08-20 12:52:41,4142.094663562263,2,7,0.5499359965324402,3.986287832260132,7.398670664467966,6.738121697688574,29.327054139720836,24.70446722322287,0.0,0.0860607847571373,0,0,0
2419,81112.44040055206,2010-08-20 12:53:11,4172.109853912058,2,7,0.550297200679779,3.9882304668426514,7.40325730945184,6.738121697688574,29.34534273141352,24.70446722322287,3.237724376958795e-05,0.0860607847571373,0,0,0
2420,81142.4555621502,2010-08-20 12:53:41,4202.125015485132,2,7,0.5499359965324402,3.990173101425171,7.407844003633066,6.738121697688574,29.363640331362667,24.70446722322287,3.237724376958795e-05,0.0860607847571373,0,0,0
2421,81172.47089447886,2010-08-20 12:54:11,4232.140347813783,2,7,0.5501165986061096,3.9921157360076895,7.412430598597544,6.738121697688574,29.381946398467765,24.70446722322287,3.237724376958795e-05,0.0860607847571373,0,0,0
2422,81202.4860704428,2010-08-20 12:54:41,4262.155523782736,2,7,0.5499359965324402,3.994058132171631,7.417017213664398,6.738121697688574,29.400261445468416,24.70446722322287,3.23295607813634e-05,0.0860607847571373,0,0,0
2423,81232.50124974505,2010-08-20 12:55:11,4292.170703074971,2,7,0.5499359965324402,3.9960007667541504,7.42160382897132,6.738121697688574,29.41858545175767,24.70446722322287,3.237724376958795e-05,0.0860607847571373,0,0,0
2424,81262.51627365503,2010-08-20 12:55:41,4322.185726984947,2,7,0.5501165986061096,3.99810528755188,7.426190528931051,6.738121697688574,29.43691884525593,24.70446722322287,6.47544875391759e-05,0.0860607847571373,0,0,0
2425,81292.53144551875,2010-08-20 12:56:11,4352.200898858694,2,7,0.5501165986061096,4.000209808349609,7.430777117997717,6.738121697688574,29.455260711646226,24.70446722322287,6.47544875391759e-05,0.0860607847571373,0,0,0
2426,81322.54664567298,2010-08-20 12:56:41,4382.216099012924,2,7,0.5501165986061096,4.001990795135498,7.435363763254556,6.738121697688574,29.473612044385497,24.70446722322287,3.24249267578125e-05,0.0860607847571373,0,0,0
2427,81352.56194007711,2010-08-20 12:57:11,4412.231393417055,2,7,0.550297200679779,4.004095077514648,7.439950436360722,6.738121697688574,29.49197273070246,24.70446722322287,6.47544875391759e-05,0.0860607847571373,0,0,0
2428,81382.57699375127,2010-08-20 12:57:41,4442.2464470862,2,7,0.5501165986061096,4.006199836730957,7.444537036135684,6.738121697688574,29.51034242789022,24.70446722322287,9.71794142969884e-05,0.0860607847571373,0,0,0
2429,81412.5921674997,2010-08-20 12:58:11,4472.261620829607,2,7,0.5501165986061096,4.008142471313477,7.44912362684734,6.738121697688574,29.528721506508077,24.70446722322287,6.47544875391759e-05,0.0860607847571373,0,0,0
2430,81442.6073771125,2010-08-20 12:58:41,4502.276830462461,2,7,0.5501165986061096,4.010408878326416,7.45371027430807,6.738121697688574,29.547110236455712,24.70446722322287,9.71794142969884e-05,0.0860607847571373,0,0,0
2431,81472.6225331267,2010-08-20 12:59:11,4532.291986456631,2,7,0.5499359965324402,4.0121893882751465,7.458296964312229,6.738121697688574,29.565508775095942,24.70446722322287,3.23295607813634e-05,0.0860607847571373,0,0,0
2432,81502.63774804273,2010-08-20 12:59:41,4562.307201372651,2,7,0.550297200679779,4.014617919921875,7.462883592817611,6.738121697688574,29.583916690210145,24.70446722322287,9.71794142969884e-05,0.0860607847571373,0,0,0
2433,81532.65288928013,2010-08-20 13:00:11,4592.322342615056,2,7,0.5501165986061096,4.0165605545043945,7.467470195263211,6.738121697688574,29.60233431039402,24.70446722322287,9.71794142969884e-05,0.0860607847571373,0,0,0
2434,81562.66817690236,2010-08-20 13:00:41,4622.33763023227,2,7,0.550297200679779,4.018664836883545,7.472056854697783,6.738121697688574,29.620762025146156,24.70446722322287,3.23295607813634e-05,0.0860607847571373,0,0,0
2435,81592.68322330338,2010-08-20 13:01:11,4652.352676633302,2,7,0.5501165986061096,4.020931243896484,7.476643432376854,6.738121697688574,29.639199197653443,24.70446722322287,6.47544875391759e-05,0.0860607847571373,0,0,0
2436,81622.69839143279,2010-08-20 13:01:41,4682.367844787778,2,7,0.5501165986061096,4.023197650909424,7.48123003764405,6.738121697688574,29.657646669092426,24.70446722322287,3.23295607813634e-05,0.0860607847571373,0,0,0
2437,81652.7137324882,2010-08-20 13:02:11,4712.383185813103,2,7,0.550297200679779,4.025464057922363,7.485816681852545,6.738121697688574,29.676104525766032,24.70446722322287,6.47544875391759e-05,0.0860607847571373,0,0,0
2438,81682.72891302353,2010-08-20 13:02:41,4742.398366348438,2,7,0.550297200679779,4.027730464935303,7.490403230902405,6.738121697688574,29.694572278626847,24.70446722322287,6.47544875391759e-05,0.0860607847571373,0,0,0
2439,81712.74394538958,2010-08-20 13:03:11,4772.413398749576,2,7,0.5501165986061096,4.029835224151611,7.494989860923377,6.738121697688574,29.71305080136044,24.70446722322287,6.47544875391759e-05,0.0860607847571373,0,0,0
2440,81742.75910872205,2010-08-20 13:03:41,4802.428562061985,2,7,0.5501165986061096,4.032101631164551,7.499576534288747,6.738121697688574,29.731539995441203,24.70446722322287,0.0,0.0860607847571373,0,0,0
2441,81772.7742990969,2010-08-20 13:04:11,4832.443752426818,2,7,0.5499359965324402,4.034529685974121,7.504163183621769,6.738121697688574,29.75003974851736,24.70446722322287,6.47544875391759e-05,0.0860607847571373,0,0,0
2442,81802.78950014837,2010-08-20 13:04:41,4862.4589534782845,2,7,0.550297200679779,4.0371198654174805,7.508749833368793,6.738121697688574,29.76855017616849,24.70446722322287,0.0001295089750783,0.0860607847571373,0,0,0
2443,81832.80465863876,2010-08-20 13:05:11,4892.474111968676,2,7,0.550297200679779,4.03938627243042,7.513336531517288,6.738121697688574,29.78707164592983,24.70446722322287,9.71794142969884e-05,0.0860607847571373,0,0,0
2444,81862.81985738447,2010-08-20 13:05:41,4922.489310714395,2,7,0.5501165986061096,4.041652679443359,7.517923190581353,6.738121697688574,29.805603774568905,24.70446722322287,6.47544875391759e-05,0.0860607847571373,0,0,0
2445,81892.83526848945,2010-08-20 13:06:11,4952.50472193968,2,7,0.5501165986061096,4.04408073425293,7.522509865751682,6.738121697688574,29.824147038511253,24.70446722322287,6.47544875391759e-05,0.0860607847571373,0,0,0
2446,81922.85032651447,2010-08-20 13:06:41,4982.519779869444,2,7,0.5501165986061096,4.046509265899658,7.527096473486854,6.738121697688574,29.842701127513543,24.70446722322287,6.47544875391759e-05,0.0860607847571373,0,0,0
2447,81952.86536899573,2010-08-20 13:07:11,5012.534822325642,2,7,0.5501165986061096,4.049099445343018,7.531683093769563,6.738121697688574,29.86126651455053,24.70446722322287,6.47544875391759e-05,0.0860607847571373,0,0,0
2448,81982.88054706491,2010-08-20 13:07:41,5042.550000399843,2,7,0.5499359965324402,4.051365852355957,7.536269765972032,6.738121697688574,29.879843447047744,24.70446722322287,3.24249267578125e-05,0.0860607847571373,0,0,0
2449,82012.89572126948,2010-08-20 13:08:11,5072.565174604399,2,7,0.5499359965324402,4.053793907165527,7.540856412945731,6.738121697688574,29.898431693947384,24.70446722322287,3.23295607813634e-05,0.0860607847571373,0,0,0
2450,82042.91089764945,2010-08-20 13:08:41,5102.580350984377,2,7,0.5501165986061096,4.056384086608887,7.545443079184572,6.738121697688574,29.917031596078207,24.70446722322287,6.47544875391759e-05,0.0860607847571373,0,0,0
2451,82072.92611571332,2010-08-20 13:09:11,5132.595569033206,2,7,0.5499359965324402,4.059136390686035,7.550029758805076,6.738121697688574,29.935643253962887,24.70446722322287,6.47544875391759e-05,0.0860607847571373,0,0,0
2452,82102.94152303888,2010-08-20 13:09:41,5162.610976373809,2,7,0.5501165986061096,4.061402797698975,7.554616466984169,6.738121697688574,29.95426657156031,24.70446722322287,6.47544875391759e-05,0.0860607847571373,0,0,0
2453,82132.95644668899,2010-08-20 13:10:11,5192.625900018893,2,7,0.5497553944587708,4.064154624938965,7.559203045941873,6.738121697688574,29.97290118474308,24.70446722322287,6.47544875391759e-05,0.0860607847571373,0,0,0
2454,82162.97162086847,2010-08-20 13:10:41,5222.641074198386,2,7,0.550297200679779,4.066744804382324,7.563789644130544,6.738121697688574,29.991547914894277,24.70446722322287,6.47544875391759e-05,0.0860607847571373,0,0,0
2455,82192.98693667093,2010-08-20 13:11:11,5252.656390010873,2,7,0.5497553944587708,4.069497108459473,7.568376274302996,6.738121697688574,30.01020695001785,24.70446722322287,6.47544875391759e-05,0.0860607847571373,0,0,0
2456,82223.00198789398,2010-08-20 13:11:41,5282.671441223896,2,7,0.5501165986061096,4.072087287902832,7.572962945957309,6.738121697688574,30.028878437623085,24.70446722322287,6.47544875391759e-05,0.0860607847571373,0,0,0
2457,82253.01718385275,2010-08-20 13:12:11,5312.686637182671,2,7,0.5501165986061096,4.075001239776611,7.577549585362628,6.738121697688574,30.047562152606663,24.70446722322287,9.71794142969884e-05,0.0860607847571373,0,0,0
2458,82283.03239004202,2010-08-20 13:12:41,5342.701843397004,2,7,0.550297200679779,4.077753067016602,7.582136242365674,6.738121697688574,30.066258457014893,24.70446722322287,6.47544875391759e-05,0.0860607847571373,0,0,0
2459,82313.04752829697,2010-08-20 13:13:11,5372.716981626901,2,7,0.5501165986061096,4.080343246459961,7.586722895964955,6.738121697688574,30.084967376920392,24.70446722322287,9.70840483205393e-05,0.0860607847571373,0,0,0
2460,82343.06270755913,2010-08-20 13:13:41,5402.732160889063,2,7,0.5501165986061096,4.083095550537109,7.591309637743292,6.738121697688574,30.10368935685168,24.70446722322287,9.71794142969884e-05,0.0860607847571373,0,0,0
2461,82373.07800712614,2010-08-20 13:14:11,5432.747460486135,2,7,0.5501165986061096,4.086009502410889,7.59589625527449,6.738121697688574,30.1224236605357,24.70446722322287,6.47544875391759e-05,0.0860607847571373,0,0,0
2462,82403.09330275834,2010-08-20 13:14:41,5462.762756118325,2,7,0.5499359965324402,4.088761329650879,7.600482922224601,6.738121697688574,30.14117116825407,24.70446722322287,6.47544875391759e-05,0.0860607847571373,0,0,0
2463,82433.1082529596,2010-08-20 13:15:11,5492.777706279497,2,7,0.550297200679779,4.091675281524658,7.605069515521151,6.738121697688574,30.15993149482168,24.70446722322287,9.70840483205393e-05,0.0860607847571373,0,0,0
2464,82463.12342194615,2010-08-20 13:15:41,5522.792875276073,2,7,0.5501165986061096,4.094427585601807,7.609656223597441,6.738121697688574,30.178705425267847,24.70446722322287,3.24249267578125e-05,0.0860607847571373,0,0,0
2465,82493.13863742858,2010-08-20 13:16:11,5552.808090783568,2,7,0.5499359965324402,4.097341537475586,7.614242938805053,6.738121697688574,30.197492769179387,24.70446722322287,6.47544875391759e-05,0.0860607847571373,0,0,0
2466,82523.15640171342,2010-08-20 13:16:41,5582.825855043338,2,7,0.5501165986061096,4.100417137145996,7.618830022555126,6.738121697688574,30.216295139871026,24.70446722322287,6.47544875391759e-05,0.0860607847571373,0,0,0
2467,82553.16900609319,2010-08-20 13:17:11,5612.8384594231,2,7,0.5501165986061096,4.1034932136535645,7.623416316461954,6.738121697688574,30.23510780114353,24.70446722322287,0.0001295089750783,0.0860607847571373,0,0,0
2468,82583.1842775802,2010-08-20 13:17:41,5642.85373092014,2,7,0.5501165986061096,4.106568813323975,7.628003001709381,6.738121697688574,30.253935876262148,24.70446722322287,0.0001295089750783,0.0860607847571373,0,0,0
2469,82613.1993199161,2010-08-20 13:18:11,5672.868773246014,2,7,0.5501165986061096,4.109482765197754,7.632589621712912,6.738121697688574,30.27277753570096,24.70446722322287,9.70840483205393e-05,0.0860607847571373,0,0,0
2470,82643.2146525906,2010-08-20 13:18:41,5702.88410593055,2,7,0.5501165986061096,4.112558841705322,7.637176334038914,6.738121697688574,30.29163357310248,24.70446722322287,6.47544875391759e-05,0.0860607847571373,0,0,0
2471,82673.22970519209,2010-08-20 13:19:11,5732.899158522009,2,7,0.5501165986061096,4.115472316741943,7.641762977830631,6.738121697688574,30.310503410828712,24.70446722322287,6.47544875391759e-05,0.0860607847571373,0,0,0
2472,82703.24488974744,2010-08-20 13:19:41,5762.914343082375,2,7,0.5501165986061096,4.118710041046143,7.64634964654729,6.738121697688574,30.32938768087996,24.70446722322287,9.70840483205393e-05,0.0860607847571373,0,0,0
2473,82733.26002869915,2010-08-20 13:20:11,5792.929482044095,2,7,0.5501165986061096,4.122109889984131,7.650936346909504,6.738121697688574,30.34828652657883,24.70446722322287,0.0001295089750783,0.0860607847571373,0,0,0
2474,82763.27522526943,2010-08-20 13:20:41,5822.944678599356,2,7,0.550297200679779,4.125185489654541,7.655523043514525,6.738121697688574,30.36719988128516,24.70446722322287,9.70840483205393e-05,0.0860607847571373,0,0,0
2475,82793.29039677227,2010-08-20 13:21:11,5852.959850102177,2,7,0.5501165986061096,4.128261566162109,7.660109625603789,6.738121697688574,30.386127466177417,24.70446722322287,6.47544875391759e-05,0.0860607847571373,0,0,0
2476,82823.30558045542,2010-08-20 13:21:41,5882.9750337853575,2,7,0.5501165986061096,4.131499290466309,7.664696295619285,6.738121697688574,30.40507027363915,24.70446722322287,6.47544875391759e-05,0.0860607847571373,0,0,0
2477,82853.32087797234,2010-08-20 13:22:12,5912.990331302245,2,7,0.5501165986061096,4.134898662567139,7.669282998075674,6.738121697688574,30.42402816046169,24.70446722322287,9.70840483205393e-05,0.0860607847571373,0,0,0
2478,82883.33622301265,2010-08-20 13:22:42,5943.005676342576,2,7,0.5501165986061096,4.138136386871338,7.673869675035995,6.738121697688574,30.443001120157373,24.70446722322287,9.70840483205393e-05,0.0860607847571373,0,0,0
2479,82913.35126352902,2010-08-20 13:23:12,5973.020716858941,2,7,0.550297200679779,4.141536235809326,7.678456468110232,6.738121697688574,30.46198987059742,24.70446722322287,9.71794142969884e-05,0.0860607847571373,0,0,0
2480,82943.3662940204,2010-08-20 13:23:42,6003.035747355331,2,7,0.5501165986061096,4.144935607910156,7.683043176741468,6.738121697688574,30.48099375865911,24.70446722322287,9.70840483205393e-05,0.0860607847571373,0,0,0
2481,82973.38146530768,2010-08-20 13:24:12,6033.050918642617,2,7,0.5501165986061096,4.148497104644775,7.687629851794932,6.738121697688574,30.50001337406503,24.70446722322287,0.0001295089750783,0.0860607847571373,0,0,0
2482,83003.39666958219,2010-08-20 13:24:42,6063.066122912104,2,7,0.5501165986061096,4.151896953582764,7.692216463393645,6.738121697688574,30.51904842340598,24.70446722322287,9.71794142969884e-05,0.0860607847571373,0,0,0
2483,83033.41183384195,2010-08-20 13:25:12,6093.0812871718745,2,7,0.5501165986061096,4.155458450317383,7.696803061917783,6.738121697688574,30.53809928269136,24.70446722322287,9.71794142969884e-05,0.0860607847571373,0,0,0
2484,83063.42715016572,2010-08-20 13:25:42,6123.09660350566,2,7,0.5501165986061096,4.158857822418213,7.701389684448012,6.738121697688574,30.557166224126675,24.70446722322287,6.47544875391759e-05,0.0860607847571373,0,0,0
2485,83093.44219431613,2010-08-20 13:26:12,6153.111647661093,2,7,0.5501165986061096,4.162257671356201,7.70597631327568,6.738121697688574,30.57624928499052,24.70446722322287,6.47544875391759e-05,0.0860607847571373,0,0,0
2486,83123.45752164233,2010-08-20 13:26:42,6183.126975007326,2,7,0.5501165986061096,4.16581916809082,7.710562987568615,6.738121697688574,30.59534882953159,24.70446722322287,9.71794142969884e-05,0.0860607847571373,0,0,0
2487,83153.47267352123,2010-08-20 13:27:12,6213.142126851151,2,7,0.550297200679779,4.169704437255859,7.715149589466353,6.738121697688574,30.6144644987587,24.70446722322287,0.0001295089750783,0.0860607847571373,0,0,0
2488,83183.48773026303,2010-08-20 13:27:42,6243.157183592954,2,7,0.5501165986061096,4.1731038093566895,7.719736220663715,6.738121697688574,30.63359679860779,24.70446722322287,9.70840483205393e-05,0.0860607847571373,0,0,0
2489,83213.50290546508,2010-08-20 13:28:12,6273.172358800009,2,7,0.5501165986061096,4.176827430725098,7.724322858380118,6.738121697688574,30.65274582346602,24.70446722322287,6.47544875391759e-05,0.0860607847571373,0,0,0
2490,83243.51809992011,2010-08-20 13:28:42,6303.187553250024,2,7,0.550297200679779,4.180550575256348,7.728909561456216,6.738121697688574,30.67191196732466,24.70446722322287,0.0001295089750783,0.0860607847571373,0,0,0
2491,83273.5334007302,2010-08-20 13:29:12,6333.202854070144,2,7,0.5497553944587708,4.184274196624756,7.733496210981528,6.738121697688574,30.691094889778498,24.70446722322287,0.0001295089750783,0.0860607847571373,0,0,0
2492,83303.548458274,2010-08-20 13:29:42,6363.217911603921,2,7,0.550297200679779,4.188159465789795,7.738082841817228,6.738121697688574,30.710294848895163,24.70446722322287,0.0001295089750783,0.0860607847571373,0,0,0
2493,83333.5637735301,2010-08-20 13:30:12,6393.233226890096,2,7,0.5501165986061096,4.191558837890625,7.742669516889134,6.738121697688574,30.72951232307916,24.70446722322287,6.47544875391759e-05,0.0860607847571373,0,0,0
2494,83363.57905301204,2010-08-20 13:30:42,6423.248506367022,2,7,0.5501165986061096,4.195444107055664,7.747256196337637,6.738121697688574,30.748747261573644,24.70446722322287,6.47544875391759e-05,0.0860607847571373,0,0,0
2495,83393.5940070278,2010-08-20 13:31:12,6453.26346036275,2,7,0.5499359965324402,4.199329376220703,7.751842818142259,6.738121697688574,30.767999489537416,24.70446722322287,9.71794142969884e-05,0.0860607847571373,0,0,0
2496,83397.84393152232,2010-08-20 13:31:16,6457.513384852247,2,7,0.550297200679779,4.200138568878174,7.752492272502305,6.738121697688574,30.7707269928392,24.70446722322287,0.0001295089750783,0.0860607847571373,0,0,0
2497,83427.85956394458,2010-08-20 13:31:46,30.015201091566677,3,7,0.0,4.121300220489502,7.752492272502305,6.738121697688574,30.7707269928392,24.70446722322287,-0.0003561973571777,0.0860607847571373,0,0,0
2498,83457.87484883501,2010-08-20 13:32:16,60.03048595191092,3,7,0.0,4.111263751983643,7.752492272502305,6.738121697688574,30.7707269928392,24.70446722322287,-0.0002265930233988,0.0860607847571373,0,0,0
2499,83487.8898988701,2010-08-20 13:32:46,90.04553598699836,3,7,0.0,4.105273723602295,7.752492272502305,6.738121697688574,30.7707269928392,24.70446722322287,-0.0001295089750783,0.0860607847571373,0,0,0
2500,83517.85820943605,2010-08-20 13:33:16,120.0138465880348,3,7,0.0,4.101550579071045,7.752492272502305,6.738121697688574,30.7707269928392,24.70446722322287,-9.70840483205393e-05,0.0860607847571373,0,0,0
2501,83517.86042933943,2010-08-20 13:33:16,2.651608625e-06,4,7,1.0014592409133911,4.199976921081543,7.752492273239938,6.738121697688574,30.77072699593724,24.70446722322287,0.0,0.0860607847571373,0,0,0
2502,83518.8422689759,2010-08-20 13:33:17,0.98184228307474,4,7,0.9508885741233826,4.199814796447754,7.752756770894737,6.738121697688574,30.771837822425592,24.70446722322287,-3.24249267578125e-05,0.0860607847571373,0,0,0
2503,83521.12348483273,2010-08-20 13:33:20,3.263058134890034,4,7,0.900498628616333,4.199814796447754,7.753342161708183,6.738121697688574,30.774296304302776,24.70446722322287,-3.24249267578125e-05,0.0860607847571373,0,0,0
2504,83524.4514687727,2010-08-20 13:33:23,6.591042079875999,4,7,0.8499280214309692,4.199814796447754,7.754150074905141,6.738121697688574,30.77768933314531,24.70446722322287,3.23295607813634e-05,0.0860607847571373,0,0,0
2505,83528.79513144158,2010-08-20 13:33:27,10.934704773820908,4,7,0.7998992204666138,4.199653148651123,7.755144371549122,6.738121697688574,30.78186514329702,24.70446722322287,0.0,0.0860607847571373,0,0,0
2506,83534.32643992428,2010-08-20 13:33:33,16.466013236450845,4,7,0.7498704791069031,4.199653148651123,7.756333595782991,6.738121697688574,30.786859584619496,24.70446722322287,-3.23295607813634e-05,0.0860607847571373,0,0,0
2507,83541.34193854043,2010-08-20 13:33:40,23.48151185261729,4,7,0.6998416781425476,4.199814796447754,7.757744152766402,6.738121697688574,30.792783596418897,24.70446722322287,0.0,0.0860607847571373,0,0,0
2508,83550.46667775317,2010-08-20 13:33:49,32.606251055322495,4,7,0.6498129367828369,4.199653148651123,7.759451799150362,6.738121697688574,30.799955294134097,24.70446722322287,-3.23295607813634e-05,0.0860607847571373,0,0,0
2509,83563.02899118858,2010-08-20 13:34:02,45.16856448070576,4,7,0.5997841358184814,4.199814796447754,7.761627245622453,6.738121697688574,30.809091646817176,24.70446722322287,3.23295607813634e-05,0.0860607847571373,0,0,0
2510,83581.09122079235,2010-08-20 13:34:20,63.230794079475,4,7,0.5497553944587708,4.199814796447754,7.764502785669452,6.738121697688574,30.821168251986524,24.70446722322287,0.0,0.0860607847571373,0,0,0
2511,83609.85918910106,2010-08-20 13:34:48,91.99876240322033,4,7,0.4997266232967376,4.199814796447754,7.768681583231136,6.738121697688574,30.838718238482585,24.70446722322287,3.23295607813634e-05,0.0860607847571373,0,0,0
2512,83659.6840573234,2010-08-20 13:35:38,141.82363063057156,4,7,0.4495172500610351,4.199491024017334,7.775223931773754,6.738121697688574,30.86619455525382,24.70446722322287,-3.24249267578125e-05,0.0860607847571373,0,0,0
2513,83739.41700657114,2010-08-20 13:36:58,221.5565798732996,4,7,0.3994884788990021,4.199814796447754,7.784596313804062,6.738121697688574,30.90555634712385,24.70446722322287,0.0,0.0860607847571373,0,0,0
2514,83846.68117716361,2010-08-20 13:38:45,328.82075045575124,4,7,0.349459707736969,4.199814796447754,7.795735546784042,6.738121697688574,30.952338557911432,24.70446722322287,3.23295607813634e-05,0.0860607847571373,0,0,0
2515,83978.304004634,2010-08-20 13:40:57,460.4435779612265,4,7,0.2994309365749359,4.199653148651123,7.807580619722091,6.738121697688574,31.00208512637052,24.70446722322287,-6.47544875391759e-05,0.0860607847571373,0,0,0
2516,84137.02048670316,2010-08-20 13:43:36,619.1600600203584,4,7,0.2494021654129028,4.199653148651123,7.819650931852468,6.738121697688574,31.052777601774025,24.70446722322287,-3.23295607813634e-05,0.0860607847571373,0,0,0
2517,84333.56442352377,2010-08-20 13:46:52,815.703996830948,4,7,0.1993733942508697,4.199491024017334,7.831858811116987,6.738121697688574,31.104047662693123,24.70446722322287,0.0,0.0860607847571373,0,0,0
2518,84593.95120380424,2010-08-20 13:51:12,1076.0907771114162,4,7,0.1493446230888366,4.199653148651123,7.844395436481653,6.738121697688574,31.156698150965653,24.70446722322287,0.0,0.0860607847571373,0,0,0
2519,84974.82067814992,2010-08-20 13:57:33,1456.960251452081,4,7,0.0993158593773841,4.199491024017334,7.857385229441927,6.738121697688574,31.21125219840769,24.70446722322287,-6.47544875391759e-05,0.0860607847571373,0,0,0
2520,85669.76362224521,2010-08-20 14:09:08,2151.9031955774394,4,7,0.0496483072638511,4.199653148651123,7.871234643721984,6.738121697688574,31.269416509092075,24.70446722322287,-3.23295607813634e-05,0.0860607847571373,0,0,0
2521,85699.78160577065,2010-08-20 14:09:38,30.015345521530584,5,7,0.0,4.192368507385254,7.871234643721984,6.738121697688574,31.269416509092075,24.70446722322287,-6.47544875391759e-05,0.0860607847571373,0,0,0
2522,85729.78101371083,2010-08-20 14:10:08,60.01475345167957,5,7,0.0,4.191235065460205,7.871234643721984,6.738121697688574,31.269416509092075,24.70446722322287,-3.24249267578125e-05,0.0860607847571373,0,0,0
2523,85729.97202222623,2010-08-20 14:10:09,0.187275793901724,6,7,-1.9243103452026844e-05,4.191073417663574,7.871234647418747,6.738121697688574,31.26941652458607,24.70446722322287,-6.47544875391759e-05,0.0908498615026474,0,0,0
2524,85734.80017786064,2010-08-20 14:10:14,5.01543139825411,6,7,0.0008838032954372,4.191235065460205,7.871235550422984,6.738121697855486,31.269420309354285,24.704467223922418,-3.24249267578125e-05,0.0908498615026474,0,0,0
2525,85764.8190545087,2010-08-20 14:10:44,30.01518052530923,7,7,-1.099568486213684,4.027245044708252,7.871235550422984,6.747289911530575,31.269420309354285,24.74157547963789,-0.0008741378551349,0.0908498615026474,0,0,0
2526,85794.8342530038,2010-08-20 14:11:14,60.03037902541719,7,7,-1.0997490882873535,4.002476215362549,7.871235550422984,6.756458094533565,31.269420309354285,24.778375846930185,-0.0005180359003134,0.0908498615026474,0,0,0
2527,85824.84958440013,2010-08-20 14:11:44,90.04571041673093,7,7,-1.0997490882873535,3.985316514968872,7.871235550422984,6.765626279295266,31.269420309354285,24.81498900475448,-0.0004209041653666,0.0908498615026474,0,0,0
2528,85854.86454846094,2010-08-20 14:12:14,120.06067448255652,7,7,-1.099568486213684,3.972365617752075,7.871235550422984,6.774793409152789,31.269420309354285,24.851461973866773,-0.0003237724304199,0.0908498615026474,0,0,0
2529,85884.87970026466,2010-08-20 14:12:44,150.07582631134522,7,7,-1.099568486213684,3.961195468902588,7.871235550422984,6.783960569087762,31.269420309354285,24.88782542007831,-0.0003237724304199,0.0908498615026474,0,0,0
2530,85914.89496060892,2010-08-20 14:13:14,180.09108662551282,7,7,-1.0993878841400146,3.9514822959899902,7.871235550422984,6.793127812141622,31.269420309354285,24.924093691546275,-0.0002590179501567,0.0908498615026474,0,0,0
2531,85944.91011727975,2010-08-20 14:13:44,210.10624329636943,7,7,-1.099568486213684,3.9422547817230233,7.871235550422984,6.802295017446694,31.269420309354285,24.96027461633767,-0.0002590179501567,0.0908498615026474,0,0,0
2532,85974.92528490793,2010-08-20 14:14:14,240.12141092453496,7,7,-1.0993878841400146,3.9336748123168954,7.871235550422984,6.811462160022593,31.269420309354285,24.99637346830493,-0.0002266406954731,0.0908498615026474,0,0,0
2533,86004.94047545322,2010-08-20 14:14:44,270.1366014698171,7,7,-1.0993878841400146,3.925256729125977,7.871235550422984,6.820629272471876,31.269420309354285,25.032394422278315,-0.0002266406954731,0.0908498615026474,0,0,0
2534,86034.95592605163,2010-08-20 14:15:14,300.1520520531941,7,7,-1.099929690361023,3.917000532150269,7.871235550422984,6.829797198207788,31.269420309354285,25.068343282792327,-0.0002266406954731,0.0908498615026474,0,0,0
2535,86064.97084272934,2010-08-20 14:15:44,330.1669687459514,7,7,-1.0997490882873535,3.90939211845398,7.871235550422984,6.838965065445254,31.269420309354285,25.104219058319178,-0.0001942634553415,0.0908498615026474,0,0,0
2536,86094.98616280746,2010-08-20 14:16:14,360.1822888140442,7,7,-1.0997490882873535,3.901621580123901,7.871235550422984,6.84813305435151,31.269420309354285,25.140024145756488,-0.0001942634553415,0.0908498615026474,0,0,0
2537,86125.00119631636,2010-08-20 14:16:44,390.1973223329682,7,7,-1.099568486213684,3.894012928009033,7.871235550422984,6.857300953824336,31.269420309354285,25.175759105473382,-0.0001942634553415,0.0908498615026474,0,0,0
2538,86155.0164210318,2010-08-20 14:17:14,420.21254704841294,7,7,-1.0997490882873535,3.886889934539795,7.871235550422984,6.866468895972104,31.269420309354285,25.211426614488644,-0.0001942634553415,0.0908498615026474,0,0,0
2539,86185.0315873116,2010-08-20 14:17:44,450.2277133332305,7,7,-1.099568486213684,3.8794431686401367,7.871235550422984,6.875636831371149,31.269420309354285,25.247027047870123,-0.0002266406954731,0.0908498615026474,0,0,0
2540,86215.0467477619,2010-08-20 14:18:14,480.2428737784941,7,7,-1.0997490882873535,3.8723201751708975,7.871235550422984,6.884804758458166,31.269420309354285,25.28256123278429,-0.0001942634553415,0.0908498615026474,0,0,0
2541,86245.06192023211,2010-08-20 14:18:44,510.2580462387026,7,7,-1.0993878841400146,3.86519718170166,7.871235550422984,6.893972769020698,31.269420309354285,25.318030461531645,-0.0001942634553415,0.0908498615026474,0,0,0
2542,86275.07723499199,2010-08-20 14:19:14,540.2733610286407,7,7,-1.0993878841400146,3.858397960662842,7.871235550422984,6.903140701637427,31.269420309354285,25.35343510772668,-0.0001942634553415,0.0908498615026474,0,0,0
2543,86305.0922918992,2010-08-20 14:19:44,570.288417950893,7,7,-1.099568486213684,3.8514368534088135,7.871235550422984,6.912308578150195,31.269420309354285,25.388776115744143,-0.0001942634553415,0.0908498615026474,0,0,0
2544,86335.10745881559,2010-08-20 14:20:14,600.3035848372097,7,7,-1.099568486213684,3.844799518585205,7.871235550422984,6.921476491513295,31.269420309354285,25.4240547144325,-0.0001295089750783,0.0908498615026474,0,0,0
2545,86365.12263469433,2010-08-20 14:20:44,630.3187607209506,7,7,-1.099568486213684,3.8380002975463863,7.871235550422984,6.930644466792715,31.269420309354285,25.45927171829788,-0.0001618862152099,0.0908498615026474,0,0,0
2546,86395.1378431643,2010-08-20 14:21:14,660.3339691858941,7,7,-1.0993878841400146,3.831525087356568,7.871235550422984,6.939812424457006,31.269420309354285,25.49442819159601,-0.0001942634553415,0.0908498615026474,0,0,0
2547,86425.1530299953,2010-08-20 14:21:44,690.3491560119065,7,7,-1.099929690361023,3.824887752532959,7.871235550422984,6.948980271816013,31.269420309354285,25.529524690427127,-0.0001942634553415,0.0908498615026474,0,0,0
2548,86455.16819349819,2010-08-20 14:22:14,720.3643195147906,7,7,-1.0993878841400146,3.818736076354981,7.871235550422984,6.958148179074653,31.269420309354285,25.564562685133964,-0.0001942634553415,0.0908498615026474,0,0,0
2549,86485.18335464019,2010-08-20 14:22:44,750.3794806567907,7,7,-1.0997490882873535,3.812098741531372,7.871235550422984,6.967316125937005,31.269420309354285,25.599542828722303,-0.0001942634553415,0.0908498615026474,0,0,0
2550,86515.1985711953,2010-08-20 14:23:14,780.3946972369598,7,7,-1.0993878841400146,3.806108951568604,7.871235550422984,6.976484035582165,31.269420309354285,25.634465103416016,-0.0001618862152099,0.0908498615026474,0,0,0
2551,86545.21373155534,2010-08-20 14:23:44,810.4098575769609,7,7,-1.0993878841400146,3.800119161605835,7.871235550422984,6.985651936686022,31.269420309354285,25.66933136749537,-0.0001942634553415,0.0908498615026474,0,0,0
2552,86575.22902116751,2010-08-20 14:24:14,840.4251473044359,7,7,-1.0997490882873535,3.793967485427856,7.871235550422984,6.994819954746493,31.269420309354285,25.70414279422322,-0.0001618862152099,0.0908498615026474,0,0,0
2553,86605.24420513141,2010-08-20 14:24:44,870.44033115804,7,7,-1.099568486213684,3.788139581680298,7.871235550422984,7.00398785564232,31.269420309354285,25.7388993817364,-0.0001618862152099,0.0908498615026474,0,0,0
2554,86635.25927857983,2010-08-20 14:25:14,900.4554046014681,7,7,-1.0997490882873535,3.7823116779327393,7.871235550422984,7.013155762375288,31.269420309354285,25.773602844178445,-0.0001618862152099,0.0908498615026474,0,0,0
2555,86665.27443884968,2010-08-20 14:25:44,930.4705648712948,7,7,-1.099568486213684,3.7768075466156006,7.871235550422984,7.022323749014368,31.269420309354285,25.80825418875625,-0.0001295089750783,0.0908498615026474,0,0,0
2556,86695.28961561562,2010-08-20 14:26:14,960.485741632222,7,7,-1.099568486213684,3.771141529083252,7.871235550422984,7.031491683377769,31.269420309354285,25.84285378732021,-0.0001295089750783,0.0908498615026474,0,0,0
2557,86725.30481527362,2010-08-20 14:26:44,990.500941315278,7,7,-1.0997490882873535,3.765637397766113,7.871235550422984,7.040659633595526,31.269420309354285,25.877402367375016,-0.0001618862152099,0.0908498615026474,0,0,0
2558,86755.3201231413,2010-08-20 14:27:14,1020.5162491579013,7,7,-1.099568486213684,3.760133266448975,7.871235550422984,7.049827659407238,31.269420309354285,25.911901301815792,-0.0001942634553415,0.0908498615026474,0,0,0
2559,86785.33539520975,2010-08-20 14:27:44,1050.5315212313765,7,7,-1.099568486213684,3.754952907562256,7.871235550422984,7.058995647309216,31.269420309354285,25.94635129764898,-0.0001618862152099,0.0908498615026474,0,0,0
2560,86815.35034422809,2010-08-20 14:28:14,1080.5464702547115,7,7,-1.099568486213684,3.749772787094116,7.871235550422984,7.068163604946391,31.269420309354285,25.98075329584013,-0.0001618862152099,0.0908498615026474,0,0,0
2561,86845.36563998056,2010-08-20 14:28:44,1110.5617660072028,7,7,-1.0993878841400146,3.744754314422608,7.871235550422984,7.077331553855064,31.269420309354285,26.01510804700759,-0.0001618862152099,0.0908498615026474,0,0,0
2562,86875.38071026112,2010-08-20 14:29:14,1140.5768362777228,7,7,-1.099568486213684,3.739735841751098,7.871235550422984,7.086499525773064,31.269420309354285,26.04941649070352,-0.0001618862152099,0.0908498615026474,0,0,0
2563,86905.39587233044,2010-08-20 14:29:44,1170.5919983470342,7,7,-1.099568486213684,3.7348792552948,7.871235550422984,7.095667496205082,31.269420309354285,26.08367966074413,-9.713172767078504e-05,0.0908498615026474,0,0,0
2564,86935.41109482535,2010-08-20 14:30:14,1200.6072208670073,7,7,-1.099929690361023,3.729860782623291,7.871235550422984,7.104835496567861,31.269420309354285,26.117898663340416,-0.0001618862152099,0.0908498615026474,0,0,0
2565,86965.42628121526,2010-08-20 14:30:44,1230.6224072368827,7,7,-1.0997490882873535,3.725327968597412,7.871235550422984,7.114003456323692,31.269420309354285,26.152074331163544,-0.0001295089750783,0.0908498615026474,0,0,0
2566,86995.4416320701,2010-08-20 14:31:14,1260.637758086693,7,7,-1.099568486213684,3.720795154571533,7.871235550422984,7.123171451944911,31.269420309354285,26.1862070334819,-9.713172767078504e-05,0.0908498615026474,0,0,0
2567,87025.45672227528,2010-08-20 14:31:44,1290.6528482918968,7,7,-1.0993878841400146,3.716100454330444,7.871235550422984,7.132339435946959,31.269420309354285,26.22029698274525,-0.0001295089750783,0.0908498615026474,0,0,0
2568,87055.47177620007,2010-08-20 14:32:14,1320.6679022166784,7,7,-1.0993878841400146,3.711729526519776,7.871235550422984,7.141507329721661,31.269420309354285,26.254345126167173,-6.47544875391759e-05,0.0908498615026474,0,0,0
2569,87085.48708530584,2010-08-20 14:32:44,1350.6832113274622,7,7,-1.0993878841400146,3.7070348262786874,7.871235550422984,7.150675302956828,31.269420309354285,26.28835223151528,-0.0001618862152099,0.0908498615026474,0,0,0
2570,87115.50479731539,2010-08-20 14:33:14,1380.7009233570593,7,7,-1.099568486213684,3.7026638984680176,7.871235550422984,7.159844106284745,31.269420309354285,26.322321812332703,-0.0001295089750783,0.0908498615026474,0,0,0
2571,87145.51739297343,2010-08-20 14:33:44,1410.713519015084,7,7,-1.099568486213684,3.698454856872559,7.871235550422984,7.169011292036842,31.269420309354285,26.356245578289496,-0.0001295089750783,0.0908498615026474,0,0,0
2572,87175.53255652142,2010-08-20 14:34:14,1440.7286825881429,7,7,-1.099568486213684,3.6942458152771,7.871235550422984,7.178179288942748,31.269420309354285,26.39013337807601,-9.713172767078504e-05,0.0908498615026474,0,0,0
2573,87205.54768321254,2010-08-20 14:34:44,1470.743809234168,7,7,-1.099568486213684,3.6901986598968506,7.871235550422984,7.187347306728966,31.269420309354285,26.423983519881517,-9.713172767078504e-05,0.0908498615026474,0,0,0
2574,87235.56289337673,2010-08-20 14:35:14,1500.7590194234092,7,7,-1.0993878841400146,3.686313390731812,7.871235550422984,7.19651532148413,31.269420309354285,26.457796648705905,-6.47544875391759e-05,0.0908498615026474,0,0,0
2575,87265.57803885468,2010-08-20 14:35:44,1530.7741648712945,7,7,-1.099568486213684,3.6822662353515625,7.871235550422984,7.205683299497043,31.269420309354285,26.49157357788164,-9.713172767078504e-05,0.0908498615026474,0,0,0
2576,87295.5933507424,2010-08-20 14:36:14,1560.7894767690243,7,7,-1.0997490882873535,3.678380966186523,7.871235550422984,7.214851377989819,31.269420309354285,26.525315457768365,-0.0001295089750783,0.0908498615026474,0,0,0
2577,87325.60838874249,2010-08-20 14:36:44,1590.804514789167,7,7,-1.099568486213684,3.674819469451904,7.871235550422984,7.224019160828478,31.269420309354285,26.55902129100157,-0.0001295089750783,0.0908498615026474,0,0,0
2578,87355.62358542306,2010-08-20 14:37:14,1620.8197114396648,7,7,-1.0997490882873535,3.670934438705444,7.871235550422984,7.233187031608452,31.269420309354285,26.592693016388164,-0.0001295089750783,0.0908498615026474,0,0,0
2579,87385.63877574279,2010-08-20 14:37:44,1650.8349017593848,7,7,-1.099568486213684,3.667372941970825,7.871235550422984,7.242355049033132,31.269420309354285,26.626331498991338,-9.713172767078504e-05,0.0908498615026474,0,0,0
2580,87415.65395723049,2010-08-20 14:38:14,1680.8500832721552,7,7,-1.0997490882873535,3.663487672805786,7.871235550422984,7.25152298035362,31.269420309354285,26.659936279370186,-0.0001295089750783,0.0908498615026474,0,0,0
2581,87445.66914563545,2010-08-20 14:38:45,1710.8652716520403,7,7,-1.0997490882873535,3.660088062286377,7.871235550422984,7.260690999128018,31.269420309354285,26.69350866108609,-9.713172767078504e-05,0.0908498615026474,0,0,0
2582,87475.68473248344,2010-08-20 14:39:15,1740.8808585301058,7,7,-1.0997490882873535,3.656526565551758,7.871235550422984,7.269859077821255,31.269420309354285,26.727049301333388,-0.0001295089750783,0.0908498615026474,0,0,0
2583,87505.69974750123,2010-08-20 14:39:45,1770.895873552932,7,7,-1.1001102924346924,3.653288841247559,7.871235550422984,7.279026998362562,31.269420309354285,26.760558341125755,-9.713172767078504e-05,0.0908498615026474,0,0,0
2584,87535.71467284556,2010-08-20 14:40:15,1800.910798862164,7,7,-1.099568486213684,3.65005111694336,7.871235550422984,7.288194923236024,31.269420309354285,26.794037038678056,-9.713172767078504e-05,0.0908498615026474,0,0,0
2585,87565.73011962947,2010-08-20 14:40:45,1830.9262456560969,7,7,-1.099568486213684,3.64697527885437,7.871235550422984,7.297363002027404,31.269420309354285,26.82748675246233,-6.47544875391759e-05,0.0908498615026474,0,0,0
2586,87595.74505048753,2010-08-20 14:41:15,1860.9411765041327,7,7,-1.099568486213684,3.643575668334961,7.871235550422984,7.306530792576454,31.269420309354285,26.860905790621675,-0.0001295089750783,0.0908498615026474,0,0,0
2587,87625.76019187529,2010-08-20 14:41:45,1890.9563178969124,7,7,-1.099568486213684,3.6406617164611816,7.871235550422984,7.31569868440168,31.269420309354285,26.89429691232077,-9.713172767078504e-05,0.0908498615026474,0,0,0
2588,87655.77537297203,2010-08-20 14:42:15,1920.9714990187083,7,7,-1.099568486213684,3.637585878372192,7.871235550422984,7.324866553237598,31.269420309354285,26.927660202539965,-9.713172767078504e-05,0.0908498615026474,0,0,0
2589,87685.79055143219,2010-08-20 14:42:45,1950.9866774487955,7,7,-1.099568486213684,3.634995698928833,7.871235550422984,7.334034422912197,31.269420309354285,26.96099663411343,-3.237724376958795e-05,0.0908498615026474,0,0,0
2590,87715.80581438795,2010-08-20 14:43:15,1981.0019404245968,7,7,-1.099568486213684,3.6320817470550537,7.871235550422984,7.343202465196757,31.269420309354285,26.994307446949133,-3.237724376958795e-05,0.0908498615026474,0,0,0
2591,87745.82108463185,2010-08-20 14:43:45,2011.0172106484624,7,7,-1.0997490882873535,3.6291677951812735,7.871235550422984,7.352370543516589,31.269420309354285,27.02759231445333,-6.47544875391759e-05,0.0908498615026474,0,0,0
2592,87775.83628879608,2010-08-20 14:44:15,2041.032414822712,7,7,-1.0997490882873535,3.626415729522705,7.871235550422984,7.361538583234172,31.269420309354285,27.060851474611315,-3.237724376958795e-05,0.0908498615026474,0,0,0
2593,87805.8512312731,2010-08-20 14:44:45,2071.047357314769,7,7,-1.099568486213684,3.623663663864136,7.871235550422984,7.3707064732617,31.269420309354285,27.09408487985053,-6.47544875391759e-05,0.0908498615026474,0,0,0
2594,87835.8664764746,2010-08-20 14:45:15,2101.0626025062465,7,7,-1.099568486213684,3.621073484420776,7.871235550422984,7.379874530639777,31.269420309354285,27.12729423320685,-6.47544875391759e-05,0.0908498615026474,0,0,0
2595,87865.8816630951,2010-08-20 14:45:45,2131.077789141784,7,7,-1.099568486213684,3.618321418762207,7.871235550422984,7.389042523984355,31.269420309354285,27.16047915822949,-3.237724376958795e-05,0.0908498615026474,0,0,0
2596,87895.89683314931,2010-08-20 14:46:15,2161.0929591759464,7,7,-1.099568486213684,3.6155693531036377,7.871235550422984,7.398210560655397,31.269420309354285,27.19363992562437,-9.713172767078504e-05,0.0908498615026474,0,0,0
2597,87925.91195256231,2010-08-20 14:46:45,2191.1080785789195,7,7,-1.099568486213684,3.6129791736602783,7.871235550422984,7.407378601216442,31.269420309354285,27.226776573985024,-6.47544875391759e-05,0.0908498615026474,0,0,0
2598,87955.92742464929,2010-08-20 14:47:15,2221.1235506909525,7,7,-1.0997490882873535,3.610388994216919,7.871235550422984,7.416546703464952,31.269420309354285,27.259889253125184,-6.47544875391759e-05,0.0908498615026474,0,0,0
2599,87985.94253125036,2010-08-20 14:47:45,2251.1386572719703,7,7,-1.099568486213684,3.6079607009887695,7.871235550422984,7.425714665683548,31.269420309354285,27.292977665584203,-6.47544875391759e-05,0.0908498615026474,0,0,0
2600,88015.95756468407,2010-08-20 14:48:15,2281.15369070067,7,7,-1.099568486213684,3.6050467491149902,7.871235550422984,7.434882596953456,31.269420309354285,27.32604209219692,-9.713172767078504e-05,0.0908498615026474,0,0,0
2601,88045.97274316427,2010-08-20 14:48:45,2311.1688691858944,7,7,-1.0997490882873535,3.602618455886841,7.871235550422984,7.444050550125902,31.269420309354285,27.359082757819102,-9.713172767078504e-05,0.0908498615026474,0,0,0
2602,88075.98796626068,2010-08-20 14:49:15,2341.1840922823035,7,7,-1.0997490882873535,3.600028276443481,7.871235550422984,7.453218558782778,31.269420309354285,27.392099946118844,-6.47544875391759e-05,0.0908498615026474,0,0,0
2603,88106.00309840542,2010-08-20 14:49:45,2371.199224422021,7,7,-1.0997490882873535,3.597276210784912,7.871235550422984,7.462386588886815,31.269420309354285,27.42509288755097,-9.713172767078504e-05,0.0908498615026474,0,0,0
2604,88136.01829866992,2010-08-20 14:50:15,2401.2144246915386,7,7,-1.099568486213684,3.5946860313415527,7.871235550422984,7.471554620508281,31.269420309354285,27.458061429958136,-3.237724376958795e-05,0.0908498615026474,0,0,0
2605,88166.0334855611,2010-08-20 14:50:45,2431.229611582713,7,7,-1.0993878841400146,3.5920960903167725,7.871235550422984,7.480722671324203,31.269420309354285,27.4910054051674,-6.470680091297254e-05,0.0908498615026474,0,0,0
2606,88196.04867594095,2010-08-20 14:51:15,2461.244801987646,7,7,-1.099568486213684,3.589344024658203,7.871235550422984,7.489890751996454,31.269420309354285,27.52392445332547,-3.237724376958795e-05,0.0908498615026474,0,0,0
2607,88226.06382599032,2010-08-20 14:51:45,2491.259952011937,7,7,-1.099568486213684,3.586430072784424,7.871235550422984,7.499058806040361,31.269420309354285,27.55681762925357,-6.47544875391759e-05,0.0908498615026474,0,0,0
2608,88256.07946878276,2010-08-20 14:52:15,2521.275594809371,7,7,-1.099568486213684,3.5833542346954346,7.871235550422984,7.508227026427712,31.269420309354285,27.589685073611744,-9.713172767078504e-05,0.0908498615026474,0,0,0
2609,88286.09432235819,2010-08-20 14:52:45,2551.290448374796,7,7,-1.099568486213684,3.580602169036865,7.871235550422984,7.517394910912016,31.269420309354285,27.622524354061863,-3.237724376958795e-05,0.0908498615026474,0,0,0
2610,88316.10941484408,2010-08-20 14:53:15,2581.305540870708,7,7,-1.099568486213684,3.577364444732666,7.871235550422984,7.526562896677304,31.269420309354285,27.65533636621916,-9.713172767078504e-05,0.0908498615026474,0,0,0
2611,88346.12453962545,2010-08-20 14:53:45,2611.3206656470743,7,7,-1.099568486213684,3.5744504928588867,7.871235550422984,7.535730912246284,31.269420309354285,27.68812061258327,-6.47544875391759e-05,0.0908498615026474,0,0,0
2612,88376.13973406043,2010-08-20 14:54:15,2641.335860077038,7,7,-1.099568486213684,3.571374654769897,7.871235550422984,7.54489896432736,31.269420309354285,27.720876502315424,-6.47544875391759e-05,0.0908498615026474,0,0,0
2613,88406.15492106188,2010-08-20 14:54:45,2671.3510470835004,7,7,-1.099929690361023,3.5679750442504883,7.871235550422984,7.554067039975766,31.269420309354285,27.75360302952382,-9.713172767078504e-05,0.0908498615026474,0,0,0
2614,88436.17025066374,2010-08-20 14:55:15,2701.366376690367,7,7,-1.099568486213684,3.564737319946289,7.871235550422984,7.563235128332392,31.269420309354285,27.78629964592977,-6.47544875391759e-05,0.0908498615026474,0,0,0
2615,88466.18527931553,2010-08-20 14:55:45,2731.381405327123,7,7,-1.099568486213684,3.56133770942688,7.871235550422984,7.572403152462652,31.269420309354285,27.81896585643395,-9.713172767078504e-05,0.0908498615026474,0,0,0
2616,88496.20057473218,2010-08-20 14:56:15,2761.396700748789,7,7,-1.0997490882873535,3.5579380989074707,7.871235550422984,7.58157117942839,31.269420309354285,27.851601125854668,-9.713172767078504e-05,0.0908498615026474,0,0,0
2617,88526.21574407963,2010-08-20 14:56:45,2791.411870106265,7,7,-1.099568486213684,3.554376602172852,7.871235550422984,7.590739241002487,31.269420309354285,27.88420408132561,-9.713172767078504e-05,0.0908498615026474,0,0,0
2618,88556.23081595414,2010-08-20 14:57:15,2821.426941970757,7,7,-1.099568486213684,3.5504913330078125,7.871235550422984,7.599907210908755,31.269420309354285,27.91677293111147,-0.0001295089750783,0.0908498615026474,0,0,0
2619,88586.24597452975,2010-08-20 14:57:45,2851.442100546362,7,7,-1.0997490882873535,3.5467679500579834,7.871235550422984,7.609075289203864,31.269420309354285,27.949307526539,-9.713172767078504e-05,0.0908498615026474,0,0,0
2620,88616.26118289445,2010-08-20 14:58:15,2881.457308916068,7,7,-1.099568486213684,3.5425589084625244,7.871235550422984,7.618243425512525,31.269420309354285,27.98180614449119,-0.0001295089750783,0.0908498615026474,0,0,0
2621,88646.27634599133,2010-08-20 14:58:45,2911.472472022965,7,7,-1.099568486213684,3.5385117530822754,7.871235550422984,7.627411524995272,31.269420309354285,28.014267731499867,-0.0001295089750783,0.0908498615026474,0,0,0
2622,88676.29165696676,2010-08-20 14:59:15,2941.4877829833586,7,7,-1.0997490882873535,3.5341408252716064,7.871235550422984,7.636579672249049,31.269420309354285,28.046690904477103,-0.0001295089750783,0.0908498615026474,0,0,0
2623,88706.30682672022,2010-08-20 14:59:45,2971.5029527418333,7,7,-1.0997490882873535,3.529769897460937,7.871235550422984,7.645747729234815,31.269420309354285,28.07907324045601,-9.713172767078504e-05,0.0908498615026474,0,0,0
2624,88736.32188416377,2010-08-20 15:00:15,3001.518010190397,7,7,-1.0997490882873535,3.5250751972198486,7.871235550422984,7.654915771335566,31.269420309354285,28.11141374670612,-0.0001295089750783,0.0908498615026474,0,0,0
2625,88766.33706153622,2010-08-20 15:00:45,3031.5331875578368,7,7,-1.099568486213684,3.52038049697876,7.871235550422984,7.664083780808666,31.269420309354285,28.14371063826625,-0.0001295089750783,0.0908498615026474,0,0,0
2626,88796.35225995112,2010-08-20 15:01:15,3061.5483859727324,7,7,-1.0997490882873535,3.515362024307251,7.871235550422984,7.673251815955826,31.269420309354285,28.175963211684053,-0.0001295089750783,0.0908498615026474,0,0,0
2627,88826.36743620578,2010-08-20 15:01:45,3091.563562247448,7,7,-1.0997490882873535,3.5103437900543213,7.871235550422984,7.682419852706484,31.269420309354285,28.20816973856977,-0.0001618862152099,0.0908498615026474,0,0,0
2628,88856.38261127248,2010-08-20 15:02:15,3121.578737289089,7,7,-1.099568486213684,3.5050015449523926,7.871235550422984,7.691587959458206,31.269420309354285,28.240328879324995,-0.0001618862152099,0.0908498615026474,0,0,0
2629,88886.39777867509,2010-08-20 15:02:45,3151.593904696706,7,7,-1.099568486213684,3.499335527420044,7.871235550422984,7.700756048996897,31.269420309354285,28.272437520717244,-0.0001295089750783,0.0908498615026474,0,0,0
2630,88916.41311181575,2010-08-20 15:03:15,3181.6092378223416,7,7,-1.0997490882873535,3.4930219650268555,7.871235550422984,7.709924148884801,31.269420309354285,28.30449212015396,-0.0001942634553415,0.0908498615026474,0,0,0
2631,88946.42822101331,2010-08-20 15:03:45,3211.62434703993,7,7,-1.0997490882873535,3.486384630203247,7.871235550422984,7.719092173884058,31.269420309354285,28.33648734848849,-0.0001942634553415,0.0908498615026474,0,0,0
2632,88976.44331009571,2010-08-20 15:04:15,3241.6394361123107,7,7,-1.0997490882873535,3.478937864303589,7.871235550422984,7.72826017493748,31.269420309354285,28.36841706791209,-0.0002266406954731,0.0908498615026474,0,0,0
2633,89006.45847796949,2010-08-20 15:04:45,3271.6546039961136,7,7,-1.099568486213684,3.470519781112671,7.871235550422984,7.737428184735071,31.269420309354285,28.400274257438262,-0.0002590179501567,0.0908498615026474,0,0,0
2634,89036.47631614847,2010-08-20 15:05:15,3301.6724421650883,7,7,-1.0993878841400146,3.461454153060913,7.871235550422984,7.746597076927727,31.269420309354285,28.43205418514779,-0.0002266406954731,0.0908498615026474,0,0,0
2635,89066.48879723097,2010-08-20 15:05:45,3331.6849232525683,7,7,-1.099568486213684,3.4506077766418457,7.871235550422984,7.755764264891623,31.269420309354285,28.46373710057304,-0.0002913951757363,0.0908498615026474,0,0,0
2636,89096.50421069181,2010-08-20 15:06:15,3361.7003367134243,7,7,-1.099568486213684,3.4379806518554688,7.871235550422984,7.764932465330017,31.269420309354285,28.49531671897498,-0.0003885269106831,0.0908498615026474,0,0,0
2637,89126.51920358448,2010-08-20 15:06:45,3391.7153296010824,7,7,-1.099568486213684,3.422116041183472,7.871235550422984,7.774100488032214,31.269420309354285,28.526766059131653,-0.0004532813909463,0.0908498615026474,0,0,0
2638,89156.5345382289,2010-08-20 15:07:15,3421.730664250517,7,7,-1.099568486213684,3.401556491851806,7.871235550422984,7.783268588043121,31.269420309354285,28.558050259333985,-0.0005827903514727,0.0908498615026474,0,0,0
2639,89186.54968481963,2010-08-20 15:07:45,3451.745810846263,7,7,-1.0997490882873535,3.3737120628356934,7.871235550422984,7.792436658042722,31.269420309354285,28.589115411022537,-0.0008418083307333,0.0908498615026474,0,0,0
2640,89216.56473851885,2010-08-20 15:08:15,3481.7608645354576,7,7,-1.0997490882873535,3.334050178527832,7.871235550422984,7.801604692944745,31.269420309354285,28.61987559258382,-0.0012950897216796,0.0908498615026474,0,0,0
2641,89246.57994147006,2010-08-20 15:08:45,3511.776067486659,7,7,-1.099568486213684,3.2773900032043457,7.871235550422984,7.810772767666013,31.269420309354285,28.650199946763426,-0.0017807483673095,0.0908498615026474,0,0,0
2642,89276.59510177998,2010-08-20 15:09:15,3541.791227796585,7,7,-1.0997490882873535,3.1946663856506348,7.871235550422984,7.819940859299662,31.269420309354285,28.679893750333317,-0.0026225566398352,0.0908498615026474,0,0,0
2643,89306.61026817508,2010-08-20 15:09:45,3571.8063941916776,7,7,-1.0993878841400146,3.067748069763184,7.871235550422984,7.829108889924543,31.269420309354285,28.70864543262829,-0.0041119097732007,0.0908498615026474,0,0,0
2644,89332.9225085241,2010-08-20 15:10:12,3598.118634540702,7,7,-1.0997490882873535,2.867657423019409,7.871235550422984,7.837145818371569,31.269420309354285,28.732596884738523,-0.0083856582641601,0.0908498615026474,0,0,0
2645,89344.7192114275,2010-08-20 15:10:24,3609.915337444091,7,7,-1.0997490882873535,2.699458122253418,7.871235550422984,7.840749081638546,31.269420309354285,28.742649856886253,-0.0131127359345555,0.0908498615026474,0,0,0
2646,89404.73653280971,2010-08-20 15:11:24,60.01476730620932,8,7,0.0,3.3397161960601807,7.871235550422984,7.840749081638546,31.269420309354285,28.742649856886253,0.0012950897216796,0.0908498615026474,0,0,0
2647,89404.9277607838,2010-08-20 15:11:24,0.187684417317005,9,7,-1.9243103452026844e-05,3.33987808227539,7.871235550422984,7.840749082641778,31.269420309354285,28.74264986023692,0.0,0.0872892439365387,0,0,0
2648,89409.75562423504,2010-08-20 15:11:29,5.015547853496407,9,7,0.0003419754502829,3.347324848175049,7.871236454520941,7.840749082724548,31.269423332792712,28.742649860513364,0.0011008263099938,0.0872892439365387,0,0,0
