Data_Point,Test_Time(s),Date_Time,Step_Time(s),Step_Index,Cycle_Index,Current(A),Voltage(V),Charge_Capacity(Ah),Discharge_Capacity(Ah),Charge_Energy(Wh),Discharge_Energy(Wh),dV/dt(V/s),Internal_Resistance(Ohm),Is_FC_Data,AC_Impedance(Ohm),ACI_Phase_Angle(Deg)
7512,251261.00556429516,2010-08-22 12:09:16,30.015644336268856,1,21,0.0,3.3523430824279785,22.209356160078816,22.178294496705668,88.15293896164951,81.48083698430972,0.0007122516399249,0.0842081755399704,0,0,0
7513,251291.0205547718,2010-08-22 12:09:46,60.03063484299332,1,21,0.0,3.3738739490509038,22.209356160078816,22.178294496705668,88.15293896164951,81.48083698430972,0.0005180359003134,0.0842081755399704,0,0,0
7514,251321.03601914956,2010-08-22 12:10:16,90.04609920070021,1,21,0.0,3.3900625705718994,22.209356160078816,22.178294496705668,88.15293896164951,81.48083698430972,0.0003885269106831,0.0842081755399704,0,0,0
7515,251351.00453199964,2010-08-22 12:10:46,120.01461209591598,1,21,0.0,3.4026896953582764,22.209356160078816,22.178294496705668,88.15293896164951,81.48083698430972,0.0003237724304199,0.0842081755399704,0,0,0
7516,251381.01874611527,2010-08-22 12:11:16,30.015436864184583,2,21,0.5501165986061096,3.5391592979431152,22.2139433528796,22.178294496705668,88.16901879323005,81.48083698430972,0.0015217304462566,0.0842081755399704,0,0,0
7517,251411.0339509963,2010-08-22 12:11:46,60.0306417602332,2,21,0.5501165986061096,3.586106300354004,22.218530482906225,22.178294496705668,88.18536709562704,81.48083698430972,0.0010684489971026,0.0842081755399704,0,0,0
7518,251441.04927286383,2010-08-22 12:12:16,90.04596360776087,2,21,0.5501165986061096,3.622206687927246,22.223117627267857,22.178294496705668,88.20190273121707,81.48083698430972,0.0009065627818927,0.0842081755399704,0,0,0
7519,251471.06469644496,2010-08-22 12:12:46,120.06138719385235,2,21,0.5501165986061096,3.651508092880249,22.227704826301736,22.178294496705668,88.21858773520762,81.48083698430972,0.0006799221155233,0.0842081755399704,0,0,0
7520,251501.07995255865,2010-08-22 12:13:16,150.07664332760112,2,21,0.5501165986061096,3.676762104034424,22.232291944893458,22.178294496705668,88.23539764402082,81.48083698430972,0.0006151676061563,0.0842081755399704,0,0,0
7521,251531.09520807085,2010-08-22 12:13:46,180.09189881473827,2,21,0.5501165986061096,3.698454856872559,22.23687898896341,22.178294496705668,88.25231448505103,81.48083698430972,0.0005180359003134,0.0842081755399704,0,0,0
7522,251561.1105122644,2010-08-22 12:14:16,210.10720300325423,2,21,0.5501165986061096,3.717071771621704,22.24146608608399,22.178294496705668,88.2693237176732,81.48083698430972,0.0004532813909463,0.0842081755399704,0,0,0
7523,251591.12584524963,2010-08-22 12:14:46,240.1225359935532,2,21,0.550297200679779,3.7318034172058105,22.24605315921493,22.178294496705668,88.28640949684672,81.48083698430972,0.0003561496851034,0.0842081755399704,0,0,0
7524,251621.141181473,2010-08-22 12:15:16,270.1378722519973,2,21,0.550297200679779,3.742002248764038,22.250640250397787,22.178294496705668,88.30355303868309,81.48083698430972,0.0001942634553415,0.0842081755399704,0,0,0
7525,251651.1564656467,2010-08-22 12:15:46,300.15315638553005,2,21,0.5499359965324402,3.7478301525115967,22.25522729256456,22.178294496705668,88.32073279648975,81.48083698430972,0.0001618862152099,0.0842081755399704,0,0,0
7526,251681.17177960952,2010-08-22 12:16:16,330.1684703534193,2,21,0.550297200679779,3.751391649246216,22.259814355004696,22.178294496705668,88.3379329419062,81.48083698430972,9.713172767078504e-05,0.0842081755399704,0,0,0
7527,251711.1871264694,2010-08-22 12:16:46,360.1838172182979,2,21,0.5501165986061096,3.753819704055786,22.264401423759505,22.178294496705668,88.3551467295894,81.48083698430972,3.237724376958795e-05,0.0842081755399704,0,0,0
7528,251741.20241305404,2010-08-22 12:17:16,390.1991037979272,2,21,0.5501165986061096,3.7564098834991455,22.268988485707453,22.178294496705668,88.3723720576337,81.48083698430972,6.47544875391759e-05,0.0842081755399704,0,0,0
7529,251771.21773633512,2010-08-22 12:17:46,420.2144270740153,2,21,0.5501165986061096,3.758676290512085,22.27357554690913,22.178294496705668,88.38960838893878,81.48083698430972,3.237724376958795e-05,0.0842081755399704,0,0,0
7530,251801.23317326448,2010-08-22 12:18:16,450.2298640083747,2,21,0.5499359965324402,3.7611045837402335,22.278162677404083,22.178294496705668,88.40685589414466,81.48083698430972,3.237724376958795e-05,0.0842081755399704,0,0,0
7531,251831.2483536344,2010-08-22 12:18:46,480.2450444033592,2,21,0.550297200679779,3.763532876968384,22.28275032297924,22.178294496705668,88.42411624112971,81.48083698430972,0.0,0.0842081755399704,0,0,0
7532,251861.26387900417,2010-08-22 12:19:16,510.26056977312686,2,21,0.550297200679779,3.765961170196533,22.28733834207331,22.178294496705668,88.44138898950591,81.48083698430972,3.237724376958795e-05,0.0842081755399704,0,0,0
7533,251891.27897820176,2010-08-22 12:19:46,540.27566894568,2,21,0.550297200679779,3.7683894634246826,22.291926117241204,22.178294496705668,88.458671752272,81.48083698430972,9.713172767078504e-05,0.0842081755399704,0,0,0
7534,251921.29433146265,2010-08-22 12:20:16,570.2910222014867,2,21,0.5504778623580933,3.770655870437622,22.29651407111743,22.178294496705668,88.4759661732162,81.48083698430972,6.47544875391759e-05,0.0842081755399704,0,0,0
7535,251951.3096711847,2010-08-22 12:20:46,600.3063619285758,2,21,0.550297200679779,3.773084163665772,22.30110209396265,22.178294496705668,88.493271792375,81.48083698430972,6.47544875391759e-05,0.0842081755399704,0,0,0
7536,251981.3249256192,2010-08-22 12:21:16,630.3216163630896,2,21,0.550297200679779,3.775512456893921,22.305690004940512,22.178294496705668,88.5105879831984,81.48083698430972,3.237724376958795e-05,0.0842081755399704,0,0,0
7537,252011.34026950668,2010-08-22 12:21:46,660.3369602705975,2,21,0.550297200679779,3.7779407501220703,22.310277535805625,22.178294496705668,88.52791369065453,81.48083698430972,6.47544875391759e-05,0.0842081755399704,0,0,0
7538,252041.3555623569,2010-08-22 12:22:16,690.3522530957927,2,21,0.5501165986061096,3.78036904335022,22.31486474768456,22.178294496705668,88.54524936034908,81.48083698430972,6.47544875391759e-05,0.0842081755399704,0,0,0
7539,252071.37106413787,2010-08-22 12:22:46,720.3677549068447,2,21,0.5501165986061096,3.782797336578369,22.31945196455316,22.178294496705668,88.56259635263007,81.48083698430972,6.47544875391759e-05,0.0842081755399704,0,0,0
7540,252101.38617448832,2010-08-22 12:23:16,750.382865252244,2,21,0.550297200679779,3.7855494022369385,22.324039147690307,22.178294496705668,88.57995499720052,81.48083698430972,9.713172767078504e-05,0.0842081755399704,0,0,0
7541,252131.40148314292,2010-08-22 12:23:46,780.3981738868412,2,21,0.5501165986061096,3.788301467895508,22.328626362549016,22.178294496705668,88.59732592143385,81.48083698430972,9.713172767078504e-05,0.0842081755399704,0,0,0
7542,252161.41682395776,2010-08-22 12:24:16,810.4135147016409,2,21,0.550297200679779,3.791053533554077,22.33321358280825,22.178294496705668,88.61470961608903,81.48083698430972,9.713172767078504e-05,0.0842081755399704,0,0,0
7543,252191.4349703048,2010-08-22 12:24:46,840.4316610486906,2,21,0.5501165986061096,3.793967485427856,22.33780122394681,22.178294496705668,88.63210817184732,81.48083698430972,9.713172767078504e-05,0.0842081755399704,0,0,0
7544,252221.44745916163,2010-08-22 12:25:16,870.4441499005213,2,21,0.550297200679779,3.797205209732056,22.34238799962389,22.178294496705668,88.64951750074437,81.48083698430972,9.713172767078504e-05,0.0842081755399704,0,0,0
7545,252251.46279783107,2010-08-22 12:25:46,900.4594885799994,2,21,0.5499359965324402,3.800281047821045,22.34697529794343,22.178294496705668,88.66694342101627,81.48083698430972,6.47544875391759e-05,0.0842081755399704,0,0,0
7546,252281.4780813932,2010-08-22 12:26:16,930.4747721270704,2,21,0.5504778623580933,3.803842544555664,22.35156258057757,22.178294496705668,88.68438432933613,81.48083698430972,0.0001295089750783,0.0842081755399704,0,0,0
7547,252311.49341221308,2010-08-22 12:26:46,960.4901029569852,2,21,0.5501165986061096,3.806918382644653,22.35614982665301,22.178294496705668,88.70184050819752,81.48083698430972,6.47544875391759e-05,0.0842081755399704,0,0,0
7548,252341.5087074944,2010-08-22 12:27:16,990.505398223264,2,21,0.5501165986061096,3.810479879379273,22.360737091644985,22.178294496705668,88.71931232229498,81.48083698430972,6.47544875391759e-05,0.0842081755399704,0,0,0
7549,252371.5240202944,2010-08-22 12:27:46,1020.5207110232426,2,21,0.5501165986061096,3.8138794898986816,22.365324338576368,22.178294496705668,88.73679974432852,81.48083698430972,9.713172767078504e-05,0.0842081755399704,0,0,0
7550,252401.53935403656,2010-08-22 12:28:16,1050.5360447654157,2,21,0.550297200679779,3.817279100418091,22.369911574225096,22.178294496705668,88.75430283505489,81.48083698430972,9.713172767078504e-05,0.0842081755399704,0,0,0
7551,252431.55466492177,2010-08-22 12:28:46,1080.5513556506214,2,21,0.5504778623580933,3.8206787109375,22.374498839968417,22.178294496705668,88.77182126102564,81.48083698430972,9.713172767078504e-05,0.0842081755399704,0,0,0
7552,252461.56996642865,2010-08-22 12:29:16,1110.5666571724914,2,21,0.5501165986061096,3.823754549026489,22.379086083000907,22.178294496705668,88.78935452078211,81.48083698430972,9.713172767078504e-05,0.0842081755399704,0,0,0
7553,252491.5852712236,2010-08-22 12:29:46,1140.581961987569,2,21,0.5501165986061096,3.8268303871154794,22.38367331293224,22.178294496705668,88.80690241387803,81.48083698430972,6.47544875391759e-05,0.0842081755399704,0,0,0
7554,252521.60063011348,2010-08-22 12:30:17,1170.597320852355,2,21,0.5501165986061096,3.8300681114196777,22.388260539262347,22.178294496705668,88.82446462936691,81.48083698430972,6.47544875391759e-05,0.0842081755399704,0,0,0
7555,252551.61623385857,2010-08-22 12:30:47,1200.6129246175085,2,21,0.550297200679779,3.833143949508667,22.392847847260427,22.178294496705668,88.84204133353477,81.48083698430972,9.713172767078504e-05,0.0842081755399704,0,0,0
7556,252581.6313889154,2010-08-22 12:31:17,1230.6280796593048,2,21,0.550297200679779,3.836219549179077,22.397435030187097,22.178294496705668,88.85963153612313,81.48083698430972,0.0001295089750783,0.0842081755399704,0,0,0
7557,252611.6465765935,2010-08-22 12:31:47,1260.6432673374409,2,21,0.5501165986061096,3.839133501052856,22.40202224597272,22.178294496705668,88.87723576306492,81.48083698430972,9.713172767078504e-05,0.0842081755399704,0,0,0
7558,252641.66189119805,2010-08-22 12:32:17,1290.6585819419167,2,21,0.5499359965324402,3.8422093391418457,22.40660949510432,22.178294496705668,88.89485371851211,81.48083698430972,9.713172767078504e-05,0.0842081755399704,0,0,0
7559,252671.67723386243,2010-08-22 12:32:47,1320.6739246263764,2,21,0.5501165986061096,3.844799518585205,22.41119675627904,22.178294496705668,88.91248496211931,81.48083698430972,6.47544875391759e-05,0.0842081755399704,0,0,0
7560,252701.69252173023,2010-08-22 12:33:17,1350.6892124691535,2,21,0.5501165986061096,3.8475515842437744,22.41578397378747,22.178294496705668,88.93012886122465,81.48083698430972,6.47544875391759e-05,0.0842081755399704,0,0,0
7561,252731.7078485753,2010-08-22 12:33:47,1380.7045393141368,2,21,0.550297200679779,3.850303649902344,22.42037125300832,22.178294496705668,88.94778523653407,81.48083698430972,6.47544875391759e-05,0.0842081755399704,0,0,0
7562,252761.7232846124,2010-08-22 12:34:17,1410.71997537131,2,21,0.5501165986061096,3.852731943130493,22.42495850651032,22.178294496705668,88.96545311110604,81.48083698430972,3.237724376958795e-05,0.0842081755399704,0,0,0
7563,252791.7384831977,2010-08-22 12:34:47,1440.7351739365804,2,21,0.550297200679779,3.8549983501434326,22.429545736054468,22.178294496705668,88.98313167327433,81.48083698430972,6.47544875391759e-05,0.0842081755399704,0,0,0
7564,252821.7539510842,2010-08-22 12:35:17,1470.7506418331072,2,21,0.550297200679779,3.857264757156372,22.43413297526336,22.178294496705668,89.0008203639438,81.48083698430972,9.713172767078504e-05,0.0842081755399704,0,0,0
7565,252851.76910966483,2010-08-22 12:35:47,1500.7658004036984,2,21,0.550297200679779,3.8590455055236816,22.438720205271803,22.178294496705668,89.01851825978864,81.48083698430972,3.237724376958795e-05,0.0842081755399704,0,0,0
7566,252881.7844505648,2010-08-22 12:36:17,1530.7811413287732,2,21,0.550297200679779,3.860826253890991,22.443307453071476,22.178294496705668,89.03622465561901,81.48083698430972,6.47544875391759e-05,0.0842081755399704,0,0,0
7567,252911.79975429212,2010-08-22 12:36:47,1560.79644503609,2,21,0.5501165986061096,3.862283229827881,22.44789470488703,22.178294496705668,89.05393879131206,81.48083698430972,0.0,0.0842081755399704,0,0,0
7568,252941.815055383,2010-08-22 12:37:17,1590.8117461218728,2,21,0.5501165986061096,3.8637402057647705,22.45248202190273,22.178294496705668,89.07166029898549,81.48083698430972,0.0,0.0842081755399704,0,0,0
7569,252971.8304977008,2010-08-22 12:37:47,1620.8271884496746,2,21,0.5501165986061096,3.86519718170166,22.45706923719676,22.178294496705668,89.0893877447216,81.48083698430972,3.237724376958795e-05,0.0842081755399704,0,0,0
7570,253001.8456923613,2010-08-22 12:38:17,1650.842383100188,2,21,0.5501165986061096,3.86633038520813,22.461656506733867,22.178294496705668,89.10712148263697,81.48083698430972,0.0,0.0842081755399704,0,0,0
7571,253031.8610158529,2010-08-22 12:38:47,1680.8577065918134,2,21,0.5501165986061096,3.8676254749298096,22.466243764206805,22.178294496705668,89.12486074334815,81.48083698430972,3.237724376958795e-05,0.0842081755399704,0,0,0
7572,253061.8763374849,2010-08-22 12:39:17,1710.8730282288163,2,21,0.5501165986061096,3.868596792221069,22.47083103083647,22.178294496705668,89.14260536169765,81.48083698430972,0.0,0.0842081755399704,0,0,0
7573,253091.8916617936,2010-08-22 12:39:47,1740.8883525424906,2,21,0.5501165986061096,3.869891881942749,22.47541828199555,22.178294496705668,89.16035483093185,81.48083698430972,0.0,0.0842081755399704,0,0,0
7574,253121.90709661267,2010-08-22 12:40:17,1770.9037873866405,2,21,0.550297200679779,3.8710250854492183,22.48000545673537,22.178294496705668,89.1781087912063,81.48083698430972,6.47544875391759e-05,0.0842081755399704,0,0,0
7575,253151.92231773416,2010-08-22 12:40:47,1800.9190084730403,2,21,0.5499359965324402,3.8716726303100586,22.48459268818467,22.178294496705668,89.19586757174007,81.48083698430972,0.0,0.0842081755399704,0,0,0
7576,253181.93760756688,2010-08-22 12:41:17,1830.9342983057777,2,21,0.550297200679779,3.872805833816528,22.489179960382693,22.178294496705668,89.21363097709755,81.48083698430972,3.237724376958795e-05,0.0842081755399704,0,0,0
7577,253211.95291034188,2010-08-22 12:41:47,1860.949601080771,2,21,0.5501165986061096,3.873615264892578,22.49376722669043,22.178294496705668,89.23139873211274,81.48083698430972,0.0,0.0842081755399704,0,0,0
7578,253241.96821654544,2010-08-22 12:42:17,1890.9649072843088,2,21,0.550297200679779,3.874748468399048,22.498354522595,22.178294496705668,89.24917071277578,81.48083698430972,3.237724376958795e-05,0.0842081755399704,0,0,0
7579,253271.9835397313,2010-08-22 12:42:47,1920.980230470172,2,21,0.550297200679779,3.8755578994750977,22.50294175302893,22.178294496705668,89.26694673345459,81.48083698430972,0.0,0.0842081755399704,0,0,0
7580,253301.9988758644,2010-08-22 12:43:17,1950.995566628366,2,21,0.5501165986061096,3.876529216766357,22.507529072055263,22.178294496705668,89.28472729918983,81.48083698430972,3.237724376958795e-05,0.0842081755399704,0,0,0
7581,253332.014166033,2010-08-22 12:43:47,1981.0108567718776,2,21,0.550297200679779,3.877500534057617,22.51211635656983,22.178294496705668,89.30251178936629,81.48083698430972,6.47544875391759e-05,0.0842081755399704,0,0,0
7582,253362.0296030776,2010-08-22 12:44:17,2011.0262938265373,2,21,0.5501165986061096,3.878309965133667,22.516703552673498,22.178294496705668,89.3203000893533,81.48083698430972,3.237724376958795e-05,0.0842081755399704,0,0,0
7583,253392.0448118333,2010-08-22 12:44:47,2041.0415025771924,2,21,0.550297200679779,3.879119396209717,22.521290882370582,22.178294496705668,89.33809307301138,81.48083698430972,3.237724376958795e-05,0.0842081755399704,0,0,0
7584,253422.06012421224,2010-08-22 12:45:17,2071.0568149561213,2,21,0.5501165986061096,3.880090713500977,22.52587820619786,22.178294496705668,89.35588999772946,81.48083698430972,3.237724376958795e-05,0.0842081755399704,0,0,0
7585,253452.0755784748,2010-08-22 12:45:47,2101.0722692136555,2,21,0.5501165986061096,3.8809001445770255,22.53046547765311,22.178294496705668,89.37369086471087,81.48083698430972,3.237724376958795e-05,0.0842081755399704,0,0,0
7586,253482.09078045856,2010-08-22 12:46:17,2131.0874711974457,2,21,0.5501165986061096,3.881871461868286,22.535052717959967,22.178294496705668,89.39149574822457,81.48083698430972,0.0,0.0842081755399704,0,0,0
7587,253512.1061187571,2010-08-22 12:46:47,2161.1028094959747,2,21,0.550297200679779,3.882842779159546,22.539640031114462,22.178294496705668,89.40930501716186,81.48083698430972,6.47544875391759e-05,0.0842081755399704,0,0,0
7588,253542.1215072106,2010-08-22 12:47:17,2191.118197949505,2,21,0.5501165986061096,3.883652210235596,22.544227320933743,22.178294496705668,89.42711841219023,81.48083698430972,3.237724376958795e-05,0.0842081755399704,0,0,0
7589,253572.13670136992,2010-08-22 12:47:47,2221.1333921087944,2,21,0.5501165986061096,3.8844616413116455,22.548814604048797,22.178294496705668,89.44493598383039,81.48083698430972,0.0,0.0842081755399704,0,0,0
7590,253602.15202885648,2010-08-22 12:48:17,2251.148719595376,2,21,0.5501165986061096,3.885432958602905,22.55340186111136,22.178294496705668,89.46275755327098,81.48083698430972,3.237724376958795e-05,0.0842081755399704,0,0,0
7591,253632.1674735151,2010-08-22 12:48:47,2281.164164264012,2,21,0.550297200679779,3.886566162109375,22.55798915590639,22.178294496705668,89.48058359169764,81.48083698430972,6.47544875391759e-05,0.0842081755399704,0,0,0
7592,253662.1826529627,2010-08-22 12:49:17,2311.1793437016104,2,21,0.550297200679779,3.887375593185425,22.56257646652512,22.178294496705668,89.49841401124884,81.48083698430972,3.237724376958795e-05,0.0842081755399704,0,0,0
7593,253692.19809484444,2010-08-22 12:49:47,2341.1947855833,2,21,0.5501165986061096,3.8881850242614746,22.56716374970304,22.178294496705668,89.51624874207363,81.48083698430972,0.0,0.0842081755399704,0,0,0
7594,253722.213305164,2010-08-22 12:50:17,2371.2099959329403,2,21,0.5504778623580933,3.8894801139831534,22.57175107861146,22.178294496705668,89.53408811453187,81.48083698430972,9.713172767078504e-05,0.0842081755399704,0,0,0
7595,253752.22861510183,2010-08-22 12:50:47,2401.2253058407105,2,21,0.550297200679779,3.890451431274414,22.57633849512648,22.178294496705668,89.55193228266853,81.48083698430972,6.47544875391759e-05,0.0842081755399704,0,0,0
7596,253782.2441580404,2010-08-22 12:51:17,2431.240848779265,2,21,0.550297200679779,3.891260862350464,22.58092585460072,22.178294496705668,89.56978079701138,81.48083698430972,0.0,0.0842081755399704,0,0,0
7597,253812.2592423459,2010-08-22 12:51:47,2461.255933084765,2,21,0.5499359965324402,3.892232179641724,22.585513150500603,22.178294496705668,89.58763370909178,81.48083698430972,0.0,0.0842081755399704,0,0,0
7598,253842.27455769724,2010-08-22 12:52:17,2491.2712484411145,2,21,0.5501165986061096,3.893365383148194,22.590100484179786,22.178294496705668,89.60549144884858,81.48083698430972,0.0,0.0842081755399704,0,0,0
7599,253872.2899112237,2010-08-22 12:52:47,2521.2866019625835,2,21,0.5501165986061096,3.894336700439453,22.594687834394723,22.178294496705668,89.62335400620113,81.48083698430972,0.0,0.0842081755399704,0,0,0
7600,253902.30519712163,2010-08-22 12:53:17,2551.3018878555013,2,21,0.550297200679779,3.895469903945923,22.599275179719235,22.178294496705668,89.64122096227266,81.48083698430972,9.713172767078504e-05,0.0842081755399704,0,0,0
7601,253932.32084999417,2010-08-22 12:53:47,2581.3175408984703,2,21,0.550297200679779,3.8966031074523926,22.603862547532835,22.178294496705668,89.65909290644947,81.48083698430972,6.47544875391759e-05,0.0842081755399704,0,0,0
7602,253962.3358214284,2010-08-22 12:54:17,2611.33251219231,2,21,0.5501165986061096,3.897574424743652,22.60844976733333,22.178294496705668,89.67696925833978,81.48083698430972,3.237724376958795e-05,0.0842081755399704,0,0,0
7603,253992.3513749884,2010-08-22 12:54:47,2641.348065757349,2,21,0.5501165986061096,3.898545742034912,22.61303712410882,22.178294496705668,89.69485112966667,81.48083698430972,0.0,0.0842081755399704,0,0,0
7604,254022.36645786537,2010-08-22 12:55:17,2671.3631486092263,2,21,0.5501165986061096,3.899678945541382,22.617624436815383,22.178294496705668,89.71273796242608,81.48083698430972,6.47544875391759e-05,0.0842081755399704,0,0,0
7605,254052.38177300617,2010-08-22 12:55:47,2701.378463750039,2,21,0.550297200679779,3.9009740352630615,22.622211787050325,22.178294496705668,89.73063004515596,81.48083698430972,6.47544875391759e-05,0.0842081755399704,0,0,0
7606,254082.39724907803,2010-08-22 12:56:17,2731.393939821941,2,21,0.550297200679779,3.901945352554321,22.62679912361087,22.178294496705668,89.74852733305399,81.48083698430972,3.237724376958795e-05,0.0842081755399704,0,0,0
7607,254112.41503646047,2010-08-22 12:56:47,2761.411727199328,2,21,0.5499359965324402,3.903078556060791,22.63138681574431,22.178294496705668,89.76643135235348,81.48083698430972,-3.237724376958795e-05,0.0842081755399704,0,0,0
7608,254142.4277637716,2010-08-22 12:57:17,2791.424454510472,2,21,0.550297200679779,3.9045355319976807,22.63597369611957,22.178294496705668,89.7843376496424,81.48083698430972,6.47544875391759e-05,0.0842081755399704,0,0,0
7609,254172.44307303271,2010-08-22 12:57:47,2821.439763796693,2,21,0.5501165986061096,3.905506849288941,22.640561027622905,22.178294496705668,89.80225109904632,81.48083698430972,6.47544875391759e-05,0.0842081755399704,0,0,0
7610,254202.4583541588,2010-08-22 12:58:17,2851.455044897668,2,21,0.5501165986061096,3.90680193901062,22.645148324966105,22.178294496705668,89.82016996408244,81.48083698430972,3.237724376958795e-05,0.0842081755399704,0,0,0
7611,254232.47367938972,2010-08-22 12:58:47,2881.4703701286285,2,21,0.5501165986061096,3.9080970287323,22.649735613875272,22.178294496705668,89.83809446440793,81.48083698430972,3.237724376958795e-05,0.0842081755399704,0,0,0
7612,254262.4889910168,2010-08-22 12:59:17,2911.485681755684,2,21,0.5501165986061096,3.90939211845398,22.654322935924636,22.178294496705668,89.85602483494912,81.48083698430972,6.47544875391759e-05,0.0842081755399704,0,0,0
7613,254292.48916860012,2010-08-22 12:59:47,2941.4858593540825,2,21,0.550297200679779,3.910687208175659,22.6589080223736,22.178294496705668,89.87395230438923,81.48083698430972,6.47544875391759e-05,0.0842081755399704,0,0,0
7614,254322.5040033036,2010-08-22 13:00:17,2971.50069404246,2,21,0.5501165986061096,3.911820411682129,22.66349520396125,22.178294496705668,89.89189379710724,81.48083698430972,3.237724376958795e-05,0.0842081755399704,0,0,0
7615,254352.5193064044,2010-08-22 13:00:47,3001.515997148277,2,21,0.550297200679779,3.9131155014038086,22.66808254226406,22.178294496705668,89.90984191371598,81.48083698430972,3.237724376958795e-05,0.0842081755399704,0,0,0
7616,254382.53464897856,2010-08-22 13:01:17,3031.5313397174496,2,21,0.550297200679779,3.914572238922119,22.67266997190022,22.178294496705668,89.92779645741389,81.48083698430972,0.0,0.0842081755399704,0,0,0
7617,254412.5499413176,2010-08-22 13:01:47,3061.546632061445,2,21,0.5501165986061096,3.915705442428589,22.67725732557217,22.178294496705668,89.9457567631866,81.48083698430972,3.237724376958795e-05,0.0842081755399704,0,0,0
7618,254442.56527543065,2010-08-22 13:02:17,3091.56196616953,2,21,0.550297200679779,3.917324304580689,22.681844654064395,22.178294496705668,89.96372311312024,81.48083698430972,6.47544875391759e-05,0.0842081755399704,0,0,0
7619,254472.5805782257,2010-08-22 13:02:48,3121.577268964573,2,21,0.5501165986061096,3.918619394302368,22.68643196810503,22.178294496705668,89.98169570535062,81.48083698430972,6.47544875391759e-05,0.0842081755399704,0,0,0
7620,254502.5962006524,2010-08-22 13:03:18,3151.5928913962493,2,21,0.5501165986061096,3.919914484024048,22.69101932735014,22.178294496705668,89.99967491143312,81.48083698430972,3.237724376958795e-05,0.0842081755399704,0,0,0
7621,254532.61134091733,2010-08-22 13:03:48,3181.6080316562047,2,21,0.5501165986061096,3.9213714599609375,22.69560665551572,22.178294496705668,90.01766039355537,81.48083698430972,6.47544875391759e-05,0.0842081755399704,0,0,0
7622,254562.62644911732,2010-08-22 13:04:18,3211.62313986127,2,21,0.5501165986061096,3.922828435897827,22.700193937847743,22.178294496705668,90.03565221595018,81.48083698430972,3.237724376958795e-05,0.0842081755399704,0,0,0
7623,254592.62647306785,2010-08-22 13:04:48,3241.6231638067184,2,21,0.550297200679779,3.924447298049927,22.70477886082244,22.178294496705668,90.05364130923363,81.48083698430972,6.47544875391759e-05,0.0842081755399704,0,0,0
7624,254622.6415390226,2010-08-22 13:05:18,3271.638229801583,2,21,0.5501165986061096,3.9257423877716064,22.70936613478951,22.178294496705668,90.0716463127143,81.48083698430972,6.47544875391759e-05,0.0842081755399704,0,0,0
7625,254652.65688371705,2010-08-22 13:05:48,3301.653574460964,2,21,0.5501165986061096,3.927037477493286,22.71395348312252,22.178294496705668,90.08965821250165,81.48083698430972,3.237724376958795e-05,0.0842081755399704,0,0,0
7626,254682.672107034,2010-08-22 13:06:18,3331.668797782936,2,21,0.5501165986061096,3.9286563396453857,22.71854073698906,22.178294496705668,90.10767652283567,81.48083698430972,6.47544875391759e-05,0.0842081755399704,0,0,0
7627,254712.6874878335,2010-08-22 13:06:48,3361.68417858239,2,21,0.550297200679779,3.930275201797485,22.72312802256729,22.178294496705668,90.12570188043796,81.48083698430972,6.47544875391759e-05,0.0842081755399704,0,0,0
7628,254742.70293651213,2010-08-22 13:07:18,3391.6996272810698,2,21,0.550297200679779,3.931732177734375,22.727715375745305,22.178294496705668,90.14373444838522,81.48083698430972,3.237724376958795e-05,0.0842081755399704,0,0,0
7629,254772.7181346664,2010-08-22 13:07:48,3421.714825410253,2,21,0.550297200679779,3.9331891536712646,22.73230270479263,22.178294496705668,90.16177393703938,81.48083698430972,0.0,0.0842081755399704,0,0,0
7630,254802.73372956444,2010-08-22 13:08:18,3451.730420313319,2,21,0.5501165986061096,3.9346461296081534,22.736890043192737,22.178294496705668,90.1798205174966,81.48083698430972,3.237724376958795e-05,0.0842081755399704,0,0,0
7631,254832.7487875193,2010-08-22 13:08:48,3481.745478263133,2,21,0.550297200679779,3.936264991760254,22.741477355628568,22.178294496705668,90.19787423177009,81.48083698430972,3.237724376958795e-05,0.0842081755399704,0,0,0
7632,254862.7641444091,2010-08-22 13:09:18,3511.7608352031216,2,21,0.550297200679779,3.938045740127564,22.746064757634404,22.178294496705668,90.21593547090043,81.48083698430972,6.47544875391759e-05,0.0842081755399704,0,0,0
7633,254892.77941939983,2010-08-22 13:09:48,3541.776110143743,2,21,0.550297200679779,3.939664602279663,22.750652106996547,22.178294496705668,90.23400396192189,81.48083698430972,3.237724376958795e-05,0.0842081755399704,0,0,0
7634,254922.7947051825,2010-08-22 13:10:18,3571.791395946436,2,21,0.5501165986061096,3.9411215782165527,22.75523937685253,22.178294496705668,90.2520796565989,81.48083698430972,3.237724376958795e-05,0.0842081755399704,0,0,0
7635,254952.8100314059,2010-08-22 13:10:48,3601.8067221698698,2,21,0.5501165986061096,3.9429023265838623,22.75982666590118,22.178294496705668,90.27016297655712,81.48083698430972,3.237724376958795e-05,0.0842081755399704,0,0,0
7636,254982.82546984905,2010-08-22 13:11:18,3631.822160587926,2,21,0.5501165986061096,3.944521188735962,22.76441390624009,22.178294496705668,90.28825383980184,81.48083698430972,6.47544875391759e-05,0.0842081755399704,0,0,0
7637,255012.8408998812,2010-08-22 13:11:48,3661.837590620083,2,21,0.550297200679779,3.9464638233184814,22.769001276556757,22.178294496705668,90.30635310605165,81.48083698430972,9.713172767078504e-05,0.0842081755399704,0,0,0
7638,255042.8559902869,2010-08-22 13:12:18,3691.8526810558624,2,21,0.550297200679779,3.948082685470581,22.773588528072487,22.178294496705668,90.32445975407802,81.48083698430972,6.47544875391759e-05,0.0842081755399704,0,0,0
7639,255072.87144638904,2010-08-22 13:12:48,3721.868137147969,2,21,0.550297200679779,3.94986343383789,22.77817598905841,22.178294496705668,90.34257537682092,81.48083698430972,3.237724376958795e-05,0.0842081755399704,0,0,0
7640,255102.8866121175,2010-08-22 13:13:18,3751.8833028563495,2,21,0.5501165986061096,3.9516441822052,22.7827633001774,22.178294496705668,90.36069860361135,81.48083698430972,3.237724376958795e-05,0.0842081755399704,0,0,0
7641,255132.90196667152,2010-08-22 13:13:48,3781.8986574154046,2,21,0.5501165986061096,3.9532630443573,22.787350699838026,22.178294496705668,90.37883045968589,81.48083698430972,0.0,0.0842081755399704,0,0,0
7642,255162.91725430376,2010-08-22 13:14:18,3811.913945047657,2,21,0.550297200679779,3.955367565155029,22.79193804192708,22.178294496705668,90.39697050117906,81.48083698430972,6.47544875391759e-05,0.0842081755399704,0,0,0
7643,255192.9325700812,2010-08-22 13:14:48,3841.9292608150313,2,21,0.5501165986061096,3.956986427307129,22.79652541707298,22.178294496705668,90.41511916559074,81.48083698430972,3.237724376958795e-05,0.0842081755399704,0,0,0
7644,255222.94800049928,2010-08-22 13:15:18,3871.944691228138,2,21,0.550297200679779,3.958929061889648,22.801112758131115,22.178294496705668,90.43327612570758,81.48083698430972,3.237724376958795e-05,0.0842081755399704,0,0,0
7645,255252.9631997713,2010-08-22 13:15:48,3901.9598905302446,2,21,0.5501165986061096,3.960709810256958,22.805700109349683,22.178294496705668,90.45144179336816,81.48083698430972,0.0,0.0842081755399704,0,0,0
7646,255282.97858434016,2010-08-22 13:16:18,3931.9752751041055,2,21,0.550297200679779,3.962814331054688,22.810287507603707,22.178294496705668,90.46961631552418,81.48083698430972,3.237724376958795e-05,0.0842081755399704,0,0,0
7647,255312.99389947092,2010-08-22 13:16:48,3961.990590214843,2,21,0.550297200679779,3.964756965637207,22.81487488816561,22.178294496705668,90.4877995101469,81.48083698430972,6.47544875391759e-05,0.0842081755399704,0,0,0
7648,255343.00931511223,2010-08-22 13:17:18,3992.0060058511217,2,21,0.550297200679779,3.966699600219727,22.81946224559889,22.178294496705668,90.5059913636343,81.48083698430972,3.237724376958795e-05,0.0842081755399704,0,0,0
7649,255373.02458778225,2010-08-22 13:17:48,4022.0212785210833,2,21,0.5501165986061096,3.968480348587036,22.82404963370472,22.178294496705668,90.5241920591176,81.48083698430972,3.237724376958795e-05,0.0842081755399704,0,0,0
7650,255403.03983665284,2010-08-22 13:18:18,4052.0365273917305,2,21,0.550297200679779,3.9705848693847656,22.82863698827387,22.178294496705668,90.54240144689804,81.48083698430972,9.713172767078504e-05,0.0842081755399704,0,0,0
7651,255433.05516166327,2010-08-22 13:18:48,4082.051852402141,2,21,0.5504778623580933,3.972527503967285,22.83322431563272,22.178294496705668,90.56061962499484,81.48083698430972,6.47544875391759e-05,0.0842081755399704,0,0,0
7652,255463.07059697856,2010-08-22 13:19:18,4112.067287722478,2,21,0.5501165986061096,3.9743082523345943,22.83781165722792,22.178294496705668,90.57884669171553,81.48083698430972,6.47544875391759e-05,0.0842081755399704,0,0,0
7653,255493.0858182505,2010-08-22 13:19:48,4142.082508989327,2,21,0.5504778623580933,3.976412773132324,22.842399021622995,22.178294496705668,90.59708281540732,81.48083698430972,6.47544875391759e-05,0.0842081755399704,0,0,0
7654,255523.1011091258,2010-08-22 13:20:18,4172.097799864663,2,21,0.5501165986061096,3.977869749069214,22.846986369973457,22.178294496705668,90.61532765994112,81.48083698430972,0.0,0.0842081755399704,0,0,0
7655,255553.11655621548,2010-08-22 13:20:48,4202.113246954332,2,21,0.550297200679779,3.9802980422973633,22.851573671812893,22.178294496705668,90.6335814471327,81.48083698430972,3.237724376958795e-05,0.0842081755399704,0,0,0
7656,255583.13174680085,2010-08-22 13:21:18,4232.128437544727,2,21,0.5501165986061096,3.982240676879883,22.85616089811468,22.178294496705668,90.65184419101098,81.48083698430972,3.237724376958795e-05,0.0842081755399704,0,0,0
7657,255613.1470782072,2010-08-22 13:21:48,4262.143768946065,2,21,0.5501165986061096,3.9841833114624015,22.86074821792843,22.178294496705668,90.67011646358402,81.48083698430972,6.47544875391759e-05,0.0842081755399704,0,0,0
7658,255643.1624031123,2010-08-22 13:22:18,4292.159093851214,2,21,0.5499359965324402,3.986125946044922,22.865335474460736,22.178294496705668,90.6883976799557,81.48083698430972,3.237724376958795e-05,0.0842081755399704,0,0,0
7659,255673.17770470932,2010-08-22 13:22:48,4322.174395448271,2,21,0.550297200679779,3.9880685806274414,22.86992276375633,22.178294496705668,90.70668832050872,81.48083698430972,0.0,0.0842081755399704,0,0,0
7660,255703.19317636528,2010-08-22 13:23:18,4352.189867114192,2,21,0.5501165986061096,3.990334987640381,22.87451006238172,22.178294496705668,90.72498829637068,81.48083698430972,3.237724376958795e-05,0.0842081755399704,0,0,0
7661,255733.2084554111,2010-08-22 13:23:48,4382.205146165057,2,21,0.5501165986061096,3.992277622222901,22.87909727608833,22.178294496705668,90.74329733568808,81.48083698430972,3.237724376958795e-05,0.0842081755399704,0,0,0
7662,255763.2237970179,2010-08-22 13:24:18,4412.220487786869,2,21,0.550297200679779,3.994381904602051,22.883684581394373,22.178294496705668,90.76161630685864,81.48083698430972,3.237724376958795e-05,0.0842081755399704,0,0,0
7663,255793.23899295164,2010-08-22 13:24:48,4442.2356836905055,2,21,0.5501165986061096,3.99648642539978,22.888271833293352,22.178294496705668,90.77994467852906,81.48083698430972,3.237724376958795e-05,0.0842081755399704,0,0,0
7664,255823.25431046332,2010-08-22 13:25:18,4472.25100120724,2,21,0.550297200679779,3.9985909461975098,22.89285909157393,22.178294496705668,90.79828276213895,81.48083698430972,3.237724376958795e-05,0.0842081755399704,0,0,0
7665,255853.26964012536,2010-08-22 13:25:48,4502.266330864231,2,21,0.550297200679779,4.000857353210449,22.89744637177328,22.178294496705668,90.81663069825268,81.48083698430972,6.47544875391759e-05,0.0842081755399704,0,0,0
7666,255883.28494514097,2010-08-22 13:26:18,4532.281635879808,2,21,0.550297200679779,4.002962112426758,22.90203361845627,22.178294496705668,90.83498841261957,81.48083698430972,6.47544875391759e-05,0.0842081755399704,0,0,0
7667,255913.3002914344,2010-08-22 13:26:48,4562.296982198325,2,21,0.550297200679779,4.005228519439697,22.906620856999805,22.178294496705668,90.85335608509422,81.48083698430972,6.47544875391759e-05,0.0842081755399704,0,0,0
7668,255943.3155971918,2010-08-22 13:27:18,4592.312287930688,2,21,0.550297200679779,4.007332801818848,22.91120814130615,22.178294496705668,90.8717340968222,81.48083698430972,6.47544875391759e-05,0.0842081755399704,0,0,0
7669,255973.33111353408,2010-08-22 13:27:48,4622.32780429802,2,21,0.5501165986061096,4.009599208831787,22.915795506713643,22.178294496705668,90.89012261443088,81.48083698430972,3.23295607813634e-05,0.0842081755399704,0,0,0
7670,256003.34623272147,2010-08-22 13:28:18,4652.342923485456,2,21,0.5501165986061096,4.011703968048096,22.92038264736399,22.178294496705668,90.90852049632426,81.48083698430972,3.24249267578125e-05,0.0842081755399704,0,0,0
7671,256033.36155697,2010-08-22 13:28:48,4682.358247708906,2,21,0.5501165986061096,4.014132022857666,22.924969845770928,22.178294496705668,90.9269290732255,81.48083698430972,3.23295607813634e-05,0.0842081755399704,0,0,0
7672,256063.37692659165,2010-08-22 13:29:18,4712.373617445788,2,21,0.550297200679779,4.0165605545043945,22.929557123649197,22.178294496705668,90.945348489882,81.48083698430972,6.47544875391759e-05,0.0842081755399704,0,0,0
7673,256093.39220458484,2010-08-22 13:29:48,4742.38889534378,2,21,0.5499359965324402,4.018664836883545,22.93414437202559,22.178294496705668,90.96377844472984,81.48083698430972,3.23295607813634e-05,0.0842081755399704,0,0,0
7674,256123.39453597617,2010-08-22 13:30:18,4772.391226720057,2,21,0.5501165986061096,4.020931243896484,22.938729603473337,22.178294496705668,90.98221090169942,81.48083698430972,-3.24249267578125e-05,0.0842081755399704,0,0,0
7675,256153.40736914612,2010-08-22 13:30:48,4802.404059990283,2,21,0.5501165986061096,4.023359775543213,22.94331644554016,22.178294496705668,91.00066073289592,81.48083698430972,3.24249267578125e-05,0.0842081755399704,0,0,0
7676,256183.4225192807,2010-08-22 13:31:18,4832.419210014576,2,21,0.5501165986061096,4.025787830352783,22.947903664454973,22.178294496705668,91.01912301419082,81.48083698430972,3.23295607813634e-05,0.0842081755399704,0,0,0
7677,256213.4378567171,2010-08-22 13:31:48,4862.434547455968,2,21,0.550297200679779,4.028540134429932,22.95249094461493,22.178294496705668,91.03759657640018,81.48083698430972,0.0001619339018361,0.0842081755399704,0,0,0
7678,256243.45317167245,2010-08-22 13:32:18,4892.449862411318,2,21,0.5499359965324402,4.030806541442871,22.95707824686961,22.178294496705668,91.05608130546229,81.48083698430972,6.47544875391759e-05,0.0842081755399704,0,0,0
7679,256273.4685005976,2010-08-22 13:32:48,4922.465191361547,2,21,0.5501165986061096,4.0330729484558105,22.961665541488784,22.178294496705668,91.07457720953954,81.48083698430972,3.24249267578125e-05,0.0842081755399704,0,0,0
7680,256303.48388202864,2010-08-22 13:33:18,4952.4805728828005,2,21,0.550297200679779,4.035662651062012,22.966252853578457,22.178294496705668,91.09308458501644,81.48083698430972,3.23295607813634e-05,0.0842081755399704,0,0,0
7681,256333.49911924024,2010-08-22 13:33:48,4982.495809984114,2,21,0.5501165986061096,4.038252830505371,22.970840124774504,22.178294496705668,91.11160323133058,81.48083698430972,6.47544875391759e-05,0.0842081755399704,0,0,0
7682,256363.5144495739,2010-08-22 13:34:18,5012.5111403177925,2,21,0.5501165986061096,4.0406813621521,22.97542743170248,22.178294496705668,91.13013357020206,81.48083698430972,9.71794142969884e-05,0.0842081755399704,0,0,0
7683,256393.52988449825,2010-08-22 13:34:48,5042.526575252167,2,21,0.5501165986061096,4.043271541595459,22.980014699702,22.178294496705668,91.14867540664204,81.48083698430972,3.24249267578125e-05,0.0842081755399704,0,0,0
7684,256423.5450961361,2010-08-22 13:35:18,5072.541786879993,2,21,0.550297200679779,4.046023368835449,22.98460196738539,22.178294496705668,91.16722902063093,81.48083698430972,9.70840483205393e-05,0.0842081755399704,0,0,0
7685,256453.56040719672,2010-08-22 13:35:49,5102.557097940637,2,21,0.5499359965324402,4.048451900482178,22.98918924525666,22.178294496705668,91.18579456016116,81.48083698430972,6.47544875391759e-05,0.0842081755399704,0,0,0
7686,256483.576027864,2010-08-22 13:36:19,5132.572718607916,2,21,0.5501165986061096,4.051042079925537,22.993776529135328,22.178294496705668,91.2043721156974,81.48083698430972,6.47544875391759e-05,0.0842081755399704,0,0,0
7687,256513.59117946727,2010-08-22 13:36:49,5162.587870226179,2,21,0.550297200679779,4.053793907165527,22.99836378869551,22.178294496705668,91.22296166721144,81.48083698430972,9.70840483205393e-05,0.0842081755399704,0,0,0
7688,256543.6064958211,2010-08-22 13:37:19,5192.603186559965,2,21,0.550297200679779,4.056384086608887,23.00295105859273,22.178294496705668,91.24156350524558,81.48083698430972,6.47544875391759e-05,0.0842081755399704,0,0,0
7689,256573.62168122857,2010-08-22 13:37:49,5222.618371967443,2,21,0.5501165986061096,4.059136390686035,23.00753835327377,22.178294496705668,91.26017778178452,81.48083698430972,6.47544875391759e-05,0.0842081755399704,0,0,0
7690,256603.6370222589,2010-08-22 13:38:19,5252.633712997779,2,21,0.5501165986061096,4.0617265701293945,23.01212569955052,22.178294496705668,91.27880446774746,81.48083698430972,3.24249267578125e-05,0.0842081755399704,0,0,0
7691,256633.65232919928,2010-08-22 13:38:49,5282.649019938153,2,21,0.550297200679779,4.064478397369385,23.01671293078116,22.178294496705668,91.29744315995237,81.48083698430972,3.23295607813634e-05,0.0842081755399704,0,0,0
7692,256663.66764832003,2010-08-22 13:39:19,5312.664339063897,2,21,0.550297200679779,4.067554473876953,23.021300206140943,22.178294496705668,91.31609468607012,81.48083698430972,9.71794142969884e-05,0.0842081755399704,0,0,0
7693,256693.6829931097,2010-08-22 13:39:49,5342.679683873655,2,21,0.5501165986061096,4.069982528686523,23.025887543142588,22.178294496705668,91.33475930431916,81.48083698430972,6.47544875391759e-05,0.0842081755399704,0,0,0
7694,256723.69829963404,2010-08-22 13:40:19,5372.69499037293,2,21,0.5501165986061096,4.072896480560303,23.030474885047017,22.178294496705668,91.35343679284904,81.48083698430972,6.47544875391759e-05,0.0842081755399704,0,0,0
7695,256753.7140048721,2010-08-22 13:40:49,5402.71069564106,2,21,0.550297200679779,4.075810432434082,23.0350622707758,22.178294496705668,91.3721275068014,81.48083698430972,6.47544875391759e-05,0.0842081755399704,0,0,0
7696,256783.7290659547,2010-08-22 13:41:19,5432.725756688593,2,21,0.5501165986061096,4.078562736511231,23.03964958219236,22.178294496705668,91.39083106078284,81.48083698430972,6.47544875391759e-05,0.0842081755399704,0,0,0
7697,256813.7442532469,2010-08-22 13:41:49,5462.74094398578,2,21,0.5499359965324402,4.08147668838501,23.044236925737906,22.178294496705668,91.40954799535128,81.48083698430972,3.24249267578125e-05,0.0842081755399704,0,0,0
7698,256843.75960192128,2010-08-22 13:42:19,5492.756292660169,2,21,0.550297200679779,4.08455228805542,23.048824240235984,22.178294496705668,91.42827813554098,81.48083698430972,6.47544875391759e-05,0.0842081755399704,0,0,0
7699,256873.77504525665,2010-08-22 13:42:49,5522.771736000494,2,21,0.550297200679779,4.087628364562988,23.053411613678943,22.178294496705668,91.44702209398746,81.48083698430972,9.71794142969884e-05,0.0842081755399704,0,0,0
7700,256903.79028138547,2010-08-22 13:43:19,5552.786972124372,2,21,0.550297200679779,4.0903801918029785,23.05799896650856,22.178294496705668,91.46577958864872,81.48083698430972,6.47544875391759e-05,0.0842081755399704,0,0,0
7701,256933.8056693328,2010-08-22 13:43:49,5582.802360076653,2,21,0.550297200679779,4.093456268310547,23.062586303997232,22.178294496705668,91.48455077291476,81.48083698430972,6.47544875391759e-05,0.0842081755399704,0,0,0
7702,256963.82107691892,2010-08-22 13:44:19,5612.817767657854,2,21,0.550297200679779,4.096531867980957,23.06717363771157,22.178294496705668,91.50333586404751,81.48083698430972,6.47544875391759e-05,0.0842081755399704,0,0,0
7703,256993.8362776747,2010-08-22 13:44:49,5642.832968393534,2,21,0.550297200679779,4.099445819854736,23.07176098026546,22.178294496705668,91.52213502399984,81.48083698430972,6.47544875391759e-05,0.0842081755399704,0,0,0
7704,257023.8515074728,2010-08-22 13:45:19,5672.848198191647,2,21,0.5501165986061096,4.102683544158936,23.07634831001829,22.178294496705668,91.54094823305392,81.48083698430972,9.70840483205393e-05,0.0842081755399704,0,0,0
7705,257053.86682417247,2010-08-22 13:45:49,5702.8635149414695,2,21,0.5501165986061096,4.105759620666504,23.080935556305132,22.178294496705668,91.55977541798636,81.48083698430972,9.71794142969884e-05,0.0842081755399704,0,0,0
7706,257083.88236253968,2010-08-22 13:46:19,5732.879053313643,2,21,0.550297200679779,4.109158992767334,23.08552290475332,22.178294496705668,91.57861744053112,81.48083698430972,9.70840483205393e-05,0.0842081755399704,0,0,0
7707,257113.89749205785,2010-08-22 13:46:49,5762.894182801752,2,21,0.5501165986061096,4.112235069274902,23.090110190212386,22.178294496705668,91.59747373614628,81.48083698430972,6.47544875391759e-05,0.0842081755399704,0,0,0
7708,257143.9127863868,2010-08-22 13:47:19,5792.909477125683,2,21,0.5504778623580933,4.115472316741943,23.094697522352803,22.178294496705668,91.61634481154908,81.48083698430972,9.70840483205393e-05,0.0842081755399704,0,0,0
7709,257173.9281099436,2010-08-22 13:47:49,5822.924800687482,2,21,0.5501165986061096,4.118548393249512,23.09928486004696,22.178294496705668,91.63523072094756,81.48083698430972,6.47544875391759e-05,0.0842081755399704,0,0,0
7710,257203.9434389439,2010-08-22 13:48:19,5852.940129687838,2,21,0.550297200679779,4.121947765350342,23.10387221196825,22.178294496705668,91.65413161155476,81.48083698430972,9.70840483205393e-05,0.0842081755399704,0,0,0
7711,257233.95875147823,2010-08-22 13:48:49,5882.955442217141,2,21,0.5501165986061096,4.125185489654541,23.10845956214226,22.178294496705668,91.6730474467495,81.48083698430972,0.0001295089750783,0.0842081755399704,0,0,0
7712,257263.9742388784,2010-08-22 13:49:19,5912.970929637327,2,21,0.550297200679779,4.12842321395874,23.11304689875601,22.178294496705668,91.6919783934362,81.48083698430972,9.70840483205393e-05,0.0842081755399704,0,0,0
7713,257293.98938781497,2010-08-22 13:49:49,5942.986078553858,2,21,0.550297200679779,4.1318230628967285,23.117634210086862,22.178294496705668,91.71092452979312,81.48083698430972,9.71794142969884e-05,0.0842081755399704,0,0,0
7714,257324.00486727036,2010-08-22 13:50:19,5973.001558014204,2,21,0.5501165986061096,4.135060787200928,23.12222161234473,22.178294496705668,91.72988641089908,81.48083698430972,6.47544875391759e-05,0.0842081755399704,0,0,0
7715,257354.0200363521,2010-08-22 13:50:49,6003.016727095993,2,21,0.550297200679779,4.138460159301758,23.12680894320185,22.178294496705668,91.7488635072012,81.48083698430972,3.23295607813634e-05,0.0842081755399704,0,0,0
7716,257384.03540185845,2010-08-22 13:51:19,6033.032092682532,2,21,0.550297200679779,4.142021656036377,23.13139629138523,22.178294496705668,91.76785631671598,81.48083698430972,9.70840483205393e-05,0.0842081755399704,0,0,0
7717,257414.0506850496,2010-08-22 13:51:49,6063.047375788503,2,21,0.5501165986061096,4.145583152770996,23.13598359150595,22.178294496705668,91.7868648055602,81.48083698430972,0.0001295089750783,0.0842081755399704,0,0,0
7718,257444.06604592944,2010-08-22 13:52:19,6093.062736698387,2,21,0.550297200679779,4.148983001708984,23.140570822988515,22.178294496705668,91.80588913869768,81.48083698430972,0.0001295089750783,0.0842081755399704,0,0,0
7719,257474.081335286,2010-08-22 13:52:49,6123.078026029874,2,21,0.550297200679779,4.152544498443604,23.14515807201784,22.178294496705668,91.82492963248455,81.48083698430972,9.71794142969884e-05,0.0842081755399704,0,0,0
7720,257504.09666331392,2010-08-22 13:53:19,6153.093354052793,2,21,0.5501165986061096,4.155943870544434,23.149745382550417,22.178294496705668,91.84398647734358,81.48083698430972,6.47544875391759e-05,0.0842081755399704,0,0,0
7721,257534.11199575284,2010-08-22 13:53:49,6183.108686516781,2,21,0.550297200679779,4.159667491912842,23.15433264535065,22.178294496705668,91.86305941925148,81.48083698430972,0.0001295089750783,0.0842081755399704,0,0,0
7722,257564.12730831225,2010-08-22 13:54:19,6213.123999056109,2,21,0.5501165986061096,4.163066864013672,23.158919924493475,22.178294496705668,91.88214886109668,81.48083698430972,6.47544875391759e-05,0.0842081755399704,0,0,0
7723,257594.14261133783,2010-08-22 13:54:49,6243.139302076715,2,21,0.5501165986061096,4.16679048538208,23.16350724771027,22.178294496705668,91.9012549849328,81.48083698430972,9.71794142969884e-05,0.0842081755399704,0,0,0
7724,257624.1579476414,2010-08-22 13:55:19,6273.154638385284,2,21,0.550297200679779,4.17051362991333,23.168094543716244,22.178294496705668,91.92037767120485,81.48083698430972,0.0001295089750783,0.0842081755399704,0,0,0
7725,257654.17338076123,2010-08-22 13:55:49,6303.170071500123,2,21,0.5501165986061096,4.174075126647949,23.17268186811212,22.178294496705668,91.9395172502658,81.48083698430972,3.23295607813634e-05,0.0842081755399704,0,0,0
7726,257684.18859409832,2010-08-22 13:56:19,6333.18528483721,2,21,0.550297200679779,4.177798748016357,23.17726919022873,22.178294496705668,91.9586737032336,81.48083698430972,9.71794142969884e-05,0.0842081755399704,0,0,0
7727,257714.2040027271,2010-08-22 13:56:49,6363.200693471036,2,21,0.550297200679779,4.181521892547607,23.181856538520165,22.178294496705668,91.9778473462535,81.48083698430972,9.70840483205393e-05,0.0842081755399704,0,0,0
7728,257744.2193537324,2010-08-22 13:57:19,6393.216044471221,2,21,0.5499359965324402,4.185083389282227,23.186443508479357,22.178294496705668,91.99703652953572,81.48083698430972,6.47544875391759e-05,0.0842081755399704,0,0,0
7729,257774.2345621371,2010-08-22 13:57:49,6423.231252886039,2,21,0.550297200679779,4.189130783081055,23.191029941330044,22.178294496705668,92.01624071748422,81.48083698430972,0.0001295089750783,0.0842081755399704,0,0,0
7730,257804.2500372216,2010-08-22 13:58:19,6453.246727965468,2,21,0.5501165986061096,4.192853927612305,23.19561630798973,22.178294496705668,92.03546208624805,81.48083698430972,9.70840483205393e-05,0.0842081755399704,0,0,0
7731,257834.265220604,2010-08-22 13:58:49,6483.2619113428855,2,21,0.5499359965324402,4.196739196777344,23.20020266724064,22.178294496705668,92.05470102154314,81.48083698430972,9.71794142969884e-05,0.0842081755399704,0,0,0
7732,257858.39010331972,2010-08-22 13:59:13,6507.386794048629,2,21,0.550297200679779,4.200138568878174,23.203889280917405,22.178294496705668,92.0701785699798,81.48083698430972,0.0001618385285837,0.0842081755399704,0,0,0
7733,257888.40824058137,2010-08-22 13:59:43,30.015303506816988,3,21,0.0,4.1276140213012695,23.203889280917405,22.178294496705668,92.0701785699798,81.48083698430972,-0.0003561019839253,0.0842081755399704,0,0,0
7734,257918.4235610354,2010-08-22 14:00:13,60.03062396087172,3,21,0.0,4.118710041046143,23.203889280917405,22.178294496705668,92.0701785699798,81.48083698430972,-0.0001942634553415,0.0842081755399704,0,0,0
7735,257948.43886422145,2010-08-22 14:00:44,90.04592714688917,3,21,0.0,4.113530158996582,23.203889280917405,22.178294496705668,92.0701785699798,81.48083698430972,-0.0001295089750783,0.0842081755399704,0,0,0
7736,257978.4073196935,2010-08-22 14:01:13,120.01438260896388,3,21,0.0,4.110130310058594,23.203889280917405,22.178294496705668,92.0701785699798,81.48083698430972,-9.71794142969884e-05,0.0842081755399704,0,0,0
7737,257978.41150000755,2010-08-22 14:01:14,2.631558654e-06,4,21,0.9953184723854064,4.199653148651123,23.20388928164497,22.178294496705668,92.07017857303534,81.48083698430972,0.0,0.0842081755399704,0,0,0
7738,257979.41149637612,2010-08-22 14:01:15,0.999999010225485,4,21,0.9445672631263732,4.199653148651123,23.204157218462832,22.178294496705668,92.0713038126922,81.48083698430972,0.0,0.0842081755399704,0,0,0
7739,257981.55230128072,2010-08-22 14:01:17,3.140803939819242,4,21,0.894177258014679,4.199653148651123,23.204702784310456,22.178294496705668,92.07359499497558,81.48083698430972,0.0,0.0842081755399704,0,0,0
7740,257984.75516389983,2010-08-22 14:01:20,6.343666543924859,4,21,0.8439679145812988,4.199653148651123,23.20547477739156,22.178294496705668,92.07683708752234,81.48083698430972,-3.23295607813634e-05,0.0842081755399704,0,0,0
7741,257988.97388048467,2010-08-22 14:01:24,10.562383128720812,4,21,0.7939391136169434,4.199491024017334,23.206433339382144,22.178294496705668,92.08086270166795,81.48083698430972,-3.24249267578125e-05,0.0842081755399704,0,0,0
7742,257994.38007507505,2010-08-22 14:01:30,15.968577729109471,4,21,0.7439103722572327,4.199653148651123,23.2075867457766,22.178294496705668,92.08570659364877,81.48083698430972,3.24249267578125e-05,0.0842081755399704,0,0,0
7743,258001.2862534816,2010-08-22 14:01:37,22.874756125651626,4,21,0.6937009692192078,4.199653148651123,23.20896386507856,22.178294496705668,92.09149000089816,81.48083698430972,-3.23295607813634e-05,0.0842081755399704,0,0,0
7744,258010.34866683916,2010-08-22 14:01:46,31.93716948317345,4,21,0.6436722278594971,4.199653148651123,23.210644425957337,22.178294496705668,92.0985477960209,81.48083698430972,0.0,0.0842081755399704,0,0,0
7745,258022.6766691341,2010-08-22 14:01:58,44.26517178313643,4,21,0.5934628248214722,4.199653148651123,23.21275839968483,22.178294496705668,92.1074257838769,81.48083698430972,-3.23295607813634e-05,0.0842081755399704,0,0,0
7746,258040.55168977048,2010-08-22 14:02:16,62.14019243961874,4,21,0.5434340834617615,4.199491024017334,23.215573691603467,22.178294496705668,92.1192490458873,81.48083698430972,-6.47544875391759e-05,0.0842081755399704,0,0,0
7747,258068.5199245372,2010-08-22 14:02:44,90.10842720626792,4,21,0.4934053122997284,4.199653148651123,23.21958703934695,22.178294496705668,92.1361037371238,81.48083698430972,0.0,0.0842081755399704,0,0,0
7748,258114.73827907268,2010-08-22 14:03:30,136.32678174180265,4,21,0.4433765411376953,4.199653148651123,23.22557561325832,22.178294496705668,92.16125375112708,81.48083698430972,0.0,0.0842081755399704,0,0,0
7749,258187.15943157813,2010-08-22 14:04:42,208.74793425229032,4,21,0.3933477699756622,4.199653148651123,23.233963984411663,22.178294496705668,92.19648209451933,81.48083698430972,0.0,0.0842081755399704,0,0,0
7750,258284.4709132425,2010-08-22 14:06:20,306.05941589654213,4,21,0.3431383967399597,4.199491024017334,23.24390070059329,22.178294496705668,92.23821297948302,81.48083698430972,-3.24249267578125e-05,0.0842081755399704,0,0,0
7751,258404.3448713554,2010-08-22 14:08:20,425.9333740094543,4,21,0.2931096255779266,4.199491024017334,23.25447868135031,22.178294496705668,92.28263694577728,81.48083698430972,-3.24249267578125e-05,0.0842081755399704,0,0,0
7752,258548.2339064193,2010-08-22 14:10:43,569.8224090533329,4,21,0.2429002374410629,4.199491024017334,23.265176025158365,22.178294496705668,92.32756229385174,81.48083698430972,0.0,0.0842081755399704,0,0,0
7753,258728.3415875284,2010-08-22 14:13:44,749.9300902075172,4,21,0.1928714662790298,4.199491024017334,23.27605870782726,22.178294496705668,92.37326619709776,81.48083698430972,0.0,0.0842081755399704,0,0,0
7754,258966.19842800652,2010-08-22 14:17:41,987.786930645609,4,21,0.1428426951169967,4.199491024017334,23.28708472364752,22.178294496705668,92.4195717804112,81.48083698430972,0.0,0.0842081755399704,0,0,0
7755,259318.5389029476,2010-08-22 14:23:34,1340.1274055916283,4,21,0.0928139239549636,4.199653148651123,23.298456273979987,22.178294496705668,92.46732852120888,81.48083698430972,0.0,0.0842081755399704,0,0,0
7756,259859.1115902444,2010-08-22 14:32:34,1880.7000929285296,4,21,0.0498289167881011,4.199653148651123,23.308849019045624,22.178294496705668,92.51097457161688,81.48083698430972,0.0,0.0842081755399704,0,0,0
7757,259889.13411600725,2010-08-22 14:33:04,30.01532836376816,5,21,0.0,4.192853927612305,23.308849019045624,22.178294496705668,92.51097457161688,81.48083698430972,-6.47544875391759e-05,0.0842081755399704,0,0,0
7758,259919.1339771519,2010-08-22 14:33:34,60.01518960370462,5,21,0.0,4.192044734954834,23.308849019045624,22.178294496705668,92.51097457161688,81.48083698430972,0.0,0.0842081755399704,0,0,0
7759,259919.3292204984,2010-08-22 14:33:35,0.187427892979426,6,21,-1.9243103452026844e-05,4.192044734954834,23.308849019045624,22.17829449770753,92.51097457161688,81.48083698850955,0.0,0.0873680263757705,0,0,0
7760,259924.15729000312,2010-08-22 14:33:40,5.015497367670194,6,21,0.0007031940040178,4.191720962524414,23.308849888577555,22.17829449787512,92.51097821668093,81.4808369892121,-6.47544875391759e-05,0.0873680263757705,0,0,0
7761,259954.18064885272,2010-08-22 14:34:10,30.015313050603044,7,21,-1.099929690361023,4.042300224304199,23.308849888577555,22.18746461996865,92.51097821668093,81.51807648284252,-0.0008418083307333,0.0873680263757705,0,0,0
7762,259984.1959813017,2010-08-22 14:34:40,60.03064549955273,7,21,-1.099929690361023,4.020122051239014,23.308849888577555,22.19663481298453,92.51097821668093,81.55503628299564,-0.0004856109735555,0.0873680263757705,0,0,0
7763,260014.21142105304,2010-08-22 14:35:10,90.0460852509331,7,21,-1.1001102924346924,4.004580974578857,23.308849888577555,22.20580492663493,92.51097821668093,81.59182718092687,-0.0003885269106831,0.0873680263757705,0,0,0
7764,260044.22684740604,2010-08-22 14:35:40,120.0615116239705,7,21,-1.0997490882873535,3.99260139465332,23.308849888577555,22.21497500143222,92.51097821668093,81.62849341899664,-0.0002913475036621,0.0873680263757705,0,0,0
7765,260074.24194707483,2010-08-22 14:36:10,150.07661127271044,7,21,-1.0997490882873535,3.982240676879883,23.308849888577555,22.224145085019178,92.51097821668093,81.66505645990631,-0.0002266406954731,0.0873680263757705,0,0,0
7766,260104.2572732381,2010-08-22 14:36:40,180.09193743599434,7,21,-1.099929690361023,3.972527503967285,23.308849888577555,22.23331507807212,92.51097821668093,81.70152746915204,-0.0002590179501567,0.0873680263757705,0,0,0
7767,260134.2725953012,2010-08-22 14:37:10,210.1072595040717,7,21,-1.0997490882873535,3.963623762130737,23.308849888577555,22.242485045257585,92.51097821668093,81.73791387021541,-0.0001942634553415,0.0873680263757705,0,0,0
7768,260164.2879404919,2010-08-22 14:37:40,240.12260469477772,7,21,-1.0997490882873535,3.95504379272461,23.308849888577555,22.251655049256343,92.51097821668093,81.77422029801956,-0.0002266406954731,0.0873680263757705,0,0,0
7769,260194.3032490964,2010-08-22 14:38:10,270.1379132892748,7,21,-1.099929690361023,3.9466257095336914,23.308849888577555,22.2608250861302,92.51097821668093,81.8104498328933,-0.0002590179501567,0.0873680263757705,0,0,0
7770,260224.31857378103,2010-08-22 14:38:40,300.15323797888584,7,21,-1.099929690361023,3.9386932849884033,23.308849888577555,22.26999509525578,92.51097821668093,81.8466048757795,-0.0002266406954731,0.0873680263757705,0,0,0
7771,260254.33396800392,2010-08-22 14:39:10,330.1686322168327,7,21,-1.099929690361023,3.930922746658325,23.308849888577555,22.27916513435567,92.51097821668093,81.88268722536652,-0.0002266406954731,0.0873680263757705,0,0,0
7772,260284.34924920512,2010-08-22 14:39:40,360.18391339800735,7,21,-1.0997490882873535,3.923314094543457,23.308849888577555,22.28833524582954,92.51097821668093,81.91869854447522,-0.0001942634553415,0.0873680263757705,0,0,0
7773,260314.3645559851,2010-08-22 14:40:10,390.1992201679571,7,21,-1.099929690361023,3.915543556213379,23.308849888577555,22.29750531224457,92.51097821668093,81.95463986210592,-0.0002266406954731,0.0873680263757705,0,0,0
7774,260344.38000271888,2010-08-22 14:40:40,420.21466692178967,7,21,-1.099929690361023,3.9082589149475098,23.308849888577555,22.30667536270907,92.51097821668093,81.9905123708386,-0.0001618862152099,0.0873680263757705,0,0,0
7775,260374.39520357485,2010-08-22 14:41:10,450.2298677677442,7,21,-1.099929690361023,3.900812149047852,23.308849888577555,22.315845368267148,92.51097821668093,82.02631682206055,-0.0002266406954731,0.0873680263757705,0,0,0
7776,260404.41055817404,2010-08-22 14:41:40,480.24522236689904,7,21,-1.0997490882873535,3.893689155578613,23.308849888577555,22.32501542531676,92.51097821668093,82.06205464163197,-0.0002266406954731,0.0873680263757705,0,0,0
7777,260434.42584591152,2010-08-22 14:42:10,510.2605101044141,7,21,-1.0997490882873535,3.886728048324585,23.308849888577555,22.334185481219173,92.51097821668093,82.0977270448439,-0.0001618862152099,0.0873680263757705,0,0,0
7778,260464.44120395428,2010-08-22 14:42:40,540.2758681621888,7,21,-1.099929690361023,3.879281282424927,23.308849888577555,22.34335556174259,92.51097821668093,82.13333433442355,-0.0002266406954731,0.0873680263757705,0,0,0
7779,260494.45651760136,2010-08-22 14:43:10,570.2911817942411,7,21,-1.099929690361023,3.872482061386109,23.308849888577555,22.352525720507924,92.51097821668093,82.16887744670969,-0.0001618862152099,0.0873680263757705,0,0,0
7780,260524.4718395692,2010-08-22 14:43:40,600.3065037620686,7,21,-1.0997490882873535,3.86568284034729,23.308849888577555,22.361695875036744,92.51097821668093,82.20435696305883,-0.0001295089750783,0.0873680263757705,0,0,0
7781,260554.48714878023,2010-08-22 14:44:10,630.3218129731022,7,21,-1.1001102924346924,3.858883619308472,23.308849888577555,22.3708659743474,92.51097821668093,82.23977347318856,-0.0001618862152099,0.0873680263757705,0,0,0
7782,260584.50261032087,2010-08-22 14:44:40,660.3372745137882,7,21,-1.0997490882873535,3.852084398269653,23.308849888577555,22.38003616224228,92.51097821668093,82.27512829938195,-0.0001618862152099,0.0873680263757705,0,0,0
7783,260614.51780729723,2010-08-22 14:45:10,690.3524714900984,7,21,-1.099929690361023,3.845285177230835,23.308849888577555,22.38920622761925,92.51097821668093,82.31042155665344,-0.0001942634553415,0.0873680263757705,0,0,0
7784,260644.53313936025,2010-08-22 14:45:40,720.3678035580987,7,21,-1.099929690361023,3.839133501052856,23.308849888577555,22.398376376283547,92.51097821668093,82.34565498802894,-0.0001295089750783,0.0873680263757705,0,0,0
7785,260674.5484711425,2010-08-22 14:46:10,750.3831353353743,7,21,-1.0997490882873535,3.832658290863037,23.308849888577555,22.40754648109627,92.51097821668093,82.38082891225076,-0.0001294612884521,0.0873680263757705,0,0,0
7786,260704.56378064427,2010-08-22 14:46:40,780.3984448421451,7,21,-1.099929690361023,3.826182842254639,23.308849888577555,22.416716574964475,92.51097821668093,82.4159442981447,-0.0001295089750783,0.0873680263757705,0,0,0
7787,260734.57913441127,2010-08-22 14:47:10,810.4137986042136,7,21,-1.0997490882873535,3.82019305229187,23.308849888577555,22.42588668273373,92.51097821668093,82.4510021229192,-0.0001295089750783,0.0873680263757705,0,0,0
7788,260764.5944627851,2010-08-22 14:47:40,840.4291269679818,7,21,-1.0997490882873535,3.8138794898986816,23.308849888577555,22.43505679964131,92.51097821668093,82.48600335596991,-0.0001618862152099,0.0873680263757705,0,0,0
7789,260794.60988831607,2010-08-22 14:48:10,870.4445525139579,7,21,-1.099929690361023,3.807565927505493,23.308849888577555,22.44422684076368,92.51097821668093,82.52094802707107,-0.0001942634553415,0.0873680263757705,0,0,0
7790,260824.62509220964,2010-08-22 14:48:40,900.4597564325704,7,21,-1.1001102924346924,3.801899909973145,23.308849888577555,22.45339687379033,92.51097821668093,82.55583777603243,-0.0001295089750783,0.0873680263757705,0,0,0
7791,260854.64040574644,2010-08-22 14:49:10,930.4750699643728,7,21,-1.0997490882873535,3.796233892440796,23.308849888577555,22.462567065088592,92.51097821668093,82.5906744260802,-9.713172767078504e-05,0.0873680263757705,0,0,0
7792,260884.6557546514,2010-08-22 14:49:40,960.490418869336,7,21,-1.0997490882873535,3.790405988693237,23.308849888577555,22.47173715352188,92.51097821668093,82.62545788075394,-0.0001295089750783,0.0873680263757705,0,0,0
7793,260914.67106652405,2010-08-22 14:50:10,990.5057307169408,7,21,-1.099929690361023,3.784578084945679,23.308849888577555,22.48090729949584,92.51097821668093,82.66018975685812,-0.0001618862152099,0.0873680263757705,0,0,0
7794,260944.68639632143,2010-08-22 14:50:40,1020.5210605192942,7,21,-1.0997490882873535,3.77923583984375,23.308849888577555,22.49007742638913,92.51097821668093,82.694870639215,-0.0001295089750783,0.0873680263757705,0,0,0
7795,260974.70183658405,2010-08-22 14:51:10,1050.5365007869614,7,21,-1.099929690361023,3.7737317085266113,23.308849888577555,22.499247624348207,92.51097821668093,82.72950192890809,-0.0001618862152099,0.0873680263757705,0,0,0
7796,261004.71725583932,2010-08-22 14:51:40,1080.5519200522842,7,21,-1.099568486213684,3.768713235855103,23.308849888577555,22.50841774441528,92.51097821668093,82.764083889541,-9.713172767078504e-05,0.0873680263757705,0,0,0
7797,261034.732369488,2010-08-22 14:52:10,1110.5670336858786,7,21,-1.099929690361023,3.763370990753174,23.308849888577555,22.51758781699445,92.51097821668093,82.7986176225337,-0.0001618862152099,0.0873680263757705,0,0,0
7798,261064.7476972603,2010-08-22 14:52:40,1140.5823614581727,7,21,-1.099929690361023,3.758352518081665,23.308849888577555,22.526757971657496,92.51097821668093,82.83310447373084,-9.713172767078504e-05,0.0873680263757705,0,0,0
7799,261094.7630487016,2010-08-22 14:53:10,1170.5977128994573,7,21,-1.0997490882873535,3.753334045410156,23.308849888577555,22.535928139193192,92.51097821668093,82.86754518025555,-9.713172767078504e-05,0.0873680263757705,0,0,0
7800,261124.7801084505,2010-08-22 14:53:40,1200.6147726433574,7,21,-1.0997490882873535,3.748477697372437,23.308849888577555,22.54509877573445,92.51097821668093,82.90194223525098,-9.713172767078504e-05,0.0873680263757705,0,0,0
7801,261154.7938460496,2010-08-22 14:54:10,1230.6285103326752,7,21,-1.099929690361023,3.743459224700928,23.308849888577555,22.554268420902947,92.51097821668093,82.93629112526571,-0.0001295089750783,0.0873680263757705,0,0,0
7802,261184.8090072768,2010-08-22 14:54:40,1260.643671474675,7,21,-1.0997490882873535,3.738926410675049,23.308849888577555,22.563437773254144,92.51097821668093,82.97059531599781,-9.713172767078504e-05,0.0873680263757705,0,0,0
7803,261214.82429851303,2010-08-22 14:55:10,1290.65896271091,7,21,-1.0997490882873535,3.73406982421875,23.308849888577555,22.572607100042845,92.51097821668093,83.00485646144074,-0.0001295089750783,0.0873680263757705,0,0,0
7804,261244.83970689625,2010-08-22 14:55:40,1320.6743710890987,7,21,-1.099929690361023,3.729537010192871,23.308849888577555,22.581777261234528,92.51097821668093,83.03907848180467,-0.0001295089750783,0.0873680263757705,0,0,0
7805,261274.8550126988,2010-08-22 14:56:10,1350.6896768916376,7,21,-1.099929690361023,3.725327968597412,23.308849888577555,22.59094741165536,92.51097821668093,83.07325968258964,-9.713172767078504e-05,0.0873680263757705,0,0,0
7806,261304.8703481051,2010-08-22 14:56:40,1380.705012307983,7,21,-1.099929690361023,3.720795154571533,23.308849888577555,22.6001176319384,92.51097821668093,83.1074006308855,-9.713172767078504e-05,0.0873680263757705,0,0,0
7807,261334.8856454816,2010-08-22 14:57:10,1410.7203096744963,7,21,-1.0997490882873535,3.716586112976074,23.308849888577555,22.60928772338927,92.51097821668093,83.14150119201953,-9.713172767078504e-05,0.0873680263757705,0,0,0
7808,261364.90098171,2010-08-22 14:57:40,1440.7356459078785,7,21,-1.0997490882873535,3.712215185165405,23.308849888577555,22.618457829784024,92.51097821668093,83.17556248201868,-0.0001295089750783,0.0873680263757705,0,0,0
7809,261394.91642506537,2010-08-22 14:58:10,1470.751089258228,7,21,-1.099929690361023,3.7080061435699454,23.308849888577555,22.627628034903392,92.51097821668093,83.20958539601789,-0.0001295089750783,0.0873680263757705,0,0,0
7810,261424.93163173585,2010-08-22 14:58:40,1500.7662959286993,7,21,-1.099929690361023,3.703958988189697,23.308849888577555,22.63679815442017,92.51097821668093,83.24357009803794,-0.0001295089750783,0.0873680263757705,0,0,0
7811,261454.94694993427,2010-08-22 14:59:11,1530.7816141371572,7,21,-1.1001102924346924,3.699911832809448,23.308849888577555,22.645968245068488,92.51097821668093,83.27751735151153,-9.713172767078504e-05,0.0873680263757705,0,0,0
7812,261484.96272283595,2010-08-22 14:59:41,1560.797387053888,7,21,-1.0997490882873535,3.696026563644409,23.308849888577555,22.65513852849353,92.51097821668093,83.31142866802118,-9.713172767078504e-05,0.0873680263757705,0,0,0
7813,261514.9777490567,2010-08-22 15:00:11,1590.8124132595854,7,21,-1.0997490882873535,3.69214129447937,23.308849888577555,22.664308546704007,92.51097821668093,83.34530295893374,-9.713172767078504e-05,0.0873680263757705,0,0,0
7814,261544.99295181243,2010-08-22 15:00:41,1620.8276160152998,7,21,-1.0997490882873535,3.688256025314331,23.308849888577555,22.67347865421534,92.51097821668093,83.37914219958314,-9.713172767078504e-05,0.0873680263757705,0,0,0
7815,261575.00826721388,2010-08-22 15:01:11,1650.8429314167618,7,21,-1.0997490882873535,3.684370756149292,23.308849888577555,22.682648825894717,92.51097821668093,83.41294687365111,-9.713172767078504e-05,0.0873680263757705,0,0,0
7816,261605.02358748743,2010-08-22 15:01:41,1680.8582516903668,7,21,-1.099929690361023,3.680971145629883,23.308849888577555,22.69181896657796,92.51097821668093,83.44671750828407,-6.47544875391759e-05,0.0873680263757705,0,0,0
7817,261635.039026888,2010-08-22 15:02:11,1710.8736910808475,7,21,-1.0997490882873535,3.6772477626800537,23.308849888577555,22.700989114582782,92.51097821668093,83.48045454044092,-0.0001295089750783,0.0873680263757705,0,0,0
7818,261665.05468776549,2010-08-22 15:02:41,1740.8893519984424,7,21,-1.099929690361023,3.6736862659454346,23.308849888577555,22.710159300491213,92.51097821668093,83.51415907997963,-6.47544875391759e-05,0.0873680263757705,0,0,0
7819,261695.0695534261,2010-08-22 15:03:11,1770.9042176189118,7,21,-1.0997490882873535,3.670286893844605,23.308849888577555,22.71932937399703,92.51097821668093,83.5478309246198,-6.47544875391759e-05,0.0873680263757705,0,0,0
7820,261725.08504408432,2010-08-22 15:03:41,1800.9197082871926,7,21,-1.0997490882873535,3.666725397109986,23.308849888577555,22.728499559185657,92.51097821668093,83.58147156704447,-6.47544875391759e-05,0.0873680263757705,0,0,0
7821,261755.1003938765,2010-08-22 15:04:11,1830.9350580793675,7,21,-1.099929690361023,3.663487672805786,23.308849888577555,22.73766974511577,92.51097821668093,83.6150816113308,-9.713172767078504e-05,0.0873680263757705,0,0,0
7822,261785.11566992485,2010-08-22 15:04:41,1860.950334117724,7,21,-1.099929690361023,3.660088062286377,23.308849888577555,22.746839829708357,92.51097821668093,83.64866114459333,-0.0001295089750783,0.0873680263757705,0,0,0
7823,261815.130856816,2010-08-22 15:05:11,1890.965521018924,7,21,-1.0997490882873535,3.6571741104125977,23.308849888577555,22.75600991120265,92.51097821668093,83.68221120629356,-6.47544875391759e-05,0.0873680263757705,0,0,0
7824,261845.14622415692,2010-08-22 15:05:41,1920.9808883848973,7,21,-1.1001102924346924,3.6539363861083984,23.308849888577555,22.765180022062744,92.51097821668093,83.71573276307672,-9.713172767078504e-05,0.0873680263757705,0,0,0
7825,261875.1616499736,2010-08-22 15:06:11,1950.9963141664607,7,21,-1.099929690361023,3.651022434234619,23.308849888577555,22.774350197840256,92.51097821668093,83.74922661923647,-6.47544875391759e-05,0.0873680263757705,0,0,0
7826,261905.17684175196,2010-08-22 15:06:41,1981.0115059448165,7,21,-1.0997490882873535,3.64810848236084,23.308849888577555,22.783520302900406,92.51097821668093,83.78269307615612,-3.237724376958795e-05,0.0873680263757705,0,0,0
7827,261935.19218779972,2010-08-22 15:07:11,2011.0268520177208,7,21,-1.099929690361023,3.645194530487061,23.308849888577555,22.79269035181281,92.51097821668093,83.81613251016249,-0.0001295089750783,0.0873680263757705,0,0,0
7828,261965.2077080568,2010-08-22 15:07:41,2041.0423722747464,7,21,-1.099568486213684,3.642604351043701,23.308849888577555,22.80186046807966,92.51097821668093,83.8495465721608,-3.237724376958795e-05,0.0873680263757705,0,0,0
7829,261995.2228297505,2010-08-22 15:08:11,2071.0574939433664,7,21,-1.0997490882873535,3.639690399169922,23.308849888577555,22.81103046431017,92.51097821668093,83.8829351341577,-9.713172767078504e-05,0.0873680263757705,0,0,0
7830,262025.23815068576,2010-08-22 15:08:41,2101.072814883633,7,21,-1.099929690361023,3.6371002197265625,23.308849888577555,22.820200527654865,92.51097821668093,83.91629965219978,-6.47544875391759e-05,0.0873680263757705,0,0,0
7831,262055.253470809,2010-08-22 15:09:11,2131.088135006863,7,21,-1.099929690361023,3.634833812713623,23.308849888577555,22.829370555132943,92.51097821668093,83.94964017916146,0.0,0.0873680263757705,0,0,0
7832,262085.2688290372,2010-08-22 15:09:41,2161.1034932400757,7,21,-1.0997490882873535,3.631919860839844,23.308849888577555,22.83854068163765,92.51097821668093,83.98295777335994,-6.47544875391759e-05,0.0873680263757705,0,0,0
7833,262115.2841234714,2010-08-22 15:10:11,2191.118787664256,7,21,-1.099929690361023,3.6294915676116943,23.308849888577555,22.84771075896396,92.51097821668093,84.01625227003949,-6.47544875391759e-05,0.0873680263757705,0,0,0
7834,262145.29946819594,2010-08-22 15:10:41,2221.1341324188747,7,21,-1.0997490882873535,3.627225160598755,23.308849888577555,22.856880887210504,92.51097821668093,84.04952432223865,-6.47544875391759e-05,0.0873680263757705,0,0,0
7835,262175.314898599,2010-08-22 15:11:11,2251.1495628019065,7,21,-1.1001102924346924,3.624634981155396,23.308849888577555,22.86605097914151,92.51097821668093,84.08277386713692,-9.713172767078504e-05,0.0873680263757705,0,0,0
7836,262205.3301284172,2010-08-22 15:11:41,2281.164792615056,7,21,-1.099929690361023,3.622206687927246,23.308849888577555,22.875221087539167,92.51097821668093,84.116001251033,-6.47544875391759e-05,0.0873680263757705,0,0,0
7837,262235.3454264704,2010-08-22 15:12:11,2311.180090668281,7,21,-1.099929690361023,3.6197783946990967,23.308849888577555,22.88439119557325,92.51097821668093,84.14920646970022,-3.237724376958795e-05,0.0873680263757705,0,0,0
7838,262265.36075414746,2010-08-22 15:12:41,2341.195418340325,7,21,-1.0997490882873535,3.617511987686157,23.308849888577555,22.89356133828737,92.51097821668093,84.18238955562124,-6.47544875391759e-05,0.0873680263757705,0,0,0
7839,262295.37607818044,2010-08-22 15:13:11,2371.210742398362,7,21,-1.099929690361023,3.615083694458008,23.308849888577555,22.902731478994003,92.51097821668093,84.21555021029002,-3.237724376958795e-05,0.0873680263757705,0,0,0
7840,262325.391418489,2010-08-22 15:13:41,2401.226082681838,7,21,-1.099929690361023,3.6123316287994394,23.308849888577555,22.911901633402863,92.51097821668093,84.24868842651338,-6.47544875391759e-05,0.0873680263757705,0,0,0
7841,262355.40675054194,2010-08-22 15:14:11,2431.24141475485,7,21,-1.1001102924346924,3.609741449356079,23.308849888577555,22.921071727086307,92.51097821668093,84.28180353506836,-0.0001295089750783,0.0873680263757705,0,0,0
7842,262385.4220701589,2010-08-22 15:14:41,2461.256734361794,7,21,-1.0997490882873535,3.60747504234314,23.308849888577555,22.93024178126252,92.51097821668093,84.3148953744856,-9.713172767078504e-05,0.0873680263757705,0,0,0
7843,262415.4373852947,2010-08-22 15:15:11,2491.272049492581,7,21,-1.099929690361023,3.6047229766845694,23.308849888577555,22.939411880161828,92.51097821668093,84.347963629486,-6.47544875391759e-05,0.0873680263757705,0,0,0
7844,262445.45285076014,2010-08-22 15:15:41,2521.287514958049,7,21,-1.099929690361023,3.601970911026001,23.308849888577555,22.94858205628853,92.51097821668093,84.38100839476824,-9.713172767078504e-05,0.0873680263757705,0,0,0
7845,262475.4680381877,2010-08-22 15:16:11,2551.302702390574,7,21,-1.099568486213684,3.599704504013061,23.308849888577555,22.957752072105617,92.51097821668093,84.4140280888166,0.0,0.0873680263757705,0,0,0
7846,262505.4834982547,2010-08-22 15:16:41,2581.318162457587,7,21,-1.0997490882873535,3.5967905521392822,23.308849888577555,22.966922276325107,92.51097821668093,84.4470232371494,-3.237724376958795e-05,0.0873680263757705,0,0,0
7847,262535.49869092525,2010-08-22 15:17:11,2611.3333551181404,7,21,-1.0997490882873535,3.593714714050293,23.308849888577555,22.97609239471963,92.51097821668093,84.47999211268169,-9.713172767078504e-05,0.0873680263757705,0,0,0
7848,262565.51407001045,2010-08-22 15:17:41,2641.3487342033222,7,21,-1.099929690361023,3.5908010005950928,23.308849888577555,22.98526249427167,92.51097821668093,84.51293466025369,-0.0001295089750783,0.0873680263757705,0,0,0
7849,262595.5294734714,2010-08-22 15:18:11,2671.364137669268,7,21,-1.0997490882873535,3.5880489349365234,23.308849888577555,22.994432697082573,92.51097821668093,84.5458502296124,-6.47544875391759e-05,0.0873680263757705,0,0,0
7850,262625.5446715304,2010-08-22 15:18:41,2701.3793357282766,7,21,-1.0997490882873535,3.584811210632324,23.308849888577555,23.003602862025428,92.51097821668093,84.57873748884613,-6.47544875391759e-05,0.0873680263757705,0,0,0
7851,262655.56001678127,2010-08-22 15:19:11,2731.3946809791328,7,21,-1.099929690361023,3.581573486328125,23.308849888577555,23.012772963561503,92.51097821668093,84.61159550257582,-9.713172767078504e-05,0.0873680263757705,0,0,0
7852,262685.5754722819,2010-08-22 15:19:41,2761.410136474752,7,21,-1.099929690361023,3.578173875808716,23.308849888577555,23.021943153723868,92.51097821668093,84.6444238889622,-9.713172767078504e-05,0.0873680263757705,0,0,0
7853,262715.5907950818,2010-08-22 15:20:11,2791.425459274654,7,21,-1.099929690361023,3.5746123790740967,23.308849888577555,23.031113348840016,92.51097821668093,84.67722119882878,-9.713172767078504e-05,0.0873680263757705,0,0,0
7854,262745.6061354956,2010-08-22 15:20:41,2821.4407996934665,7,21,-1.099929690361023,3.5712127685546875,23.308849888577555,23.040283520357647,92.51097821668093,84.70998593436046,-9.713172767078504e-05,0.0873680263757705,0,0,0
7855,262775.6213379405,2010-08-22 15:21:11,2851.4560021384063,7,21,-1.099929690361023,3.5673274993896484,23.308849888577555,23.049453624546093,92.51097821668093,84.74271669492522,-9.713172767078504e-05,0.0873680263757705,0,0,0
7856,262805.6367220482,2010-08-22 15:21:41,2881.471386266156,7,21,-1.099929690361023,3.5634422302246094,23.308849888577555,23.058623821968883,92.51097821668093,84.77541246322234,-0.0001295089750783,0.0873680263757705,0,0,0
7857,262835.65200477827,2010-08-22 15:22:11,2911.486668971128,7,21,-1.0997490882873535,3.5595569610595703,23.308849888577555,23.067793968846697,92.51097821668093,84.80807211551966,-9.713172767078504e-05,0.0873680263757705,0,0,0
7858,262865.6672977889,2010-08-22 15:22:41,2941.501961986798,7,21,-1.0997490882873535,3.5551860332489014,23.308849888577555,23.07696418542668,92.51097821668093,84.84069378227905,-9.713172767078504e-05,0.0873680263757705,0,0,0
7859,262895.6826275913,2010-08-22 15:23:11,2971.5172917841387,7,21,-1.0997490882873535,3.5508151054382324,23.308849888577555,23.08613443091039,92.51097821668093,84.87327594720753,-0.0001295089750783,0.0873680263757705,0,0,0
7860,262925.6981736325,2010-08-22 15:23:41,3001.532837825426,7,21,-1.0997490882873535,3.546282291412353,23.308849888577555,23.09530465838068,92.51097821668093,84.90581696324543,-9.713172767078504e-05,0.0873680263757705,0,0,0
7861,262955.7132780983,2010-08-22 15:24:11,3031.547942291172,7,21,-1.099929690361023,3.5415875911712646,23.308849888577555,23.104474783277997,92.51097821668093,84.93831518959894,-0.0001618862152099,0.0873680263757705,0,0,0
7862,262985.7287141605,2010-08-22 15:24:41,3061.5633783533576,7,21,-1.0997490882873535,3.536731004714966,23.308849888577555,23.113644996661783,92.51097821668093,84.97077034128468,-0.0001295089750783,0.0873680263757705,0,0,0
7863,263015.74393248,2010-08-22 15:25:11,3091.5785966728613,7,21,-1.099929690361023,3.531874418258667,23.308849888577555,23.122815167090017,92.51097821668093,85.00318058348367,-0.0001618862152099,0.0873680263757705,0,0,0
7864,263045.7619009637,2010-08-22 15:25:41,3121.5965651866964,7,21,-1.0997490882873535,3.526694059371948,23.308849888577555,23.13198611839553,92.51097821668093,85.03554768261566,-0.0001295089750783,0.0873680263757705,0,0,0
7865,263075.77459695184,2010-08-22 15:26:11,3151.609261144699,7,21,-1.0997490882873535,3.521513700485229,23.308849888577555,23.14115546668182,92.51097821668093,85.0678614121585,-0.0001295089750783,0.0873680263757705,0,0,0
7866,263105.78993937065,2010-08-22 15:26:41,3181.6246035634967,7,21,-1.099929690361023,3.515847682952881,23.308849888577555,23.150325636089523,92.51097821668093,85.10012814869361,-0.0001295089750783,0.0873680263757705,0,0,0
7867,263135.8053849515,2010-08-22 15:27:11,3211.6400491845056,7,21,-1.099929690361023,3.509696245193481,23.308849888577555,23.1594957674644,92.51097821668093,85.13234152031617,-0.0001942634553415,0.0873680263757705,0,0,0
7868,263165.8207180421,2010-08-22 15:27:41,3241.655382260017,7,21,-1.099929690361023,3.503220796585083,23.308849888577555,23.168665920579727,92.51097821668093,85.16449741866955,-0.0001618862152099,0.0873680263757705,0,0,0
7869,263195.83592443186,2010-08-22 15:28:11,3271.670588629739,7,21,-1.099929690361023,3.495774030685425,23.308849888577555,23.177836028694458,92.51097821668093,85.19658951000535,-0.0002266406954731,0.0873680263757705,0,0,0
7870,263225.85135889007,2010-08-22 15:28:41,3301.686023112989,7,21,-1.099929690361023,3.487517833709717,23.308849888577555,23.18700615940069,92.51097821668093,85.2286096627941,-0.0002266406954731,0.0873680263757705,0,0,0
7871,263255.866555726,2010-08-22 15:29:11,3331.7012199238875,7,21,-1.099929690361023,3.4773190021514893,23.308849888577555,23.19617628466484,92.51097821668093,85.26054573767534,-0.0003237724304199,0.0873680263757705,0,0,0
7872,263285.8818926862,2010-08-22 15:29:41,3361.716556879068,7,21,-1.099929690361023,3.465339422225952,23.308849888577555,23.2053463986208,92.51097821668093,85.29238058085699,-0.0003237724304199,0.0873680263757705,0,0,0
7873,263315.8972224535,2010-08-22 15:30:11,3391.7318866463343,7,21,-1.1001102924346924,3.449636459350586,23.308849888577555,23.214516542172447,92.51097821668093,85.3240896472809,-0.0004856586456298,0.0873680263757705,0,0,0
7874,263345.91254797514,2010-08-22 15:30:41,3421.747212173031,7,21,-1.099568486213684,3.42875337600708,23.308849888577555,23.22368666322755,92.51097821668093,85.35563341071808,-0.000679874443449,0.0873680263757705,0,0,0
7875,263375.9279924383,2010-08-22 15:31:12,3451.762656656205,7,21,-1.099929690361023,3.399128198623657,23.308849888577555,23.232856806757106,92.51097821668093,85.38694895298075,-0.0009065627818927,0.0873680263757705,0,0,0
7876,263405.9434920739,2010-08-22 15:31:42,3481.778156271785,7,21,-1.099929690361023,3.356066465377808,23.308849888577555,23.24202702781568,92.51097821668093,85.41793610726512,-0.0013598442310467,0.0873680263757705,0,0,0
7877,263435.95868634846,2010-08-22 15:32:12,3511.793350541349,7,21,-1.099568486213684,3.292931079864502,23.308849888577555,23.251197171549965,92.51097821668093,85.44844027674526,-0.0019426345825195,0.0873680263757705,0,0,0
7878,263465.9739741562,2010-08-22 15:32:42,3541.808638349039,7,21,-1.099929690361023,3.1988754272460938,23.308849888577555,23.260367300415005,92.51097821668093,85.47823514226997,-0.0030434608925133,0.0873680263757705,0,0,0
7879,263495.9891751926,2010-08-22 15:33:12,3571.8238393854685,7,21,-1.099929690361023,3.0442745685577397,23.308849888577555,23.26953743802312,92.51097821668093,85.50693144346097,-0.0053422451019287,0.0873680263757705,0,0,0
7880,263514.1608767241,2010-08-22 15:33:30,3589.99554092199,7,21,-1.0997490882873535,2.844022035598755,23.308849888577555,23.27508917683336,92.51097821668093,85.52335856121447,-0.0121737960726022,0.0873680263757705,0,0,0
7881,263521.8014372519,2010-08-22 15:33:37,3597.636101474829,7,21,-1.0997490882873535,2.699781894683838,23.308849888577555,23.27742346060554,92.51097821668093,85.5298337320726,-0.0157029144465923,0.0873680263757705,0,0,0
7882,263581.81354737707,2010-08-22 15:34:38,60.015176866960736,8,21,0.0,3.3125193119049072,23.308849888577555,23.27742346060554,92.51097821668093,85.5298337320726,0.0011655807029455,0.0873680263757705,0,0,0
7883,263581.9984079136,2010-08-22 15:34:38,0.187470624479472,9,21,-1.9243103452026844e-05,3.313004970550537,23.308849888577555,23.27742346160763,92.51097821668093,85.52983373539253,0.0,0.0842081755399704,0,0,0
7884,263586.82655209955,2010-08-22 15:34:43,5.015614795336068,9,21,0.0007031940040178,3.3201279640197754,23.308850726925957,23.27742346185802,92.51098099752429,85.52983373622246,0.0010684489971026,0.0842081755399704,0,0,0
