Data_Point,Test_Time(s),Date_Time,Step_Time(s),Step_Index,Cycle_Index,Current(A),Voltage(V),Charge_Capacity(Ah),Discharge_Capacity(Ah),Charge_Energy(Wh),Discharge_Energy(Wh),dV/dt(V/s),Internal_Resistance(Ohm),Is_FC_Data,AC_Impedance(Ohm),ACI_Phase_Angle(Deg)
15901,531549.2780173137,2010-08-25 18:01:12,30.01532150667818,1,44,0.0,3.469386577606201,46.93851289681216,46.87030036192579,186.39204368808043,172.17219554066548,0.0006475448608398,0.086637258529663,0,0,0
15902,531579.2930444266,2010-08-25 18:01:42,60.03034862966162,1,44,0.0,3.4889748096466064,46.93851289681216,46.87030036192579,186.39204368808043,172.17219554066548,0.0004209041653666,0.086637258529663,0,0,0
15903,531609.3083185954,2010-08-25 18:02:12,90.045622788334,1,44,0.0,3.503220796585083,46.93851289681216,46.87030036192579,186.39204368808043,172.17219554066548,0.0003885269106831,0.086637258529663,0,0,0
15904,531639.276519132,2010-08-25 18:02:42,120.0138233200438,1,44,0.0,3.5140669345855717,46.93851289681216,46.87030036192579,186.39204368808043,172.17219554066548,0.0002913951757363,0.086637258529663,0,0,0
15905,531669.3172973266,2010-08-25 18:03:12,30.015219216740185,2,44,0.5501165986061096,3.6377477645874015,46.94309952168015,46.87030036192579,186.40860783258745,172.17219554066548,0.0011979580158367,0.086637258529663,0,0,0
15906,531699.3324079729,2010-08-25 18:03:42,60.03032986288905,2,44,0.5499359965324402,3.6730387210845943,46.94768606708563,46.87030036192579,186.42537846433103,172.17219554066548,0.0007770061492919,0.086637258529663,0,0,0
15907,531729.3475776662,2010-08-25 18:04:12,90.0454995612141,2,44,0.5501165986061096,3.699264287948608,46.9522726133364,46.87030036192579,186.44228810386156,172.17219554066548,0.0006151676061563,0.086637258529663,0,0,0
15908,531759.3629165964,2010-08-25 18:04:42,120.06083847627934,2,44,0.5501165986061096,3.7199857234954834,46.9568592151031,46.87030036192579,186.4593043221439,172.17219554066548,0.0005504131549969,0.086637258529663,0,0,0
15909,531789.3779319098,2010-08-25 18:05:12,150.07585379484252,2,44,0.550297200679779,3.7356886863708496,46.961445754859454,46.87030036192579,186.47640359942383,172.17219554066548,0.0003561496851034,0.086637258529663,0,0,0
15910,531819.3930791222,2010-08-25 18:05:43,180.09100100712544,2,44,0.5499359965324402,3.747020721435547,46.966032289083465,46.87030036192579,186.49356544043764,172.17219554066548,0.0002266406954731,0.086637258529663,0,0,0
15911,531849.4084117565,2010-08-25 18:06:13,210.1063336816373,2,44,0.5501165986061096,3.754305362701416,46.97061885405737,46.87030036192579,186.5107696512536,172.17219554066548,0.0001295089750783,0.086637258529663,0,0,0
15912,531879.4235346883,2010-08-25 18:06:43,240.12145657831823,2,44,0.5501165986061096,3.758838176727295,46.975205380975055,46.87030036192579,186.52799967441595,172.17219554066548,9.713172767078504e-05,0.086637258529663,0,0,0
15913,531909.4385939714,2010-08-25 18:07:13,270.1365158664672,2,44,0.5501165986061096,3.762237787246704,46.97979192287487,46.87030036192579,186.5452475270344,172.17219554066548,9.713172767078504e-05,0.086637258529663,0,0,0
15914,531939.4537485421,2010-08-25 18:07:43,300.15167042706435,2,44,0.550297200679779,3.765313625335693,46.98437843654048,46.87030036192579,186.562510091326,172.17219554066548,6.47544875391759e-05,0.086637258529663,0,0,0
15915,531969.4690610212,2010-08-25 18:08:13,330.16698291626824,2,44,0.5499359965324402,3.7682275772094727,46.988964980000326,46.87030036192579,186.57978676976805,172.17219554066548,3.237724376958795e-05,0.086637258529663,0,0,0
15916,531999.4840822946,2010-08-25 18:08:43,360.1820041896727,2,44,0.5501165986061096,3.771303415298462,46.99355149534412,46.87030036192579,186.5970770320056,172.17219554066548,6.47544875391759e-05,0.086637258529663,0,0,0
15917,532029.499261612,2010-08-25 18:09:13,390.1971835270212,2,44,0.5501165986061096,3.774217367172241,46.998137956985104,46.87030036192579,186.6143807621176,172.17219554066548,6.47544875391759e-05,0.086637258529663,0,0,0
15918,532059.514410343,2010-08-25 18:09:43,420.2123322380394,2,44,0.5501165986061096,3.7772932052612314,47.00272436681546,46.87030036192579,186.63169785034972,172.17219554066548,9.713172767078504e-05,0.086637258529663,0,0,0
15919,532089.5296137603,2010-08-25 18:10:13,450.2275356353527,2,44,0.5499359965324402,3.7802071571350098,47.00730985838224,46.87030036192579,186.64902502663224,172.17219554066548,6.47544875391759e-05,0.086637258529663,0,0,0
15920,532119.5449378885,2010-08-25 18:10:43,480.2428597735896,2,44,0.5501165986061096,3.783121109008789,47.011895259135954,46.87030036192579,186.66636534629984,172.17219554066548,6.47544875391759e-05,0.086637258529663,0,0,0
15921,532149.5599417385,2010-08-25 18:11:13,510.257863638607,2,44,0.5499359965324402,3.786035060882568,47.01648065766259,46.87030036192579,186.68371921833497,172.17219554066548,6.47544875391759e-05,0.086637258529663,0,0,0
15922,532179.5750996625,2010-08-25 18:11:43,540.2730215575742,2,44,0.550297200679779,3.7891108989715576,47.02106624310943,46.87030036192579,186.7010872724054,172.17219554066548,9.713172767078504e-05,0.086637258529663,0,0,0
15923,532209.5902494712,2010-08-25 18:12:13,570.2881713563033,2,44,0.5499359965324402,3.792024850845337,47.02565281045853,46.87030036192579,186.71847266577052,172.17219554066548,9.713172767078504e-05,0.086637258529663,0,0,0
15924,532239.6054618208,2010-08-25 18:12:43,600.3033837059286,2,44,0.5501165986061096,3.794938802719116,47.03023931331994,46.87030036192579,186.7358714247041,172.17219554066548,6.47544875391759e-05,0.086637258529663,0,0,0
15925,532269.6208683344,2010-08-25 18:13:13,630.3187903598199,2,44,0.5501165986061096,3.797852754592896,47.03482589900637,46.87030036192579,186.75328423704812,172.17219554066548,6.47544875391759e-05,0.086637258529663,0,0,0
15926,532299.6357529172,2010-08-25 18:13:43,660.3336748122243,2,44,0.5501165986061096,3.801090478897095,47.03941244247065,46.87030036192579,186.7707109066056,172.17219554066548,9.713172767078504e-05,0.086637258529663,0,0,0
15927,532329.6509154276,2010-08-25 18:14:13,690.3488373126099,2,44,0.5501165986061096,3.804166316986084,47.04399903354151,46.87030036192579,186.7881519533898,172.17219554066548,6.47544875391759e-05,0.086637258529663,0,0,0
15928,532359.666077512,2010-08-25 18:14:43,720.3639994069836,2,44,0.5499359965324402,3.807404041290283,47.0485855795975,46.87030036192579,186.8056074883396,172.17219554066548,6.47544875391759e-05,0.086637258529663,0,0,0
15929,532389.6812777714,2010-08-25 18:15:13,750.379199661464,2,44,0.5501165986061096,3.810803651809693,47.05317215430439,46.87030036192579,186.823078170743,172.17219554066548,9.713172767078504e-05,0.086637258529663,0,0,0
15930,532419.6964233447,2010-08-25 18:15:43,780.3943452296494,2,44,0.5501165986061096,3.8142032623291016,47.05775868948021,46.87030036192579,186.8405642344964,172.17219554066548,6.47544875391759e-05,0.086637258529663,0,0,0
15931,532449.7117135833,2010-08-25 18:16:13,810.4096354734105,2,44,0.5501165986061096,3.817602872848511,47.062345289795054,46.87030036192579,186.8580664845294,172.17219554066548,9.713172767078504e-05,0.086637258529663,0,0,0
15932,532479.7267471324,2010-08-25 18:16:43,840.4246690224097,2,44,0.550297200679779,3.82132625579834,47.066931830293214,46.87030036192579,186.87558449855868,172.17219554066548,0.0001295089750783,0.086637258529663,0,0,0
15933,532509.7459727743,2010-08-25 18:17:13,870.4438946744193,2,44,0.5499359965324402,3.824725866317749,47.07151896864512,46.87030036192579,186.8931208584867,172.17219554066548,9.713172767078504e-05,0.086637258529663,0,0,0
15934,532539.7572392647,2010-08-25 18:17:43,900.4551611597367,2,44,0.5499359965324402,3.828125476837158,47.07610493304555,46.87030036192579,186.9106687111528,172.17219554066548,9.713172767078504e-05,0.086637258529663,0,0,0
15935,532569.7722653701,2010-08-25 18:18:13,930.4701872551592,2,44,0.5501165986061096,3.831686973571777,47.0806914200425,46.87030036192579,186.9282344415988,172.17219554066548,0.0001295089750783,0.086637258529663,0,0,0
15936,532599.7874725319,2010-08-25 18:18:43,960.4853944168544,2,44,0.550297200679779,3.835086345672608,47.08527788714482,46.87030036192579,186.94581557112525,172.17219554066548,9.713172767078504e-05,0.086637258529663,0,0,0
15937,532629.8026123056,2010-08-25 18:19:13,990.5005342006232,2,44,0.5501165986061096,3.838324069976807,47.08986436067599,46.87030036192579,186.96341202335276,172.17219554066548,9.713172767078504e-05,0.086637258529663,0,0,0
15938,532659.8177506257,2010-08-25 18:19:43,1020.515672520744,2,44,0.550297200679779,3.841561794281006,47.09445081554286,46.87030036192579,186.9810233562951,172.17219554066548,9.713172767078504e-05,0.086637258529663,0,0,0
15939,532689.8330386439,2010-08-25 18:20:13,1050.5309605389589,2,44,0.5501165986061096,3.844637632369995,47.09903735242108,46.87030036192579,186.9986496972155,172.17219554066548,9.713172767078504e-05,0.086637258529663,0,0,0
15940,532719.8480831652,2010-08-25 18:20:43,1080.5460050502793,2,44,0.550297200679779,3.847713470458984,47.10362382263958,46.87030036192579,187.0162902233442,172.17219554066548,6.47544875391759e-05,0.086637258529663,0,0,0
15941,532749.8632721617,2010-08-25 18:21:13,1110.5611940467013,2,44,0.5501165986061096,3.850627422332764,47.10821030114653,46.87030036192579,187.03394485385124,172.17219554066548,6.47544875391759e-05,0.086637258529663,0,0,0
15942,532779.8784134291,2010-08-25 18:21:43,1140.57633533923,2,44,0.5499359965324402,3.853703260421753,47.112796793219694,46.87030036192579,187.05161328991647,172.17219554066548,9.713172767078504e-05,0.086637258529663,0,0,0
15943,532809.8935972778,2010-08-25 18:22:13,1170.5915191727845,2,44,0.5499359965324402,3.856617212295532,47.11738329578811,46.87030036192579,187.0692950784489,172.17219554066548,6.47544875391759e-05,0.086637258529663,0,0,0
15944,532839.9087506854,2010-08-25 18:22:43,1200.606672595546,2,44,0.5501165986061096,3.8593692779541016,47.12196981058261,46.87030036192579,187.08698971517592,172.17219554066548,9.713172767078504e-05,0.086637258529663,0,0,0
15945,532869.9240767284,2010-08-25 18:23:13,1230.62199861848,2,44,0.5501165986061096,3.861959457397461,47.126556240452736,46.87030036192579,187.104696140195,172.17219554066548,6.47544875391759e-05,0.086637258529663,0,0,0
15946,532899.9392223668,2010-08-25 18:23:43,1260.6371442518275,2,44,0.5499359965324402,3.8640639781951904,47.13114273157343,46.87030036192579,187.12241417730272,172.17219554066548,3.237724376958795e-05,0.086637258529663,0,0,0
15947,532929.9542549785,2010-08-25 18:24:13,1290.6521768685027,2,44,0.5501165986061096,3.86633038520813,47.135729172967885,46.87030036192579,187.14014269242196,172.17219554066548,3.237724376958795e-05,0.086637258529663,0,0,0
15948,532959.9695425205,2010-08-25 18:24:43,1320.6674644305808,2,44,0.5501165986061096,3.868596792221069,47.140315688874985,46.87030036192579,187.15788143577265,172.17219554066548,6.47544875391759e-05,0.086637258529663,0,0,0
15949,532989.9844894084,2010-08-25 18:25:13,1350.682411298544,2,44,0.5501165986061096,3.870539426803589,47.144902163967565,46.87030036192579,187.17562906413303,172.17219554066548,3.237724376958795e-05,0.086637258529663,0,0,0
15950,533019.9997476375,2010-08-25 18:25:43,1380.6976695225023,2,44,0.5501165986061096,3.872158288955689,47.14948866117575,46.87030036192579,187.1933851824409,172.17219554066548,6.47544875391759e-05,0.086637258529663,0,0,0
15951,533050.0146084761,2010-08-25 18:26:13,1410.712530346016,2,44,0.550297200679779,3.873939037322998,47.15407037187427,46.87030036192579,187.2111304598629,172.17219554066548,6.47544875391759e-05,0.086637258529663,0,0,0
15952,533080.0146087725,2010-08-25 18:26:43,1440.7125306625744,2,44,0.5501165986061096,3.8752341270446777,47.158659297489045,46.87030036192579,187.2289104963148,172.17219554066548,3.237724376958795e-05,0.086637258529663,0,0,0
15953,533110.0301303628,2010-08-25 18:27:13,1470.7280522579351,2,44,0.5501165986061096,3.876691102981568,47.163245873819534,46.87030036192579,187.24668797783636,172.17219554066548,3.237724376958795e-05,0.086637258529663,0,0,0
15954,533140.0448671222,2010-08-25 18:27:43,1500.742789007218,2,44,0.5499359965324402,3.877824306488037,47.16783234062201,46.87030036192579,187.26447098293156,172.17219554066548,0.0,0.086637258529663,0,0,0
15955,533170.060030986,2010-08-25 18:28:13,1530.7579528810263,2,44,0.5501165986061096,3.879119396209717,47.172418858196366,46.87030036192579,187.28225982897536,172.17219554066548,3.237724376958795e-05,0.086637258529663,0,0,0
15956,533200.0751622034,2010-08-25 18:28:43,1560.7730840934328,2,44,0.550297200679779,3.8802525997161865,47.17700541584284,46.87030036192579,187.3000540308119,172.17219554066548,6.47544875391759e-05,0.086637258529663,0,0,0
15957,533230.0903205083,2010-08-25 18:29:13,1590.7882423983622,2,44,0.5499359965324402,3.881385803222656,47.18159187890157,46.87030036192579,187.31785290713188,172.17219554066548,6.47544875391759e-05,0.086637258529663,0,0,0
15958,533260.105718661,2010-08-25 18:29:43,1620.803640576128,2,44,0.5501165986061096,3.882357120513916,47.18617847973719,46.87030036192579,187.33565722909995,172.17219554066548,3.237724376958795e-05,0.086637258529663,0,0,0
15959,533290.120799573,2010-08-25 18:30:13,1650.8187214881705,2,44,0.5501165986061096,3.8834903240203857,47.19076498557682,46.87030036192579,187.35346594875065,172.17219554066548,6.47544875391759e-05,0.086637258529663,0,0,0
15960,533320.1358265156,2010-08-25 18:30:43,1680.8337484156666,2,44,0.5501165986061096,3.884299755096436,47.195351579718285,46.87030036192579,187.37127973900067,172.17219554066548,0.0,0.086637258529663,0,0,0
15961,533350.1509892716,2010-08-25 18:31:13,1710.848911166677,2,44,0.550297200679779,3.885432958602905,47.19993816948072,46.87030036192579,187.3890979344152,172.17219554066548,6.47544875391759e-05,0.086637258529663,0,0,0
15962,533380.1663258008,2010-08-25 18:31:43,1740.8642476957957,2,44,0.5501165986061096,3.886404275894165,47.20452469021206,46.87030036192579,187.40692050993516,172.17219554066548,3.237724376958795e-05,0.086637258529663,0,0,0
15963,533410.1813524776,2010-08-25 18:32:13,1770.8792743726674,2,44,0.5499359965324402,3.887213706970215,47.209111234510274,46.87030036192579,187.42474770637705,172.17219554066548,0.0,0.086637258529663,0,0,0
15964,533440.1965127174,2010-08-25 18:32:43,1800.894434602394,2,44,0.5501165986061096,3.8885087966918954,47.21369776599492,46.87030036192579,187.442579389994,172.17219554066548,3.237724376958795e-05,0.086637258529663,0,0,0
15965,533470.2116665462,2010-08-25 18:33:13,1830.909588436179,2,44,0.5501165986061096,3.889318227767944,47.21828439471869,46.87030036192579,187.46041600812933,172.17219554066548,6.47544875391759e-05,0.086637258529663,0,0,0
15966,533500.2268658283,2010-08-25 18:33:43,1860.9247877232488,2,44,0.5501165986061096,3.890451431274414,47.22287094159493,46.87030036192579,187.47825674564436,172.17219554066548,6.47544875391759e-05,0.086637258529663,0,0,0
15967,533530.2419998677,2010-08-25 18:34:13,1890.9399217677133,2,44,0.5501165986061096,3.891260862350464,47.22745745685828,46.87030036192579,187.4961019018912,172.17219554066548,0.0,0.086637258529663,0,0,0
15968,533560.2571670196,2010-08-25 18:34:43,1920.9550889046543,2,44,0.550297200679779,3.8923940658569336,47.23204398492166,46.87030036192579,187.5139517459268,172.17219554066548,6.47544875391759e-05,0.086637258529663,0,0,0
15969,533590.2723554648,2010-08-25 18:35:13,1950.9702773547149,2,44,0.5499359965324402,3.893203496932984,47.23663062771326,46.87030036192579,187.5318065896269,172.17219554066548,3.237724376958795e-05,0.086637258529663,0,0,0
15970,533620.2876517886,2010-08-25 18:35:43,1980.9855736786296,2,44,0.5501165986061096,3.894336700439453,47.24121722159732,46.87030036192579,187.5496658669421,172.17219554066548,6.47544875391759e-05,0.086637258529663,0,0,0
15971,533650.3026808614,2010-08-25 18:36:13,2011.0006027464603,2,44,0.5499359965324402,3.895146131515503,47.2458037667784,46.87030036192579,187.56752923020096,172.17219554066548,3.237724376958795e-05,0.086637258529663,0,0,0
15972,533680.3178328556,2010-08-25 18:36:43,2041.0157547406616,2,44,0.5501165986061096,3.8962793350219727,47.25039028874886,46.87030036192579,187.5853970342898,172.17219554066548,3.237724376958795e-05,0.086637258529663,0,0,0
15973,533710.3329987144,2010-08-25 18:37:13,2071.030920629492,2,44,0.550297200679779,3.897250652313232,47.25497679307495,46.87030036192579,187.60326961732048,172.17219554066548,3.237724376958795e-05,0.086637258529663,0,0,0
15974,533740.3481907333,2010-08-25 18:37:43,2101.046112628397,2,44,0.5501165986061096,3.898221969604492,47.25956335514872,46.87030036192579,187.6211471594139,172.17219554066548,0.0,0.086637258529663,0,0,0
15975,533770.3633398053,2010-08-25 18:38:14,2131.0612617253773,2,44,0.5501165986061096,3.899517059326172,47.26414979030512,46.87030036192579,187.63902905956067,172.17219554066548,3.237724376958795e-05,0.086637258529663,0,0,0
15976,533800.3788788642,2010-08-25 18:38:44,2161.0768007842626,2,44,0.550297200679779,3.900488376617432,47.26873643534256,46.87030036192579,187.6569166265217,172.17219554066548,0.0,0.086637258529663,0,0,0
15977,533830.393797201,2010-08-25 18:39:14,2191.0917191261296,2,44,0.5501165986061096,3.9014596939086914,47.27332292743627,46.87030036192579,187.67480852839657,172.17219554066548,0.0,0.086637258529663,0,0,0
15978,533860.4089779519,2010-08-25 18:39:44,2221.1068998469264,2,44,0.550297200679779,3.902754783630371,47.27790946653705,46.87030036192579,187.69270562637652,172.17219554066548,3.237724376958795e-05,0.086637258529663,0,0,0
15979,533890.424011972,2010-08-25 18:40:14,2251.1219338671,2,44,0.5501165986061096,3.903887987136841,47.28249598342638,46.87030036192579,187.7106076698888,172.17219554066548,9.713172767078504e-05,0.086637258529663,0,0,0
15980,533920.4391695953,2010-08-25 18:40:44,2281.137091500355,2,44,0.5501165986061096,3.9048593044281006,47.28708251938158,46.87030036192579,187.72851496691155,172.17219554066548,0.0,0.086637258529663,0,0,0
15981,533950.4543384163,2010-08-25 18:41:14,2311.152260306456,2,44,0.5501165986061096,3.9059925079345694,47.29166913500754,46.87030036192579,187.74642758698104,172.17219554066548,3.237724376958795e-05,0.086637258529663,0,0,0
15982,533980.4695432824,2010-08-25 18:41:44,2341.1674651774424,2,44,0.5501165986061096,3.90696382522583,47.296255664580094,46.87030036192579,187.76434519429657,172.17219554066548,0.0,0.086637258529663,0,0,0
15983,534010.4848614759,2010-08-25 18:42:14,2371.1827833708626,2,44,0.5499359965324402,3.9082589149475098,47.3008422536774,46.87030036192579,187.7822683303488,172.17219554066548,0.0,0.086637258529663,0,0,0
15984,534040.4998454764,2010-08-25 18:42:44,2401.197767366359,2,44,0.5499359965324402,3.9095540046691895,47.305428719548615,46.87030036192579,187.80019640135453,172.17219554066548,3.237724376958795e-05,0.086637258529663,0,0,0
15985,534070.5151362563,2010-08-25 18:43:14,2431.213058141445,2,44,0.5501165986061096,3.910687208175659,47.31001531477784,46.87030036192579,187.8181304437306,172.17219554066548,6.47544875391759e-05,0.086637258529663,0,0,0
15986,534100.5301915947,2010-08-25 18:43:44,2461.2281134897744,2,44,0.5501165986061096,3.911982297897339,47.31460183027964,46.87030036192579,187.836069693412,172.17219554066548,3.237724376958795e-05,0.086637258529663,0,0,0
15987,534130.5453569322,2010-08-25 18:44:14,2491.2432788222186,2,44,0.5501165986061096,3.9132773876190186,47.31918837806072,46.87030036192579,187.85401470951336,172.17219554066548,6.47544875391759e-05,0.086637258529663,0,0,0
15988,534160.5605321743,2010-08-25 18:44:44,2521.25845406436,2,44,0.5501165986061096,3.914410352706909,47.32377491549423,46.87030036192579,187.8719653105796,172.17219554066548,3.237724376958795e-05,0.086637258529663,0,0,0
15989,534190.5756894066,2010-08-25 18:45:14,2551.273611296616,2,44,0.5501165986061096,3.915543556213379,47.32836154139003,46.87030036192579,187.88992206291263,172.17219554066548,0.0,0.086637258529663,0,0,0
15990,534220.5910985767,2010-08-25 18:45:44,2581.2890204918413,2,44,0.5501165986061096,3.917000532150269,47.33294818149895,46.87030036192579,187.9078844926506,172.17219554066548,6.47544875391759e-05,0.086637258529663,0,0,0
15991,534250.6060369636,2010-08-25 18:46:14,2611.3039588636293,2,44,0.5501165986061096,3.917971849441528,47.33753461801832,46.87030036192579,187.925852065917,172.17219554066548,3.237724376958795e-05,0.086637258529663,0,0,0
15992,534280.6211876896,2010-08-25 18:46:44,2641.3191095746324,2,44,0.550297200679779,3.919590711593628,47.34212106117898,46.87030036192579,187.94382555191743,172.17219554066548,3.237724376958795e-05,0.086637258529663,0,0,0
15993,534310.636354636,2010-08-25 18:47:14,2671.3342765511734,2,44,0.5501165986061096,3.920885801315308,47.3467075504524,46.87030036192579,187.9618052971532,172.17219554066548,3.237724376958795e-05,0.086637258529663,0,0,0
15994,534340.6515340686,2010-08-25 18:47:44,2701.349455958697,2,44,0.5501165986061096,3.9221808910369873,47.35129411742006,46.87030036192579,187.9797913441539,172.17219554066548,6.47544875391759e-05,0.086637258529663,0,0,0
15995,534370.6666903535,2010-08-25 18:48:14,2731.3646122335667,2,44,0.5501165986061096,3.923314094543457,47.35588044193175,46.87030036192579,187.99778255917,172.17219554066548,0.0,0.086637258529663,0,0,0
15996,534400.6818713952,2010-08-25 18:48:44,2761.37979327015,2,44,0.5499359965324402,3.9247710704803462,47.36046590209733,46.87030036192579,188.0157764691832,172.17219554066548,3.237724376958795e-05,0.086637258529663,0,0,0
15997,534430.6970605319,2010-08-25 18:49:14,2791.394982426972,2,44,0.5501165986061096,3.9260661602020255,47.36505161599143,46.87030036192579,188.03377764923448,172.17219554066548,3.237724376958795e-05,0.086637258529663,0,0,0
15998,534460.7122355435,2010-08-25 18:49:44,2821.4101574335264,2,44,0.5499359965324402,3.927523136138916,47.36963816068158,46.87030036192579,188.0517883954795,172.17219554066548,3.237724376958795e-05,0.086637258529663,0,0,0
15999,534490.7157954617,2010-08-25 18:50:14,2851.41371735672,2,44,0.5501165986061096,3.929141998291016,47.374222952298375,46.87030036192579,188.0697985917797,172.17219554066548,9.713172767078504e-05,0.086637258529663,0,0,0
16000,534520.7269269105,2010-08-25 18:50:44,2881.4248488054845,2,44,0.5501165986061096,3.9304370880126953,47.378808841903606,46.87030036192579,188.08781947185645,172.17219554066548,3.237724376958795e-05,0.086637258529663,0,0,0
16001,534550.7422198509,2010-08-25 18:51:14,2911.4401417359422,2,44,0.5501165986061096,3.931732177734375,47.383395475646125,46.87030036192579,188.10584973099705,172.17219554066548,0.0,0.086637258529663,0,0,0
16002,534580.7572797055,2010-08-25 18:51:44,2941.4552016005277,2,44,0.5501165986061096,3.9331891536712646,47.38798207032217,46.87030036192579,188.12388630263783,172.17219554066548,0.0,0.086637258529663,0,0,0
16003,534610.7724463361,2010-08-25 18:52:14,2971.4703682261943,2,44,0.5501165986061096,3.934484243392944,47.39256858310304,46.87030036192579,188.14192908404868,172.17219554066548,3.237724376958795e-05,0.086637258529663,0,0,0
16004,534640.7877126553,2010-08-25 18:52:44,3001.485634540316,2,44,0.5501165986061096,3.936103105545044,47.39715520185896,46.87030036192579,188.1599789046757,172.17219554066548,6.47544875391759e-05,0.086637258529663,0,0,0
16005,534670.802754124,2010-08-25 18:53:14,3031.500676014066,2,44,0.5501165986061096,3.937398195266724,47.40174174657452,46.87030036192579,188.17803485828065,172.17219554066548,3.237724376958795e-05,0.086637258529663,0,0,0
16006,534700.8180667084,2010-08-25 18:53:44,3061.5159885934945,2,44,0.5501165986061096,3.938855171203613,47.40632829356942,46.87030036192579,188.19609765641445,172.17219554066548,3.237724376958795e-05,0.086637258529663,0,0,0
16007,534730.8331665026,2010-08-25 18:54:14,3091.5310883976217,2,44,0.5501165986061096,3.940474033355713,47.410914857598286,46.87030036192579,188.214167262356,172.17219554066548,3.237724376958795e-05,0.086637258529663,0,0,0
16008,534760.8482854795,2010-08-25 18:54:44,3121.5462073645085,2,44,0.5501165986061096,3.942092895507813,47.41550141261186,46.87030036192579,188.23224365118784,172.17219554066548,9.713172767078504e-05,0.086637258529663,0,0,0
16009,534790.8634534735,2010-08-25 18:55:14,3151.561375368611,2,44,0.5499359965324402,3.943387985229492,47.42008795819732,46.87030036192579,188.25032690163337,172.17219554066548,3.237724376958795e-05,0.086637258529663,0,0,0
16010,534820.878597523,2010-08-25 18:55:44,3181.5765194129986,2,44,0.5501165986061096,3.945006847381592,47.42467450900211,46.87030036192579,188.26841712645617,172.17219554066548,3.237724376958795e-05,0.086637258529663,0,0,0
16011,534850.8937818126,2010-08-25 18:56:14,3211.5917037077024,2,44,0.5501165986061096,3.9464638233184814,47.4292611212272,46.87030036192579,188.2865146963087,172.17219554066548,3.237724376958795e-05,0.086637258529663,0,0,0
16012,534880.909053415,2010-08-25 18:56:44,3241.606975299979,2,44,0.550297200679779,3.948082685470581,47.43384764630933,46.87030036192579,188.30461889325372,172.17219554066548,3.237724376958795e-05,0.086637258529663,0,0,0
16013,534910.924094212,2010-08-25 18:57:14,3271.622016102054,2,44,0.5501165986061096,3.9497015476226807,47.43843420261506,46.87030036192579,188.32273049658843,172.17219554066548,3.237724376958795e-05,0.086637258529663,0,0,0
16014,534940.9392704065,2010-08-25 18:57:44,3301.6371922915573,2,44,0.5499359965324402,3.95132040977478,47.44302072843255,46.87030036192579,188.3408492949445,172.17219554066548,6.47544875391759e-05,0.086637258529663,0,0,0
16015,534970.9544410823,2010-08-25 18:58:14,3331.652362972331,2,44,0.5501165986061096,3.95293927192688,47.447607371359496,46.87030036192579,188.35897597122027,172.17219554066548,6.47544875391759e-05,0.086637258529663,0,0,0
16016,535000.9700908171,2010-08-25 18:58:44,3361.668012692017,2,44,0.5501165986061096,3.95455813407898,47.452194040874126,46.87030036192579,188.37711026892103,172.17219554066548,3.237724376958795e-05,0.086637258529663,0,0,0
16017,535030.9847697372,2010-08-25 18:59:14,3391.682691632222,2,44,0.550297200679779,3.956338882446289,47.45678057238954,46.87030036192579,188.39525163939336,172.17219554066548,9.713172767078504e-05,0.086637258529663,0,0,0
16018,535061.0002462202,2010-08-25 18:59:44,3421.698168110136,2,44,0.5501165986061096,3.9579577445983887,47.46136722841415,46.87030036192579,188.41340116580832,172.17219554066548,3.237724376958795e-05,0.086637258529663,0,0,0
16019,535091.0151241112,2010-08-25 19:00:14,3451.7130460062,2,44,0.5499359965324402,3.9594147205352783,47.46595373929991,46.87030036192579,188.43155797197548,172.17219554066548,-3.237724376958795e-05,0.086637258529663,0,0,0
16020,535121.0302804913,2010-08-25 19:00:44,3481.7282023813195,2,44,0.5501165986061096,3.961357355117798,47.4705402924791,46.87030036192579,188.4497229338372,172.17219554066548,6.47544875391759e-05,0.086637258529663,0,0,0
16021,535151.045439122,2010-08-25 19:01:14,3511.7433610321104,2,44,0.5501165986061096,3.9631381034851074,47.47512688344043,46.87030036192579,188.4678960971868,172.17219554066548,6.47544875391759e-05,0.086637258529663,0,0,0
16022,535181.0606071913,2010-08-25 19:01:44,3541.7585290863385,2,44,0.5501165986061096,3.964918851852417,47.47971347220902,46.87030036192579,188.48607740238907,172.17219554066548,6.47544875391759e-05,0.086637258529663,0,0,0
16023,535211.0758017015,2010-08-25 19:02:14,3571.7737235914897,2,44,0.5501165986061096,3.966699600219727,47.48430002227303,46.87030036192579,188.5042668793016,172.17219554066548,3.237724376958795e-05,0.086637258529663,0,0,0
16024,535241.0909581367,2010-08-25 19:02:44,3601.7888800217465,2,44,0.5499359965324402,3.968480348587036,47.48888664541562,46.87030036192579,188.52246495405672,172.17219554066548,0.0,0.086637258529663,0,0,0
16025,535271.1061107174,2010-08-25 19:03:14,3631.804032627472,2,44,0.550297200679779,3.970422983169556,47.4934731913765,46.87030036192579,188.54067117237796,172.17219554066548,3.237724376958795e-05,0.086637258529663,0,0,0
16026,535301.1212778743,2010-08-25 19:03:44,3661.8191997594,2,44,0.5501165986061096,3.972365617752075,47.49805977693653,46.87030036192579,188.55888618926508,172.17219554066548,6.47544875391759e-05,0.086637258529663,0,0,0
16027,535331.1364673019,2010-08-25 19:04:14,3691.834389191909,2,44,0.5499359965324402,3.9741463661193848,47.50264636739296,46.87030036192579,188.5771097819921,172.17219554066548,6.47544875391759e-05,0.086637258529663,0,0,0
16028,535361.1517557512,2010-08-25 19:04:44,3721.849677641198,2,44,0.5499359965324402,3.9759271144866943,47.50723299351734,46.87030036192579,188.59534224523625,172.17219554066548,3.237724376958795e-05,0.086637258529663,0,0,0
16029,535391.1667779869,2010-08-25 19:05:14,3751.8646998719887,2,44,0.5501165986061096,3.977869749069214,47.51181968953219,46.87030036192579,188.613583695642,172.17219554066548,3.237724376958795e-05,0.086637258529663,0,0,0
16030,535421.1819735097,2010-08-25 19:05:44,3781.8798954047006,2,44,0.5497553944587708,3.979812383651733,47.51640618385983,46.87030036192579,188.6318329276644,172.17219554066548,0.0,0.086637258529663,0,0,0
16031,535451.1971292231,2010-08-25 19:06:14,3811.8950511081466,2,44,0.5501165986061096,3.981916904449463,47.52099264938851,46.87030036192579,188.65009129030807,172.17219554066548,6.47544875391759e-05,0.086637258529663,0,0,0
16032,535481.2122881596,2010-08-25 19:06:44,3841.910210074725,2,44,0.5499359965324402,3.9838595390319824,47.52557920710786,46.87030036192579,188.66835896006657,172.17219554066548,3.237724376958795e-05,0.086637258529663,0,0,0
16033,535511.2274498179,2010-08-25 19:07:14,3871.925371702936,2,44,0.5501165986061096,3.985802173614502,47.53016568780329,46.87030036192579,188.68663532993503,172.17219554066548,3.237724376958795e-05,0.086637258529663,0,0,0
16034,535541.2426216817,2010-08-25 19:07:44,3901.9405435716703,2,44,0.5499359965324402,3.987906694412232,47.534752201030855,46.87030036192579,188.70492092516525,172.17219554066548,6.47544875391759e-05,0.086637258529663,0,0,0
16035,535571.2577991644,2010-08-25 19:08:14,3931.9557210543967,2,44,0.5501165986061096,3.989849328994751,47.53933872801593,46.87030036192579,188.7232155815508,172.17219554066548,9.713172767078504e-05,0.086637258529663,0,0,0
16036,535601.2730740599,2010-08-25 19:08:44,3961.9709959448937,2,44,0.550297200679779,3.991953849792481,47.5439252587068,46.87030036192579,188.7415194934257,172.17219554066548,9.713172767078504e-05,0.086637258529663,0,0,0
16037,535631.2881332828,2010-08-25 19:09:14,3991.986055172892,2,44,0.5501165986061096,3.993896484375,47.54851171729083,46.87030036192579,188.7598323473744,172.17219554066548,6.47544875391759e-05,0.086637258529663,0,0,0
16038,535661.3032897381,2010-08-25 19:09:44,4022.0012116482617,2,44,0.5499359965324402,3.9956769943237305,47.553098218822896,46.87030036192579,188.7781546851436,172.17219554066548,0.0,0.086637258529663,0,0,0
16039,535691.3184792008,2010-08-25 19:10:14,4052.016401085784,2,44,0.5501165986061096,3.99794340133667,47.5576846797975,46.87030036192579,188.79648625323333,172.17219554066548,6.47544875391759e-05,0.086637258529663,0,0,0
16040,535721.3336430796,2010-08-25 19:10:45,4082.031564964604,2,44,0.5501165986061096,3.9998860359191895,47.56227112569278,46.87030036192579,188.8148270888205,172.17219554066548,0.0,0.086637258529663,0,0,0
16041,535751.34915264,2010-08-25 19:11:15,4112.047074540007,2,44,0.5501165986061096,4.001990795135498,47.566857624520345,46.87030036192579,188.8331777855664,172.17219554066548,3.24249267578125e-05,0.086637258529663,0,0,0
16042,535781.3640771722,2010-08-25 19:11:45,4142.061999072304,2,44,0.5501165986061096,4.004095077514648,47.57144405624632,46.87030036192579,188.8515378310908,172.17219554066548,6.47544875391759e-05,0.086637258529663,0,0,0
16043,535811.3791441194,2010-08-25 19:12:15,4172.077066014529,2,44,0.5501165986061096,4.006199836730957,47.57603048890668,46.87030036192579,188.8699076115568,172.17219554066548,3.24249267578125e-05,0.086637258529663,0,0,0
16044,535841.3944379071,2010-08-25 19:12:45,4202.092359792097,2,44,0.5501165986061096,4.0084662437438965,47.580616990092594,46.87030036192579,188.88828747055945,172.17219554066548,3.24249267578125e-05,0.086637258529663,0,0,0
16045,535871.4094680425,2010-08-25 19:13:15,4232.107389957664,2,44,0.5499359965324402,4.010570526123047,47.58520343994119,46.87030036192579,188.90667692495452,172.17219554066548,6.47544875391759e-05,0.086637258529663,0,0,0
16046,535901.4246320718,2010-08-25 19:13:45,4262.122553961796,2,44,0.5499359965324402,4.012675285339356,47.5897898869585,46.87030036192579,188.92507640375143,172.17219554066548,6.47544875391759e-05,0.086637258529663,0,0,0
16047,535931.4398059004,2010-08-25 19:14:15,4292.137727795429,2,44,0.5501165986061096,4.014941692352295,47.59437636663667,46.87030036192579,188.9434860727168,172.17219554066548,3.24249267578125e-05,0.086637258529663,0,0,0
16048,535961.4549636439,2010-08-25 19:14:45,4322.152885533947,2,44,0.5499359965324402,4.017208099365234,47.5989629283009,46.87030036192579,188.96190628233785,172.17219554066548,6.47544875391759e-05,0.086637258529663,0,0,0
16049,535991.4702567648,2010-08-25 19:15:15,4352.168178649866,2,44,0.5499359965324402,4.019312381744385,47.60354950691386,46.87030036192579,188.98033683453892,172.17219554066548,3.23295607813634e-05,0.086637258529663,0,0,0
16050,536021.4854467186,2010-08-25 19:15:45,4382.183368603673,2,44,0.550297200679779,4.021902561187744,47.60813594763548,46.87030036192579,188.99877723306616,172.17219554066548,9.70840483205393e-05,0.086637258529663,0,0,0
16051,536051.500584347,2010-08-25 19:16:15,4412.198506262146,2,44,0.5501165986061096,4.024168968200684,47.612722452714365,46.87030036192579,189.01722851059932,172.17219554066548,3.23295607813634e-05,0.086637258529663,0,0,0
16052,536081.5157683109,2010-08-25 19:16:45,4442.213690205975,2,44,0.5501165986061096,4.026435375213623,47.61730887203239,46.87030036192579,189.03568999101253,172.17219554066548,6.47544875391759e-05,0.086637258529663,0,0,0
16053,536111.5308022308,2010-08-25 19:17:15,4472.228724115874,2,44,0.5501165986061096,4.028863906860352,47.62189533298634,46.87030036192579,189.05416244843693,172.17219554066548,9.71794142969884e-05,0.086637258529663,0,0,0
16054,536141.5459735582,2010-08-25 19:17:45,4502.243895448271,2,44,0.5501165986061096,4.031130313873291,47.6264818410663,46.87030036192579,189.07264588128777,172.17219554066548,6.47544875391759e-05,0.086637258529663,0,0,0
16055,536171.5613393353,2010-08-25 19:18:15,4532.259261220272,2,44,0.550297200679779,4.03372049331665,47.63106830042828,46.87030036192579,189.0911400799393,172.17219554066548,9.71794142969884e-05,0.086637258529663,0,0,0
16056,536201.5763124737,2010-08-25 19:18:45,4562.27423435871,2,44,0.550297200679779,4.036148548126221,47.635654733005794,46.87030036192579,189.1096451899751,172.17219554066548,0.0001295089750783,0.086637258529663,0,0,0
16057,536231.5915077508,2010-08-25 19:19:15,4592.289429690922,2,44,0.550297200679779,4.038576602935791,47.64024123596972,46.87030036192579,189.12816173783568,172.17219554066548,9.70840483205393e-05,0.086637258529663,0,0,0
16058,536261.60668385,2010-08-25 19:19:45,4622.304605740075,2,44,0.5501165986061096,4.0408430099487305,47.644827674669656,46.87030036192579,189.1466892522192,172.17219554066548,6.47544875391759e-05,0.086637258529663,0,0,0
16059,536291.6219724899,2010-08-25 19:20:15,4652.319894389864,2,44,0.5501165986061096,4.043271541595459,47.64941411809992,46.87030036192579,189.16522814996608,172.17219554066548,3.24249267578125e-05,0.086637258529663,0,0,0
16060,536321.6369782395,2010-08-25 19:20:45,4682.334900129554,2,44,0.5501165986061096,4.046023368835449,47.65400060904723,46.87030036192579,189.18377873784692,172.17219554066548,0.0001295089750783,0.086637258529663,0,0,0
16061,536351.6521686395,2010-08-25 19:21:15,4712.350090534486,2,44,0.5499359965324402,4.048289775848389,47.6585870967469,46.87030036192579,189.2023408929595,172.17219554066548,9.70840483205393e-05,0.086637258529663,0,0,0
16062,536381.66731915,2010-08-25 19:21:45,4742.365241050001,2,44,0.5501165986061096,4.050879955291748,47.663173620171335,46.87030036192579,189.22091486245137,172.17219554066548,6.47544875391759e-05,0.086637258529663,0,0,0
16063,536411.6865312181,2010-08-25 19:22:15,4772.384453233443,2,44,0.5501165986061096,4.0536322593688965,47.6677607842813,46.87030036192579,189.23950319142065,172.17219554066548,6.47544875391759e-05,0.086637258529663,0,0,0
16064,536441.6976542759,2010-08-25 19:22:45,4802.395576186033,2,44,0.5501165986061096,4.056060314178467,47.672346618325776,46.87030036192579,189.2580980849287,172.17219554066548,3.23295607813634e-05,0.086637258529663,0,0,0
16065,536471.7128534478,2010-08-25 19:23:15,4832.410775342777,2,44,0.550297200679779,4.058974266052246,47.676933132086376,46.87030036192579,189.27670777185952,172.17219554066548,0.0001295089750783,0.086637258529663,0,0,0
16066,536501.7279953618,2010-08-25 19:23:45,4862.425917271894,2,44,0.550297200679779,4.061402797698975,47.68151967826398,46.87030036192579,189.29532951988529,172.17219554066548,9.71794142969884e-05,0.086637258529663,0,0,0
16067,536531.7433069187,2010-08-25 19:24:15,4892.441228808723,2,44,0.5501165986061096,4.063992977142334,47.6861061798776,46.87030036192579,189.3139631940216,172.17219554066548,6.47544875391759e-05,0.086637258529663,0,0,0
16068,536561.7583231746,2010-08-25 19:24:45,4922.456245064623,2,44,0.5501165986061096,4.066583156585693,47.69069263832396,46.87030036192579,189.3326090543404,172.17219554066548,3.24249267578125e-05,0.086637258529663,0,0,0
16069,536591.7734916097,2010-08-25 19:25:15,4952.471413504812,2,44,0.5501165986061096,4.069497108459473,47.69527905201736,46.87030036192579,189.3512671872521,172.17219554066548,6.47544875391759e-05,0.086637258529663,0,0,0
16070,536621.7887933472,2010-08-25 19:25:45,4982.486715247232,2,44,0.5499359965324402,4.072087287902832,47.699865597968056,46.87030036192579,189.36993841776783,172.17219554066548,3.24249267578125e-05,0.086637258529663,0,0,0
16071,536651.8038527656,2010-08-25 19:26:15,5012.5017746556805,2,44,0.550297200679779,4.075001239776611,47.70445204974106,46.87030036192579,189.38862195651248,172.17219554066548,6.47544875391759e-05,0.086637258529663,0,0,0
16072,536681.8189862287,2010-08-25 19:26:45,5042.516908138746,2,44,0.5501165986061096,4.077915191650391,47.70903898563411,46.87030036192579,189.4073203233016,172.17219554066548,6.47544875391759e-05,0.086637258529663,0,0,0
16073,536711.8342748333,2010-08-25 19:27:15,5072.532196718359,2,44,0.550297200679779,4.08082914352417,47.71362647266367,46.87030036192579,189.4260339786948,172.17219554066548,9.71794142969884e-05,0.086637258529663,0,0,0
16074,536741.8493091092,2010-08-25 19:27:45,5102.547231024245,2,44,0.5501165986061096,4.08358097076416,47.71821376007223,46.87030036192579,189.44475974785752,172.17219554066548,9.70840483205393e-05,0.086637258529663,0,0,0
16075,536771.8644902561,2010-08-25 19:28:15,5132.562412156066,2,44,0.550297200679779,4.08649492263794,47.72280113976599,46.87030036192579,189.46349916918183,172.17219554066548,6.47544875391759e-05,0.086637258529663,0,0,0
16076,536801.8796452978,2010-08-25 19:28:45,5162.577567182825,2,44,0.5501165986061096,4.089408874511719,47.72738856232275,46.87030036192579,189.48225209360515,172.17219554066548,6.47544875391759e-05,0.086637258529663,0,0,0
16077,536831.894813312,2010-08-25 19:29:15,5192.592735222014,2,44,0.550297200679779,4.092484951019287,47.73197597893645,46.87030036192579,189.5010183994392,172.17219554066548,0.0001295089750783,0.086637258529663,0,0,0
16078,536861.9099898774,2010-08-25 19:29:45,5222.607911767404,2,44,0.5501165986061096,4.095236778259277,47.73656315770855,46.87030036192579,189.5197972242455,172.17219554066548,9.70840483205393e-05,0.086637258529663,0,0,0
16079,536891.9253144066,2010-08-25 19:30:15,5252.623236411903,2,44,0.5501165986061096,4.098312854766846,47.741149827107776,46.87030036192579,189.5385875932388,172.17219554066548,9.71794142969884e-05,0.086637258529663,0,0,0
16080,536921.9403714241,2010-08-25 19:30:45,5282.638293339169,2,44,0.5501165986061096,4.101388454437256,47.74573651071326,46.87030036192579,189.5573918131339,172.17219554066548,0.0001295089750783,0.086637258529663,0,0,0
16081,536951.9554877795,2010-08-25 19:31:15,5312.653409669484,2,44,0.5501165986061096,4.104464530944824,47.7503231425096,46.87030036192579,189.57620974026108,172.17219554066548,0.0001295089750783,0.086637258529663,0,0,0
16082,536981.9708035018,2010-08-25 19:31:45,5342.6687253967575,2,44,0.550297200679779,4.107540130615234,47.75490984559684,46.87030036192579,189.5950420394042,172.17219554066548,0.0001295089750783,0.086637258529663,0,0,0
16083,537011.9858371911,2010-08-25 19:32:15,5372.683759076082,2,44,0.5501165986061096,4.110616207122803,47.75949646612089,46.87030036192579,189.61388816591904,172.17219554066548,9.71794142969884e-05,0.086637258529663,0,0,0
16084,537042.0009884334,2010-08-25 19:32:45,5402.698910318409,2,44,0.5501165986061096,4.113530158996582,47.76408310980329,46.87030036192579,189.63274870979453,172.17219554066548,6.47544875391759e-05,0.086637258529663,0,0,0
16085,537072.0161563773,2010-08-25 19:33:15,5432.714078272386,2,44,0.550297200679779,4.116929531097412,47.768669717793614,46.87030036192579,189.65162357555363,172.17219554066548,9.71794142969884e-05,0.086637258529663,0,0,0
16086,537102.0314699993,2010-08-25 19:33:45,5462.729391889402,2,44,0.5501165986061096,4.119843482971191,47.7732564567534,46.87030036192579,189.6705136134865,172.17219554066548,9.71794142969884e-05,0.086637258529663,0,0,0
16087,537132.0465076435,2010-08-25 19:34:15,5492.744429538619,2,44,0.5501165986061096,4.1232428550720215,47.77784311981431,46.87030036192579,189.68941801119465,172.17219554066548,0.0001295089750783,0.086637258529663,0,0,0
16088,537162.0616696177,2010-08-25 19:34:45,5522.759591532744,2,44,0.5501165986061096,4.126480579376221,47.78242976287069,46.87030036192579,189.70833715526285,172.17219554066548,9.70840483205393e-05,0.086637258529663,0,0,0
16089,537192.0768473009,2010-08-25 19:35:15,5552.774769195919,2,44,0.550297200679779,4.129880428314209,47.78701641395874,46.87030036192579,189.7272713581644,172.17219554066548,0.0001295089750783,0.086637258529663,0,0,0
16090,537222.0919967087,2010-08-25 19:35:45,5582.789918598662,2,44,0.5501165986061096,4.132956027984619,47.79160312936346,46.87030036192579,189.74622105656772,172.17219554066548,9.70840483205393e-05,0.086637258529663,0,0,0
16091,537252.1071857702,2010-08-25 19:36:15,5612.805107660245,2,44,0.5501165986061096,4.136355876922607,47.79618979346894,46.87030036192579,189.7651857243397,172.17219554066548,6.47544875391759e-05,0.086637258529663,0,0,0
16092,537282.1223369825,2010-08-25 19:36:45,5642.8202588825225,2,44,0.5499359965324402,4.1397552490234375,47.80077642625351,46.87030036192579,189.78416572427625,172.17219554066548,9.70840483205393e-05,0.086637258529663,0,0,0
16093,537312.1375423196,2010-08-25 19:37:15,5672.835464214659,2,44,0.5501165986061096,4.143155097961426,47.805363102404485,46.87030036192579,189.8031615308252,172.17219554066548,6.47544875391759e-05,0.086637258529663,0,0,0
16094,537342.1528127741,2010-08-25 19:37:45,5702.850734699173,2,44,0.550297200679779,4.146716594696045,47.80994973830667,46.87030036192579,189.82217297923216,172.17219554066548,9.71794142969884e-05,0.086637258529663,0,0,0
16095,537372.1678665736,2010-08-25 19:38:15,5732.865788483606,2,44,0.5501165986061096,4.150278091430664,47.81453633056061,46.87030036192579,189.84120026420152,172.17219554066548,9.71794142969884e-05,0.086637258529663,0,0,0
16096,537402.1830047884,2010-08-25 19:38:45,5762.880926683427,2,44,0.5501165986061096,4.153677463531494,47.8191229795204,46.87030036192579,189.8602437661884,172.17219554066548,9.70840483205393e-05,0.086637258529663,0,0,0
16097,537432.198301022,2010-08-25 19:39:15,5792.896222907091,2,44,0.5501165986061096,4.157238960266113,47.82370960983135,46.87030036192579,189.8793031990915,172.17219554066548,6.47544875391759e-05,0.086637258529663,0,0,0
16098,537462.2133401199,2010-08-25 19:39:45,5822.911262014945,2,44,0.550297200679779,4.160800457000732,47.8282962019318,46.87030036192579,189.89837875337827,172.17219554066548,9.70840483205393e-05,0.086637258529663,0,0,0
16099,537492.2285254924,2010-08-25 19:40:15,5852.926447382322,2,44,0.5501165986061096,4.164200305938721,47.83288286757069,46.87030036192579,189.917470998355,172.17219554066548,6.47544875391759e-05,0.086637258529663,0,0,0
16100,537522.2438303024,2010-08-25 19:40:45,5882.9417521974,2,44,0.5501165986061096,4.16808557510376,47.8374694988933,46.87030036192579,189.93657952555915,172.17219554066548,0.0001295089750783,0.086637258529663,0,0,0
16101,537552.2588465532,2010-08-25 19:41:15,5912.956768443274,2,44,0.5501165986061096,4.171647071838379,47.84205615441678,46.87030036192579,189.95570488260992,172.17219554066548,0.0001295089750783,0.086637258529663,0,0,0
16102,537582.2740119408,2010-08-25 19:41:45,5942.971933830855,2,44,0.5501165986061096,4.175370216369629,47.84664280104312,46.87030036192579,189.97484698867493,172.17219554066548,0.0001295089750783,0.086637258529663,0,0,0
16103,537612.2891970826,2010-08-25 19:42:15,5972.98711897267,2,44,0.550297200679779,4.179255485534668,47.85122941651098,46.87030036192579,189.9940059463244,172.17219554066548,0.0001618385285837,0.086637258529663,0,0,0
16104,537642.3043489766,2010-08-25 19:42:46,6003.002270866621,2,44,0.5501165986061096,4.182816982269287,47.85581607840548,46.87030036192579,190.013182203494,172.17219554066548,0.0001295089750783,0.086637258529663,0,0,0
16105,537672.3198715644,2010-08-25 19:43:16,6033.0177934594685,2,44,0.5499359965324402,4.186378479003906,47.86040279420595,46.87030036192579,190.0323758278421,172.17219554066548,9.70840483205393e-05,0.086637258529663,0,0,0
16106,537702.3348331291,2010-08-25 19:43:46,6063.03275502406,2,44,0.5501165986061096,4.190425872802734,47.86498933188433,46.87030036192579,190.0515861686008,172.17219554066548,0.0001295089750783,0.086637258529663,0,0,0
16107,537732.3500205264,2010-08-25 19:44:16,6093.047942421497,2,44,0.550297200679779,4.194149017333984,47.86957598836526,46.87030036192579,190.0708145417084,172.17219554066548,9.70840483205393e-05,0.086637258529663,0,0,0
16108,537762.365112902,2010-08-25 19:44:46,6123.063034792097,2,44,0.5501165986061096,4.197872161865234,47.8741626479617,46.87030036192579,190.09006054855217,172.17219554066548,9.70840483205393e-05,0.086637258529663,0,0,0
16109,537776.2398452342,2010-08-25 19:44:59,6136.937767124217,2,44,0.550297200679779,4.200138568878174,47.87628284617068,46.87030036192579,190.0989630966738,172.17219554066548,0.0001618385285837,0.086637258529663,0,0,0
16110,537806.2804382727,2010-08-25 19:45:30,30.015273211311268,3,44,0.0,4.121300220489502,47.87628284617068,46.87030036192579,190.0989630966738,172.17219554066548,-0.0003561973571777,0.086637258529663,0,0,0
16111,537836.295480764,2010-08-25 19:46:00,60.03031570259724,3,44,0.0,4.111263751983643,47.87628284617068,46.87030036192579,190.0989630966738,172.17219554066548,-0.0002265930233988,0.086637258529663,0,0,0
16112,537866.3106537656,2010-08-25 19:46:30,90.04548870415496,3,44,0.0,4.105597496032715,47.87628284617068,46.87030036192579,190.0989630966738,172.17219554066548,-9.71794142969884e-05,0.086637258529663,0,0,0
16113,537896.2789455898,2010-08-25 19:47:00,120.01378052839384,3,44,0.0,4.101712226867676,47.87628284617068,46.87030036192579,190.0989630966738,172.17219554066548,-6.47544875391759e-05,0.086637258529663,0,0,0
16114,537896.3061363178,2010-08-25 19:47:00,2.681683581e-06,4,44,1.007238745689392,4.199976921081543,47.87628284692098,46.87030036192579,190.09896309982503,172.17219554066548,0.0,0.086637258529663,0,0,0
16115,537897.2437260249,2010-08-25 19:47:01,0.937592373685185,4,44,0.9572099447250366,4.199814796447754,47.87653725698768,46.87030036192579,190.10003155414097,172.17219554066548,-3.24249267578125e-05,0.086637258529663,0,0,0
16116,537899.3219134122,2010-08-25 19:47:03,3.015779776134366,4,44,0.9068199396133424,4.199814796447754,47.8770740991416,46.87030036192579,190.10228615383528,172.17219554066548,-3.24249267578125e-05,0.086637258529663,0,0,0
16117,537902.3997677673,2010-08-25 19:47:06,6.093634116181869,4,44,0.8567911386489868,4.199814796447754,47.877826933280026,46.87030036192579,190.10544787403185,172.17219554066548,3.23295607813634e-05,0.086637258529663,0,0,0
16118,537906.524709797,2010-08-25 19:47:10,10.21857614593294,4,44,0.8067623972892761,4.199814796447754,47.87877884870505,46.87030036192579,190.109445694728,172.17219554066548,0.0,0.086637258529663,0,0,0
16119,537911.7746315525,2010-08-25 19:47:15,15.468497906320367,4,44,0.7565529942512512,4.199653148651123,47.87991749885596,46.87030036192579,190.1142277708293,172.17219554066548,-3.23295607813634e-05,0.086637258529663,0,0,0
16120,537918.4620558264,2010-08-25 19:47:22,22.15592217526759,4,44,0.7065242528915405,4.199653148651123,47.88127486535683,46.87030036192579,190.1199284075252,172.17219554066548,0.0,0.086637258529663,0,0,0
16121,537927.1963028625,2010-08-25 19:47:31,30.89016923640457,4,44,0.6563148498535156,4.199653148651123,47.88292571466965,46.87030036192579,190.1268615950869,172.17219554066548,-6.47544875391759e-05,0.086637258529663,0,0,0
16122,537938.9929614253,2010-08-25 19:47:42,42.686827774221904,4,44,0.6062861084938049,4.199653148651123,47.88499062137542,46.87030036192579,190.13553374320176,172.17219554066548,-3.23295607813634e-05,0.086637258529663,0,0,0
16123,537955.9927045308,2010-08-25 19:47:59,59.68657087973102,4,44,0.5562573075294495,4.199814796447754,47.88772854019935,46.87030036192579,190.14703241127373,172.17219554066548,0.0,0.086637258529663,0,0,0
16124,537982.8360438921,2010-08-25 19:48:26,86.52991024090811,4,44,0.5062285661697388,4.199814796447754,47.89167561314771,46.87030036192579,190.163609241619,172.17219554066548,0.0,0.086637258529663,0,0,0
16125,538028.6947735818,2010-08-25 19:49:12,132.3886399256609,4,44,0.4561997950077057,4.199814796447754,47.89777793973924,46.87030036192579,190.189237648363,172.17219554066548,0.0,0.086637258529663,0,0,0
16126,538103.2561053575,2010-08-25 19:50:27,206.94997171141924,4,44,0.4061710238456726,4.199653148651123,47.906675957894734,46.87030036192579,190.22660733218288,172.17219554066548,0.0,0.086637258529663,0,0,0
16127,538204.9264081152,2010-08-25 19:52:08,308.62027446906137,4,44,0.3561422526836395,4.199814796447754,47.91741799313688,46.87030036192579,190.27172152514305,172.17219554066548,0.0,0.086637258529663,0,0,0
16128,538329.4559276847,2010-08-25 19:54:13,433.149794038604,4,44,0.3061134815216064,4.199653148651123,47.9288550152292,46.87030036192579,190.3197544951063,172.17219554066548,-3.23295607813634e-05,0.086637258529663,0,0,0
16129,538479.5159776966,2010-08-25 19:56:43,583.2098440405318,4,44,0.2560847103595733,4.199814796447754,47.940554094036784,46.87030036192579,190.36888807194308,172.17219554066548,3.23295607813634e-05,0.086637258529663,0,0,0
16130,538666.013140435,2010-08-25 19:59:49,769.7070067838304,4,44,0.2060559391975402,4.199653148651123,47.95248861298312,46.87030036192579,190.41901042618355,172.17219554066548,-3.23295607813634e-05,0.086637258529663,0,0,0
16131,538908.7907058689,2010-08-25 20:03:52,1012.4845722126684,4,44,0.1560271680355072,4.199653148651123,47.96462817366272,46.87030036192579,190.469993893304,172.17219554066548,3.24249267578125e-05,0.086637258529663,0,0,0
16132,539261.3635703662,2010-08-25 20:09:45,1365.057436709954,4,44,0.1059984043240547,4.199653148651123,47.97731738553082,46.87030036192579,190.52328552007964,172.17219554066548,-3.23295607813634e-05,0.086637258529663,0,0,0
16133,539881.4638967245,2010-08-25 20:20:05,1985.1577630783645,4,44,0.0559696331620216,4.199653148651123,47.990836314016114,46.87030036192579,190.58006166853147,172.17219554066548,0.0,0.086637258529663,0,0,0
16134,540003.3215506177,2010-08-25 20:22:07,2107.015416971529,4,44,0.0498289167881011,4.199653148651123,47.99264042416844,46.87030036192579,190.5876384718866,172.17219554066548,0.0,0.086637258529663,0,0,0
16135,540033.3131736218,2010-08-25 20:22:37,30.01112091250501,5,44,0.0,4.192530155181885,47.99264042416844,46.87030036192579,190.5876384718866,172.17219554066548,0.0,0.086637258529663,0,0,0
16136,540063.3128049787,2010-08-25 20:23:07,60.01075234970234,5,44,0.0,4.191235065460205,47.99264042416844,46.87030036192579,190.5876384718866,172.17219554066548,-3.24249267578125e-05,0.086637258529663,0,0,0
16137,540063.4971709508,2010-08-25 20:23:07,0.187424609796724,6,44,-1.9243103452026844e-05,4.191235065460205,47.99264042416844,46.87030036292764,190.5876384718866,172.17219554486445,0.0,0.0899572893977165,0,0,0
16138,540068.3252339343,2010-08-25 20:23:12,5.015487593309479,6,44,0.0007031940040178,4.191235065460205,47.99264138217856,46.87030036301263,190.5876424872941,172.17219554522066,-3.24249267578125e-05,0.0899572893977165,0,0,0
16139,540098.3532171805,2010-08-25 20:23:42,30.015294394105307,7,44,-1.0997490882873535,4.029511451721191,47.99264138217856,46.87946876326279,190.5876424872941,172.20932570885654,-0.0008418083307333,0.0899572893977165,0,0,0
16140,540128.3685391133,2010-08-25 20:24:12,60.03061633185786,7,44,-1.099568486213684,4.004418849945068,47.99264138217856,46.888637271729166,190.5876424872941,172.24614616764856,-0.0005504608270712,0.0899572893977165,0,0,0
16141,540158.3834779863,2010-08-25 20:24:42,90.04555519988278,7,44,-1.0997490882873535,3.987259149551392,47.99264138217856,46.89780563727141,190.5876424872941,172.2827776071017,-0.0004209041653666,0.0899572893977165,0,0,0
16142,540188.398695203,2010-08-25 20:25:12,120.06077246175082,7,44,-1.0997490882873535,3.973822593688965,47.99264138217856,46.9069740751583,190.5876424872941,172.31927167829969,-0.0003885269106831,0.0899572893977165,0,0,0
16143,540218.4139191917,2010-08-25 20:25:42,150.07599734762022,7,44,-1.099568486213684,3.9626524448394775,47.99264138217856,46.916142425864926,190.5876424872941,172.35565388161257,-0.0003237724304199,0.0899572893977165,0,0,0
16144,540248.4290780982,2010-08-25 20:26:12,180.09115532172493,7,44,-1.099568486213684,3.95293927192688,47.99264138217856,46.92531075945168,190.5876424872941,172.39193895537244,-0.0002266406954731,0.0899572893977165,0,0,0
16145,540278.4444997094,2010-08-25 20:26:42,210.10657692286927,7,44,-1.099568486213684,3.943387985229492,47.99264138217856,46.93447918398001,190.5876424872941,172.42813602021909,-0.0001942634553415,0.0899572893977165,0,0,0
16146,540308.4594719205,2010-08-25 20:27:12,240.1215491339955,7,44,-1.0993878841400146,3.9346461296081534,47.99264138217856,46.943647438254494,190.5876424872941,172.46424974166058,-0.0002590179501567,0.0899572893977165,0,0,0
16147,540338.4747997078,2010-08-25 20:27:42,270.13687693135194,7,44,-1.099568486213684,3.926228046417236,47.99264138217856,46.95281586520748,190.5876424872941,172.50028528985882,-0.0001942634553415,0.0899572893977165,0,0,0
16148,540368.4898587404,2010-08-25 20:28:12,300.1519359588513,7,44,-1.099568486213684,3.9181337356567374,47.99264138217856,46.961984149387405,190.5876424872941,172.5362443476319,-0.0001942634553415,0.0899572893977165,0,0,0
16149,540398.5050748542,2010-08-25 20:28:42,330.167152067846,7,44,-1.099568486213684,3.910201549530029,47.99264138217856,46.97115253309831,190.5876424872941,172.57212995075514,-0.0002266406954731,0.0899572893977165,0,0,0
16150,540428.5202765423,2010-08-25 20:29:12,360.18235379599923,7,44,-1.099568486213684,3.902431011199951,47.99264138217856,46.98032089681703,190.5876424872941,172.607943396464,-0.0001618862152099,0.0899572893977165,0,0,0
16151,540458.5354602406,2010-08-25 20:29:42,390.19753745912885,7,44,-1.0997490882873535,3.894660472869873,47.99264138217856,46.98948929290862,190.5876424872941,172.64368641243524,-0.0002266406954731,0.0899572893977165,0,0,0
16152,540488.550831401,2010-08-25 20:30:12,420.212908624572,7,44,-1.0997490882873535,3.887051820755005,47.99264138217856,46.99865768913907,190.5876424872941,172.67936083421068,-0.0002590179501567,0.0899572893977165,0,0,0
16153,540518.5658824637,2010-08-25 20:30:42,450.227959682208,7,44,-1.099568486213684,3.879928827285767,47.99264138217856,47.00782607792153,190.5876424872941,172.7149670669946,-0.0002266406954731,0.0899572893977165,0,0,0
16154,540548.5810648636,2010-08-25 20:31:12,480.24314208720193,7,44,-1.099929690361023,3.8726439476013184,47.99264138217856,47.01699456088532,190.5876424872941,172.75050673624142,-0.0002266406954731,0.0899572893977165,0,0,0
16155,540578.5964187109,2010-08-25 20:31:42,510.2584959344828,7,44,-1.0997490882873535,3.86552095413208,47.99264138217856,47.02616303290872,190.5876424872941,172.78598055893838,-0.0001942634553415,0.0899572893977165,0,0,0
16156,540608.6114921845,2010-08-25 20:32:12,540.273569407986,7,44,-1.0997490882873535,3.858397960662842,47.99264138217856,47.035331469384246,190.5876424872941,172.82138933122786,-0.0001942634553415,0.0899572893977165,0,0,0
16157,540638.6267052408,2010-08-25 20:32:42,570.2887824543477,7,44,-1.099568486213684,3.8517606258392334,47.99264138217856,47.04449987593119,190.5876424872941,172.85673395439045,-0.0001618862152099,0.0899572893977165,0,0,0
16158,540668.6420146122,2010-08-25 20:33:12,600.3040918358062,7,44,-1.0997490882873535,3.844799518585205,47.99264138217856,47.05366834688987,190.5876424872941,172.8920155757206,-0.0001942634553415,0.0899572893977165,0,0,0
16159,540698.6571072636,2010-08-25 20:33:42,630.3191844820938,7,44,-1.099568486213684,3.8380002975463863,47.99264138217856,47.06283672092224,190.5876424872941,172.927234554822,-0.0001942634553415,0.0899572893977165,0,0,0
16160,540728.6722997937,2010-08-25 20:34:12,660.334377012323,7,44,-1.0997490882873535,3.831363201141357,47.99264138217856,47.072005200031874,190.5876424872941,172.9623925872473,-0.0001942634553415,0.0899572893977165,0,0,0
16161,540758.6876337414,2010-08-25 20:34:42,690.3497109650204,7,44,-1.099568486213684,3.824725866317749,47.99264138217856,47.08117375011842,190.5876424872941,172.99749057082627,-0.0001618862152099,0.0899572893977165,0,0,0
16162,540788.7026912903,2010-08-25 20:35:13,720.364768508822,7,44,-1.0997490882873535,3.818250417709351,47.99264138217856,47.090342197912086,190.5876424872941,173.03252862705426,-0.0001942634553415,0.0899572893977165,0,0,0
16163,540818.7180687765,2010-08-25 20:35:43,750.3801460000307,7,44,-1.099568486213684,3.811936855316162,47.99264138217856,47.09951074096999,190.5876424872941,173.06750839330618,-0.0001942634553415,0.0899572893977165,0,0,0
16164,540848.733338033,2010-08-25 20:36:13,780.3954153667602,7,44,-1.099568486213684,3.805785179138184,47.99264138217856,47.10867917989861,190.5876424872941,173.10242986299292,-0.0001618862152099,0.0899572893977165,0,0,0
16165,540878.7483196174,2010-08-25 20:36:43,810.4103968359605,7,44,-1.0997490882873535,3.799795389175415,47.99264138217856,47.117847606447306,190.5876424872941,173.13729481346328,-0.0001295089750783,0.0899572893977165,0,0,0
16166,540908.763525952,2010-08-25 20:37:13,840.4256031756071,7,44,-1.099568486213684,3.793643712997437,47.99264138217856,47.1270161057324,190.5876424872941,173.1721044389192,-0.0001295089750783,0.0899572893977165,0,0,0
16167,540938.7787130938,2010-08-25 20:37:43,870.4407903174064,7,44,-1.0997490882873535,3.787815809249878,47.99264138217856,47.13618457969454,190.5876424872941,173.2068595893457,-0.0001295089750783,0.0899572893977165,0,0,0
16168,540968.7939186867,2010-08-25 20:38:13,900.4559959051791,7,44,-1.099568486213684,3.782149791717529,47.99264138217856,47.14535311230552,190.5876424872941,173.24156158527563,-9.713172767078504e-05,0.0899572893977165,0,0,0
16169,540998.80926499,2010-08-25 20:38:43,930.471342203646,7,44,-1.0997490882873535,3.7764837741851807,47.99264138217856,47.15452165194889,190.5876424872941,173.2762111634193,-9.713172767078504e-05,0.0899572893977165,0,0,0
16170,541028.8243282181,2010-08-25 20:39:13,960.4864054366268,7,44,-1.0997490882873535,3.770655870437622,47.99264138217856,47.1636901351365,190.5876424872941,173.3108090150701,-0.0001618862152099,0.0899572893977165,0,0,0
16171,541058.8396589777,2010-08-25 20:39:43,990.5017361963664,7,44,-1.0993878841400146,3.7654755115509033,47.99264138217856,47.17285871107737,190.5876424872941,173.3453566684839,-0.0001295089750783,0.0899572893977165,0,0,0
16172,541088.8548753625,2010-08-25 20:40:13,1020.5169525760356,7,44,-1.0997490882873535,3.7599713802337646,47.99264138217856,47.18202724119222,190.5876424872941,173.37985460153664,-0.0001295089750783,0.0899572893977165,0,0,0
16173,541118.869996209,2010-08-25 20:40:43,1050.532073452682,7,44,-1.099568486213684,3.754791021347046,47.99264138217856,47.191195825202726,190.5876424872941,173.41430424156735,-9.713172767078504e-05,0.0899572893977165,0,0,0
16174,541148.8851556218,2010-08-25 20:41:13,1080.5472328403096,7,44,-1.099568486213684,3.749610900878906,47.99264138217856,47.20036438575545,190.5876424872941,173.44870610258073,-0.0001618862152099,0.0899572893977165,0,0,0
16175,541178.9003586532,2010-08-25 20:41:43,1110.5624358717107,7,44,-1.099568486213684,3.744430541992188,47.99264138217856,47.20953293443319,190.5876424872941,173.48306131861276,-0.0001295089750783,0.0899572893977165,0,0,0
16176,541208.9155660204,2010-08-25 20:42:13,1140.5776432389189,7,44,-1.099568486213684,3.739735841751098,47.99264138217856,47.21870154339976,190.5876424872941,173.51737083220365,-0.0001295089750783,0.0899572893977165,0,0,0
16177,541238.9311253998,2010-08-25 20:42:43,1170.5932026134367,7,44,-1.099568486213684,3.73471736907959,47.99264138217856,47.2278702216794,190.5876424872941,173.55163571343138,-0.0001295089750783,0.0899572893977165,0,0,0
16178,541268.9459885443,2010-08-25 20:43:13,1200.6080657577347,7,44,-1.0997490882873535,3.730022668838501,47.99264138217856,47.23703871351624,190.5876424872941,173.58585569285694,-0.0001295089750783,0.0899572893977165,0,0,0
16179,541298.9612021218,2010-08-25 20:43:43,1230.623279340433,7,44,-1.0997490882873535,3.725327968597412,47.99264138217856,47.24620730469214,190.5876424872941,173.62003309327503,-9.713172767078504e-05,0.0899572893977165,0,0,0
16180,541328.9764230228,2010-08-25 20:44:13,1260.6385002413708,7,44,-1.0997490882873535,3.720795154571533,47.99264138217856,47.25537587031737,190.5876424872941,173.6541679477768,-9.713172767078504e-05,0.0899572893977165,0,0,0
16181,541358.9916315579,2010-08-25 20:44:43,1290.653708776489,7,44,-1.099568486213684,3.716424226760864,47.99264138217856,47.26454439175981,190.5876424872941,173.68826079384863,-6.47544875391759e-05,0.0899572893977165,0,0,0
16182,541389.0069400371,2010-08-25 20:45:13,1320.6690172556987,7,44,-1.099568486213684,3.711729526519776,47.99264138217856,47.273713011204194,190.5876424872941,173.72231286603468,-0.0001295089750783,0.0899572893977165,0,0,0
16183,541419.0220446883,2010-08-25 20:45:43,1350.684121931969,7,44,-1.0997490882873535,3.707520484924317,47.99264138217856,47.28288157605239,190.5876424872941,173.7563243127907,-9.713172767078504e-05,0.0899572893977165,0,0,0
16184,541449.0372415694,2010-08-25 20:46:13,1380.699318787979,7,44,-1.0997490882873535,3.7029876708984375,47.99264138217856,47.292050254722994,190.5876424872941,173.7902964133159,-9.713172767078504e-05,0.0899572893977165,0,0,0
16185,541479.0565187898,2010-08-25 20:46:43,1410.7185961037508,7,44,-1.0997490882873535,3.698940515518189,47.99264138217856,47.30122008836854,190.5876424872941,173.8242337954532,-9.713172767078504e-05,0.0899572893977165,0,0,0
16186,541509.0676655569,2010-08-25 20:47:13,1440.729742780468,7,44,-1.099568486213684,3.6947314739227295,47.99264138217856,47.31038743076567,190.5876424872941,173.85812352837323,-9.713172767078504e-05,0.0899572893977165,0,0,0
16187,541539.0828951545,2010-08-25 20:47:43,1470.7449723780808,7,44,-1.099568486213684,3.6905224323272714,47.99264138217856,47.31955604182078,190.5876424872941,173.89198017476744,-0.0001295089750783,0.0899572893977165,0,0,0
16188,541569.098078547,2010-08-25 20:48:13,1500.7601557655232,7,44,-1.099568486213684,3.686637163162232,47.99264138217856,47.32872464121534,190.5876424872941,173.92579953585292,-9.713172767078504e-05,0.0899572893977165,0,0,0
16189,541599.1133089967,2010-08-25 20:48:43,1530.775386220272,7,44,-1.0997490882873535,3.6825900077819824,47.99264138217856,47.33789327818657,190.5876424872941,173.95958266468526,-9.713172767078504e-05,0.0899572893977165,0,0,0
16190,541629.1285041183,2010-08-25 20:49:13,1560.7905813369473,7,44,-1.0997490882873535,3.678704738616944,47.99264138217856,47.34706189417373,190.5876424872941,173.99332982796673,-0.0001295089750783,0.0899572893977165,0,0,0
16191,541659.1437253802,2010-08-25 20:49:43,1590.8058025987846,7,44,-1.0997490882873535,3.674981355667114,47.99264138217856,47.35623054728946,190.5876424872941,174.0270418139665,-9.713172767078504e-05,0.0899572893977165,0,0,0
16192,541689.1590433881,2010-08-25 20:50:13,1620.8211206117553,7,44,-1.0997490882873535,3.671258211135864,47.99264138217856,47.365399217520185,190.5876424872941,174.06071939316175,-9.713172767078504e-05,0.0899572893977165,0,0,0
16193,541719.1741597436,2010-08-25 20:50:43,1650.8362369671331,7,44,-1.0993878841400146,3.667696714401245,47.99264138217856,47.3745678309649,190.5876424872941,174.0943628602528,-6.47544875391759e-05,0.0899572893977165,0,0,0
16194,541749.1893472212,2010-08-25 20:51:13,1680.8514244397577,7,44,-1.0997490882873535,3.663973331451416,47.99264138217856,47.38373640841387,190.5876424872941,174.12797286715346,-6.47544875391759e-05,0.0899572893977165,0,0,0
16195,541779.2045022931,2010-08-25 20:51:43,1710.8665795066163,7,44,-1.0997490882873535,3.660411834716797,47.99264138217856,47.39290534448468,190.5876424872941,174.16155148086048,-9.713172767078504e-05,0.0899572893977165,0,0,0
16196,541809.2197033997,2010-08-25 20:52:13,1740.8817806182333,7,44,-1.0997490882873535,3.657012224197388,47.99264138217856,47.40207478988194,190.5876424872941,174.19509974253145,-9.713172767078504e-05,0.0899572893977165,0,0,0
16197,541839.234968626,2010-08-25 20:52:43,1770.8970458546687,7,44,-1.0997490882873535,3.6536126136779785,47.99264138217856,47.411244045843546,190.5876424872941,174.22861618942483,-9.713172767078504e-05,0.0899572893977165,0,0,0
16198,541869.2501851011,2010-08-25 20:53:13,1800.91226231955,7,44,-1.099929690361023,3.650213003158569,47.99264138217856,47.42041350853578,190.5876424872941,174.26210273092033,-0.0001295089750783,0.0899572893977165,0,0,0
16199,541899.2653686488,2010-08-25 20:53:43,1830.9274458573675,7,44,-1.0997490882873535,3.64713716506958,47.99264138217856,47.42958293921424,190.5876424872941,174.29555921018556,-9.713172767078504e-05,0.0899572893977165,0,0,0
16200,541929.2805807829,2010-08-25 20:54:13,1860.942657986443,7,44,-1.099568486213684,3.643899440765381,47.99264138217856,47.43875225629613,190.5876424872941,174.32898561581467,-9.713172767078504e-05,0.0899572893977165,0,0,0
16201,541959.2959550361,2010-08-25 20:54:43,1890.958032259632,7,44,-1.0997490882873535,3.640823602676392,47.99264138217856,47.44792146322831,190.5876424872941,174.36238345640405,-6.47544875391759e-05,0.0899572893977165,0,0,0
16202,541989.3110042942,2010-08-25 20:55:13,1920.9730815177827,7,44,-1.099568486213684,3.637909650802612,47.99264138217856,47.45708991910808,190.5876424872941,174.39575109697628,-6.47544875391759e-05,0.0899572893977165,0,0,0
16203,542019.3262151451,2010-08-25 20:55:43,1950.988292358648,7,44,-1.0993878841400146,3.635157585144043,47.99264138217856,47.466258404652045,190.5876424872941,174.4290918842005,-3.237724376958795e-05,0.0899572893977165,0,0,0
16204,542049.3416579942,2010-08-25 20:56:13,1981.0037352177733,7,44,-1.099568486213684,3.632243633270264,47.99264138217856,47.47542695349641,190.5876424872941,174.46240672947678,-9.713172767078504e-05,0.0899572893977165,0,0,0
16205,542079.3566513982,2010-08-25 20:56:43,2011.0187286116936,7,44,-1.0997490882873535,3.629329681396485,47.99264138217856,47.484595391105984,190.5876424872941,174.49569544018527,-9.713172767078504e-05,0.0899572893977165,0,0,0
16206,542109.3718488456,2010-08-25 20:57:13,2041.0339260641904,7,44,-1.099568486213684,3.626739501953125,47.99264138217856,47.493763883740016,190.5876424872941,174.5289591611682,-6.47544875391759e-05,0.0899572893977165,0,0,0
16207,542139.3870625487,2010-08-25 20:57:43,2071.049139772201,7,44,-1.099568486213684,3.623987436294556,47.99264138217856,47.50293239158372,190.5876424872941,174.5621982481187,-6.47544875391759e-05,0.0899572893977165,0,0,0
16208,542169.4024162906,2010-08-25 20:58:13,2101.0644935142204,7,44,-1.0997490882873535,3.621397256851196,47.99264138217856,47.51210097378804,190.5876424872941,174.59541329042526,-3.237724376958795e-05,0.0899572893977165,0,0,0
16209,542199.4177120782,2010-08-25 20:58:43,2131.079789291773,7,44,-1.0997490882873535,3.618807077407837,47.99264138217856,47.521269557662166,190.5876424872941,174.6286043461587,-9.713172767078504e-05,0.0899572893977165,0,0,0
16210,542229.4327161136,2010-08-25 20:59:13,2161.094793332228,7,44,-1.0997490882873535,3.6162168979644775,47.99264138217856,47.530438016622654,190.5876424872941,174.6617711047756,-3.237724376958795e-05,0.0899572893977165,0,0,0
16211,542259.447909501,2010-08-25 20:59:43,2191.109986714581,7,44,-1.099929690361023,3.613626718521118,47.99264138217856,47.53960651525844,190.5876424872941,174.69491429159538,-9.713172767078504e-05,0.0899572893977165,0,0,0
16212,542289.4631311388,2010-08-25 21:00:13,2221.12520836238,7,44,-1.099568486213684,3.611036539077759,47.99264138217856,47.54877506234007,190.5876424872941,174.72803384718284,-3.237724376958795e-05,0.0899572893977165,0,0,0
16213,542319.4783537239,2010-08-25 21:00:43,2251.1404309374902,7,44,-1.099568486213684,3.6084463596344,47.99264138217856,47.557943619637776,190.5876424872941,174.76112966349532,-6.47544875391759e-05,0.0899572893977165,0,0,0
16214,542349.4935540336,2010-08-25 21:01:13,2281.1556312471084,7,44,-1.0997490882873535,3.60585618019104,47.99264138217856,47.56711214450414,190.5876424872941,174.79420153863472,-6.47544875391759e-05,0.0899572893977165,0,0,0
16215,542379.5087871549,2010-08-25 21:01:43,2311.170864378528,7,44,-1.099568486213684,3.6032660007476807,47.99264138217856,47.576280684827815,190.5876424872941,174.827249300692,-9.713172767078504e-05,0.0899572893977165,0,0,0
16216,542409.5239859609,2010-08-25 21:02:13,2341.186063179385,7,44,-1.099568486213684,3.6006758213043213,47.99264138217856,47.58544923347361,190.5876424872941,174.86027286445616,-3.237724376958795e-05,0.0899572893977165,0,0,0
16217,542439.5393499784,2010-08-25 21:02:43,2371.2014272020265,7,44,-1.099929690361023,3.597761869430542,47.99264138217856,47.59461786390636,190.5876424872941,174.8932721721341,-6.47544875391759e-05,0.0899572893977165,0,0,0
16218,542469.5544154921,2010-08-25 21:03:13,2401.2164927156914,7,44,-1.0997490882873535,3.5951716899871826,47.99264138217856,47.60378640929474,190.5876424872941,174.92624605526672,-6.47544875391759e-05,0.0899572893977165,0,0,0
16219,542499.569625521,2010-08-25 21:03:43,2431.23170273952,7,44,-1.099568486213684,3.5924196243286133,47.99264138217856,47.61295496192512,190.5876424872941,174.9591946355881,-3.237724376958795e-05,0.0899572893977165,0,0,0
16220,542529.5848352391,2010-08-25 21:04:13,2461.246912462599,7,44,-1.099568486213684,3.589505910873413,47.99264138217856,47.62212356501206,190.5876424872941,174.99211747650773,-6.47544875391759e-05,0.0899572893977165,0,0,0
16221,542559.6000857939,2010-08-25 21:04:43,2491.2621630174435,7,44,-1.0997490882873535,3.586430072784424,47.99264138217856,47.63129217409786,190.5876424872941,175.0250138093188,-6.47544875391759e-05,0.0899572893977165,0,0,0
16222,542589.615420388,2010-08-25 21:05:13,2521.2774976117403,7,44,-1.099568486213684,3.5833542346954346,47.99264138217856,47.6404607623826,190.5876424872941,175.05788287622914,-9.713172767078504e-05,0.0899572893977165,0,0,0
16223,542619.6304925835,2010-08-25 21:05:43,2551.2925697970327,7,44,-1.099568486213684,3.5804402828216557,47.99264138217856,47.64962933715309,190.5876424872941,175.0907242263626,-9.713172767078504e-05,0.0899572893977165,0,0,0
16224,542649.6457300006,2010-08-25 21:06:13,2581.307807219146,7,44,-1.099568486213684,3.577526330947876,47.99264138217856,47.65879797006676,190.5876424872941,175.1235371408475,-3.237724376958795e-05,0.0899572893977165,0,0,0
16225,542679.6609436785,2010-08-25 21:06:43,2611.323020917132,7,44,-1.0997490882873535,3.573964834213257,47.99264138217856,47.66796653411596,190.5876424872941,175.15632052299202,-9.713172767078504e-05,0.0899572893977165,0,0,0
16226,542709.6761289857,2010-08-25 21:07:14,2641.338206209321,7,44,-1.0997490882873535,3.570565223693848,47.99264138217856,47.67713514330495,190.5876424872941,175.18907396345193,-9.713172767078504e-05,0.0899572893977165,0,0,0
16227,542739.6916367366,2010-08-25 21:07:44,2671.3537139601776,7,44,-1.099929690361023,3.5671656131744385,47.99264138217856,47.68630380493749,190.5876424872941,175.22179646594182,-0.0001295089750783,0.0899572893977165,0,0,0
16228,542769.706687699,2010-08-25 21:08:14,2701.3687649225767,7,44,-1.099568486213684,3.56360411643982,47.99264138217856,47.695472375756445,190.5876424872941,175.25448639866613,-0.0001295089750783,0.0899572893977165,0,0,0
16229,542799.7218053476,2010-08-25 21:08:44,2731.38388257619,7,44,-1.099568486213684,3.5600426197052,47.99264138217856,47.70464086304825,190.5876424872941,175.2871434146387,-9.713172767078504e-05,0.0899572893977165,0,0,0
16230,542829.737114729,2010-08-25 21:09:14,2761.3991919426107,7,44,-1.099568486213684,3.556157350540161,47.99264138217856,47.71380948790684,190.5876424872941,175.31976660582598,-9.713172767078504e-05,0.0899572893977165,0,0,0
16231,542859.7522020772,2010-08-25 21:09:44,2791.4142793207684,7,44,-1.099568486213684,3.552272081375122,47.99264138217856,47.72297802803504,190.5876424872941,175.3523539128178,-9.713172767078504e-05,0.0899572893977165,0,0,0
16232,542889.7674230683,2010-08-25 21:10:14,2821.429500286869,7,44,-1.0997490882873535,3.548224925994873,47.99264138217856,47.732146643729926,190.5876424872941,175.3849047105098,-9.713172767078504e-05,0.0899572893977165,0,0,0
16233,542919.7827753517,2010-08-25 21:10:44,2851.4448525752646,7,44,-1.099568486213684,3.544015884399414,47.99264138217856,47.74131529542044,190.5876424872941,175.4174174713264,-0.0001295089750783,0.0899572893977165,0,0,0
16234,542949.7978562939,2010-08-25 21:11:14,2881.459933527407,7,44,-1.0997490882873535,3.539644956588745,47.99264138217856,47.75048381430402,190.5876424872941,175.44989045509558,-9.713172767078504e-05,0.0899572893977165,0,0,0
16235,542979.8130698815,2010-08-25 21:11:44,2911.4751471000804,7,44,-1.099568486213684,3.535112142562866,47.99264138217856,47.75965253528474,190.5876424872941,175.4823234221513,-9.713172767078504e-05,0.0899572893977165,0,0,0
16236,543009.8284315984,2010-08-25 21:12:14,2941.490508821987,7,44,-1.0997490882873535,3.5304174423217773,47.99264138217856,47.76882123837978,190.5876424872941,175.5147142757766,-0.0001295089750783,0.0899572893977165,0,0,0
16237,543039.8435104302,2010-08-25 21:12:44,2971.505587653845,7,44,-1.0997490882873535,3.525398969650269,47.99264138217856,47.777989884787566,190.5876424872941,175.54706123531906,-0.0001618862152099,0.0899572893977165,0,0,0
16238,543069.858719572,2010-08-25 21:13:14,3001.5207967904626,7,44,-1.0997490882873535,3.52038049697876,47.99264138217856,47.78715850999867,190.5876424872941,175.5793623645112,-0.0001295089750783,0.0899572893977165,0,0,0
16239,543099.8739309241,2010-08-25 21:13:44,3031.536008142601,7,44,-1.0997490882873535,3.515038251876831,47.99264138217856,47.796327166350856,190.5876424872941,175.61161547601117,-0.0001618862152099,0.0899572893977165,0,0,0
16240,543129.8891483613,2010-08-25 21:14:14,3061.5512255748945,7,44,-1.0997490882873535,3.509210586547852,47.99264138217856,47.805495815330566,190.5876424872941,175.6438171437307,-0.0001942634553415,0.0899572893977165,0,0,0
16241,543159.904614323,2010-08-25 21:14:44,3091.566692413785,7,44,-1.0997490882873535,3.502897024154663,47.99264138217856,47.81466458161801,190.5876424872941,175.67596375705278,-0.0001618862152099,0.0899572893977165,0,0,0
16242,543189.9196012509,2010-08-25 21:15:14,3121.5816784744284,7,44,-1.099568486213684,3.4959359169006348,47.99264138217856,47.82383321276401,190.5876424872941,175.7080490727286,-0.0001942634553415,0.0899572893977165,0,0,0
16243,543219.9348300364,2010-08-25 21:15:44,3151.596907260018,7,44,-1.099929690361023,3.4880034923553467,47.99264138217856,47.83300187238197,190.5876424872941,175.74006657659643,-0.0002266406954731,0.0899572893977165,0,0,0
16244,543249.9500209076,2010-08-25 21:16:14,3181.6120981210865,7,44,-1.099568486213684,3.478775978088379,47.99264138217856,47.84217055323154,190.5876424872941,175.77200651885494,-0.0002913951757363,0.0899572893977165,0,0,0
16245,543279.9652581643,2010-08-25 21:16:44,3211.6273353828,7,44,-1.0997490882873535,3.4679296016693115,47.99264138217856,47.85133891475488,190.5876424872941,175.80385384519735,-0.0003561496851034,0.0899572893977165,0,0,0
16246,543309.9805726835,2010-08-25 21:17:14,3241.642649902064,7,44,-1.099568486213684,3.4544930458068848,47.99264138217856,47.86050687782954,190.5876424872941,175.8355889823876,-0.0004209041653666,0.0899572893977165,0,0,0
16247,543339.9956939161,2010-08-25 21:17:44,3271.6577711345967,7,44,-1.099568486213684,3.437333106994629,47.99264138217856,47.869674818993566,190.5876424872941,175.86718397248086,-0.0004856586456298,0.0899572893977165,0,0,0
16248,543370.0108840002,2010-08-25 21:18:14,3301.6729612187296,7,44,-1.0997490882873535,3.413859844207764,47.99264138217856,47.87884284297103,190.5876424872941,175.89859513162898,-0.0007446765666827,0.0899572893977165,0,0,0
16249,543400.0304401309,2010-08-25 21:18:44,3331.6925174747066,7,44,-1.099929690361023,3.3818063735961914,47.99264138217856,47.88801246431313,190.5876424872941,175.9297604565471,-0.0010036944877356,0.0899572893977165,0,0,0
16250,543430.0413552003,2010-08-25 21:19:14,3361.7034324238875,7,44,-1.099929690361023,3.3351833820343018,47.99264138217856,47.89717981127239,190.5876424872941,175.9605618295675,-0.0014569759368896,0.0899572893977165,0,0,0
16251,543460.0565589685,2010-08-25 21:19:44,3391.718636192125,7,44,-1.0997490882873535,3.2668676376342773,47.99264138217856,47.90634844016696,190.5876424872941,175.99084860223226,-0.0021692276932299,0.0899572893977165,0,0,0
16252,543490.0717669873,2010-08-25 21:20:14,3421.7338442109567,7,44,-1.0997490882873535,3.1635844707489014,47.99264138217856,47.91551708013508,190.5876424872941,176.02036410968813,-0.0033024786971509,0.0899572893977165,0,0,0
16253,543520.086996169,2010-08-25 21:20:44,3451.7490733925324,7,44,-1.099568486213684,2.978549003601074,47.99264138217856,47.92468579399445,190.5876424872941,176.04863140426846,-0.0070582390762865,0.0899572893977165,0,0,0
16254,543534.8525463834,2010-08-25 21:20:59,3466.514623596888,7,44,-1.099568486213684,2.7784583568573,47.99264138217856,47.92919617650091,190.5876424872941,176.06165861799676,-0.013145113363862,0.0899572893977165,0,0,0
16255,543539.3054836983,2010-08-25 21:21:03,3470.967560921836,7,44,-1.099568486213684,2.699781894683838,47.99264138217856,47.930556402635126,190.5876424872941,176.0653848324458,-0.0141811845824122,0.0899572893977165,0,0,0
16256,543599.349788012,2010-08-25 21:22:03,60.01480898007342,8,44,0.0,3.3934621810913086,47.99264138217856,47.930556402635126,190.5876424872941,176.0653848324458,0.0012303352123126,0.0899572893977165,0,0,0
16257,543599.5519916975,2010-08-25 21:22:04,0.187501561584256,9,44,-1.9243103452026844e-05,3.3936240673065186,47.99264138217856,47.93055640363738,190.5876424872941,176.06538483584708,0.0,0.0850947350263595,0,0,0
16258,543604.3801857277,2010-08-25 21:22:08,5.015695566643018,9,44,0.0007031940040178,3.4010708332061768,47.9926422861599,47.93055640380434,190.58764555894228,176.06538483641364,0.0010684489971026,0.0850947350263595,0,0,0
