Data_Point,Test_Time(s),Date_Time,Step_Time(s),Step_Index,Cycle_Index,Current(A),Voltage(V),Charge_Capacity(Ah),Discharge_Capacity(Ah),Charge_Energy(Wh),Discharge_Energy(Wh),dV/dt(V/s),Internal_Resistance(Ohm),Is_FC_Data,AC_Impedance(Ohm),ACI_Phase_Angle(Deg)
9376,312888.1680398956,2010-08-23 05:16:29,30.015323702149978,1,26,0.0,3.4111077785491943,27.699249103106183,27.65655491110459,109.91100302629344,101.65465375214288,0.0006151676061563,0.0857500955462455,0,0,0
9377,312918.1831673236,2010-08-23 05:16:59,60.03045112511182,1,26,0.0,3.431181669235229,27.699249103106183,27.65655491110459,109.91100302629344,101.65465375214288,0.0004532813909463,0.0857500955462455,0,0,0
9378,312948.1984736975,2010-08-23 05:17:29,90.04575750408712,1,26,0.0,3.446074962615967,27.699249103106183,27.65655491110459,109.91100302629344,101.65465375214288,0.0003561496851034,0.0857500955462455,0,0,0
9379,312978.16667677555,2010-08-23 05:17:59,120.01396057713067,1,26,0.0,3.457568883895874,27.699249103106183,27.65655491110459,109.91100302629344,101.65465375214288,0.0002590179501567,0.0857500955462455,0,0,0
9380,313008.1841925877,2010-08-23 05:18:29,30.015347095453283,2,26,0.550297200679779,3.589344024658203,27.703835884721997,27.65655491110459,109.92732736371848,101.65465375214288,0.0013598442310467,0.0857500955462455,0,0,0
9381,313038.199266417,2010-08-23 05:18:59,60.03042092985595,2,26,0.550297200679779,3.630948543548584,27.70842259657721,27.65655491110459,109.94389114560347,101.65465375214288,0.0009713172912597,0.0857500955462455,0,0,0
9382,313068.2147624838,2010-08-23 05:19:29,90.04591712190383,2,26,0.5499359965324402,3.6621925830841056,27.713009347335348,27.65655491110459,109.96061993463526,101.65465375214288,0.0007446765666827,0.0857500955462455,0,0,0
9383,313098.2296587005,2010-08-23 05:19:59,120.06081323336625,2,26,0.5501165986061096,3.687932252883911,27.71759597112988,27.65655491110459,109.97747827649027,101.65465375214288,0.0006151676061563,0.0857500955462455,0,0,0
9384,313128.2448940174,2010-08-23 05:20:29,150.07604853018293,2,26,0.5501165986061096,3.709301233291626,27.722182706196072,27.65655491110459,109.9944444813704,101.65465375214288,0.0004856586456298,0.0857500955462455,0,0,0
9385,313158.260220742,2010-08-23 05:20:59,180.09137525987848,2,26,0.5501165986061096,3.7267849445343018,27.72676948053189,27.65655491110459,110.01150001506484,101.65465375214288,0.0003885269106831,0.0857500955462455,0,0,0
9386,313188.27530108264,2010-08-23 05:21:29,210.1064555954841,2,26,0.5501165986061096,3.740059614181519,27.73135621181108,27.65655491110459,110.02862616030065,101.65465375214288,0.0002913951757363,0.0857500955462455,0,0,0
9387,313218.29051637964,2010-08-23 05:21:59,240.121670912505,2,26,0.5501165986061096,3.748801469802856,27.73594296718048,27.65655491110459,110.04580310712008,101.65465375214288,0.0001618862152099,0.0857500955462455,0,0,0
9388,313248.3057695059,2010-08-23 05:22:29,270.1369240136957,2,26,0.550297200679779,3.753819704055786,27.740529676025087,27.65655491110459,110.0630105905056,101.65465375214288,9.713172767078504e-05,0.0857500955462455,0,0,0
9389,313278.3210639251,2010-08-23 05:22:59,300.1522184479009,2,26,0.550297200679779,3.7572193145751953,27.745116482985665,27.65655491110459,110.08023687508344,101.65465375214288,9.713172767078504e-05,0.0857500955462455,0,0,0
9390,313308.3361619899,2010-08-23 05:23:29,330.1673165277307,2,26,0.5501165986061096,3.760133266448975,27.74970323255157,27.65655491110459,110.09747682090313,101.65465375214288,9.713172767078504e-05,0.0857500955462455,0,0,0
9391,313338.351368946,2010-08-23 05:23:59,360.1825234638638,2,26,0.5501165986061096,3.762723445892334,27.7542899589958,27.65655491110459,110.11472912302034,101.65465375214288,9.713172767078504e-05,0.0857500955462455,0,0,0
9392,313368.36657645355,2010-08-23 05:24:29,390.197730991471,2,26,0.5501165986061096,3.765313625335693,27.758876737581527,27.65655491110459,110.131993665936,101.65465375214288,9.713172767078504e-05,0.0857500955462455,0,0,0
9393,313398.38192471693,2010-08-23 05:24:59,420.21307923478514,2,26,0.5501165986061096,3.7677419185638423,27.76346346011523,27.65655491110459,110.14926984147414,101.65465375214288,6.47544875391759e-05,0.0857500955462455,0,0,0
9394,313428.3970146314,2010-08-23 05:25:29,450.22816913923936,2,26,0.5501165986061096,3.770493984222412,27.76805023046049,27.65655491110459,110.16655808512022,101.65465375214288,9.713172767078504e-05,0.0857500955462455,0,0,0
9395,313458.4122087206,2010-08-23 05:25:59,480.2433632534161,2,26,0.5501165986061096,3.773084163665772,27.772636953251723,27.65655491110459,110.18385783930808,101.65465375214288,9.713172767078504e-05,0.0857500955462455,0,0,0
9396,313488.42743232823,2010-08-23 05:26:29,510.2585868360375,2,26,0.5501165986061096,3.775674343109131,27.777223717734444,27.65655491110459,110.20116968381356,101.65465375214288,9.713172767078504e-05,0.0857500955462455,0,0,0
9397,313518.4426751839,2010-08-23 05:26:59,540.2738297217682,2,26,0.5501165986061096,3.77826452255249,27.78181049062472,27.65655491110459,110.21849346755522,101.65465375214288,6.47544875391759e-05,0.0857500955462455,0,0,0
9398,313548.4578379199,2010-08-23 05:27:29,570.2889924376908,2,26,0.5501165986061096,3.78069281578064,27.786397280812988,27.65655491110459,110.2358292673674,101.65465375214288,3.237724376958795e-05,0.0857500955462455,0,0,0
9399,313578.4730458385,2010-08-23 05:27:59,600.30420035126,2,26,0.5501165986061096,3.783282995223999,27.790984059297116,27.65655491110459,110.25317683603544,101.65465375214288,6.47544875391759e-05,0.0857500955462455,0,0,0
9400,313608.4882640777,2010-08-23 05:28:29,630.3194185905642,2,26,0.5501165986061096,3.786035060882568,27.795570736255737,27.65655491110459,110.27053601349684,101.65465375214288,6.47544875391759e-05,0.0857500955462455,0,0,0
9401,313638.5034729838,2010-08-23 05:28:59,660.3346275016194,2,26,0.5499359965324402,3.788625240325928,27.80015740461097,27.65655491110459,110.28790732959646,101.65465375214288,3.237724376958795e-05,0.0857500955462455,0,0,0
9402,313668.51867026085,2010-08-23 05:29:29,690.3498247686542,2,26,0.5501165986061096,3.791377305984497,27.80474409766174,27.65655491110459,110.30529114416184,101.65465375214288,6.47544875391759e-05,0.0857500955462455,0,0,0
9403,313698.5339164047,2010-08-23 05:29:59,720.3650709475925,2,26,0.550297200679779,3.794291257858277,27.809330792730037,27.65655491110459,110.32268762022564,101.65465375214288,9.713172767078504e-05,0.0857500955462455,0,0,0
9404,313728.5517573957,2010-08-23 05:30:29,750.3829119035133,2,26,0.5499359965324402,3.7970433235168457,27.81391790824932,27.65655491110459,110.340098809613,101.65465375214288,3.237724376958795e-05,0.0857500955462455,0,0,0
9405,313758.5643078812,2010-08-23 05:30:59,780.395462388954,2,26,0.5501165986061096,3.800119161605835,27.818504250811312,27.65655491110459,110.35752067188476,101.65465375214288,6.47544875391759e-05,0.0857500955462455,0,0,0
9406,313788.5795100504,2010-08-23 05:31:29,810.4106645582066,2,26,0.550297200679779,3.803356885910034,27.82309103743359,27.65655491110459,110.37495831000776,101.65465375214288,9.713172767078504e-05,0.0857500955462455,0,0,0
9407,313818.5947371167,2010-08-23 05:31:59,840.4258916245102,2,26,0.5501165986061096,3.806432723999024,27.82767782613379,27.65655491110459,110.39241062219814,101.65465375214288,6.47544875391759e-05,0.0857500955462455,0,0,0
9408,313848.60994100024,2010-08-23 05:32:29,870.4410955381104,2,26,0.5501165986061096,3.8098323345184326,27.832264632049235,27.65655491110459,110.4098780386344,101.65465375214288,6.47544875391759e-05,0.0857500955462455,0,0,0
9409,313878.62526545423,2010-08-23 05:32:59,900.4564199620592,2,26,0.5499359965324402,3.813231945037842,27.83685153206169,27.65655491110459,110.42736138088172,101.65465375214288,6.47544875391759e-05,0.0857500955462455,0,0,0
9410,313908.6404717889,2010-08-23 05:33:29,930.4716263267684,2,26,0.5499359965324402,3.816631555557251,27.84143832489305,27.65655491110459,110.44486019030887,101.65465375214288,9.713172767078504e-05,0.0857500955462455,0,0,0
9411,313938.65558529214,2010-08-23 05:33:59,960.4867398049754,2,26,0.550297200679779,3.82019305229187,27.84602507934407,27.65655491110459,110.46237444028382,101.65465375214288,6.47544875391759e-05,0.0857500955462455,0,0,0
9412,313968.6707802134,2010-08-23 05:34:29,990.5019347211512,2,26,0.5501165986061096,3.823430776596069,27.8506118299862,27.65655491110459,110.479904192238,101.65465375214288,6.47544875391759e-05,0.0857500955462455,0,0,0
9413,313998.68597494403,2010-08-23 05:34:59,1020.5171294518648,2,26,0.550297200679779,3.8268303871154794,27.855198607212703,27.65655491110459,110.49744937222626,101.65465375214288,6.47544875391759e-05,0.0857500955462455,0,0,0
9414,314028.7011959603,2010-08-23 05:35:29,1050.5323504680898,2,26,0.5501165986061096,3.830229997634888,27.85978539989645,27.65655491110459,110.51500961784411,101.65465375214288,0.0001295089750783,0.0857500955462455,0,0,0
9415,314058.7165294468,2010-08-23 05:36:00,1080.5476839847004,2,26,0.550297200679779,3.833143949508667,27.86437220494797,27.65655491110459,110.5325846671614,101.65465375214288,6.47544875391759e-05,0.0857500955462455,0,0,0
9416,314088.73189298325,2010-08-23 05:36:30,1110.5630474910545,2,26,0.5501165986061096,3.836543321609497,27.86895897675542,27.65655491110459,110.55017405786316,101.65465375214288,0.0001295089750783,0.0857500955462455,0,0,0
9417,314118.74705911765,2010-08-23 05:37:00,1140.5782136254977,2,26,0.5501165986061096,3.839457273483277,27.8735457024902,27.65655491110459,110.56777755112655,101.65465375214288,9.713172767078504e-05,0.0857500955462455,0,0,0
9418,314148.762194295,2010-08-23 05:37:30,1170.593348807798,2,26,0.5501165986061096,3.8425331115722656,27.87813246102069,27.65655491110459,110.58539532289323,101.65465375214288,6.47544875391759e-05,0.0857500955462455,0,0,0
9419,314178.7772242901,2010-08-23 05:38:00,1200.6083788029396,2,26,0.5501165986061096,3.845447063446045,27.882719203085347,27.65655491110459,110.60302688548964,101.65465375214288,3.237724376958795e-05,0.0857500955462455,0,0,0
9420,314208.79244514095,2010-08-23 05:38:30,1230.62359964874,2,26,0.550297200679779,3.848361015319824,27.887305994435824,27.65655491110459,110.62067227067084,101.65465375214288,3.237724376958795e-05,0.0857500955462455,0,0,0
9421,314238.8076774954,2010-08-23 05:39:00,1260.6388320332985,2,26,0.5501165986061096,3.8511130809783936,27.891892839900585,27.65655491110459,110.63833112343552,101.65465375214288,3.237724376958795e-05,0.0857500955462455,0,0,0
9422,314268.82284096826,2010-08-23 05:39:30,1290.6539954760326,2,26,0.5501165986061096,3.854027032852173,27.896479671762272,27.65655491110459,110.6560026409303,101.65465375214288,9.713172767078504e-05,0.0857500955462455,0,0,0
9423,314298.8380613579,2010-08-23 05:40:00,1320.6692158707085,2,26,0.5501165986061096,3.856617212295532,27.901066451929104,27.65655491110459,110.67368622655636,101.65465375214288,6.47544875391759e-05,0.0857500955462455,0,0,0
9424,314328.8532666048,2010-08-23 05:40:30,1350.684421112619,2,26,0.550297200679779,3.8590455055236816,27.905653267577662,27.65655491110459,110.69138150587496,101.65465375214288,6.47544875391759e-05,0.0857500955462455,0,0,0
9425,314358.86872847134,2010-08-23 05:41:00,1380.699882989142,2,26,0.5501165986061096,3.861311912536621,27.91024011047229,27.65655491110459,110.70908766963316,101.65465375214288,3.237724376958795e-05,0.0857500955462455,0,0,0
9426,314388.8838053483,2010-08-23 05:41:30,1410.714959856103,2,26,0.550297200679779,3.863578319549561,27.914826930655057,27.65655491110459,110.72680376541172,101.65465375214288,9.713172767078504e-05,0.0857500955462455,0,0,0
9427,314418.8989089319,2010-08-23 05:42:00,1440.7300634396497,2,26,0.550297200679779,3.86535906791687,27.91941370395793,27.65655491110459,110.7445286939068,101.65465375214288,6.47544875391759e-05,0.0857500955462455,0,0,0
9428,314448.91410417884,2010-08-23 05:42:30,1470.7452586916622,2,26,0.5501165986061096,3.86713981628418,27.92400050508894,27.65655491110459,110.76226213915396,101.65465375214288,6.47544875391759e-05,0.0857500955462455,0,0,0
9429,314478.92928657884,2010-08-23 05:43:00,1500.7604410916438,2,26,0.5501165986061096,3.868596792221069,27.92858726240039,27.65655491110459,110.78000305627208,101.65465375214288,0.0,0.0857500955462455,0,0,0
9430,314508.94449881813,2010-08-23 05:43:30,1530.7756533259817,2,26,0.550297200679779,3.870215654373169,27.93317406492196,27.65655491110459,110.79775107570926,101.65465375214288,6.47544875391759e-05,0.0857500955462455,0,0,0
9431,314538.95982778346,2010-08-23 05:44:00,1560.7909822962615,2,26,0.5501165986061096,3.871348857879639,27.937760832547912,27.65655491110459,110.81550532497968,101.65465375214288,3.237724376958795e-05,0.0857500955462455,0,0,0
9432,314568.9751363228,2010-08-23 05:44:30,1590.8062908306088,2,26,0.5501165986061096,3.8726439476013184,27.942347670699643,27.65655491110459,110.8332656954545,101.65465375214288,0.0,0.0857500955462455,0,0,0
9433,314598.9902474251,2010-08-23 05:45:00,1620.8214019328943,2,26,0.5501165986061096,3.873939037322998,27.946934469459105,27.65655491110459,110.85103138147396,101.65465375214288,9.713172767078504e-05,0.0857500955462455,0,0,0
9434,314629.0054974837,2010-08-23 05:45:30,1650.836652001527,2,26,0.5501165986061096,3.874748468399048,27.95152128222785,27.65655491110459,110.8688020803802,101.65465375214288,0.0,0.0857500955462455,0,0,0
9435,314659.02053817053,2010-08-23 05:46:00,1680.8516926782904,2,26,0.5499359965324402,3.8758816719055176,27.95610799912464,27.65655491110459,110.8865773536764,101.65465375214288,3.237724376958795e-05,0.0857500955462455,0,0,0
9436,314689.0357734121,2010-08-23 05:46:30,1710.8669279249823,2,26,0.5501165986061096,3.8770148754119873,27.96069477927966,27.65655491110459,110.90435759702626,101.65465375214288,3.237724376958795e-05,0.0857500955462455,0,0,0
9437,314719.05094924074,2010-08-23 05:47:00,1740.8821037485734,2,26,0.5501165986061096,3.877662420272827,27.96528158375097,27.65655491110459,110.92214246188632,101.65465375214288,0.0,0.0857500955462455,0,0,0
9438,314749.0661507333,2010-08-23 05:47:30,1770.8973052411393,2,26,0.5501165986061096,3.878795623779297,27.96986834336099,27.65655491110459,110.93993156403442,101.65465375214288,0.0,0.0857500955462455,0,0,0
9439,314779.08141109266,2010-08-23 05:48:00,1800.9125656004194,2,26,0.5501165986061096,3.8797669410705566,27.97445512050936,27.65655491110459,110.95772503376745,101.65465375214288,3.237724376958795e-05,0.0857500955462455,0,0,0
9440,314809.09660101635,2010-08-23 05:48:30,1830.9277555442025,2,26,0.5499359965324402,3.880738258361816,27.979041925294368,27.65655491110459,110.9755229285462,101.65465375214288,3.237724376958795e-05,0.0857500955462455,0,0,0
9441,314839.11190132017,2010-08-23 05:49:00,1860.9430558279869,2,26,0.5501165986061096,3.881385803222656,27.98362872463107,27.65655491110459,110.9933250830004,101.65465375214288,-3.237724376958795e-05,0.0857500955462455,0,0,0
9442,314869.12709986535,2010-08-23 05:49:30,1890.95825437822,2,26,0.5501165986061096,3.882519006729126,27.98821547991697,27.65655491110459,111.01113118361732,101.65465375214288,3.237724376958795e-05,0.0857500955462455,0,0,0
9443,314899.1421848476,2010-08-23 05:50:00,1920.9733393604056,2,26,0.5504778623580933,3.883652210235596,27.99280226408789,27.65655491110459,111.02894161179736,101.65465375214288,6.47544875391759e-05,0.0857500955462455,0,0,0
9444,314929.15741021466,2010-08-23 05:50:30,1950.9885647475248,2,26,0.5501165986061096,3.8841378688812256,27.99738915440298,27.65655491110459,111.0467566960059,101.65465375214288,0.0,0.0857500955462455,0,0,0
9445,314959.1725933866,2010-08-23 05:51:00,1981.0037478943675,2,26,0.550297200679779,3.8852710723876953,28.00197597321587,27.65655491110459,111.06457543285518,101.65465375214288,0.0,0.0857500955462455,0,0,0
9446,314989.1878428136,2010-08-23 05:51:30,2011.0189973464635,2,26,0.5501165986061096,3.886080503463745,28.00656276870121,27.65655491110459,111.082398358503,101.65465375214288,0.0,0.0857500955462455,0,0,0
9447,315019.20301638654,2010-08-23 05:52:00,2041.034170894383,2,26,0.5501165986061096,3.887051820755005,28.011149532106487,27.65655491110459,111.1002253828252,101.65465375214288,3.237724376958795e-05,0.0857500955462455,0,0,0
9448,315049.21824552305,2010-08-23 05:52:30,2071.0494000308454,2,26,0.5501165986061096,3.8880231380462646,28.015736373435367,27.65655491110459,111.11805687498168,101.65465375214288,3.237724376958795e-05,0.0857500955462455,0,0,0
9449,315079.2334205296,2010-08-23 05:53:00,2101.0645750374006,2,26,0.550297200679779,3.888994455337525,28.020323096852927,27.65655491110459,111.13589221702884,101.65465375214288,0.0,0.0857500955462455,0,0,0
9450,315109.2486675406,2010-08-23 05:53:30,2131.079822058438,2,26,0.5501165986061096,3.889965772628784,28.024909895460123,27.65655491110459,111.15373217976196,101.65465375214288,3.237724376958795e-05,0.0857500955462455,0,0,0
9451,315139.2638343768,2010-08-23 05:54:00,2161.094988889617,2,26,0.550297200679779,3.890937089920044,28.029496713133568,27.65655491110459,111.1715765549642,101.65465375214288,6.47544875391759e-05,0.0857500955462455,0,0,0
9452,315169.2790557339,2010-08-23 05:54:30,2191.110210246692,2,26,0.550297200679779,3.891908407211304,28.034083549444404,27.65655491110459,111.18942543190552,101.65465375214288,3.237724376958795e-05,0.0857500955462455,0,0,0
9453,315199.2942560736,2010-08-23 05:55:00,2221.1254105813723,2,26,0.5501165986061096,3.8927178382873535,28.03867034278932,27.65655491110459,111.20727855501576,101.65465375214288,3.237724376958795e-05,0.0857500955462455,0,0,0
9454,315229.3094493005,2010-08-23 05:55:30,2251.14060381335,2,26,0.550297200679779,3.8938510417938232,28.043257120137923,27.65655491110459,111.22513615406872,101.65465375214288,6.47544875391759e-05,0.0857500955462455,0,0,0
9455,315259.3246645324,2010-08-23 05:56:00,2281.155819040146,2,26,0.5499359965324402,3.894498586654663,28.047843987646807,27.65655491110459,111.24299871342784,101.65465375214288,-3.237724376958795e-05,0.0857500955462455,0,0,0
9456,315289.3398637292,2010-08-23 05:56:30,2311.1710182369907,2,26,0.550297200679779,3.895793676376343,28.052430842348013,27.65655491110459,111.26086521647316,101.65465375214288,6.47544875391759e-05,0.0857500955462455,0,0,0
9457,315319.3552995909,2010-08-23 05:57:00,2341.1864541087016,2,26,0.550297200679779,3.8967649936676025,28.057017558930475,27.65655491110459,111.27873604496156,101.65465375214288,3.237724376958795e-05,0.0857500955462455,0,0,0
9458,315349.37039050786,2010-08-23 05:57:30,2371.201545020667,2,26,0.550297200679779,3.8977363109588623,28.061604340812103,27.65655491110459,111.29661184288364,101.65465375214288,3.237724376958795e-05,0.0857500955462455,0,0,0
9459,315379.3854809837,2010-08-23 05:58:00,2401.2166354915325,2,26,0.550297200679779,3.898707628250122,28.06619108581032,27.65655491110459,111.31449229350342,101.65465375214288,0.0,0.0857500955462455,0,0,0
9460,315409.40073221526,2010-08-23 05:58:30,2431.2318867431136,2,26,0.5501165986061096,3.899840831756592,28.07077787917481,27.65655491110459,111.3323778697224,101.65465375214288,0.0,0.0857500955462455,0,0,0
9461,315439.4158844601,2010-08-23 05:59:00,2461.247038972901,2,26,0.550297200679779,3.901135921478272,28.07536466648511,27.65655491110459,111.35026825342815,101.65465375214288,6.47544875391759e-05,0.0857500955462455,0,0,0
9462,315469.4310814965,2010-08-23 05:59:30,2491.262236004349,2,26,0.5499359965324402,3.901945352554321,28.079951367398458,27.65655491110459,111.36816334884467,101.65465375214288,0.0,0.0857500955462455,0,0,0
9463,315499.44641525374,2010-08-23 06:00:00,2521.277569776597,2,26,0.5501165986061096,3.903240442276001,28.08453824158181,27.65655491110459,111.38606424983796,101.65465375214288,3.237724376958795e-05,0.0857500955462455,0,0,0
9464,315529.46174309123,2010-08-23 06:00:30,2551.2928976842286,2,26,0.5499359965324402,3.904373645782471,28.08912505583574,27.65655491110459,111.4039700665932,101.65465375214288,3.237724376958795e-05,0.0857500955462455,0,0,0
9465,315559.4768354919,2010-08-23 06:01:00,2581.307990004704,2,26,0.5501165986061096,3.9053449630737305,28.09371187566591,27.65655491110459,111.42188112399268,101.65465375214288,3.237724376958795e-05,0.0857500955462455,0,0,0
9466,315589.49204195186,2010-08-23 06:01:30,2611.323196469663,2,26,0.5501165986061096,3.9064781665802,28.098298624593568,27.65655491110459,111.43979708881363,101.65465375214288,0.0,0.0857500955462455,0,0,0
9467,315619.5071319365,2010-08-23 06:02:00,2641.3382864693544,2,26,0.5501165986061096,3.90761137008667,28.102885406605356,27.65655491110459,111.45771861088078,101.65465375214288,0.0,0.0857500955462455,0,0,0
9468,315649.523299572,2010-08-23 06:02:30,2671.354454084796,2,26,0.5499359965324402,3.9089064598083496,28.10747228749969,27.65655491110459,111.4756459298128,101.65465375214288,0.0,0.0857500955462455,0,0,0
9469,315679.5234864535,2010-08-23 06:03:00,2701.354640966332,2,26,0.5501165986061096,3.910201549530029,28.112056719014625,27.65655491110459,111.49356919858576,101.65465375214288,3.237724376958795e-05,0.0857500955462455,0,0,0
9470,315709.5371317125,2010-08-23 06:03:30,2731.368286310497,2,26,0.5501165986061096,3.911496639251709,28.11664330543012,27.65655491110459,111.51150644517664,101.65465375214288,6.47544875391759e-05,0.0857500955462455,0,0,0
9471,315739.552279802,2010-08-23 06:04:00,2761.383434334804,2,26,0.5501165986061096,3.9127917289733887,28.121230082900823,27.65655491110459,111.52945011593653,101.65465375214288,6.47544875391759e-05,0.0857500955462455,0,0,0
9472,315769.56758775987,2010-08-23 06:04:30,2791.3987422676514,2,26,0.5501165986061096,3.914086580276489,28.12581683746433,27.65655491110459,111.54739941865482,101.65465375214288,3.237724376958795e-05,0.0857500955462455,0,0,0
9473,315799.58312326483,2010-08-23 06:05:00,2821.4142777726797,2,26,0.550297200679779,3.915381669998169,28.130403710124597,27.65655491110459,111.56535513395032,101.65465375214288,6.47544875391759e-05,0.0857500955462455,0,0,0
9474,315829.5978957583,2010-08-23 06:05:30,2851.4290502760728,2,26,0.5499359965324402,3.916514873504639,28.13499048285447,27.65655491110459,111.58331620407328,101.65465375214288,6.47544875391759e-05,0.0857500955462455,0,0,0
9475,315859.61310144124,2010-08-23 06:06:00,2881.4442559490576,2,26,0.550297200679779,3.9178099632263184,28.139577196754058,27.65655491110459,111.60128305263568,101.65465375214288,3.237724376958795e-05,0.0857500955462455,0,0,0
9476,315889.6283043273,2010-08-23 06:06:30,2911.4594588350965,2,26,0.5501165986061096,3.919266939163208,28.14416397913023,27.65655491110459,111.61925617517169,101.65465375214288,3.237724376958795e-05,0.0857500955462455,0,0,0
9477,315919.64353576454,2010-08-23 06:07:00,2941.474690272294,2,26,0.5501165986061096,3.920562028884888,28.14875073960026,27.65655491110459,111.63723537911054,101.65465375214288,9.713172767078504e-05,0.0857500955462455,0,0,0
9478,315949.6587236381,2010-08-23 06:07:30,2971.48987815093,2,26,0.550297200679779,3.921857118606568,28.153337627956844,27.65655491110459,111.65522121585876,101.65465375214288,3.237724376958795e-05,0.0857500955462455,0,0,0
9479,315979.6739671855,2010-08-23 06:08:00,3001.5051217183595,2,26,0.5501165986061096,3.923152208328247,28.157924397083285,27.65655491110459,111.67321286131076,101.65465375214288,6.47544875391759e-05,0.0857500955462455,0,0,0
9480,316009.6892569932,2010-08-23 06:08:31,3031.5204115109964,2,26,0.5501165986061096,3.9246091842651367,28.162511179207826,27.65655491110459,111.69121085651064,101.65465375214288,3.237724376958795e-05,0.0857500955462455,0,0,0
9481,316039.70460931666,2010-08-23 06:09:01,3061.535763824455,2,26,0.5501165986061096,3.925904273986816,28.16709806470537,27.65655491110459,111.70921571421384,101.65465375214288,3.237724376958795e-05,0.0857500955462455,0,0,0
9482,316069.7196491313,2010-08-23 06:09:31,3091.5508036390697,2,26,0.5501165986061096,3.927523136138916,28.171684878259107,27.65655491110459,111.72722660428931,101.65465375214288,6.47544875391759e-05,0.0857500955462455,0,0,0
9483,316099.7349005032,2010-08-23 06:10:01,3121.5660550009256,2,26,0.5501165986061096,3.928818225860596,28.17627170032875,27.65655491110459,111.74524407763352,101.65465375214288,6.47544875391759e-05,0.0857500955462455,0,0,0
9484,316129.74997517467,2010-08-23 06:10:31,3151.5811296824395,2,26,0.5501165986061096,3.930275201797485,28.18085850242577,27.65655491110459,111.7632680895024,101.65465375214288,0.0,0.0857500955462455,0,0,0
9485,316159.7651584268,2010-08-23 06:11:01,3181.596312959607,2,26,0.5501165986061096,3.931732177734375,28.185445275337987,27.65655491110459,111.78129860986024,101.65465375214288,3.237724376958795e-05,0.0857500955462455,0,0,0
9486,316189.78036246565,2010-08-23 06:11:31,3211.611516998519,2,26,0.5501165986061096,3.9331891536712646,28.19003204345985,27.65655491110459,111.79933579455276,101.65465375214288,6.47544875391759e-05,0.0857500955462455,0,0,0
9487,316219.7955399985,2010-08-23 06:12:01,3241.6266945313705,2,26,0.5501165986061096,3.934808015823364,28.194618848767824,27.65655491110459,111.8173799396168,101.65465375214288,6.47544875391759e-05,0.0857500955462455,0,0,0
9488,316249.810748684,2010-08-23 06:12:31,3271.641903181776,2,26,0.5501165986061096,3.936264991760254,28.19920568354803,27.65655491110459,111.8354310884842,101.65465375214288,6.47544875391759e-05,0.0857500955462455,0,0,0
9489,316279.82596545963,2010-08-23 06:13:01,3301.657119962445,2,26,0.5501165986061096,3.9378838539123535,28.20379249864849,27.65655491110459,111.85348890265723,101.65465375214288,3.237724376958795e-05,0.0857500955462455,0,0,0
9490,316309.8412975527,2010-08-23 06:13:31,3331.672452050495,2,26,0.5501165986061096,3.939178943634033,28.20837931666195,27.65655491110459,111.87155382767352,101.65465375214288,3.237724376958795e-05,0.0857500955462455,0,0,0
9491,316339.85635861027,2010-08-23 06:14:01,3361.6875131080537,2,26,0.5501165986061096,3.940797805786133,28.212966076042637,27.65655491110459,111.88962559469108,101.65465375214288,6.47544875391759e-05,0.0857500955462455,0,0,0
9492,316369.87156295,2010-08-23 06:14:31,3391.702717457741,2,26,0.5501165986061096,3.9425785541534415,28.21755280448789,27.65655491110459,111.90770437232383,101.65465375214288,9.713172767078504e-05,0.0857500955462455,0,0,0
9493,316399.8867910388,2010-08-23 06:15:01,3421.717945536568,2,26,0.5499359965324402,3.943873643875122,28.22213958759718,27.65655491110459,111.92579063793131,101.65465375214288,3.237724376958795e-05,0.0857500955462455,0,0,0
9494,316429.9019662258,2010-08-23 06:15:31,3451.7331207335974,2,26,0.5501165986061096,3.9454925060272217,28.22672642103232,27.65655491110459,111.9438844032417,101.65465375214288,6.47544875391759e-05,0.0857500955462455,0,0,0
9495,316459.9171667008,2010-08-23 06:16:01,3481.7483212136403,2,26,0.5501165986061096,3.947111368179321,28.231313224749357,27.65655491110459,111.96198539855968,101.65465375214288,6.47544875391759e-05,0.0857500955462455,0,0,0
9496,316489.93237173726,2010-08-23 06:16:31,3511.763526245026,2,26,0.5501165986061096,3.948892116546631,28.235899982892555,27.65655491110459,111.98009371414273,101.65465375214288,9.713172767078504e-05,0.0857500955462455,0,0,0
9497,316519.9478531324,2010-08-23 06:17:01,3541.7790077554832,2,26,0.550297200679779,3.9505109786987305,28.240486775996192,27.65655491110459,111.99820980377774,101.65465375214288,6.47544875391759e-05,0.0857500955462455,0,0,0
9498,316549.96278526366,2010-08-23 06:17:31,3571.79393977143,2,26,0.5501165986061096,3.95212984085083,28.245073534094548,27.65655491110459,112.01633352565312,101.65465375214288,6.47544875391759e-05,0.0857500955462455,0,0,0
9499,316579.97799343785,2010-08-23 06:18:01,3601.809147950662,2,26,0.5499359965324402,3.9537487030029297,28.24966034757334,27.65655491110459,112.03446532143477,101.65465375214288,0.0,0.0857500955462455,0,0,0
9500,316609.99321497534,2010-08-23 06:18:31,3631.8243694881858,2,26,0.550297200679779,3.955691337585449,28.25424714965035,27.65655491110459,112.05260505332424,101.65465375214288,6.47544875391759e-05,0.0857500955462455,0,0,0
9501,316640.00841128005,2010-08-23 06:19:01,3661.8395657878095,2,26,0.5501165986061096,3.957310199737549,28.25883398820802,27.65655491110459,112.07075301620442,101.65465375214288,3.237724376958795e-05,0.0857500955462455,0,0,0
9502,316670.0235689383,2010-08-23 06:19:31,3691.854723436102,2,26,0.550297200679779,3.959252834320069,28.263420746588857,27.65655491110459,112.08890888487016,101.65465375214288,6.47544875391759e-05,0.0857500955462455,0,0,0
9503,316700.038768476,2010-08-23 06:20:01,3721.869922993847,2,26,0.5501165986061096,3.961033582687378,28.26800755037204,27.65655491110459,112.10707321059378,101.65465375214288,3.237724376958795e-05,0.0857500955462455,0,0,0
9504,316730.0541436565,2010-08-23 06:20:31,3751.8852981592586,2,26,0.5501165986061096,3.9629762172698975,28.27259444105212,27.65655491110459,112.1252463677722,101.65465375214288,6.47544875391759e-05,0.0857500955462455,0,0,0
9505,316760.0692244081,2010-08-23 06:21:01,3781.900378905889,2,26,0.5501165986061096,3.964756965637207,28.27718121178311,27.65655491110459,112.14342760493024,101.65465375214288,6.47544875391759e-05,0.0857500955462455,0,0,0
9506,316790.08442697336,2010-08-23 06:21:31,3811.915581471128,2,26,0.5501165986061096,3.966699600219727,28.28176803117649,27.65655491110459,112.1616176783268,101.65465375214288,6.47544875391759e-05,0.0857500955462455,0,0,0
9507,316820.0995657296,2010-08-23 06:22:01,3841.9307202674354,2,26,0.5499359965324402,3.968480348587036,28.28635409401615,27.65655491110459,112.17981328012276,101.65465375214288,6.47544875391759e-05,0.0857500955462455,0,0,0
9508,316850.1147562748,2010-08-23 06:22:31,3871.9459107826433,2,26,0.550297200679779,3.970422983169556,28.29093998018842,27.65655491110459,112.1980168609157,101.65465375214288,6.47544875391759e-05,0.0857500955462455,0,0,0
9509,316880.13003315026,2010-08-23 06:23:01,3901.9611876630993,2,26,0.5499359965324402,3.972203731536865,28.29552601449132,27.65655491110459,112.21622979329068,101.65465375214288,3.237724376958795e-05,0.0857500955462455,0,0,0
9510,316910.1452245628,2010-08-23 06:23:31,3931.976379075541,2,26,0.5499359965324402,3.9741463661193848,28.300111923602067,27.65655491110459,112.23445097778244,101.65465375214288,3.237724376958795e-05,0.0857500955462455,0,0,0
9511,316940.1604546566,2010-08-23 06:24:01,3961.9916091693913,2,26,0.5501165986061096,3.976250886917114,28.30469781663591,27.65655491110459,112.25268094392791,101.65465375214288,6.47544875391759e-05,0.0857500955462455,0,0,0
9512,316970.1756565451,2010-08-23 06:24:31,3992.006811052932,2,26,0.5501165986061096,3.977869749069214,28.309283727633957,27.65655491110459,112.27091975038935,101.65465375214288,3.237724376958795e-05,0.0857500955462455,0,0,0
9513,317000.19084606785,2010-08-23 06:25:01,4022.0220006057407,2,26,0.5501165986061096,3.980136156082153,28.313870142845342,27.65655491110459,112.28916952623396,101.65465375214288,3.237724376958795e-05,0.0857500955462455,0,0,0
9514,317030.20606771566,2010-08-23 06:25:31,4052.037222248527,2,26,0.5501165986061096,3.982078790664673,28.31845691989812,27.65655491110459,112.307430006958,101.65465375214288,0.0,0.0857500955462455,0,0,0
9515,317060.2213921847,2010-08-23 06:26:01,4082.052546697538,2,26,0.5499359965324402,3.984021425247192,28.32304369321164,27.65655491110459,112.32569941214948,101.65465375214288,3.237724376958795e-05,0.0857500955462455,0,0,0
9516,317090.2364436133,2010-08-23 06:26:31,4112.067598121087,2,26,0.550297200679779,3.985964059829712,28.32763041044086,27.65655491110459,112.34397762401954,101.65465375214288,3.237724376958795e-05,0.0857500955462455,0,0,0
9517,317120.2516516271,2010-08-23 06:27:01,4142.082806139918,2,26,0.5501165986061096,3.987906694412232,28.33221721406741,27.65655491110459,112.36226535851505,101.65465375214288,0.0,0.0857500955462455,0,0,0
9518,317150.26683680905,2010-08-23 06:27:31,4172.09799131682,2,26,0.5499359965324402,3.989849328994751,28.336803995928864,27.65655491110459,112.3805620360213,101.65465375214288,0.0,0.0857500955462455,0,0,0
9519,317180.28204539424,2010-08-23 06:28:01,4202.113199907077,2,26,0.5501165986061096,3.991953849792481,28.34139083302796,27.65655491110459,112.39886829163272,101.65465375214288,3.237724376958795e-05,0.0857500955462455,0,0,0
9520,317210.2972416588,2010-08-23 06:28:31,4232.128396171613,2,26,0.5501165986061096,3.994058132171631,28.345977640636207,27.65655491110459,112.41718376255146,101.65465375214288,3.23295607813634e-05,0.0857500955462455,0,0,0
9521,317240.3124747301,2010-08-23 06:29:01,4262.143629262932,2,26,0.5501165986061096,3.99616265296936,28.35056445360081,27.65655491110459,112.43550863484047,101.65465375214288,9.713172767078504e-05,0.0857500955462455,0,0,0
9522,317270.32776570064,2010-08-23 06:29:31,4292.158920238518,2,26,0.5499359965324402,3.99826717376709,28.355151337432364,27.65655491110459,112.45384332209711,101.65465375214288,6.47544875391759e-05,0.0857500955462455,0,0,0
9523,317300.3428521114,2010-08-23 06:30:01,4322.174006624202,2,26,0.5501165986061096,4.000371932983398,28.359738139968965,27.65655491110459,112.47218707795466,101.65465375214288,9.71794142969884e-05,0.0857500955462455,0,0,0
9524,317330.3580412582,2010-08-23 06:30:31,4352.189195770999,2,26,0.5499359965324402,4.002314567565918,28.364324967557227,27.65655491110459,112.4905406380287,101.65465375214288,3.24249267578125e-05,0.0857500955462455,0,0,0
9525,317360.3732567256,2010-08-23 06:31:01,4382.2044112333815,2,26,0.5501165986061096,4.004580974578857,28.368911761066844,27.65655491110459,112.5089038111541,101.65465375214288,3.24249267578125e-05,0.0857500955462455,0,0,0
9526,317390.388468614,2010-08-23 06:31:31,4412.21962312687,2,26,0.5499359965324402,4.006523609161377,28.37349853776085,27.65655491110459,112.52727675547544,101.65465375214288,6.47544875391759e-05,0.0857500955462455,0,0,0
9527,317420.4037184471,2010-08-23 06:32:01,4442.234872959915,2,26,0.550297200679779,4.008790016174316,28.37808542788122,27.65655491110459,112.54566012424549,101.65465375214288,3.24249267578125e-05,0.0857500955462455,0,0,0
9528,317450.41900033003,2010-08-23 06:32:31,4472.250154842839,2,26,0.5501165986061096,4.011218070983887,28.38267233216956,27.65655491110459,112.56405350829309,101.65465375214288,9.70840483205393e-05,0.0857500955462455,0,0,0
9529,317480.4342478372,2010-08-23 06:33:01,4502.26540237515,2,26,0.5501165986061096,4.013322830200195,28.38725916353521,27.65655491110459,112.58245670178856,101.65465375214288,6.47544875391759e-05,0.0857500955462455,0,0,0
9530,317510.4492516672,2010-08-23 06:33:31,4532.280406180018,2,26,0.5501165986061096,4.015589237213135,28.391845999628405,27.65655491110459,112.60087012436176,101.65465375214288,6.47544875391759e-05,0.0857500955462455,0,0,0
9531,317540.46457472275,2010-08-23 06:34:01,4562.295729240568,2,26,0.5501165986061096,4.017855644226074,28.3964328954686,27.65655491110459,112.61929411641988,101.65465375214288,6.47544875391759e-05,0.0857500955462455,0,0,0
9532,317570.4797419349,2010-08-23 06:34:31,4592.310896432648,2,26,0.550297200679779,4.0202836990356445,28.401019737063432,27.65655491110459,112.63772829733608,101.65465375214288,0.0001295089750783,0.0857500955462455,0,0,0
9533,317600.4975072623,2010-08-23 06:35:01,4622.328661800178,2,26,0.5501165986061096,4.022388458251953,28.405606993083904,27.65655491110459,112.6561747712564,101.65465375214288,3.24249267578125e-05,0.0857500955462455,0,0,0
9534,317630.51007811853,2010-08-23 06:35:31,4652.341232626315,2,26,0.5501165986061096,4.024654865264893,28.41019339511005,27.65655491110459,112.6746284556875,101.65465375214288,6.47544875391759e-05,0.0857500955462455,0,0,0
9535,317660.5252722277,2010-08-23 06:36:01,4682.356426755528,2,26,0.5501165986061096,4.027082920074463,28.414780244133777,27.65655491110459,112.69309469175352,101.65465375214288,6.47544875391759e-05,0.0857500955462455,0,0,0
9536,317690.5404715197,2010-08-23 06:36:31,4712.3716260275605,2,26,0.5499359965324402,4.029349327087402,28.419367093275383,27.65655491110459,112.71157182745432,101.65465375214288,6.47544875391759e-05,0.0857500955462455,0,0,0
9537,317720.5556742203,2010-08-23 06:37:01,4742.3868287281375,2,26,0.5501165986061096,4.031939506530762,28.4239539613273,27.65655491110459,112.73005991533364,101.65465375214288,6.47544875391759e-05,0.0857500955462455,0,0,0
9538,317750.5708542394,2010-08-23 06:37:31,4772.402008747185,2,26,0.5504778623580933,4.034367561340332,28.428540756723656,27.65655491110459,112.74855882995074,101.65465375214288,9.70840483205393e-05,0.0857500955462455,0,0,0
9539,317780.58606431336,2010-08-23 06:38:01,4802.417218821139,2,26,0.550297200679779,4.036633968353272,28.43312758698703,27.65655491110459,112.76706904114808,101.65465375214288,6.47544875391759e-05,0.0857500955462455,0,0,0
9540,317810.6012702921,2010-08-23 06:38:31,4832.432424799886,2,26,0.5499359965324402,4.0390625,28.43771439002807,27.65655491110459,112.78559050872914,101.65465375214288,3.24249267578125e-05,0.0857500955462455,0,0,0
9541,317840.6164663411,2010-08-23 06:39:01,4862.447620848885,2,26,0.5501165986061096,4.041652679443359,28.44230119984205,27.65655491110459,112.80412342243908,101.65465375214288,3.24249267578125e-05,0.0857500955462455,0,0,0
9542,317870.6316827308,2010-08-23 06:39:31,4892.462837238579,2,26,0.5501165986061096,4.04408073425293,28.446888001388576,27.65655491110459,112.82266785033724,101.65465375214288,0.0,0.0857500955462455,0,0,0
9543,317900.6468635068,2010-08-23 06:40:01,4922.478018014513,2,26,0.5501165986061096,4.046833038330078,28.45147482379337,27.65655491110459,112.84122402919418,101.65465375214288,6.47544875391759e-05,0.0857500955462455,0,0,0
9544,317930.66220152454,2010-08-23 06:40:32,4952.493356037355,2,26,0.5501165986061096,4.049261093139648,28.45606169665973,27.65655491110459,112.85979222344427,101.65465375214288,3.23295607813634e-05,0.0857500955462455,0,0,0
9545,317960.67756830406,2010-08-23 06:41:02,4982.508722811855,2,26,0.5499359965324402,4.052013397216797,28.460648547712857,27.65655491110459,112.8783721431203,101.65465375214288,9.71794142969884e-05,0.0857500955462455,0,0,0
9546,317990.6925948907,2010-08-23 06:41:32,5012.523749403513,2,26,0.5501165986061096,4.054603576660156,28.4652353721358,27.65655491110459,112.896963954,101.65465375214288,9.71794142969884e-05,0.0857500955462455,0,0,0
9547,318020.7077023038,2010-08-23 06:42:02,5042.538856811592,2,26,0.5501165986061096,4.0573554039001465,28.469822250018392,27.65655491110459,112.91556805329428,101.65465375214288,0.0001295089750783,0.0857500955462455,0,0,0
9548,318050.72287404723,2010-08-23 06:42:32,5072.554028580076,2,26,0.5501165986061096,4.059783935546875,28.47440911800316,27.65655491110459,112.93418428893207,101.65465375214288,3.24249267578125e-05,0.0857500955462455,0,0,0
9549,318080.7382242253,2010-08-23 06:43:02,5102.569378743176,2,26,0.550297200679779,4.062535762786865,28.478996016225853,27.65655491110459,112.9528125562029,101.65465375214288,6.47544875391759e-05,0.0857500955462455,0,0,0
9550,318110.75327455613,2010-08-23 06:43:32,5132.584429068987,2,26,0.5501165986061096,4.065288066864014,28.48358283004337,27.65655491110459,112.97145293082316,101.65465375214288,9.71794142969884e-05,0.0857500955462455,0,0,0
9551,318140.76850169763,2010-08-23 06:44:02,5162.5996562154905,2,26,0.5501165986061096,4.067878246307373,28.48816964550345,27.65655491110459,112.99010586203336,101.65465375214288,3.24249267578125e-05,0.0857500955462455,0,0,0
9552,318170.78367638844,2010-08-23 06:44:32,5192.614830901247,2,26,0.5501165986061096,4.070792198181152,28.492756500827493,27.65655491110459,113.00877166053752,101.65465375214288,6.47544875391759e-05,0.0857500955462455,0,0,0
9553,318200.7988957355,2010-08-23 06:45:02,5222.630050243299,2,26,0.5501165986061096,4.073544025421143,28.497343311614813,27.65655491110459,113.0274499602988,101.65465375214288,6.47544875391759e-05,0.0857500955462455,0,0,0
9554,318230.8142008914,2010-08-23 06:45:32,5252.645355399226,2,26,0.550297200679779,4.076457977294922,28.50193015851326,27.65655491110459,113.04614132635449,101.65465375214288,9.70840483205393e-05,0.0857500955462455,0,0,0
9555,318260.829279192,2010-08-23 06:46:02,5282.660433689734,2,26,0.5501165986061096,4.07921028137207,28.506516925684647,27.65655491110459,113.06484536649474,101.65465375214288,6.47544875391759e-05,0.0857500955462455,0,0,0
9556,318290.84449978714,2010-08-23 06:46:32,5312.675654314986,2,26,0.550297200679779,4.0822858810424805,28.511103795604075,27.65655491110459,113.08356293703709,101.65465375214288,0.0001295089750783,0.0857500955462455,0,0,0
9557,318320.85968620714,2010-08-23 06:47:02,5342.690840714936,2,26,0.5499359965324402,4.085038185119629,28.51569060065054,27.65655491110459,113.10229344728694,101.65465375214288,6.47544875391759e-05,0.0857500955462455,0,0,0
9558,318350.8748760958,2010-08-23 06:47:32,5372.706030608593,2,26,0.5499359965324402,4.087790012359619,28.52027746314045,27.65655491110459,113.12103759938064,101.65465375214288,6.47544875391759e-05,0.0857500955462455,0,0,0
9559,318380.8900757738,2010-08-23 06:48:02,5402.721230281625,2,26,0.5501165986061096,4.091027736663818,28.524864285333848,27.65655491110459,113.13979504797912,101.65465375214288,9.70840483205393e-05,0.0857500955462455,0,0,0
9560,318410.90540195216,2010-08-23 06:48:32,5432.736556469971,2,26,0.5499359965324402,4.093941688537598,28.52945115592842,27.65655491110459,113.1585662593818,101.65465375214288,9.70840483205393e-05,0.0857500955462455,0,0,0
9561,318440.92070272216,2010-08-23 06:49:02,5462.751857229942,2,26,0.5501165986061096,4.096855640411377,28.534037985295196,27.65655491110459,113.1773510449336,101.65465375214288,9.70840483205393e-05,0.0857500955462455,0,0,0
9562,318470.9356893843,2010-08-23 06:49:32,5492.766843897098,2,26,0.5501165986061096,4.100093364715576,28.53862481630412,27.65655491110459,113.19614975801235,101.65465375214288,0.0001295089750783,0.0857500955462455,0,0,0
9563,318500.9509069419,2010-08-23 06:50:02,5522.782061454702,2,26,0.5501165986061096,4.103007316589356,28.543211725893027,27.65655491110459,113.21496282345052,101.65465375214288,6.47544875391759e-05,0.0857500955462455,0,0,0
9564,318530.9661541434,2010-08-23 06:50:32,5552.797308681252,2,26,0.550297200679779,4.106245040893555,28.547798573676737,27.65655491110459,113.23378979730616,101.65465375214288,0.0001295089750783,0.0857500955462455,0,0,0
9565,318560.9816923552,2010-08-23 06:51:02,5582.812846893025,2,26,0.5499359965324402,4.109158992767334,28.55238549822557,27.65655491110459,113.25263140522443,101.65465375214288,0.0001295089750783,0.0857500955462455,0,0,0
9566,318590.9966141907,2010-08-23 06:51:32,5612.827768698526,2,26,0.5501165986061096,4.112396717071533,28.556972298673195,27.65655491110459,113.27148689793444,101.65465375214288,9.70840483205393e-05,0.0857500955462455,0,0,0
9567,318621.0116789725,2010-08-23 06:52:02,5642.842833480367,2,26,0.5501165986061096,4.115472316741943,28.56155913433877,27.65655491110459,113.29035692805364,101.65465375214288,6.47544875391759e-05,0.0857500955462455,0,0,0
9568,318651.026886039,2010-08-23 06:52:32,5672.858040546825,2,26,0.5501165986061096,4.118710041046143,28.56614601481049,27.65655491110459,113.30924185513942,101.65465375214288,9.70840483205393e-05,0.0857500955462455,0,0,0
9569,318681.0421160527,2010-08-23 06:53:02,5702.873270590549,2,26,0.5501165986061096,4.121947765350342,28.570732866818428,27.65655491110459,113.32814145680994,101.65465375214288,6.47544875391759e-05,0.0857500955462455,0,0,0
9570,318711.0573813593,2010-08-23 06:53:32,5732.8885359522965,2,26,0.5501165986061096,4.125185489654541,28.57531981890238,27.65655491110459,113.34705634278632,101.65465375214288,9.70840483205393e-05,0.0857500955462455,0,0,0
9571,318741.0724814341,2010-08-23 06:54:02,5762.903635946899,2,26,0.550297200679779,4.12842321395874,28.579906690309123,27.65655491110459,113.36598593285883,101.65465375214288,6.47544875391759e-05,0.0857500955462455,0,0,0
9572,318771.08768489154,2010-08-23 06:54:32,5792.918839399349,2,26,0.5501165986061096,4.1318230628967285,28.584493602882265,27.65655491110459,113.3849309255091,101.65465375214288,3.24249267578125e-05,0.0857500955462455,0,0,0
9573,318801.1030160824,2010-08-23 06:55:02,5822.934170590163,2,26,0.550297200679779,4.135222434997559,28.589080544352587,27.65655491110459,113.40389137678238,101.65465375214288,6.47544875391759e-05,0.0857500955462455,0,0,0
9574,318831.1181987781,2010-08-23 06:55:32,5852.949353315957,2,26,0.5501165986061096,4.138622283935547,28.593667461605115,27.65655491110459,113.42286717852444,101.65465375214288,9.71794142969884e-05,0.0857500955462455,0,0,0
9575,318861.1332899958,2010-08-23 06:56:02,5882.964444503609,2,26,0.550297200679779,4.142183780670166,28.598254355139986,27.65655491110459,113.4418584804278,101.65465375214288,0.0001295089750783,0.0857500955462455,0,0,0
9576,318891.14860070555,2010-08-23 06:56:32,5912.97975521839,2,26,0.5501165986061096,4.145421504974365,28.60284126241038,27.65655491110459,113.46086564967828,101.65465375214288,6.47544875391759e-05,0.0857500955462455,0,0,0
9577,318921.16372776765,2010-08-23 06:57:02,5942.99488227544,2,26,0.550297200679779,4.148983001708984,28.6074281406327,27.65655491110459,113.47988878288332,101.65465375214288,6.47544875391759e-05,0.0857500955462455,0,0,0
9578,318951.17888669414,2010-08-23 06:57:32,5973.010041211944,2,26,0.5501165986061096,4.152544498443604,28.61201502458239,27.65655491110459,113.49892787677024,101.65465375214288,9.71794142969884e-05,0.0857500955462455,0,0,0
9579,318981.1940799762,2010-08-23 06:58:02,6003.025234484022,2,26,0.5499359965324402,4.156105995178223,28.61660189133073,27.65655491110459,113.51798295238392,101.65465375214288,0.0001295089750783,0.0857500955462455,0,0,0
9580,319011.20926355914,2010-08-23 06:58:32,6033.040418066951,2,26,0.5501165986061096,4.159667491912842,28.621188756066616,27.65655491110459,113.53705424909111,101.65465375214288,0.0001295089750783,0.0857500955462455,0,0,0
9581,319041.22447920195,2010-08-23 06:59:02,6063.055633709784,2,26,0.5501165986061096,4.163228988647461,28.625775600862344,27.65655491110459,113.556141836503,101.65465375214288,0.0001295089750783,0.0857500955462455,0,0,0
9582,319071.239623492,2010-08-23 06:59:32,6093.070778024847,2,26,0.5501165986061096,4.16679048538208,28.63036328278612,27.65655491110459,113.57524941397492,101.65465375214288,0.0001295089750783,0.0857500955462455,0,0,0
9583,319101.2548193505,2010-08-23 07:00:02,6123.085973858308,2,26,0.5499359965324402,4.170351982116699,28.63495106990988,27.65655491110459,113.5943740984104,101.65465375214288,6.47544875391759e-05,0.0857500955462455,0,0,0
9584,319131.2700589881,2010-08-23 07:00:32,6153.101213500956,2,26,0.5497553944587708,4.173913478851318,28.63953870782013,27.65655491110459,113.61351492276236,101.65465375214288,3.24249267578125e-05,0.0857500955462455,0,0,0
9585,319161.2852519996,2010-08-23 07:01:02,6183.116406512384,2,26,0.5501165986061096,4.177798748016357,28.64412644882461,27.65655491110459,113.6326730159718,101.65465375214288,9.71794142969884e-05,0.0857500955462455,0,0,0
9586,319191.3005648196,2010-08-23 07:01:32,6213.131719327401,2,26,0.550297200679779,4.1816840171813965,28.64871419438161,27.65655491110459,113.65184818659198,101.65465375214288,0.0001295089750783,0.0857500955462455,0,0,0
9587,319221.30060104065,2010-08-23 07:02:02,6243.131755578519,2,26,0.5501165986061096,4.185083389282227,28.65329960359012,27.65655491110459,113.67103068733434,101.65465375214288,6.47544875391759e-05,0.0857500955462455,0,0,0
9588,319251.3153436796,2010-08-23 07:02:32,6273.14649821748,2,26,0.5501165986061096,4.188968658447266,28.65788675325351,27.65655491110459,113.69023775089184,101.65465375214288,9.70840483205393e-05,0.0857500955462455,0,0,0
9589,319281.3304360502,2010-08-23 07:03:02,6303.161590583069,2,26,0.5501165986061096,4.192853927612305,28.66247375157518,27.65655491110459,113.70946170073272,101.65465375214288,9.70840483205393e-05,0.0857500955462455,0,0,0
9590,319311.34563524206,2010-08-23 07:03:32,6333.176789789938,2,26,0.5501165986061096,4.196739196777344,28.66706076476679,27.65655491110459,113.7287033028648,101.65465375214288,9.71794142969884e-05,0.0857500955462455,0,0,0
9591,319335.47290824016,2010-08-23 07:03:56,6357.304062747926,2,26,0.550297200679779,4.200138568878174,28.670748028573303,27.65655491110459,113.74418355252102,101.65465375214288,0.0001618385285837,0.0857500955462455,0,0,0
9592,319365.4987146015,2010-08-23 07:04:26,30.01519897128227,3,26,0.0,4.123566627502441,28.670748028573303,27.65655491110459,113.74418355252102,101.65465375214288,-0.0003885269106831,0.0857500955462455,0,0,0
9593,319395.5139348909,2010-08-23 07:04:56,60.0304192556834,3,26,0.0,4.113853931427002,28.670748028573303,27.65655491110459,113.74418355252102,101.65465375214288,-0.0002265930233988,0.0857500955462455,0,0,0
9594,319425.5291202633,2010-08-23 07:05:26,90.04560463308553,3,26,0.0,4.108511447906494,28.670748028573303,27.65655491110459,113.74418355252102,101.65465375214288,-9.71794142969884e-05,0.0857500955462455,0,0,0
9595,319455.49738312035,2010-08-23 07:05:56,120.01386751017922,3,26,0.0,4.104788303375244,28.670748028573303,27.65655491110459,113.74418355252102,101.65465375214288,-9.70840483205393e-05,0.0857500955462455,0,0,0
9596,319455.5123852652,2010-08-23 07:05:57,0.015620260495389,4,26,1.0041683912277222,4.199814796447754,28.67075238562099,27.65655491110459,113.74420185131434,101.65465375214288,0.0,0.0857500955462455,0,0,0
9597,319456.4189710109,2010-08-23 07:05:58,0.922205981060489,4,26,0.9539589285850524,4.199814796447754,28.670997358448503,27.65655491110459,113.7452306719514,101.65465375214288,0.0,0.0857500955462455,0,0,0
9598,319458.5280070677,2010-08-23 07:06:00,3.03124202782319,4,26,0.903207778930664,4.199814796447754,28.67154042569884,27.65655491110459,113.74751141470598,101.65465375214288,0.0,0.0857500955462455,0,0,0
9599,319461.69983139983,2010-08-23 07:06:03,6.203066370029921,4,26,0.8529983758926392,4.199653148651123,28.672313146117087,27.65655491110459,113.75075664963416,101.65465375214288,-3.23295607813634e-05,0.0857500955462455,0,0,0
9600,319465.8872997043,2010-08-23 07:06:07,10.390534674496438,4,26,0.8026083707809448,4.199653148651123,28.673274994833857,27.65655491110459,113.75479618675534,101.65465375214288,0.0,0.0857500955462455,0,0,0
9601,319471.24680663465,2010-08-23 07:06:12,15.75004163492088,4,26,0.7523990273475647,4.199814796447754,28.674431252207537,27.65655491110459,113.75965218829626,101.65465375214288,3.23295607813634e-05,0.0857500955462455,0,0,0
9602,319478.02771335567,2010-08-23 07:06:19,22.530948320814957,4,26,0.7023702263832092,4.199814796447754,28.675799442137688,27.65655491110459,113.76539829000065,101.65465375214288,0.0,0.0857500955462455,0,0,0
9603,319486.8558515173,2010-08-23 07:06:28,31.359086512538944,4,26,0.6523414850234985,4.199814796447754,28.677457684524576,27.65655491110459,113.7723625327868,101.65465375214288,0.0,0.0857500955462455,0,0,0
9604,319498.7930617432,2010-08-23 07:06:40,43.2962967233721,4,26,0.6021320819854736,4.199653148651123,28.679533694449304,27.65655491110459,113.78108131486516,101.65465375214288,-3.23295607813634e-05,0.0857500955462455,0,0,0
9605,319516.1367021265,2010-08-23 07:06:57,60.63993709668713,4,26,0.5521033406257629,4.199653148651123,28.6823072609081,27.65655491110459,113.79272968086056,101.65465375214288,0.0,0.0857500955462455,0,0,0
9606,319543.3707430011,2010-08-23 07:07:24,87.8739781316512,4,26,0.5020745396614075,4.199814796447754,28.686279794562395,27.65655491110459,113.80941346323064,101.65465375214288,0.0,0.0857500955462455,0,0,0
9607,319588.9636844698,2010-08-23 07:08:10,133.4669194399889,4,26,0.4520457684993744,4.199653148651123,28.69229532987068,27.65655491110459,113.83467736646143,101.65465375214288,-3.23295607813634e-05,0.0857500955462455,0,0,0
9608,319662.1188903171,2010-08-23 07:09:23,206.6221252872544,4,26,0.4020169973373413,4.199653148651123,28.700947607162533,27.65655491110459,113.87101494089087,101.65465375214288,0.0,0.0857500955462455,0,0,0
9609,319763.1487069412,2010-08-23 07:11:04,307.6519419163916,4,26,0.3516270220279693,4.199491024017334,28.711511004556076,27.65655491110459,113.91537889317831,101.65465375214288,-3.24249267578125e-05,0.0857500955462455,0,0,0
9610,319887.3656881339,2010-08-23 07:13:08,431.86892310412105,4,26,0.3015982508659363,4.199814796447754,28.72277004601584,27.65655491110459,113.96266438148136,101.65465375214288,0.0,0.0857500955462455,0,0,0
9611,320036.8324564804,2010-08-23 07:15:38,581.3356914556279,4,26,0.2515694797039032,4.199814796447754,28.73422869942376,27.65655491110459,114.01078826023873,101.65465375214288,3.23295607813634e-05,0.0857500955462455,0,0,0
9612,320220.51718684693,2010-08-23 07:18:42,765.0204218170672,4,26,0.2015407085418701,4.199653148651123,28.74575003003392,27.65655491110459,114.05917534376157,101.65465375214288,-3.23295607813634e-05,0.0857500955462455,0,0,0
9613,320460.56074385054,2010-08-23 07:22:42,1005.063978820676,4,26,0.151511937379837,4.199814796447754,28.757461199046485,27.65655491110459,114.10835975075372,101.65465375214288,3.23295607813634e-05,0.0857500955462455,0,0,0
9614,320809.8368800164,2010-08-23 07:28:31,1354.340114986582,4,26,0.1014831736683845,4.199653148651123,28.76959561363533,27.65655491110459,114.15932166127456,101.65465375214288,-3.23295607813634e-05,0.0857500955462455,0,0,0
9615,321443.8434736668,2010-08-23 07:39:05,1988.346708661973,4,26,0.0514544025063514,4.199814796447754,28.782584006429328,27.65655491110459,114.2138701209258,101.65465375214288,3.23295607813634e-05,0.0857500955462455,0,0,0
9616,321476.3586009987,2010-08-23 07:39:37,2020.861835973889,4,26,0.0498289167881011,4.199814796447754,28.783045809968943,27.65655491110459,114.2158095960082,101.65465375214288,0.0,0.0857500955462455,0,0,0
9617,321506.38633687614,2010-08-23 07:40:08,30.015189332258863,5,26,0.0,4.192692279815674,28.783045809968943,27.65655491110459,114.2158095960082,101.65465375214288,-3.23295607813634e-05,0.0857500955462455,0,0,0
9618,321536.38591508067,2010-08-23 07:40:38,60.01476756184645,5,26,0.0,4.191558837890625,28.783045809968943,27.65655491110459,114.2158095960082,101.65465375214288,-3.24249267578125e-05,0.0857500955462455,0,0,0
9619,321536.57110901666,2010-08-23 07:40:38,0.18741622389648,6,26,-1.9243103452026844e-05,4.191397190093994,28.783045809968943,27.656554912106387,114.2158095960082,101.65465375634182,0.0,0.0898760333657264,0,0,0
9620,321541.3990714947,2010-08-23 07:40:43,5.015378721968598,6,26,0.0007031940040178,4.191397190093994,28.78304679301874,27.656554912272625,114.21581371654013,101.65465375703856,-6.47544875391759e-05,0.0898760333657264,0,0,0
9621,321571.41203542124,2010-08-23 07:41:13,30.01517950777322,7,26,-1.0997490882873535,4.032263278961182,28.78304679301874,27.66572339475366,114.21581371654013,101.69180641565688,-0.0008741378551349,0.0898760333657264,0,0,0
9622,321601.42726206145,2010-08-23 07:41:43,60.030406148015054,7,26,-1.099568486213684,4.008304119110107,28.78304679301874,27.6748918043206,114.21581371654013,101.72865693787922,-0.0004532813909463,0.0898760333657264,0,0,0
9623,321631.44241121865,2010-08-23 07:42:13,90.04555530013263,7,26,-1.099929690361023,3.9913063049316406,28.78304679301874,27.684060197121223,114.21581371654013,101.76532475716137,-0.0004209041653666,0.0898760333657264,0,0,0
9624,321661.4577213369,2010-08-23 07:42:43,120.06086541842748,7,26,-1.099568486213684,3.9785172939300537,28.78304679301874,27.693228657887637,114.21581371654013,101.80185935355176,-0.0003237724304199,0.0898760333657264,0,0,0
9625,321691.4728030359,2010-08-23 07:43:13,150.0759471424936,7,26,-1.099568486213684,3.967509031295776,28.78304679301874,27.702396929348684,114.21581371654013,101.83828385702134,-0.0002913951757363,0.0898760333657264,0,0,0
9626,321721.48812416167,2010-08-23 07:43:43,180.09126824817236,7,26,-1.099568486213684,3.9576339721679688,28.78304679301874,27.711565224035866,114.21581371654013,101.87461335396118,-0.0002590179501567,0.0898760333657264,0,0,0
9627,321751.50320619147,2010-08-23 07:44:13,210.106350303063,7,26,-1.099568486213684,3.948568344116211,28.78304679301874,27.72073346333653,114.21581371654013,101.9108551958572,-0.0001942634553415,0.0898760333657264,0,0,0
9628,321781.5183850326,2010-08-23 07:44:43,240.12152911409973,7,26,-1.099568486213684,3.939826488494873,28.78304679301874,27.729901777486308,114.21581371654013,101.94701519743268,-0.0001942634553415,0.0898760333657264,0,0,0
9629,321811.53357609414,2010-08-23 07:45:13,270.1367201806811,7,26,-1.099568486213684,3.931246519088745,28.78304679301874,27.73907004315924,114.21581371654013,101.98309632054853,-0.0002266406954731,0.0898760333657264,0,0,0
9630,321841.54877783736,2010-08-23 07:45:43,300.1519219188593,7,26,-1.099568486213684,3.923152208328247,28.78304679301874,27.74823838920068,114.21581371654013,102.01910183612672,-0.0001942634553415,0.0898760333657264,0,0,0
9631,321871.56408551964,2010-08-23 07:46:13,330.1672296060952,7,26,-1.0997490882873535,3.915219783782959,28.78304679301874,27.757406745406144,114.21581371654013,102.05503350202042,-0.0001942634553415,0.0898760333657264,0,0,0
9632,321901.5791626823,2010-08-23 07:46:43,360.18230676879296,7,26,-1.099568486213684,3.90744948387146,28.78304679301874,27.76657500100955,114.21581371654013,102.09089264188076,-0.0001618862152099,0.0898760333657264,0,0,0
9633,321931.5943594581,2010-08-23 07:47:13,390.19750353959097,7,26,-1.099568486213684,3.899840831756592,28.78304679301874,27.7757432899624,114.21581371654013,102.12668102937822,-0.0001618862152099,0.0898760333657264,0,0,0
9634,321961.60985497845,2010-08-23 07:47:43,420.2129990599648,7,26,-1.099568486213684,3.892232179641724,28.78304679301874,27.78491163339746,114.21581371654013,102.16240001206975,-0.0001942634553415,0.0898760333657264,0,0,0
9635,321991.6247400875,2010-08-23 07:48:13,450.22788416900585,7,26,-1.099568486213684,3.8847854137420654,28.78304679301874,27.79407987195501,114.21581371654013,102.19805028614644,-0.0001942634553415,0.0898760333657264,0,0,0
9636,322021.63993231696,2010-08-23 07:48:43,480.2430763984854,7,26,-1.099568486213684,3.8773386478424072,28.78304679301874,27.80324813871136,114.21581371654013,102.2336329632068,-0.0002266406954731,0.0898760333657264,0,0,0
9637,322051.6551367118,2010-08-23 07:49:13,510.25828082335966,7,26,-1.0997490882873535,3.870053768157959,28.78304679301874,27.812416436891237,114.21581371654013,102.26914862519295,-0.0001942634553415,0.0898760333657264,0,0,0
9638,322081.6703425652,2010-08-23 07:49:43,540.2734866366945,7,26,-1.0997490882873535,3.8629307746887207,28.78304679301874,27.821584724743623,114.21581371654013,102.304598336504,-0.0001942634553415,0.0898760333657264,0,0,0
9639,322111.68576533423,2010-08-23 07:50:13,570.2889094207873,7,26,-1.099929690361023,3.8558077812194815,28.78304679301874,27.830753126704472,114.21581371654013,102.3399834935382,-0.0002266406954731,0.0898760333657264,0,0,0
9640,322141.70097804983,2010-08-23 07:50:43,600.3041221513619,7,26,-1.099568486213684,3.849170446395874,28.78304679301874,27.83992141056804,114.21581371654013,102.37530431382936,-0.0001618862152099,0.0898760333657264,0,0,0
9641,322171.71593334374,2010-08-23 07:51:13,630.3190774503378,7,26,-1.0997490882873535,3.842047452926636,28.78304679301874,27.849089608649937,114.21581371654013,102.41056170007344,-0.0001942634553415,0.0898760333657264,0,0,0
9642,322201.7311183252,2010-08-23 07:51:43,660.334262411703,7,26,-1.0997490882873535,3.8354101181030273,28.78304679301874,27.85825794190348,114.21581371654013,102.4457570701796,-0.0001942634553415,0.0898760333657264,0,0,0
9643,322231.746295838,2010-08-23 07:52:13,690.3494399194916,7,26,-1.099568486213684,3.828773021697998,28.78304679301874,27.867426221423,114.21581371654013,102.4808906838375,-0.0001618862152099,0.0898760333657264,0,0,0
9644,322261.7614972604,2010-08-23 07:52:43,720.3646413318579,7,26,-1.0997490882873535,3.8222975730896,28.78304679301874,27.87659459567179,114.21581371654013,102.51596436270448,-0.0001942634553415,0.0898760333657264,0,0,0
9645,322291.7768173536,2010-08-23 07:53:13,750.3799614450631,7,26,-1.099568486213684,3.815822124481201,28.78304679301874,27.8857629972704,114.21581371654013,102.5509790316424,-0.0001618862152099,0.0898760333657264,0,0,0
9646,322321.7921030409,2010-08-23 07:53:43,780.3952471374811,7,26,-1.099568486213684,3.8095085620880127,28.78304679301874,27.89493129069315,114.21581371654013,102.5859345395711,-0.0001618862152099,0.0898760333657264,0,0,0
9647,322351.80708124704,2010-08-23 07:54:13,810.410225328511,7,26,-1.099568486213684,3.803356885910034,28.78304679301874,27.90409949022861,114.21581371654013,102.62083186162988,-0.0001295089750783,0.0898760333657264,0,0,0
9648,322381.8224214754,2010-08-23 07:54:43,840.4255655668743,7,26,-1.099568486213684,3.797205209732056,28.78304679301874,27.91326781767411,114.21581371654013,102.65567320466288,-0.0001295089750783,0.0898760333657264,0,0,0
9649,322411.83747645776,2010-08-23 07:55:13,870.4406205392672,7,26,-1.099568486213684,3.791215419769287,28.78304679301874,27.92243607953853,114.21581371654013,102.69045902540267,-0.0001618862152099,0.0898760333657264,0,0,0
9650,322441.85532363923,2010-08-23 07:55:43,900.4584677207039,7,26,-1.0993878841400146,3.785387516021729,28.78304679301874,27.93160522897746,114.21581371654013,102.72519416571492,-0.0001618862152099,0.0898760333657264,0,0,0
9651,322471.86786209967,2010-08-23 07:56:13,930.4710061811744,7,26,-1.099568486213684,3.77972149848938,28.78304679301874,27.94077275534012,114.21581371654013,102.75987008787598,-0.0001295089750783,0.0898760333657264,0,0,0
9652,322501.8830415273,2010-08-23 07:56:43,960.4861856137604,7,26,-1.0997490882873535,3.7740554809570312,28.78304679301874,27.949941106946472,114.21581371654013,102.7944970226048,-0.0001295089750783,0.0898760333657264,0,0,0
9653,322531.89823757124,2010-08-23 07:57:13,990.5013816577468,7,26,-1.099568486213684,3.7685513496398926,28.78304679301874,27.95910942743769,114.21581371654013,102.82907240356776,-9.713172767078504e-05,0.0898760333657264,0,0,0
9654,322561.9134694846,2010-08-23 07:57:43,1020.5166135711312,7,26,-1.099568486213684,3.762885332107544,28.78304679301874,27.96827775390548,114.21581371654013,102.86359732195332,-0.0001618862152099,0.0898760333657264,0,0,0
9655,322591.9286218648,2010-08-23 07:58:13,1050.5317659462817,7,26,-1.099568486213684,3.7575430870056152,28.78304679301874,27.977445996591896,114.21581371654013,102.89807206620348,-0.0001295089750783,0.0898760333657264,0,0,0
9656,322621.94379033,2010-08-23 07:58:43,1080.5469344165458,7,26,-1.0997490882873535,3.752362966537476,28.78304679301874,27.986614317760285,114.21581371654013,102.93249820564311,-9.713172767078504e-05,0.0898760333657264,0,0,0
9657,322651.9590283737,2010-08-23 07:59:13,1110.5621724602083,7,26,-1.099568486213684,3.747182607650757,28.78304679301874,27.995782698819017,114.21581371654013,102.96687674784228,-0.0001295089750783,0.0898760333657264,0,0,0
9658,322681.9742320266,2010-08-23 07:59:43,1140.5773761081466,7,26,-1.0997490882873535,3.742002248764038,28.78304679301874,28.00495103850799,114.21581371654013,103.001208566832,-0.0001618862152099,0.0898760333657264,0,0,0
9659,322711.9894167875,2010-08-23 08:00:13,1170.592560869012,7,26,-1.099568486213684,3.7371456623077393,28.78304679301874,28.01411940884228,114.21581371654013,103.0354948448768,-0.0001295089750783,0.0898760333657264,0,0,0
9660,322742.00461336784,2010-08-23 08:00:43,1200.6077574543478,7,26,-1.099568486213684,3.73228907585144,28.78304679301874,28.023287762185408,114.21581371654013,103.0697360691051,-0.0001618862152099,0.0898760333657264,0,0,0
9661,322772.019802234,2010-08-23 08:01:14,1230.6229463054071,7,26,-1.0997490882873535,3.727594375610352,28.78304679301874,28.032456149640225,114.21581371654013,103.10393322022033,-9.713172767078504e-05,0.0898760333657264,0,0,0
9662,322802.0352919599,2010-08-23 08:01:44,1260.638436041365,7,26,-1.099568486213684,3.722899675369263,28.78304679301874,28.04162466126493,114.21581371654013,103.1380883303637,-0.0001618862152099,0.0898760333657264,0,0,0
9663,322832.0503133586,2010-08-23 08:02:14,1290.6534574400814,7,26,-1.0997490882873535,3.7185287475585938,28.78304679301874,28.050793016116707,114.21581371654013,103.17220047045252,-9.713172767078504e-05,0.0898760333657264,0,0,0
9664,322862.0656112013,2010-08-23 08:02:44,1320.668755302832,7,26,-1.099568486213684,3.713834047317505,28.78304679301874,28.059961481181613,114.21581371654013,103.20627155169974,-0.0001295089750783,0.0898760333657264,0,0,0
9665,322892.0805712872,2010-08-23 08:03:14,1350.6837153737008,7,26,-1.099568486213684,3.709301233291626,28.78304679301874,28.069129852085076,114.21581371654013,103.24030130715492,-0.0001295089750783,0.0898760333657264,0,0,0
9666,322922.0958023836,2010-08-23 08:03:44,1380.6989473121473,7,26,-1.099568486213684,3.705254077911377,28.78304679301874,28.07829822686232,114.21581371654013,103.27429083403204,-9.713172767078504e-05,0.0898760333657264,0,0,0
9667,322952.11095305445,2010-08-23 08:04:14,1410.7140971259137,7,26,-1.0997490882873535,3.700721263885498,28.78304679301874,28.08746661764465,114.21581371654013,103.30824071158332,-9.713172767078504e-05,0.0898760333657264,0,0,0
9668,322982.1262214437,2010-08-23 08:04:44,1440.729365535257,7,26,-1.099568486213684,3.696835994720459,28.78304679301874,28.096635095915047,114.21581371654013,103.34215214748224,-6.47544875391759e-05,0.0898760333657264,0,0,0
9669,323012.1413344006,2010-08-23 08:05:14,1470.74447848214,7,26,-1.099568486213684,3.69246506690979,28.78304679301874,28.10580341221186,114.21581371654013,103.3760249428248,-9.713172767078504e-05,0.0898760333657264,0,0,0
9670,323042.1565223845,2010-08-23 08:05:44,1500.7596664660384,7,26,-1.099568486213684,3.688256025314331,28.78304679301874,28.1149717581517,114.21581371654013,103.40985981505511,-0.0001295089750783,0.0898760333657264,0,0,0
9671,323072.17184734985,2010-08-23 08:06:14,1530.7749914313367,7,26,-1.099568486213684,3.684532642364502,28.78304679301874,28.124140131664408,114.21581371654013,103.44365756153152,-9.713172767078504e-05,0.0898760333657264,0,0,0
9672,323102.18702719343,2010-08-23 08:06:44,1560.7901712849718,7,26,-1.099568486213684,3.680323600769043,28.78304679301874,28.13330837866263,114.21581371654013,103.47741858121223,-9.713172767078504e-05,0.0898760333657264,0,0,0
9673,323132.2020888926,2010-08-23 08:07:14,1590.8052329690922,7,26,-1.0997490882873535,3.676438331604004,28.78304679301874,28.14247670074559,114.21581371654013,103.51114414991476,-0.0001295089750783,0.0898760333657264,0,0,0
9674,323162.2172851821,2010-08-23 08:07:44,1620.820429268716,7,26,-1.099568486213684,3.672714948654175,28.78304679301874,28.15164507794105,114.21581371654013,103.54483487448722,-0.0001295089750783,0.0898760333657264,0,0,0
9675,323192.2324632263,2010-08-23 08:08:14,1650.8356073128414,7,26,-1.099568486213684,3.668991804122925,28.78304679301874,28.160813581215823,114.21581371654013,103.57849133683868,-9.713172767078504e-05,0.0898760333657264,0,0,0
9676,323222.247693235,2010-08-23 08:08:44,1680.8508373415282,7,26,-1.099568486213684,3.6654303073883057,28.78304679301874,28.16998200237419,114.21581371654013,103.6121136930402,-9.713172767078504e-05,0.0898760333657264,0,0,0
9677,323252.26286277286,2010-08-23 08:09:14,1710.8660068594031,7,26,-1.0997490882873535,3.661706924438477,28.78304679301874,28.179150384104823,114.21581371654013,103.64570296644668,-9.713172767078504e-05,0.0898760333657264,0,0,0
9678,323282.27806117275,2010-08-23 08:09:44,1740.8812052542492,7,26,-1.0997490882873535,3.6581454277038574,28.78304679301874,28.18831881589701,114.21581371654013,103.6792602071108,-0.0001618862152099,0.0898760333657264,0,0,0
9679,323312.29323798383,2010-08-23 08:10:14,1770.8963820653014,7,26,-1.0997490882873535,3.654907703399658,28.78304679301874,28.197487163506324,114.21581371654013,103.71278569938056,-0.0001295089750783,0.0898760333657264,0,0,0
9680,323342.30856175616,2010-08-23 08:10:44,1800.911705837626,7,26,-1.099929690361023,3.651508092880249,28.78304679301874,28.2066556102016,114.21581371654013,103.74628084353884,-9.713172767078504e-05,0.0898760333657264,0,0,0
9681,323372.3237479255,2010-08-23 08:11:14,1830.9268920170275,7,26,-1.0993878841400146,3.6485941410064697,28.78304679301874,28.215824024163112,114.21581371654013,103.7797455542182,-3.237724376958795e-05,0.0898760333657264,0,0,0
9682,323402.3388618398,2010-08-23 08:11:44,1860.9420059263089,7,26,-1.0993878841400146,3.645194530487061,28.78304679301874,28.224992397603508,114.21581371654013,103.8131801558404,-6.47544875391759e-05,0.0898760333657264,0,0,0
9683,323432.35404992395,2010-08-23 08:12:14,1890.9571940305068,7,26,-1.099568486213684,3.6421186923980713,28.78304679301874,28.234160721085537,114.21581371654013,103.84658582180175,-9.713172767078504e-05,0.0898760333657264,0,0,0
9684,323462.36920147703,2010-08-23 08:12:44,1920.9723455635583,7,26,-1.099568486213684,3.639042854309082,28.78304679301874,28.243329065399298,114.21581371654013,103.87996363303571,-6.47544875391759e-05,0.0898760333657264,0,0,0
9685,323492.38442730525,2010-08-23 08:13:14,1950.987571386764,7,26,-1.099568486213684,3.636128902435303,28.78304679301874,28.252497461531984,114.21581371654013,103.91331399367354,-6.47544875391759e-05,0.0898760333657264,0,0,0
9686,323522.39959146985,2010-08-23 08:13:44,1981.00273553626,7,26,-1.0997490882873535,3.633214950561523,28.78304679301874,28.261665776455978,114.21581371654013,103.94663732811856,-9.713172767078504e-05,0.0898760333657264,0,0,0
9687,323552.41477188485,2010-08-23 08:14:14,2011.017915971344,7,26,-1.099568486213684,3.630462884902954,28.78304679301874,28.27083411325181,114.21581371654013,103.97993473143212,-3.237724376958795e-05,0.0898760333657264,0,0,0
9688,323582.4299644702,2010-08-23 08:14:44,2041.0331085567109,7,26,-1.099929690361023,3.627548933029175,28.78304679301874,28.280002487500436,114.21581371654013,104.0132069455318,-9.713172767078504e-05,0.0898760333657264,0,0,0
9689,323612.44515837886,2010-08-23 08:15:14,2071.0483024603627,7,26,-1.0997490882873535,3.6251206398010254,28.78304679301874,28.289170842977345,114.21581371654013,104.04645416733598,0.0,0.0898760333657264,0,0,0
9690,323642.4603601521,2010-08-23 08:15:44,2101.063504258691,7,26,-1.099568486213684,3.622206687927246,28.78304679301874,28.29833944933993,114.21581371654013,104.079677669558,-9.713172767078504e-05,0.0898760333657264,0,0,0
9691,323672.4755313292,2010-08-23 08:16:14,2131.078675415652,7,26,-1.099568486213684,3.619616508483887,28.78304679301874,28.307508631838832,114.21581371654013,104.11287847503628,-9.713172767078504e-05,0.0898760333657264,0,0,0
9692,323702.4907356437,2010-08-23 08:16:44,2161.0938797252384,7,26,-1.0997490882873535,3.616864442825317,28.78304679301874,28.316677786840504,114.21581371654013,104.1460547509857,-9.713172767078504e-05,0.0898760333657264,0,0,0
9693,323732.5060538322,2010-08-23 08:17:14,2191.109197933696,7,26,-1.099929690361023,3.614274263381958,28.78304679301874,28.32584697666025,114.21581371654013,104.17920691619106,-6.47544875391759e-05,0.0898760333657264,0,0,0
9694,323762.5212496455,2010-08-23 08:17:44,2221.124393752121,7,26,-1.0997490882873535,3.6118459701538086,28.78304679301874,28.33501582206625,114.21581371654013,104.2123340577789,-6.47544875391759e-05,0.0898760333657264,0,0,0
9695,323792.5364357248,2010-08-23 08:18:14,2251.1395798162343,7,26,-1.099568486213684,3.6090939044952393,28.78304679301874,28.344184201593063,114.21581371654013,104.24543562754847,-6.47544875391759e-05,0.0898760333657264,0,0,0
9696,323822.5515026018,2010-08-23 08:18:44,2281.154646683272,7,26,-1.0993878841400146,3.60650372505188,28.78304679301874,28.35335250988921,114.21581371654013,104.27851311380049,-6.47544875391759e-05,0.0898760333657264,0,0,0
9697,323852.5667189814,2010-08-23 08:19:14,2311.1698630829915,7,26,-1.0993878841400146,3.6040754318237305,28.78304679301874,28.362520855130988,114.21581371654013,104.31156654641278,-3.237724376958795e-05,0.0898760333657264,0,0,0
9698,323882.5818864392,2010-08-23 08:19:44,2341.1850305106573,7,26,-1.0997490882873535,3.601323366165161,28.78304679301874,28.371689154613183,114.21581371654013,104.34459584170028,-6.47544875391759e-05,0.0898760333657264,0,0,0
9699,323912.5970554408,2010-08-23 08:20:14,2371.2001995172586,7,26,-1.099568486213684,3.5987331867218018,28.78304679301874,28.380857546711376,114.21581371654013,104.37760084325028,-3.237724376958795e-05,0.0898760333657264,0,0,0
9700,323942.6122369335,2010-08-23 08:20:44,2401.215381040053,7,26,-1.099568486213684,3.5958192348480225,28.78304679301874,28.39002592822905,114.21581371654013,104.4105809128224,-3.237724376958795e-05,0.0898760333657264,0,0,0
9701,323972.6274338947,2010-08-23 08:21:14,2431.230577971251,7,26,-1.0997490882873535,3.593067169189453,28.78304679301874,28.39919431838404,114.21581371654013,104.44353597801194,-6.47544875391759e-05,0.0898760333657264,0,0,0
9702,324002.64263632963,2010-08-23 08:21:44,2461.2457804111787,7,26,-1.099568486213684,3.590315341949463,28.78304679301874,28.40836273979508,114.21581371654013,104.47646569418336,-6.47544875391759e-05,0.0898760333657264,0,0,0
9703,324032.6580504572,2010-08-23 08:22:14,2491.261194548721,7,26,-1.099568486213684,3.5872395038604736,28.78304679301874,28.41753122225841,114.21581371654013,104.50936954825616,-6.47544875391759e-05,0.0898760333657264,0,0,0
9704,324062.6730515954,2010-08-23 08:22:44,2521.2761956969675,7,26,-1.099568486213684,3.5843255519866943,28.78304679301874,28.42669958054784,114.21581371654013,104.54224626880196,-0.0001295089750783,0.0898760333657264,0,0,0
9705,324092.688246667,2010-08-23 08:23:14,2551.2913907585066,7,26,-1.099568486213684,3.581573486328125,28.78304679301874,28.43586790726696,114.21581371654013,104.57509540618632,-3.237724376958795e-05,0.0898760333657264,0,0,0
9706,324122.70339952834,2010-08-23 08:23:44,2581.306543609843,7,26,-1.0997490882873535,3.578173875808716,28.78304679301874,28.445036219416984,114.21581371654013,104.60791647464885,-0.0001295089750783,0.0898760333657264,0,0,0
9707,324152.7185758231,2010-08-23 08:24:14,2611.3217199146334,7,26,-1.0997490882873535,3.5750980377197266,28.78304679301874,28.45420464434896,114.21581371654013,104.6407095718712,-9.713172767078504e-05,0.0898760333657264,0,0,0
9708,324182.7337683784,2010-08-23 08:24:44,2641.3369124649125,7,26,-1.0997490882873535,3.5720221996307373,28.78304679301874,28.463373112161708,114.21581371654013,104.67347318871994,-6.47544875391759e-05,0.0898760333657264,0,0,0
9709,324212.7489846077,2010-08-23 08:25:14,2671.3521286891946,7,26,-1.0997490882873535,3.568460702896118,28.78304679301874,28.47254151677717,114.21581371654013,104.70620637455244,-9.713172767078504e-05,0.0898760333657264,0,0,0
9710,324242.76438297593,2010-08-23 08:25:44,2701.367527112573,7,26,-1.099568486213684,3.565061092376709,28.78304679301874,28.48170997149296,114.21581371654013,104.73890828310898,-9.713172767078504e-05,0.0898760333657264,0,0,0
9711,324272.7793735629,2010-08-23 08:26:14,2731.382517649372,7,26,-1.0997490882873535,3.56133770942688,28.78304679301874,28.490878302689325,114.21581371654013,104.77157749944912,-0.0001618862152099,0.0898760333657264,0,0,0
9712,324302.7946718116,2010-08-23 08:26:44,2761.397815903097,7,26,-1.099568486213684,3.5577762126922607,28.78304679301874,28.500046661405385,114.21581371654013,104.80421415138532,-0.0001295089750783,0.0898760333657264,0,0,0
9713,324332.8098565674,2010-08-23 08:27:14,2791.4130006589494,7,26,-1.0997490882873535,3.554052829742432,28.78304679301874,28.509215081393418,114.21581371654013,104.83681621665257,-9.713172767078504e-05,0.0898760333657264,0,0,0
9714,324362.8275597349,2010-08-23 08:27:44,2821.4307038164347,7,26,-1.0997490882873535,3.5500056743621826,28.78304679301874,28.51838419667967,114.21581371654013,104.86938545315893,-9.713172767078504e-05,0.0898760333657264,0,0,0
9715,324392.8401310623,2010-08-23 08:28:14,2851.443275173895,7,26,-1.099929690361023,3.5459585189819336,28.78304679301874,28.527551803767025,114.21581371654013,104.90191300160876,-0.0001618862152099,0.0898760333657264,0,0,0
9716,324422.8553288156,2010-08-23 08:28:44,2881.458472902079,7,26,-1.099568486213684,3.541911363601685,28.78304679301874,28.536720167766696,114.21581371654013,104.93440536959672,-9.713172767078504e-05,0.0898760333657264,0,0,0
9717,324452.8706334101,2010-08-23 08:29:14,2911.473777501619,7,26,-1.0997490882873535,3.5373785495758057,28.78304679301874,28.54588860869812,114.21581371654013,104.96685856581038,-0.0001618862152099,0.0898760333657264,0,0,0
9718,324482.885725485,2010-08-23 08:29:44,2941.4888695664577,7,26,-1.099568486213684,3.5330076217651367,28.78304679301874,28.55505701674929,114.21581371654013,104.99927115226328,-0.0001295089750783,0.0898760333657264,0,0,0
9719,324512.9008811884,2010-08-23 08:30:14,2971.504025269903,7,26,-1.099568486213684,3.528151035308838,28.78304679301874,28.564225431306287,114.21581371654013,105.03164174552592,-0.0001618862152099,0.0898760333657264,0,0,0
9720,324542.9160758189,2010-08-23 08:30:44,3001.5192199053795,7,26,-1.099568486213684,3.523618221282959,28.78304679301874,28.573393809858658,114.21581371654013,105.0639689361963,-9.713172767078504e-05,0.0898760333657264,0,0,0
9721,324572.9312672564,2010-08-23 08:31:14,3031.534411337873,7,26,-1.099568486213684,3.51843786239624,28.78304679301874,28.582562119532746,114.21581371654013,105.09625065584515,-0.0001295089750783,0.0898760333657264,0,0,0
9722,324602.9466271136,2010-08-23 08:31:44,3061.5497712051574,7,26,-1.099568486213684,3.513257503509521,28.78304679301874,28.591730551279007,114.21581371654013,105.12848531117832,-0.0001295089750783,0.0898760333657264,0,0,0
9723,324632.96165362006,2010-08-23 08:32:14,3091.56479770158,7,26,-1.0997490882873535,3.507591724395752,28.78304679301874,28.60089894669843,114.21581371654013,105.16066980097116,-0.0001618862152099,0.0898760333657264,0,0,0
9724,324662.9768449022,2010-08-23 08:32:44,3121.5799889836976,7,26,-1.099568486213684,3.5016019344329834,28.78304679301874,28.610067318806145,114.21581371654013,105.19280114495632,-0.0001295089750783,0.0898760333657264,0,0,0
9725,324692.99218412803,2010-08-23 08:33:15,3151.595328209537,7,26,-1.0997490882873535,3.494964599609375,28.78304679301874,28.61923578417641,114.21581371654013,105.22487533422267,-0.0001942634553415,0.0898760333657264,0,0,0
9726,324723.0075168427,2010-08-23 08:33:45,3181.6106609341746,7,26,-1.0997490882873535,3.487517833709717,28.78304679301874,28.62840420827327,114.21581371654013,105.25688604536508,-0.0002590179501567,0.0898760333657264,0,0,0
9727,324753.0227847457,2010-08-23 08:34:15,3211.625928897406,7,26,-1.099568486213684,3.4795854091644287,28.78304679301874,28.63757260509344,114.21581371654013,105.28882621330496,-0.0002590179501567,0.0898760333657264,0,0,0
9728,324783.0377663904,2010-08-23 08:34:45,3241.6409104768804,7,26,-1.099568486213684,3.470196008682251,28.78304679301874,28.646740944001987,114.21581371654013,105.3206858616317,-0.0002590179501567,0.0898760333657264,0,0,0
9729,324813.0527983905,2010-08-23 08:35:15,3271.6559424820325,7,26,-1.099568486213684,3.459025859832764,28.78304679301874,28.655909232315025,114.21581371654013,105.3524517366026,-0.0003237724304199,0.0898760333657264,0,0,0
9730,324843.0681306791,2010-08-23 08:35:45,3301.6712747655697,7,26,-1.0997490882873535,3.445265531539917,28.78304679301874,28.66507759651885,114.21581371654013,105.38410474690356,-0.0004209041653666,0.0898760333657264,0,0,0
9731,324873.0831773708,2010-08-23 08:36:15,3331.686321452312,7,26,-1.099568486213684,3.4277820587158203,28.78304679301874,28.674245915846505,114.21581371654013,105.41561489519376,-0.0005180359003134,0.0898760333657264,0,0,0
9732,324903.09836196626,2010-08-23 08:36:45,3361.70150605779,7,26,-1.099568486213684,3.404146671295166,28.78304679301874,28.683414301297297,114.21581371654013,105.44693883065116,-0.0007122993702068,0.0898760333657264,0,0,0
9733,324933.11366582394,2010-08-23 08:37:15,3391.716809905457,7,26,-1.0997490882873535,3.371283769607544,28.78304679301874,28.692582747907608,114.21581371654013,105.4780072793439,-0.0009713172912597,0.0898760333657264,0,0,0
9734,324963.12879246,2010-08-23 08:37:45,3421.7319365414573,7,26,-1.099568486213684,3.3238513469696045,28.78304679301874,28.701751152721982,114.21581371654013,105.50871160630346,-0.0014245987404137,0.0898760333657264,0,0,0
9735,324993.14409965096,2010-08-23 08:38:15,3451.7472437424813,7,26,-1.099568486213684,3.2540786266326904,28.78304679301874,28.71091960611563,114.21581371654013,105.53888703333044,-0.0022016526199877,0.0898760333657264,0,0,0
9736,325023.15915621736,2010-08-23 08:38:45,3481.762300308847,7,26,-1.0993878841400146,3.148205280303955,28.78304679301874,28.72008792405828,114.21581371654013,105.56827210196862,-0.0033672333229333,0.0898760333657264,0,0,0
9737,325053.1743527525,2010-08-23 08:39:15,3511.7774968340327,7,26,-1.0997490882873535,2.959608316421509,28.78304679301874,28.72925628359132,114.21581371654013,105.59637711309506,-0.00702586164698,0.0898760333657264,0,0,0
9738,325068.767878216,2010-08-23 08:39:30,3527.3710223075204,7,26,-1.0997490882873535,2.7593557834625244,28.78304679301874,28.734019431745484,114.21581371654013,105.61004128024804,-0.0123680587857961,0.0898760333657264,0,0,0
9739,325072.3615689942,2010-08-23 08:39:34,3530.9647130756653,7,26,-1.099929690361023,2.699620008468628,28.78304679301874,28.735117162727693,114.21581371654013,105.6130380050294,-0.0133069995790719,0.0898760333657264,0,0,0
9740,325132.3625371937,2010-08-23 08:40:34,60.01473215861069,8,26,0.0,3.395404815673828,28.78304679301874,28.735117162727693,114.21581371654013,105.6130380050294,0.0011655807029455,0.0898760333657264,0,0,0
9741,325132.5399152629,2010-08-23 08:40:34,0.190271780822974,9,26,-1.9243103452026844e-05,3.395566701889038,28.78304679301874,28.735117163744757,114.21581371654013,105.6130380084829,0.0,0.086481012403965,0,0,0
9742,325137.3654153138,2010-08-23 08:40:39,5.015771841744039,9,26,0.0005225847125984,3.4026896953582764,28.78304771385524,28.73511716381354,114.21581684702922,105.61303800871649,0.0010360718006268,0.086481012403965,0,0,0
