Data_Point,Test_Time(s),Date_Time,Step_Time(s),Step_Index,Cycle_Index,Current(A),Voltage(V),Charge_Capacity(Ah),Discharge_Capacity(Ah),Charge_Energy(Wh),Discharge_Energy(Wh),dV/dt(V/s),Internal_Resistance(Ohm),Is_FC_Data,AC_Impedance(Ohm),ACI_Phase_Angle(Deg)
3767,127005.54289641276,2010-08-21 01:38:09,30.015237266726302,1,11,0.0,3.354285717010498,11.176528169313194,11.14898572167618,44.40399329052281,40.88222466852204,0.0007446288946084,0.0842843055725097,0,0,0
3768,127035.55846253409,2010-08-21 01:38:39,60.03080337302199,1,11,0.0,3.378568649291992,11.176528169313194,11.14898572167618,44.40399329052281,40.88222466852204,0.0005827903514727,0.0842843055725097,0,0,0
3769,127065.5735651352,2010-08-21 01:39:09,90.04590599918258,1,11,0.0,3.3968617916107178,11.176528169313194,11.14898572167618,44.40399329052281,40.88222466852204,0.0004532813909463,0.0842843055725097,0,0,0
3770,127095.54179875436,2010-08-21 01:39:39,120.01413959830654,1,11,0.0,3.4114315509796143,11.176528169313194,11.14898572167618,44.40399329052281,40.88222466852204,0.0003885269106831,0.0842843055725097,0,0,0
3771,127125.5570374145,2010-08-21 01:40:09,30.01536411286591,2,11,0.550297200679779,3.548224925994873,11.181115090705802,11.14898572167618,44.42011375386883,40.88222466852204,0.0015217304462566,0.0842843055725097,0,0,0
3772,127155.57227696692,2010-08-21 01:40:39,60.03060366027638,2,11,0.5501165986061096,3.5951716899871826,11.185702015595457,11.14898572167618,44.43650306813393,40.88222466852204,0.001068401383236,0.0842843055725097,0,0,0
3773,127185.58737564326,2010-08-21 01:41:09,90.04570234661772,2,11,0.5501165986061096,3.631272315979004,11.190288984078792,11.14898572167618,44.4530800538486,40.88222466852204,0.0009065627818927,0.0842843055725097,0,0,0
3774,127215.60266604742,2010-08-21 01:41:39,120.06099274576636,2,11,0.5501165986061096,3.660573720932007,11.194875926870091,11.14898572167618,44.469805838859216,40.88222466852204,0.0006799221155233,0.0842843055725097,0,0,0
3775,127245.61792594052,2010-08-21 01:42:09,150.07625266394706,2,11,0.550297200679779,3.685665845870972,11.199462868518523,11.14898572167618,44.48665600077571,40.88222466852204,0.0006151676061563,0.0842843055725097,0,0,0
3776,127275.6331618238,2010-08-21 01:42:39,180.09148852216293,2,11,0.5499359965324402,3.707196712493897,11.2040496389799,11.14898572167618,44.503611747389975,40.88222466852204,0.0005504131549969,0.0842843055725097,0,0,0
3777,127305.6484268046,2010-08-21 01:43:09,210.1067535079737,2,11,0.5501165986061096,3.725327968597412,11.20863649316328,11.14898572167618,44.52065881199465,40.88222466852204,0.0004209041653666,0.0842843055725097,0,0,0
3778,127335.66366392096,2010-08-21 01:43:39,240.12199061931275,2,11,0.550297200679779,3.7395739555358887,11.213223351311028,11.14898572167618,44.5377803442108,40.88222466852204,0.0003561496851034,0.0842843055725097,0,0,0
3779,127365.67913589763,2010-08-21 01:44:09,270.13746262608345,2,11,0.5501165986061096,3.7481539249420166,11.217810172689749,11.14898572167618,44.55495450317796,40.88222466852204,0.0001942634553415,0.0842843055725097,0,0,0
3780,127395.6941886846,2010-08-21 01:44:39,300.1525153979919,2,11,0.5501165986061096,3.752686738967896,11.222396999908732,11.14898572167618,44.57215822481366,40.88222466852204,6.47544875391759e-05,0.0842843055725097,0,0,0
3781,127425.709442673,2010-08-21 01:45:09,330.1677693763688,2,11,0.550297200679779,3.755600452423096,11.22698378121338,11.14898572167618,44.589377950270325,40.88222466852204,9.713172767078504e-05,0.0842843055725097,0,0,0
3782,127455.724789984,2010-08-21 01:45:39,360.1831166923717,2,11,0.5501165986061096,3.758028745651245,11.231570588548037,11.14898572167618,44.60660952805494,40.88222466852204,9.713172767078504e-05,0.0842843055725097,0,0,0
3783,127485.73993112112,2010-08-21 01:46:09,390.1982578445511,2,11,0.5499359965324402,3.760133266448975,11.236157389131952,11.14898572167618,44.62385176218299,40.88222466852204,6.47544875391759e-05,0.0842843055725097,0,0,0
3784,127515.75515861348,2010-08-21 01:46:39,420.2134853218792,2,11,0.5499359965324402,3.762561559677124,11.240744190436756,11.14898572167618,44.64110442068528,40.88222466852204,9.713172767078504e-05,0.0842843055725097,0,0,0
3785,127545.7704160906,2010-08-21 01:47:09,450.2287428140134,2,11,0.5501165986061096,3.764827966690064,11.245331040914207,11.14898572167618,44.65836794524919,40.88222466852204,3.237724376958795e-05,0.0842843055725097,0,0,0
3786,127575.78566079584,2010-08-21 01:47:39,480.2439875192789,2,11,0.5501165986061096,3.767256259918213,11.249917877495736,11.14898572167618,44.67564226163938,40.88222466852204,6.47544875391759e-05,0.0842843055725097,0,0,0
3787,127605.80107849228,2010-08-21 01:48:09,510.2594052207039,2,11,0.550297200679779,3.7696845531463614,11.25450475631752,11.14898572167618,44.69292774613562,40.88222466852204,3.237724376958795e-05,0.0842843055725097,0,0,0
3788,127635.81615913865,2010-08-21 01:48:39,540.2744858370091,2,11,0.5499359965324402,3.7719509601593018,11.259091542004285,11.14898572167618,44.71022389706245,40.88222466852204,3.237724376958795e-05,0.0842843055725097,0,0,0
3789,127665.8318820658,2010-08-21 01:49:09,570.2902087741757,2,11,0.550297200679779,3.774703025817871,11.263678385653243,11.14898572167618,44.72753147571056,40.88222466852204,9.713172767078504e-05,0.0842843055725097,0,0,0
3790,127695.84675767114,2010-08-21 01:49:39,600.3050843695055,2,11,0.5499359965324402,3.7769694328308105,11.26826516258446,11.14898572167618,44.744850053598704,40.88222466852204,6.47544875391759e-05,0.0842843055725097,0,0,0
3791,127725.8618977356,2010-08-21 01:50:09,630.3202244640489,2,11,0.5501165986061096,3.77955961227417,11.272851999881984,11.14898572167618,44.76218019433336,40.88222466852204,6.47544875391759e-05,0.0842843055725097,0,0,0
3792,127755.87714451105,2010-08-21 01:50:39,660.3354712394738,2,11,0.5501165986061096,3.7819879055023193,11.27743880276634,11.14898572167618,44.77952158955816,40.88222466852204,6.47544875391759e-05,0.0842843055725097,0,0,0
3793,127785.89240777255,2010-08-21 01:51:09,690.3507344959746,2,11,0.5501165986061096,3.784578084945679,11.282025617892408,11.14898572167618,44.79687456778501,40.88222466852204,9.713172767078504e-05,0.0842843055725097,0,0,0
3794,127815.907646127,2010-08-21 01:51:39,720.3659728353744,2,11,0.5501165986061096,3.787006378173828,11.286612497459164,11.14898572167618,44.814239599568666,40.88222466852204,6.47544875391759e-05,0.0842843055725097,0,0,0
3795,127845.92291348871,2010-08-21 01:52:09,750.3812402121441,2,11,0.5501165986061096,3.7897584438323975,11.291199311802227,11.14898572167618,44.831616470205,40.88222466852204,3.237724376958795e-05,0.0842843055725097,0,0,0
3796,127875.9381427906,2010-08-21 01:52:39,780.396469509007,2,11,0.550297200679779,3.792510509490967,11.295786153227716,11.14898572167618,44.849005998298445,40.88222466852204,6.47544875391759e-05,0.0842843055725097,0,0,0
3797,127905.95339471386,2010-08-21 01:53:09,810.4117214172245,2,11,0.5501165986061096,3.795586347579956,11.300372965918076,11.14898572167618,44.86640859242146,40.88222466852204,6.47544875391759e-05,0.0842843055725097,0,0,0
3798,127935.96868299272,2010-08-21 01:53:39,840.4270096910764,2,11,0.550297200679779,3.798662185668945,11.30495982345211,11.14898572167618,44.88382517959983,40.88222466852204,9.713172767078504e-05,0.0842843055725097,0,0,0
3799,127965.98396152227,2010-08-21 01:54:09,870.4422882206422,2,11,0.5501165986061096,3.801738023757935,11.309546698968408,11.14898572167618,44.90125626645194,40.88222466852204,9.713172767078504e-05,0.0842843055725097,0,0,0
3800,127995.99914682952,2010-08-21 01:54:39,900.4574735579444,2,11,0.550297200679779,3.805137634277344,11.314133591749414,11.14898572167618,44.91870239853308,40.88222466852204,6.47544875391759e-05,0.0842843055725097,0,0,0
3801,128026.01456226029,2010-08-21 01:55:09,930.4728889686604,2,11,0.550297200679779,3.808537244796753,11.318720502281373,11.14898572167618,44.93616402519913,40.88222466852204,9.713172767078504e-05,0.0842843055725097,0,0,0
3802,128056.0296630218,2010-08-21 01:55:39,960.487989755236,2,11,0.5501165986061096,3.811936855316162,11.323307344841616,11.14898572167618,44.95364111695272,40.88222466852204,9.713172767078504e-05,0.0842843055725097,0,0,0
3803,128086.04490709548,2010-08-21 01:56:09,990.50323379384,2,11,0.5499359965324402,3.8153364658355713,11.327894203099651,11.14898572167618,44.97113427771524,40.88222466852204,6.47544875391759e-05,0.0842843055725097,0,0,0
3804,128116.06027070708,2010-08-21 01:56:39,1020.5185974104692,2,11,0.550297200679779,3.8190598487854,11.332481035808703,11.14898572167618,44.98864324897848,40.88222466852204,9.713172767078504e-05,0.0842843055725097,0,0,0
3805,128146.07539087198,2010-08-21 01:57:09,1050.5337175753416,2,11,0.5504778623580933,3.8224594593048096,11.337067861804634,11.14898572167618,45.00616781327596,40.88222466852204,9.713172767078504e-05,0.0842843055725097,0,0,0
3806,128176.09064590298,2010-08-21 01:57:39,1080.548972606342,2,11,0.550297200679779,3.825697183609009,11.341654679450128,11.14898572167618,45.02370759052027,40.88222466852204,0.0001295089750783,0.0842843055725097,0,0,0
3807,128206.10594216172,2010-08-21 01:58:09,1110.5642688851444,2,11,0.5501165986061096,3.828773021697998,11.34624152944177,11.14898572167618,45.04126249340672,40.88222466852204,3.237724376958795e-05,0.0842843055725097,0,0,0
3808,128236.1211448924,2010-08-21 01:58:39,1140.579471590734,2,11,0.5499359965324402,3.832010746002197,11.350828429754037,11.14898572167618,45.05883227429804,40.88222466852204,3.237724376958795e-05,0.0842843055725097,0,0,0
3809,128266.13641643952,2010-08-21 01:59:09,1170.59474314291,2,11,0.5501165986061096,3.835086345672608,11.355415324055716,11.14898572167618,45.076416381881714,40.88222466852204,6.47544875391759e-05,0.0842843055725097,0,0,0
3810,128296.15168544537,2010-08-21 01:59:39,1200.6100121738025,2,11,0.5499359965324402,3.8381621837615967,11.360002155877153,11.14898572167618,45.09401449380397,40.88222466852204,6.47544875391759e-05,0.0842843055725097,0,0,0
3811,128326.16728400254,2010-08-21 02:00:09,1230.6256107259633,2,11,0.550297200679779,3.841238021850586,11.364589110349304,11.14898572167618,45.11162722094824,40.88222466852204,6.47544875391759e-05,0.0842843055725097,0,0,0
3812,128356.1821669462,2010-08-21 02:00:39,1260.6404936495574,2,11,0.5499359965324402,3.844313859939575,11.369175907189144,11.14898572167618,45.12925324449712,40.88222466852204,9.713172767078504e-05,0.0842843055725097,0,0,0
3813,128386.19742044838,2010-08-21 02:01:09,1290.6557471717974,2,11,0.550297200679779,3.847389698028565,11.37376277932874,11.14898572167618,45.146893304651805,40.88222466852204,9.713172767078504e-05,0.0842843055725097,0,0,0
3814,128416.2126887224,2010-08-21 02:01:39,1320.6710154458033,2,11,0.5501165986061096,3.850141763687134,11.378349649330492,11.14898572167618,45.16454683164491,40.88222466852204,6.47544875391759e-05,0.0842843055725097,0,0,0
3815,128446.23053201914,2010-08-21 02:02:09,1350.6888587425583,2,11,0.5501165986061096,3.852893829345703,11.38293698458742,11.14898572167618,45.18221522283207,40.88222466852204,6.47544875391759e-05,0.0842843055725097,0,0,0
3816,128476.24318123065,2010-08-21 02:02:39,1380.7015079540547,2,11,0.5501165986061096,3.855645895004273,11.387523456273875,11.14898572167618,45.1998927026223,40.88222466852204,6.47544875391759e-05,0.0842843055725097,0,0,0
3817,128506.25840841222,2010-08-21 02:03:09,1410.716735135646,2,11,0.5499359965324402,3.858074188232422,11.392110275830207,11.14898572167618,45.21758339373054,40.88222466852204,6.47544875391759e-05,0.0842843055725097,0,0,0
3818,128536.2736461802,2010-08-21 02:03:39,1440.7319728835714,2,11,0.5501165986061096,3.8605024814605713,11.396697078500663,11.14898572167618,45.235285062141074,40.88222466852204,9.713172767078504e-05,0.0842843055725097,0,0,0
3819,128566.28903783672,2010-08-21 02:04:09,1470.7473645350722,2,11,0.5501165986061096,3.862607002258301,11.401283992406745,11.14898572167618,45.25299740783698,40.88222466852204,6.47544875391759e-05,0.0842843055725097,0,0,0
3820,128596.304141716,2010-08-21 02:04:39,1500.7624684243808,2,11,0.5501165986061096,3.86454963684082,11.405870890277336,11.14898572167618,45.27071907292882,40.88222466852204,6.47544875391759e-05,0.0842843055725097,0,0,0
3821,128626.31939600014,2010-08-21 02:05:09,1530.7777227085198,2,11,0.5499359965324402,3.86616849899292,11.41045770641504,11.14898572167618,45.28844897780636,40.88222466852204,0.0,0.0842843055725097,0,0,0
3822,128656.33476955652,2010-08-21 02:05:39,1560.793096254897,2,11,0.5501165986061096,3.86778736114502,11.415044576222058,11.14898572167618,45.306186817625424,40.88222466852204,3.237724376958795e-05,0.0842843055725097,0,0,0
3823,128686.34991793672,2010-08-21 02:06:09,1590.8082446601532,2,11,0.550297200679779,3.869406223297119,11.419631456107908,11.14898572167618,45.32393171123215,40.88222466852204,6.47544875391759e-05,0.0842843055725097,0,0,0
3824,128716.36515029124,2010-08-21 02:06:39,1620.823477019649,2,11,0.5501165986061096,3.870701313018799,11.424218311931975,11.14898572167618,45.34168290281213,40.88222466852204,3.237724376958795e-05,0.0842843055725097,0,0,0
3825,128746.3804021794,2010-08-21 02:07:09,1650.8387288677163,2,11,0.550297200679779,3.8719964027404794,11.42880520907704,11.14898572167618,45.35944012774683,40.88222466852204,3.237724376958795e-05,0.0842843055725097,0,0,0
3826,128776.39564591723,2010-08-21 02:07:40,1680.8539726206084,2,11,0.5501165986061096,3.873129606246948,11.43339202686622,11.14898572167618,45.37720248804068,40.88222466852204,3.237724376958795e-05,0.0842843055725097,0,0,0
3827,128806.41136239831,2010-08-21 02:08:10,1710.8696891267468,2,11,0.550297200679779,3.874100923538208,11.437978998799032,11.14898572167618,45.39497057672522,40.88222466852204,0.0,0.0842843055725097,0,0,0
3828,128836.42627899082,2010-08-21 02:08:40,1740.884605719254,2,11,0.550297200679779,3.8752341270446777,11.442565810773798,11.14898572167618,45.412742668754994,40.88222466852204,6.47544875391759e-05,0.0842843055725097,0,0,0
3829,128866.44141310045,2010-08-21 02:09:10,1770.8997398288811,2,11,0.5501165986061096,3.876043558120728,11.447152660933227,11.14898572167618,45.43051967372083,40.88222466852204,0.0,0.0842843055725097,0,0,0
3830,128896.4566826326,2010-08-21 02:09:40,1800.9150093560104,2,11,0.550297200679779,3.877176761627197,11.45173951982501,11.14898572167618,45.44830114137579,40.88222466852204,3.237724376958795e-05,0.0842843055725097,0,0,0
3831,128926.47191389935,2010-08-21 02:10:10,1830.930240602733,2,11,0.5501165986061096,3.877986192703247,11.456326319101978,11.14898572167618,45.46608672377872,40.88222466852204,3.237724376958795e-05,0.0842843055725097,0,0,0
3832,128956.48715657456,2010-08-21 02:10:40,1860.9454832779388,2,11,0.5501165986061096,3.878957509994507,11.460913151424128,11.14898572167618,45.48387669076677,40.88222466852204,6.47544875391759e-05,0.0842843055725097,0,0,0
3833,128986.502405761,2010-08-21 02:11:10,1890.9607324643723,2,11,0.550297200679779,3.879928827285767,11.465500032553948,11.14898572167618,45.5016708422637,40.88222466852204,3.237724376958795e-05,0.0842843055725097,0,0,0
3834,129016.51766019552,2010-08-21 02:11:40,1920.975986903899,2,11,0.5501165986061096,3.880738258361816,11.470086904499643,11.14898572167618,45.51946907196295,40.88222466852204,3.237724376958795e-05,0.0842843055725097,0,0,0
3835,129046.5330592956,2010-08-21 02:12:10,1950.9913860039635,2,11,0.5501165986061096,3.881547689437866,11.474673788423887,11.14898572167618,45.537271352429855,40.88222466852204,0.0,0.0842843055725097,0,0,0
3836,129076.54829144957,2010-08-21 02:12:40,1981.0066181529355,2,11,0.5501165986061096,3.882519006729126,11.479260597841211,11.14898572167618,45.55507723205574,40.88222466852204,0.0,0.0842843055725097,0,0,0
3837,129106.56345337351,2010-08-21 02:13:10,2011.0217801019464,2,11,0.5501165986061096,3.883328437805176,11.48384743535274,11.14898572167618,45.5728871624712,40.88222466852204,3.237724376958795e-05,0.0842843055725097,0,0,0
3838,129136.57866106654,2010-08-21 02:13:40,2041.0369877899536,2,11,0.5501165986061096,3.8841378688812256,11.488434345258035,11.14898572167618,45.59070138770095,40.88222466852204,3.237724376958795e-05,0.0842843055725097,0,0,0
3839,129166.59392436311,2010-08-21 02:14:10,2071.0522510614915,2,11,0.5501165986061096,3.8847854137420654,11.493021197986131,11.14898572167618,45.60851911865369,40.88222466852204,0.0,0.0842843055725097,0,0,0
3840,129196.60917302326,2010-08-21 02:14:40,2101.0674997266265,2,11,0.550297200679779,3.885756731033325,11.49760804784885,11.14898572167618,45.6263408169427,40.88222466852204,0.0,0.0842843055725097,0,0,0
3841,129226.624427949,2010-08-21 02:15:10,2131.082754647352,2,11,0.550297200679779,3.886728048324585,11.502194959609188,11.14898572167618,45.644166689870296,40.88222466852204,3.237724376958795e-05,0.0842843055725097,0,0,0
3842,129256.63969982196,2010-08-21 02:15:40,2161.098026535365,2,11,0.5501165986061096,3.8875374794006343,11.506781841166848,11.14898572167618,45.661996283539935,40.88222466852204,6.47544875391759e-05,0.0842843055725097,0,0,0
3843,129286.65515801431,2010-08-21 02:16:10,2191.113484717681,2,11,0.5501165986061096,3.8885087966918954,11.5113687033709,11.14898572167618,45.67982981817446,40.88222466852204,3.237724376958795e-05,0.0842843055725097,0,0,0
3844,129316.67033806843,2010-08-21 02:16:40,2221.128664776829,2,11,0.5501165986061096,3.889318227767944,11.515955631070954,11.14898572167618,45.69766767408595,40.88222466852204,3.237724376958795e-05,0.0842843055725097,0,0,0
3845,129346.6854759625,2010-08-21 02:17:10,2251.1438026909373,2,11,0.5501165986061096,3.890127658843994,11.520542476550927,11.14898572167618,45.71550912884845,40.88222466852204,0.0,0.0842843055725097,0,0,0
3846,129376.70070297369,2010-08-21 02:17:40,2281.1590296720287,2,11,0.5501165986061096,3.890937089920044,11.525129390479432,11.14898572167618,45.733354994740296,40.88222466852204,3.237724376958795e-05,0.0842843055725097,0,0,0
3847,129406.71595606983,2010-08-21 02:18:10,2311.174282768207,2,11,0.5501165986061096,3.891908407211304,11.529716366901631,11.14898572167618,45.75120527202404,40.88222466852204,0.0,0.0842843055725097,0,0,0
3848,129436.73117551216,2010-08-21 02:18:40,2341.189502210509,2,11,0.550297200679779,3.893041610717773,11.534304128349568,11.14898572167618,45.76906278429266,40.88222466852204,0.0,0.0842843055725097,0,0,0
3849,129466.7464390644,2010-08-21 02:19:10,2371.2047657627472,2,11,0.550297200679779,3.8938510417938232,11.5388919195766,11.14898572167618,45.78692469519683,40.88222466852204,3.237724376958795e-05,0.0842843055725097,0,0,0
3850,129496.7617160902,2010-08-21 02:19:40,2401.220042788565,2,11,0.5501165986061096,3.894822359085083,11.543478993436388,11.14898572167618,45.80478813319357,40.88222466852204,3.237724376958795e-05,0.0842843055725097,0,0,0
3851,129526.7763573064,2010-08-21 02:20:10,2431.2346839997376,2,11,0.5501165986061096,3.895631790161133,11.548063506774046,11.14898572167618,45.822645336747485,40.88222466852204,3.237724376958795e-05,0.0842843055725097,0,0,0
3852,129556.77659153592,2010-08-21 02:20:40,2461.2349182342914,2,11,0.550297200679779,3.8966031074523926,11.552650359980891,11.14898572167618,45.84051626682388,40.88222466852204,3.237724376958795e-05,0.0842843055725097,0,0,0
3853,129586.79196842064,2010-08-21 02:21:10,2491.250295129014,2,11,0.5499359965324402,3.8974125385284415,11.557237189649086,11.14898572167618,45.85839158239029,40.88222466852204,-3.237724376958795e-05,0.0842843055725097,0,0,0
3854,129616.8070850517,2010-08-21 02:21:40,2521.2654117600787,2,11,0.5501165986061096,3.898545742034912,11.561824057441932,11.14898572167618,45.87627160723589,40.88222466852204,3.237724376958795e-05,0.0842843055725097,0,0,0
3855,129646.822338604,2010-08-21 02:22:10,2551.2806653073817,2,11,0.550297200679779,3.899840831756592,11.566410917990332,11.14898572167618,45.89415630890523,40.88222466852204,6.47544875391759e-05,0.0842843055725097,0,0,0
3856,129676.83761148952,2010-08-21 02:22:40,2581.295938187868,2,11,0.5501165986061096,3.9006502628326416,11.570997836589108,11.14898572167618,45.91204584714795,40.88222466852204,3.237724376958795e-05,0.0842843055725097,0,0,0
3857,129706.85288002416,2010-08-21 02:23:10,2611.311206722524,2,11,0.550297200679779,3.9017834663391113,11.57558465048002,11.14898572167618,45.92993978098079,40.88222466852204,6.47544875391759e-05,0.0842843055725097,0,0,0
3858,129736.86822710455,2010-08-21 02:23:40,2641.326553812965,2,11,0.5501165986061096,3.902754783630371,11.580171483288597,11.14898572167618,45.94783866429764,40.88222466852204,0.0,0.0842843055725097,0,0,0
3859,129766.8833376605,2010-08-21 02:24:10,2671.3416643989635,2,11,0.5501165986061096,3.903887987136841,11.584758324437828,11.14898572167618,45.96574250697658,40.88222466852204,0.0,0.0842843055725097,0,0,0
3860,129796.89858963892,2010-08-21 02:24:40,2701.3569163623183,2,11,0.5501165986061096,3.905021190643311,11.58934521123874,11.14898572167618,45.98365154907561,40.88222466852204,6.47544875391759e-05,0.0842843055725097,0,0,0
3861,129826.91383576771,2010-08-21 02:25:10,2731.372162491132,2,11,0.5501165986061096,3.90615439414978,11.593932092066652,11.14898572167618,46.00156553116621,40.88222466852204,3.237724376958795e-05,0.0842843055725097,0,0,0
3862,129856.92923529384,2010-08-21 02:25:40,2761.3875620172585,2,11,0.5501165986061096,3.90712571144104,11.598518887039736,11.14898572167618,46.019484386191735,40.88222466852204,0.0,0.0842843055725097,0,0,0
3863,129886.94448697648,2010-08-21 02:26:10,2791.4028136999136,2,11,0.5501165986061096,3.9082589149475098,11.603105681753798,11.14898572167618,46.03740847821805,40.88222466852204,3.237724376958795e-05,0.0842843055725097,0,0,0
3864,129916.95960724662,2010-08-21 02:26:40,2821.4179339449856,2,11,0.550297200679779,3.9095540046691895,11.607692439442054,11.14898572167618,46.05533776268765,40.88222466852204,3.237724376958795e-05,0.0842843055725097,0,0,0
3865,129946.97485738544,2010-08-21 02:27:10,2851.4331840888062,2,11,0.5499359965324402,3.910525321960449,11.612279295503813,11.14898572167618,46.07327287180825,40.88222466852204,-3.237724376958795e-05,0.0842843055725097,0,0,0
3866,129976.99032148247,2010-08-21 02:27:40,2881.4486482059133,2,11,0.550297200679779,3.911820411682129,11.616866167195552,11.14898572167618,46.091213514396,40.88222466852204,0.0,0.0842843055725097,0,0,0
3867,130007.0053424752,2010-08-21 02:28:10,2911.4636692036306,2,11,0.5501165986061096,3.912953615188599,11.621452980309735,11.14898572167618,46.109159546417565,40.88222466852204,0.0,0.0842843055725097,0,0,0
3868,130037.0206220674,2010-08-21 02:28:40,2941.47894876577,2,11,0.5501165986061096,3.914572238922119,11.626039885416615,11.14898572167618,46.127111587694806,40.88222466852204,6.47544875391759e-05,0.0842843055725097,0,0,0
3869,130067.0360902697,2010-08-21 02:29:10,2971.494416978084,2,11,0.5499359965324402,3.915705442428589,11.630626813915455,11.14898572167618,46.14506945561322,40.88222466852204,3.237724376958795e-05,0.0842843055725097,0,0,0
3870,130097.05112460064,2010-08-21 02:29:40,3001.5094513040194,2,11,0.5501165986061096,3.917000532150269,11.635213679915706,11.14898572167618,46.16303278177946,40.88222466852204,3.237724376958795e-05,0.0842843055725097,0,0,0
3871,130127.06647479384,2010-08-21 02:30:10,3031.524801517243,2,11,0.5501165986061096,3.9181337356567374,11.639800539119106,11.14898572167618,46.18100210637828,40.88222466852204,0.0,0.0842843055725097,0,0,0
3872,130157.08161892345,2010-08-21 02:30:40,3061.5399456217806,2,11,0.550297200679779,3.919752597808838,11.64438734622632,11.14898572167618,46.19897717421672,40.88222466852204,6.47544875391759e-05,0.0842843055725097,0,0,0
3873,130187.09685632549,2010-08-21 02:31:10,3091.555183028857,2,11,0.5501165986061096,3.9207239151000977,11.648974287018758,11.14898572167618,46.21695892965924,40.88222466852204,0.0,0.0842843055725097,0,0,0
3874,130217.11212086516,2010-08-21 02:31:40,3121.570447563543,2,11,0.550297200679779,3.922342777252197,11.653561142305676,11.14898572167618,46.23494645148176,40.88222466852204,6.47544875391759e-05,0.0842843055725097,0,0,0
3875,130247.12735374096,2010-08-21 02:32:10,3151.5856804393256,2,11,0.5501165986061096,3.923637866973877,11.658147947467569,11.14898572167618,46.25294005275227,40.88222466852204,3.237724376958795e-05,0.0842843055725097,0,0,0
3876,130277.14281710118,2010-08-21 02:32:40,3181.601143804559,2,11,0.5501165986061096,3.9249329566955566,11.662734820503395,11.14898572167618,46.27094030712748,40.88222466852204,0.0,0.0842843055725097,0,0,0
3877,130307.15789217368,2010-08-21 02:33:10,3211.6162188770472,2,11,0.5501165986061096,3.9263899326324463,11.667321706671888,11.14898572167618,46.2889469939044,40.88222466852204,6.47544875391759e-05,0.0842843055725097,0,0,0
3878,130337.17311757585,2010-08-21 02:33:40,3241.6314442741914,2,11,0.550297200679779,3.927846908569336,11.67190858701424,11.14898572167618,46.306960140956924,40.88222466852204,3.237724376958795e-05,0.0842843055725097,0,0,0
3879,130367.18837081236,2010-08-21 02:34:10,3271.6466975107187,2,11,0.550297200679779,3.9293038845062256,11.676495506224736,11.14898572167618,46.324980000793566,40.88222466852204,3.237724376958795e-05,0.0842843055725097,0,0,0
3880,130397.2045864525,2010-08-21 02:34:40,3301.662913155865,2,11,0.5501165986061096,3.9307608604431152,11.681082521606832,11.14898572167618,46.34300690192923,40.88222466852204,3.237724376958795e-05,0.0842843055725097,0,0,0
3881,130427.21891374128,2010-08-21 02:35:10,3331.6772404446465,2,11,0.5499359965324402,3.932055950164795,11.685669348740255,11.14898572167618,46.3610398097122,40.88222466852204,0.0,0.0842843055725097,0,0,0
3882,130457.23426360363,2010-08-21 02:35:40,3361.692590301984,2,11,0.5499359965324402,3.9336748123168954,11.690256210007297,11.14898572167618,46.379079623150936,40.88222466852204,3.237724376958795e-05,0.0842843055725097,0,0,0
3883,130487.24937537758,2010-08-21 02:36:10,3391.707702080956,2,11,0.5499359965324402,3.935131788253784,11.69484311226957,11.14898572167618,46.397126511708855,40.88222466852204,3.237724376958795e-05,0.0842843055725097,0,0,0
3884,130517.26466273416,2010-08-21 02:36:40,3421.7229894525585,2,11,0.5501165986061096,3.936588764190674,11.69943004699246,11.14898572167618,46.41518040931819,40.88222466852204,3.237724376958795e-05,0.0842843055725097,0,0,0
3885,130547.28000450632,2010-08-21 02:37:10,3451.7383312046945,2,11,0.5501165986061096,3.938369512557984,11.704016976675415,11.14898572167618,46.43324137857648,40.88222466852204,3.237724376958795e-05,0.0842843055725097,0,0,0
3886,130577.2951645907,2010-08-21 02:37:40,3481.7534912890587,2,11,0.550297200679779,3.939826488494873,11.708603840745957,11.14898572167618,46.45130923058149,40.88222466852204,3.237724376958795e-05,0.0842843055725097,0,0,0
3887,130607.31053315468,2010-08-21 02:38:10,3511.768859853018,2,11,0.550297200679779,3.9414453506469727,11.713190721616291,11.14898572167618,46.46938438559663,40.88222466852204,6.47544875391759e-05,0.0842843055725097,0,0,0
3888,130637.3256586478,2010-08-21 02:38:40,3541.7839853461705,2,11,0.550297200679779,3.943226099014282,11.717777598883242,11.14898572167618,46.48746676686756,40.88222466852204,9.713172767078504e-05,0.0842843055725097,0,0,0
3889,130667.34089611504,2010-08-21 02:39:10,3571.799222813396,2,11,0.5501165986061096,3.944683074951172,11.722364548042572,11.14898572167618,46.50555685267384,40.88222466852204,6.47544875391759e-05,0.0842843055725097,0,0,0
3890,130697.35615527132,2010-08-21 02:39:40,3601.814481969678,2,11,0.550297200679779,3.946301937103272,11.726951508204044,11.14898572167618,46.52365452710574,40.88222466852204,3.237724376958795e-05,0.0842843055725097,0,0,0
3891,130727.3714198812,2010-08-21 02:40:11,3631.829746579552,2,11,0.550297200679779,3.947920799255371,11.731538427144963,11.14898572167618,46.54175948521744,40.88222466852204,0.0,0.0842843055725097,0,0,0
3892,130757.3869488349,2010-08-21 02:40:41,3661.845275538265,2,11,0.5501165986061096,3.949539661407471,11.736125283551516,11.14898572167618,46.55987193015423,40.88222466852204,3.237724376958795e-05,0.0842843055725097,0,0,0
3893,130787.40200561176,2010-08-21 02:41:11,3691.8603323201673,2,11,0.550297200679779,3.9514822959899902,11.740712210727652,11.14898572167618,46.57799251795289,40.88222466852204,6.47544875391759e-05,0.0842843055725097,0,0,0
3894,130817.41713380668,2010-08-21 02:41:41,3721.8754605100407,2,11,0.5501165986061096,3.95310115814209,11.745299160889468,11.14898572167618,46.59612109387115,40.88222466852204,3.237724376958795e-05,0.0842843055725097,0,0,0
3895,130847.43250531296,2010-08-21 02:42:11,3751.890832026359,2,11,0.5501165986061096,3.95504379272461,11.749886132158364,11.14898572167618,46.61425780637608,40.88222466852204,9.713172767078504e-05,0.0842843055725097,0,0,0
3896,130877.44765551267,2010-08-21 02:42:41,3781.9059822110494,2,11,0.5501165986061096,3.956824541091919,11.754473116509033,11.14898572167618,46.63240276060496,40.88222466852204,6.47544875391759e-05,0.0842843055725097,0,0,0
3897,130907.46289867412,2010-08-21 02:43:11,3811.921225387504,2,11,0.5501165986061096,3.958605289459229,11.759060072232437,11.14898572167618,46.65055574061362,40.88222466852204,6.47544875391759e-05,0.0842843055725097,0,0,0
3898,130937.47818725371,2010-08-21 02:43:41,3841.936513977143,2,11,0.5501165986061096,3.960386037826538,11.763647080519217,11.14898572167618,46.66871735604396,40.88222466852204,6.47544875391759e-05,0.0842843055725097,0,0,0
3899,130967.49340426495,2010-08-21 02:44:11,3871.9517309733487,2,11,0.5501165986061096,3.962166786193848,11.768233980372752,11.14898572167618,46.68688700642146,40.88222466852204,3.237724376958795e-05,0.0842843055725097,0,0,0
3900,130997.50867974192,2010-08-21 02:44:41,3901.9670064402817,2,11,0.550297200679779,3.963947534561157,11.772820932221707,11.14898572167618,46.70506533276722,40.88222466852204,3.237724376958795e-05,0.0842843055725097,0,0,0
3901,131027.52414427004,2010-08-21 02:45:11,3931.9824709784384,2,11,0.550297200679779,3.9658901691436768,11.7774079080899,11.14898572167618,46.72325235754046,40.88222466852204,3.237724376958795e-05,0.0842843055725097,0,0,0
3902,131057.53915423527,2010-08-21 02:45:41,3961.9974809386463,2,11,0.5501165986061096,3.967832803726196,11.781994931786976,11.14898572167618,46.74144817933076,40.88222466852204,6.47544875391759e-05,0.0842843055725097,0,0,0
3903,131087.5544132512,2010-08-21 02:46:11,3992.0127399495664,2,11,0.550297200679779,3.969613552093506,11.786581979073594,11.14898572167618,46.7596527399043,40.88222466852204,3.237724376958795e-05,0.0842843055725097,0,0,0
3904,131117.56966826718,2010-08-21 02:46:41,4022.027994995604,2,11,0.5501165986061096,3.971394300460816,11.791169001793442,11.14898572167618,46.77786585031971,40.88222466852204,3.237724376958795e-05,0.0842843055725097,0,0,0
3905,131147.58492548362,2010-08-21 02:47:11,4052.043252217064,2,11,0.5501165986061096,3.973498821258545,11.795756072274267,11.14898572167618,46.79608790585984,40.88222466852204,6.47544875391759e-05,0.0842843055725097,0,0,0
3906,131177.60017872014,2010-08-21 02:47:41,4082.058505418504,2,11,0.550297200679779,3.9752795696258554,11.800343041407157,11.14898572167618,46.81431830333821,40.88222466852204,6.47544875391759e-05,0.0842843055725097,0,0,0
3907,131207.61541378638,2010-08-21 02:48:11,4112.073740489759,2,11,0.550297200679779,3.977384090423584,11.80493010679063,11.14898572167618,46.83255786413919,40.88222466852204,9.713172767078504e-05,0.0842843055725097,0,0,0
3908,131237.63089574798,2010-08-21 02:48:41,4142.089222446328,2,11,0.5501165986061096,3.9791648387908936,11.80951718890133,11.14898572167618,46.85080582684771,40.88222466852204,6.47544875391759e-05,0.0842843055725097,0,0,0
3909,131267.64605725088,2010-08-21 02:49:11,4172.104383949227,2,11,0.5501165986061096,3.981107473373413,11.81410418164966,11.14898572167618,46.86906273392125,40.88222466852204,6.47544875391759e-05,0.0842843055725097,0,0,0
3910,131297.66119704465,2010-08-21 02:49:41,4202.119523748033,2,11,0.550297200679779,3.9830501079559326,11.818691079802289,11.14898572167618,46.88732810568256,40.88222466852204,6.47544875391759e-05,0.0842843055725097,0,0,0
3911,131327.67659779382,2010-08-21 02:50:11,4232.134924532296,2,11,0.5501165986061096,3.984992742538452,11.823278037145664,11.14898572167618,46.90560258351043,40.88222466852204,6.47544875391759e-05,0.0842843055725097,0,0,0
3912,131357.6918430204,2010-08-21 02:50:41,4262.150169773898,2,11,0.550297200679779,3.986935377120972,11.82786495676524,11.14898572167618,46.92388582899878,40.88222466852204,6.47544875391759e-05,0.0842843055725097,0,0,0
3913,131387.70693993734,2010-08-21 02:51:11,4292.165266635691,2,11,0.550297200679779,3.988878011703491,11.832451889009368,11.14898572167618,46.94217807900517,40.88222466852204,6.47544875391759e-05,0.0842843055725097,0,0,0
3914,131417.72219897332,2010-08-21 02:51:41,4322.180525676687,2,11,0.5501165986061096,3.9909825325012207,11.837038776829644,11.14898572167618,46.96047916324473,40.88222466852204,9.713172767078504e-05,0.0842843055725097,0,0,0
3915,131447.73744704196,2010-08-21 02:52:11,4352.195773740323,2,11,0.550297200679779,3.9927632808685294,11.841625752888076,11.14898572167618,46.978789814196105,40.88222466852204,3.237724376958795e-05,0.0842843055725097,0,0,0
3916,131477.75272104525,2010-08-21 02:52:41,4382.211047768669,2,11,0.5501165986061096,3.9948675632476807,11.846212734167196,11.14898572167618,46.997109613778434,40.88222466852204,6.47544875391759e-05,0.0842843055725097,0,0,0
3917,131507.76809411542,2010-08-21 02:53:11,4412.226420818811,2,11,0.5501165986061096,3.9968101978302,11.850799766865023,11.14898572167618,47.01543896375065,40.88222466852204,3.237724376958795e-05,0.0842843055725097,0,0,0
3918,131537.7832132628,2010-08-21 02:53:41,4442.241539966147,2,11,0.5501165986061096,3.99907660484314,11.855386738594168,11.14898572167618,47.03377736434695,40.88222466852204,9.713172767078504e-05,0.0842843055725097,0,0,0
3919,131567.79861449817,2010-08-21 02:54:11,4472.256941221583,2,11,0.550297200679779,4.001181125640869,11.859973745106036,11.14898572167618,47.05212539114963,40.88222466852204,9.70840483205393e-05,0.0842843055725097,0,0,0
3920,131597.8137354199,2010-08-21 02:54:41,4502.27206211828,2,11,0.5501165986061096,4.003285884857178,11.864560683472984,11.14898572167618,47.07048265703566,40.88222466852204,9.71794142969884e-05,0.0842843055725097,0,0,0
3921,131627.82897457134,2010-08-21 02:55:11,4532.287301269703,2,11,0.5499359965324402,4.005066394805908,11.869147573312857,11.14898572167618,47.08884935276937,40.88222466852204,3.23295607813634e-05,0.0842843055725097,0,0,0
3922,131657.8443680073,2010-08-21 02:55:41,4562.302694710664,2,11,0.5501165986061096,4.007171154022217,11.873734505197104,11.14898572167618,47.107225990593854,40.88222466852204,3.24249267578125e-05,0.0842843055725097,0,0,0
3923,131687.85948105442,2010-08-21 02:56:11,4592.317807757797,2,11,0.550297200679779,4.009599208831787,11.878321507207833,11.14898572167618,47.12561273844762,40.88222466852204,9.70840483205393e-05,0.0842843055725097,0,0,0
3924,131717.87476658143,2010-08-21 02:56:41,4622.333093279789,2,11,0.5501165986061096,4.011703968048096,11.882908458142968,11.14898572167618,47.14400920339402,40.88222466852204,3.24249267578125e-05,0.0842843055725097,0,0,0
3925,131747.89000063014,2010-08-21 02:57:11,4652.348327328496,2,11,0.5501165986061096,4.013970375061035,11.887495428256647,11.14898572167618,47.16241581747431,40.88222466852204,9.71794142969884e-05,0.0842843055725097,0,0,0
3926,131777.90526398187,2010-08-21 02:57:41,4682.363590715322,2,11,0.5501165986061096,4.016236782073975,11.892082396827956,11.14898572167618,47.18083254216136,40.88222466852204,9.71794142969884e-05,0.0842843055725097,0,0,0
3927,131807.92050078744,2010-08-21 02:58:11,4712.378827485811,2,11,0.5501165986061096,4.018341064453125,11.896669411722538,11.14898572167618,47.19925976348439,40.88222466852204,6.47544875391759e-05,0.0842843055725097,0,0,0
3928,131837.9358942334,2010-08-21 02:58:41,4742.394220956846,2,11,0.5501165986061096,4.0206074714660645,11.901256408888193,11.14898572167618,47.21769715124228,40.88222466852204,6.47544875391759e-05,0.0842843055725097,0,0,0
3929,131867.9510333706,2010-08-21 02:59:11,4772.409360068941,2,11,0.5499359965324402,4.022873878479004,11.905843295595025,11.14898572167618,47.23614461299374,40.88222466852204,3.23295607813634e-05,0.0842843055725097,0,0,0
3930,131897.96645218978,2010-08-21 02:59:41,4802.424778898177,2,11,0.5501165986061096,4.025302410125732,11.910430332305534,11.14898572167618,47.254603288665294,40.88222466852204,6.47544875391759e-05,0.0842843055725097,0,0,0
3931,131927.9815511017,2010-08-21 03:00:11,4832.439877800056,2,11,0.5504778623580933,4.027730464935303,11.91501727062942,11.14898572167618,47.27307222550774,40.88222466852204,9.70840483205393e-05,0.0842843055725097,0,0,0
3932,131957.9968216664,2010-08-21 03:00:41,4862.455148394845,2,11,0.5501165986061096,4.029835224151611,11.9196042123529,11.14898572167618,47.2915519453942,40.88222466852204,3.24249267578125e-05,0.0842843055725097,0,0,0
3933,131988.01227351296,2010-08-21 03:01:11,4892.470600231346,2,11,0.550297200679779,4.032425403594971,11.924191099112498,11.14898572167618,47.31004230073994,40.88222466852204,9.71794142969884e-05,0.0842843055725097,0,0,0
3934,132018.02725661622,2010-08-21 03:01:41,4922.485583324594,2,11,0.550297200679779,4.034853458404541,11.928777920340703,11.14898572167618,47.32854340439987,40.88222466852204,9.71794142969884e-05,0.0842843055725097,0,0,0
3935,132048.04251073996,2010-08-21 03:02:11,4952.500837463371,2,11,0.5501165986061096,4.036957740783691,11.933364820229588,11.14898572167618,47.34705588045881,40.88222466852204,3.23295607813634e-05,0.0842843055725097,0,0,0
3936,132078.0577884675,2010-08-21 03:02:41,4982.516115165875,2,11,0.550297200679779,4.03971004486084,11.93795179184646,11.14898572167618,47.36557992911237,40.88222466852204,6.47544875391759e-05,0.0842843055725097,0,0,0
3937,132108.07303400987,2010-08-21 03:03:11,5012.531360708226,2,11,0.5501165986061096,4.04213809967041,11.942538758519296,11.14898572167618,47.3841151739424,40.88222466852204,3.23295607813634e-05,0.0842843055725097,0,0,0
3938,132138.08828642435,2010-08-21 03:03:41,5042.546613127719,2,11,0.5501165986061096,4.044566631317139,11.947125682741923,11.14898572167618,47.40266170649377,40.88222466852204,3.24249267578125e-05,0.0842843055725097,0,0,0
3939,132168.10353493408,2010-08-21 03:04:11,5072.561861632454,2,11,0.5501165986061096,4.047156810760498,11.95171267096874,11.14898572167618,47.42121999888786,40.88222466852204,6.47544875391759e-05,0.0842843055725097,0,0,0
3940,132198.11882974926,2010-08-21 03:04:41,5102.57715647267,2,11,0.550297200679779,4.049746990203857,11.956299690685109,11.14898572167618,47.43979007548391,40.88222466852204,3.24249267578125e-05,0.0842843055725097,0,0,0
3941,132228.13405234943,2010-08-21 03:05:11,5132.59237904778,2,11,0.550297200679779,4.052337169647217,11.960886646772115,11.14898572167618,47.45837160755461,40.88222466852204,9.71794142969884e-05,0.0842843055725097,0,0,0
3942,132258.1493044732,2010-08-21 03:05:41,5162.6076311815605,2,11,0.5501165986061096,4.054927349090576,11.965473626490638,11.14898572167618,47.476965099065225,40.88222466852204,0.0001295089750783,0.0842843055725097,0,0,0
3943,132288.16467883158,2010-08-21 03:06:11,5192.623005544973,2,11,0.5501165986061096,4.057517528533936,11.970060603548136,11.14898572167618,47.49557052134556,40.88222466852204,9.71794142969884e-05,0.0842843055725097,0,0,0
3944,132318.18246438942,2010-08-21 03:06:41,5222.640791087788,2,11,0.5501165986061096,4.060269355773926,11.974648012432503,11.14898572167618,47.51418981743977,40.88222466852204,9.70840483205393e-05,0.0842843055725097,0,0,0
3945,132348.19507668892,2010-08-21 03:07:11,5252.653403417363,2,11,0.550297200679779,4.062697887420654,11.979234629009326,11.14898572167618,47.53281769870853,40.88222466852204,9.71794142969884e-05,0.0842843055725097,0,0,0
3946,132378.21045289695,2010-08-21 03:07:41,5282.668779605325,2,11,0.5501165986061096,4.0654497146606445,11.983821537550226,11.14898572167618,47.55145912500987,40.88222466852204,9.70840483205393e-05,0.0842843055725097,0,0,0
3947,132408.2256171567,2010-08-21 03:08:11,5312.683943885145,2,11,0.5501165986061096,4.068039894104004,11.988408401562763,11.14898572167618,47.570112791739774,40.88222466852204,3.23295607813634e-05,0.0842843055725097,0,0,0
3948,132438.2408467393,2010-08-21 03:08:41,5342.699173442657,2,11,0.5501165986061096,4.070953845977783,11.992995375676784,11.14898572167618,47.58877948781495,40.88222466852204,9.70840483205393e-05,0.0842843055725097,0,0,0
3949,132468.2561043467,2010-08-21 03:09:11,5372.714431045067,2,11,0.5501165986061096,4.073544025421143,11.997582346038731,11.14898572167618,47.60745874770434,40.88222466852204,6.47544875391759e-05,0.0842843055725097,0,0,0
3950,132498.27134101195,2010-08-21 03:09:41,5402.729667715305,2,11,0.550297200679779,4.076296329498291,12.002169315655046,11.14898572167618,47.62615076743855,40.88222466852204,3.24249267578125e-05,0.0842843055725097,0,0,0
3951,132528.28671882395,2010-08-21 03:10:11,5432.745045527314,2,11,0.5501165986061096,4.07921028137207,12.006756293589923,11.14898572167618,47.644855772917545,40.88222466852204,6.47544875391759e-05,0.0842843055725097,0,0,0
3952,132558.3018710036,2010-08-21 03:10:41,5462.76019773204,2,11,0.5501165986061096,4.0819621086120605,12.011343261949904,11.14898572167618,47.66357368407955,40.88222466852204,6.47544875391759e-05,0.0842843055725097,0,0,0
3953,132588.31710301724,2010-08-21 03:11:11,5492.775429715599,2,11,0.550297200679779,4.085038185119629,12.015930201789155,11.14898572167618,47.68230461561693,40.88222466852204,6.47544875391759e-05,0.0842843055725097,0,0,0
3954,132618.33250985158,2010-08-21 03:11:41,5522.790836554952,2,11,0.5501165986061096,4.087952136993408,12.020517174758318,11.14898572167618,47.70104893953405,40.88222466852204,9.71794142969884e-05,0.0842843055725097,0,0,0
3955,132648.34761194143,2010-08-21 03:12:12,5552.805938639764,2,11,0.5499359965324402,4.090703964233398,12.025104128036942,11.14898572167618,47.71980656403914,40.88222466852204,3.23295607813634e-05,0.0842843055725097,0,0,0
3956,132678.3630991561,2010-08-21 03:12:42,5582.821425864462,2,11,0.5501165986061096,4.093780040740967,12.029691118363154,11.14898572167618,47.73857781080165,40.88222466852204,6.47544875391759e-05,0.0842843055725097,0,0,0
3957,132708.37826075923,2010-08-21 03:13:12,5612.836587457587,2,11,0.5501165986061096,4.096855640411377,12.034278078458858,11.14898572167618,47.75736258455674,40.88222466852204,9.70840483205393e-05,0.0842843055725097,0,0,0
3958,132738.39339018718,2010-08-21 03:13:42,5642.851716890557,2,11,0.550297200679779,4.099931716918945,12.0388649660656,11.14898572167618,47.77616080653858,40.88222466852204,9.71794142969884e-05,0.0842843055725097,0,0,0
3959,132768.40876434007,2010-08-21 03:14:12,5672.867091063496,2,11,0.5501165986061096,4.102683544158936,12.043451970768752,11.14898572167618,47.79497341538266,40.88222466852204,6.47544875391759e-05,0.0842843055725097,0,0,0
3960,132798.42390869523,2010-08-21 03:14:42,5702.882235393597,2,11,0.5501165986061096,4.105921268463135,12.048038897341453,11.14898572167618,47.81379975783442,40.88222466852204,9.70840483205393e-05,0.0842843055725097,0,0,0
3961,132828.4391802875,2010-08-21 03:15:12,5732.897507010935,2,11,0.550297200679779,4.109158992767334,12.052625878966207,11.14898572167618,47.832640498787256,40.88222466852204,0.0001295089750783,0.0842843055725097,0,0,0
3962,132858.45440396536,2010-08-21 03:15:42,5762.912730663731,2,11,0.550297200679779,4.112072944641113,12.057212821527388,11.14898572167618,47.8514954095894,40.88222466852204,9.70840483205393e-05,0.0842843055725097,0,0,0
3963,132888.46967055017,2010-08-21 03:16:12,5792.92799725354,2,11,0.5499359965324402,4.1153106689453125,12.061799795610884,11.14898572167618,47.870364789808846,40.88222466852204,9.71794142969884e-05,0.0842843055725097,0,0,0
3964,132918.48495117496,2010-08-21 03:16:42,5822.94327788334,2,11,0.5499359965324402,4.118386268615723,12.066386805324392,11.14898572167618,47.88924891960458,40.88222466852204,6.47544875391759e-05,0.0842843055725097,0,0,0
3965,132948.50041391363,2010-08-21 03:17:12,5852.958740622012,2,11,0.5501165986061096,4.121786117553711,12.070973759144913,11.14898572167618,47.90814751507113,40.88222466852204,9.71794142969884e-05,0.0842843055725097,0,0,0
3966,132978.51544028975,2010-08-21 03:17:42,5882.973767008159,2,11,0.5501165986061096,4.124861717224121,12.075560724469232,11.14898572167618,47.92706096011712,40.88222466852204,6.47544875391759e-05,0.0842843055725097,0,0,0
3967,133008.53080714945,2010-08-21 03:18:12,5912.989133857845,2,11,0.550297200679779,4.128261566162109,12.080147702644211,11.14898572167618,47.94598941708774,40.88222466852204,9.71794142969884e-05,0.0842843055725097,0,0,0
3968,133038.54597350946,2010-08-21 03:18:42,5943.004300232888,2,11,0.550297200679779,4.13166093826294,12.08473466875864,11.14898572167618,47.96493293017036,40.88222466852204,0.0001295089750783,0.0842843055725097,0,0,0
3969,133068.56120376373,2010-08-21 03:19:12,5973.019530462075,2,11,0.5501165986061096,4.134737014770508,12.089321587282658,11.14898572167618,47.98389146097091,40.88222466852204,9.71794142969884e-05,0.0842843055725097,0,0,0
3970,133098.5764920727,2010-08-21 03:19:42,6003.034818831164,2,11,0.5501165986061096,4.138136386871338,12.093908507688258,11.14898572167618,48.00286536061062,40.88222466852204,9.70840483205393e-05,0.0842843055725097,0,0,0
3971,133128.59174914876,2010-08-21 03:20:12,6033.050075877186,2,11,0.550297200679779,4.141536235809326,12.098495458304471,11.14898572167618,48.02185487058114,40.88222466852204,6.47544875391759e-05,0.0842843055725097,0,0,0
3972,133158.6072226743,2010-08-21 03:20:42,6063.065549372667,2,11,0.5501165986061096,4.144935607910156,12.103082386760695,11.14898572167618,48.04085994832094,40.88222466852204,6.47544875391759e-05,0.0842843055725097,0,0,0
3973,133188.6222254466,2010-08-21 03:21:12,6093.080552144961,2,11,0.5501165986061096,4.1486592292785645,12.10766933878703,11.14898572167618,48.05988116061829,40.88222466852204,0.0001295089750783,0.0842843055725097,0,0,0
3974,133218.63748078837,2010-08-21 03:21:42,6123.095807506786,2,11,0.550297200679779,4.152220726013184,12.112256288415228,11.14898572167618,48.078918241069495,40.88222466852204,0.0001619339018361,0.0842843055725097,0,0,0
3975,133248.6527568117,2010-08-21 03:22:12,6153.111083510056,2,11,0.550297200679779,4.155458450317383,12.116843205338466,11.14898572167618,48.097971173381325,40.88222466852204,6.47544875391759e-05,0.0842843055725097,0,0,0
3976,133278.668132744,2010-08-21 03:22:42,6183.126459452405,2,11,0.5501165986061096,4.158857822418213,12.121430165907825,11.14898572167618,48.11704046805966,40.88222466852204,6.47544875391759e-05,0.0842843055725097,0,0,0
3977,133308.6832426383,2010-08-21 03:23:12,6213.141569341667,2,11,0.5501165986061096,4.162743091583252,12.126017143247935,11.14898572167618,48.13612609086215,40.88222466852204,0.0001295089750783,0.0842843055725097,0,0,0
3978,133338.69850049133,2010-08-21 03:23:42,6243.156827194701,2,11,0.550297200679779,4.166304588317871,12.13060414162,11.14898572167618,48.15522821303002,40.88222466852204,9.70840483205393e-05,0.0842843055725097,0,0,0
3979,133368.71377984295,2010-08-21 03:24:12,6273.172106551328,2,11,0.550297200679779,4.16986608505249,12.135191089273622,11.14898572167618,48.17434667395678,40.88222466852204,0.0001295089750783,0.0842843055725097,0,0,0
3980,133398.72901300443,2010-08-21 03:24:42,6303.187339702798,2,11,0.5501165986061096,4.173589706420898,12.139778032406292,11.14898572167618,48.19348182943801,40.88222466852204,0.0001295089750783,0.0842843055725097,0,0,0
3981,133428.74426607054,2010-08-21 03:25:12,6333.202592768901,2,11,0.5501165986061096,4.177151203155518,12.144364983893627,11.14898572167618,48.21263381975568,40.88222466852204,9.71794142969884e-05,0.0842843055725097,0,0,0
3982,133458.7595348508,2010-08-21 03:25:42,6363.217861549168,2,11,0.5501165986061096,4.180874347686768,12.148951952906131,11.14898572167618,48.23180284732966,40.88222466852204,0.0001295089750783,0.0842843055725097,0,0,0
3983,133488.77477633304,2010-08-21 03:26:12,6393.233103041426,2,11,0.5501165986061096,4.184759616851807,12.153538955405509,11.14898572167618,48.25098917453832,40.88222466852204,9.70840483205393e-05,0.0842843055725097,0,0,0
3984,133518.79003964466,2010-08-21 03:26:42,6423.24836634304,2,11,0.550297200679779,4.188483238220215,12.158125883797632,11.14898572167618,48.27019235063212,40.88222466852204,0.0001295089750783,0.0842843055725097,0,0,0
3985,133548.80528794893,2010-08-21 03:27:12,6453.263614647275,2,11,0.550297200679779,4.192368507385254,12.162712876789293,11.14898572167618,48.28941324848648,40.88222466852204,0.0001295089750783,0.0842843055725097,0,0,0
3986,133578.82068102897,2010-08-21 03:27:42,6483.279007737361,2,11,0.5501165986061096,4.196091651916504,12.167299918047668,11.14898572167618,48.30865188687972,40.88222466852204,9.71794142969884e-05,0.0842843055725097,0,0,0
3987,133608.83581177023,2010-08-21 03:28:12,6513.2941384735805,2,11,0.5501165986061096,4.199976921081543,12.171886812443004,11.14898572167618,48.32790756075986,40.88222466852204,0.0001295089750783,0.0842843055725097,0,0,0
3988,133609.24206099327,2010-08-21 03:28:12,6513.700387691632,2,11,0.550297200679779,4.200138568878174,12.171948894916104,11.14898572167618,48.32816830320121,40.88222466852204,0.0001295089750783,0.0842843055725097,0,0,0
3989,133639.2523700448,2010-08-21 03:28:43,30.015530312085502,3,11,0.0,4.12534761428833,12.171948894916104,11.14898572167618,48.32816830320121,40.88222466852204,-0.0003561019839253,0.0842843055725097,0,0,0
3990,133669.26758167765,2010-08-21 03:29:13,60.03074194492427,3,11,0.0,4.116119861602783,12.171948894916104,11.14898572167618,48.32816830320121,40.88222466852204,-0.0001942634553415,0.0842843055725097,0,0,0
3991,133699.28261399356,2010-08-21 03:29:43,90.0457742758876,3,11,0.0,4.110616207122803,12.171948894916104,11.14898572167618,48.32816830320121,40.88222466852204,-9.70840483205393e-05,0.0842843055725097,0,0,0
3992,133729.25132758898,2010-08-21 03:30:13,120.01448785627257,3,11,0.0,4.107216358184815,12.171948894916104,11.14898572167618,48.32816830320121,40.88222466852204,-3.24249267578125e-05,0.0842843055725097,0,0,0
3993,133729.26285665474,2010-08-21 03:30:13,0.015618977297264,4,11,0.9938735961914062,4.199653148651123,12.171953219088506,11.14898572167618,48.32818646322545,40.88222466852204,0.0,0.0842843055725097,0,0,0
3994,133730.38781975393,2010-08-21 03:30:14,1.140582081495419,4,11,0.9433029890060424,4.199653148651123,12.172254426251266,11.14898572167618,48.329451430217965,40.88222466852204,0.0,0.0842843055725097,0,0,0
3995,133732.6536940198,2010-08-21 03:30:16,3.406456377432987,4,11,0.8932742476463318,4.199653148651123,12.172831257675837,11.14898572167618,48.33187391546579,40.88222466852204,0.0,0.0842843055725097,0,0,0
3996,133735.9814965376,2010-08-21 03:30:19,6.734258865171658,4,11,0.8425230383872986,4.199653148651123,12.173632595864373,11.14898572167618,48.33523926348308,40.88222466852204,-3.23295607813634e-05,0.0842843055725097,0,0,0
3997,133740.4033156013,2010-08-21 03:30:24,11.156077948887996,4,11,0.7923136353492737,4.199653148651123,12.1746356730484,11.14898572167618,48.339451851877,40.88222466852204,0.0,0.0842843055725097,0,0,0
3998,133745.93450899713,2010-08-21 03:30:29,16.68727133972362,4,11,0.742284893989563,4.199653148651123,12.175813254542934,11.14898572167618,48.344397319521526,40.88222466852204,0.0,0.0842843055725097,0,0,0
3999,133753.01255849935,2010-08-21 03:30:36,23.76532082690706,4,11,0.6922560930252075,4.199653148651123,12.177221656513971,11.14898572167618,48.35031216331448,40.88222466852204,-3.23295607813634e-05,0.0842843055725097,0,0,0
4000,133762.3561655982,2010-08-21 03:30:46,33.10892794079089,4,11,0.6422273516654968,4.199653148651123,12.178950240890304,11.14898572167618,48.357571670906985,40.88222466852204,3.24249267578125e-05,0.0842843055725097,0,0,0
4001,133775.02802567254,2010-08-21 03:30:58,45.78078799508005,4,11,0.5921985507011414,4.199653148651123,12.181117832411482,11.14898572167618,48.366674879853264,40.88222466852204,0.0,0.0842843055725097,0,0,0
4002,133793.52767884042,2010-08-21 03:31:17,64.2804411679879,4,11,0.5421698093414307,4.199653148651123,12.184024360987545,11.14898572167618,48.37888140645805,40.88222466852204,0.0,0.0842843055725097,0,0,0
4003,133822.74622182487,2010-08-21 03:31:46,93.49898416746352,4,11,0.4919604361057281,4.199653148651123,12.188207062732298,11.14898572167618,48.3964474956458,40.88222466852204,0.0,0.0842843055725097,0,0,0
4004,133872.1829655816,2010-08-21 03:32:36,142.93572790416115,4,11,0.441931664943695,4.199653148651123,12.194594509137929,11.14898572167618,48.42327284722858,40.88222466852204,0.0,0.0842843055725097,0,0,0
4005,133949.43203722208,2010-08-21 03:33:53,220.18479953962185,4,11,0.391902893781662,4.199653148651123,12.203512558953609,11.14898572167618,48.46072593527816,40.88222466852204,-6.47544875391759e-05,0.0842843055725097,0,0,0
4006,134052.43075282327,2010-08-21 03:35:36,323.18351514582497,4,11,0.3418741226196289,4.199814796447754,12.21398846833786,11.14898572167618,48.50472159258713,40.88222466852204,0.0,0.0842843055725097,0,0,0
4007,134177.61671273914,2010-08-21 03:37:41,448.3694750566797,4,11,0.2918453514575958,4.199653148651123,12.224991499479932,11.14898572167618,48.5509309920631,40.88222466852204,0.0,0.0842843055725097,0,0,0
4008,134330.19308911063,2010-08-21 03:40:14,600.9458514181499,4,11,0.2418165802955627,4.199491024017334,12.23628279615837,11.14898572167618,48.59835105276354,40.88222466852204,-3.24249267578125e-05,0.0842843055725097,0,0,0
4009,134520.7531243824,2010-08-21 03:43:24,791.505886689904,4,11,0.1917878091335296,4.199653148651123,12.24772108437564,11.14898572167618,48.64638844077166,40.88222466852204,0.0,0.0842843055725097,0,0,0
4010,134774.2032335892,2010-08-21 03:47:38,1044.9559959067212,4,11,0.1417590379714965,4.199653148651123,12.2593692856971,11.14898572167618,48.69530687324544,40.88222466852204,0.0,0.0842843055725097,0,0,0
4011,135151.37036940307,2010-08-21 03:53:55,1422.123131720596,4,11,0.0917302668094635,4.199653148651123,12.27140848695504,11.14898572167618,48.745867883161374,40.88222466852204,-3.23295607813634e-05,0.0842843055725097,0,0,0
4012,135712.85054412158,2010-08-21 04:03:16,1983.6033064391247,4,11,0.0498289167881011,4.199653148651123,12.282145956743298,11.14898572167618,48.79096204255679,40.88222466852204,0.0,0.0842843055725097,0,0,0
4013,135742.868031795,2010-08-21 04:03:46,30.01517918697369,5,11,0.0,4.192692279815674,12.282145956743298,11.14898572167618,48.79096204255679,40.88222466852204,-6.47544875391759e-05,0.0842843055725097,0,0,0
4014,135772.86764639523,2010-08-21 04:04:16,60.01479376715815,5,11,0.0,4.191558837890625,12.282145956743298,11.14898572167618,48.79096204255679,40.88222466852204,-6.47544875391759e-05,0.0842843055725097,0,0,0
4015,135773.06087021576,2010-08-21 04:04:17,0.187512975030075,6,11,-1.9243103452026844e-05,4.191558837890625,12.282145956743298,11.148985722678496,48.79096204255679,40.88222467272329,0.0,0.0889859497547149,0,0,0
4016,135777.88824474343,2010-08-21 04:04:22,5.014887407461673,6,11,0.0008838032954372,4.191720962524414,12.282146845452658,11.148985722764374,48.79096576775803,40.88222467308327,-3.23295607813634e-05,0.0889859497547149,0,0,0
4017,135807.90980023224,2010-08-21 04:04:52,30.01511514235479,7,11,-1.0997490882873535,4.036957740783691,12.282146845452658,11.158154925576095,48.79096576775803,40.919415569632285,-0.0008418083307333,0.0889859497547149,0,0,0
4018,135837.92504498258,2010-08-21 04:05:22,60.03035990777013,7,11,-1.099568486213684,4.013808250427246,12.282146845452658,11.167324173818242,48.79096576775803,40.95631647182773,-0.0004857063177041,0.0889859497547149,0,0,0
4019,135867.9403354018,2010-08-21 04:05:52,90.04565030691879,7,11,-1.0997490882873535,3.99778151512146,12.282146845452658,11.17649340376266,48.79096576775803,40.99304218983525,-0.0003561496851034,0.0889859497547149,0,0,0
4020,135897.95556817733,2010-08-21 04:06:22,120.06088307743916,7,11,-1.0997490882873535,3.985316514968872,12.282146845452658,11.185662608877418,48.79096576775803,41.02963938194216,-0.0002913951757363,0.0889859497547149,0,0,0
4021,135927.9709572173,2010-08-21 04:06:52,150.07627211743113,7,11,-1.0997490882873535,3.9744701385498047,12.282146845452658,11.194831646554304,48.79096576775803,41.0661304351359,-0.0002590179501567,0.0889859497547149,0,0,0
4022,135957.9860792569,2010-08-21 04:07:22,180.09139418203833,7,11,-1.0997490882873535,3.964918851852417,12.282146845452658,11.204000483299453,48.79096576775803,41.102528042468485,-0.0002590179501567,0.0889859497547149,0,0,0
4023,135988.00136983144,2010-08-21 04:07:52,210.10668473156176,7,11,-1.099929690361023,3.955853223800659,12.282146845452658,11.213169299205328,48.79096576775803,41.138840327104994,-0.0002590179501567,0.0889859497547149,0,0,0
4024,136018.01659732885,2010-08-21 04:08:22,240.1219122489898,7,11,-1.0997490882873535,3.947435140609741,12.282146845452658,11.222338148324472,48.79096576775803,41.17507239032717,-0.0002590179501567,0.0889859497547149,0,0,0
4025,136048.03185576832,2010-08-21 04:08:52,270.13717066843515,7,11,-1.099568486213684,3.939178943634033,12.282146845452658,11.231507163492996,48.79096576775803,41.21122831600939,-0.0001942634553415,0.0889859497547149,0,0,0
4026,136078.04711217777,2010-08-21 04:09:22,300.152427077871,7,11,-1.099568486213684,3.931246519088745,12.282146845452658,11.240676259644422,48.79096576775803,41.247310046968,-0.0001942634553415,0.0889859497547149,0,0,0
4027,136108.06239806066,2010-08-21 04:09:52,330.1677129507388,7,11,-1.0997490882873535,3.923314094543457,12.282146845452658,11.249845415905472,48.79096576775803,41.28331944167162,-0.0002266406954731,0.0889859497547149,0,0,0
4028,136138.07776710583,2010-08-21 04:10:22,360.1830820059225,7,11,-1.0997490882873535,3.915705442428589,12.282146845452658,11.259014648094256,48.79096576775803,41.31925823255888,-0.0001942634553415,0.0889859497547149,0,0,0
4029,136168.09302154536,2010-08-21 04:10:52,390.1983364454486,7,11,-1.099568486213684,3.9082589149475098,12.282146845452658,11.26818382843199,48.79096576775803,41.35512743227034,-0.0001618862152099,0.0889859497547149,0,0,0
4030,136198.10818692792,2010-08-21 04:11:22,420.2135018681174,7,11,-1.0997490882873535,3.9006502628326416,12.282146845452658,11.277352980766691,48.79096576775803,41.39092815200915,-0.0001942634553415,0.0889859497547149,0,0,0
4031,136228.1234200844,2010-08-21 04:11:52,450.2287349694623,7,11,-1.0997490882873535,3.893689155578613,12.282146845452658,11.2865220714412,48.79096576775803,41.42666143941887,-0.0001618862152099,0.0889859497547149,0,0,0
4032,136258.13864837875,2010-08-21 04:12:22,480.2439632888892,7,11,-1.0997490882873535,3.886404275894165,12.282146845452658,11.295691154330562,48.79096576775803,41.46232878044552,-0.0001618862152099,0.0889859497547149,0,0,0
4033,136288.15389784588,2010-08-21 04:12:52,510.25921277106016,7,11,-1.0997490882873535,3.879281282424927,12.282146845452658,11.30486035135567,48.79096576775803,41.49793114399024,-0.0001942634553415,0.0889859497547149,0,0,0
4034,136318.1692039642,2010-08-21 04:13:22,540.2745188693359,7,11,-1.0997490882873535,3.8723201751708975,12.282146845452658,11.314029580495196,48.79096576775803,41.53346900073313,-0.0001618862152099,0.0889859497547149,0,0,0
4035,136348.18448448376,2010-08-21 04:13:52,570.2897993838491,7,11,-1.0997490882873535,3.86535906791687,12.282146845452658,11.323198786932968,48.79096576775803,41.56894302023364,-0.0001942634553415,0.0889859497547149,0,0,0
4036,136378.19980303306,2010-08-21 04:14:22,600.3051179882939,7,11,-1.0997490882873535,3.858559846878052,12.282146845452658,11.332367999041631,48.79096576775803,41.604354317183045,-0.0001618862152099,0.0889859497547149,0,0,0
4037,136408.21502644024,2010-08-21 04:14:52,630.3203413403405,7,11,-1.0997490882873535,3.8519225120544434,12.282146845452658,11.341537179612237,48.79096576775803,41.639703535482106,-0.0001618862152099,0.0889859497547149,0,0,0
4038,136438.23024224347,2010-08-21 04:15:22,660.3355571485856,7,11,-1.099929690361023,3.845123291015625,12.282146845452658,11.350706375686828,48.79096576775803,41.674991775584566,-0.0001942634553415,0.0889859497547149,0,0,0
4039,136468.24550392604,2010-08-21 04:15:52,690.3508188311638,7,11,-1.099568486213684,3.838809728622437,12.282146845452658,11.359875518180267,48.79096576775803,41.71021972097298,-0.0001618862152099,0.0889859497547149,0,0,0
4040,136498.26075730793,2010-08-21 04:16:22,720.3660722230791,7,11,-1.0997490882873535,3.832334518432617,12.282146845452658,11.369044693129783,48.79096576775803,41.745388338061005,-0.0002265930233988,0.0889859497547149,0,0,0
4041,136528.27603300044,2010-08-21 04:16:52,750.3813479055493,7,11,-1.0997490882873535,3.826182842254639,12.282146845452658,11.378213877325749,48.79096576775803,41.78049865210279,-0.0001618862152099,0.0889859497547149,0,0,0
4042,136558.2912762621,2010-08-21 04:17:22,780.3965911672168,7,11,-1.099929690361023,3.81986927986145,12.282146845452658,11.387383080741968,48.79096576775803,41.815551345933336,-0.0001295089750783,0.0889859497547149,0,0,0
4043,136588.3065595134,2010-08-21 04:17:52,810.4118744135384,7,11,-1.0997490882873535,3.813717603683472,12.282146845452658,11.39655233438062,48.79096576775803,41.850547741934015,-0.0001295089750783,0.0889859497547149,0,0,0
4044,136618.32206171044,2010-08-21 04:18:22,840.4273766606774,7,11,-1.099929690361023,3.807404041290283,12.282146845452658,11.405721560460496,48.79096576775803,41.88548784799044,-0.0001942634553415,0.0889859497547149,0,0,0
4045,136648.3371972035,2010-08-21 04:18:52,870.4425121136526,7,11,-1.0997490882873535,3.8015761375427246,12.282146845452658,11.414890718169264,48.79096576775803,41.92037278707318,-0.0001618862152099,0.0889859497547149,0,0,0
4046,136678.35230648628,2010-08-21 04:19:22,900.4576213863783,7,11,-1.0997490882873535,3.795910120010376,12.282146845452658,11.424059808547447,48.79096576775803,41.95520371623383,-0.0001618862152099,0.0889859497547149,0,0,0
4047,136708.3675771813,2010-08-21 04:19:52,930.4728920814182,7,11,-1.099568486213684,3.7900822162628174,12.282146845452658,11.433229051432273,48.79096576775803,41.98998222595465,-0.0001618862152099,0.0889859497547149,0,0,0
4048,136738.38295560484,2010-08-21 04:20:22,960.4882705049508,7,11,-1.0997490882873535,3.7844161987304688,12.282146845452658,11.442398326178328,48.79096576775803,42.02470888493512,-0.0001942634553415,0.0889859497547149,0,0,0
4049,136768.39809865173,2010-08-21 04:20:52,990.5034135418274,7,11,-1.0997490882873535,3.77891206741333,12.282146845452658,11.451567590723425,48.79096576775803,42.05938434006101,-0.0001618862152099,0.0889859497547149,0,0,0
4050,136798.41346820316,2010-08-21 04:21:22,1020.5187831132978,7,11,-1.0997490882873535,3.773407936096192,12.282146845452658,11.460736829977089,48.79096576775803,42.094009529240125,-0.0001618862152099,0.0889859497547149,0,0,0
4051,136828.42876013112,2010-08-21 04:21:52,1050.534075056294,7,11,-1.099568486213684,3.768065690994263,12.282146845452658,11.469906099714557,48.79096576775803,42.1285853921608,-0.0001942634553415,0.0889859497547149,0,0,0
4052,136858.44398740795,2010-08-21 04:22:22,1080.549302318085,7,11,-1.0997490882873535,3.762885332107544,12.282146845452658,11.479075332094888,48.79096576775803,42.16311284006546,-0.0001618862152099,0.0889859497547149,0,0,0
4053,136888.45912929196,2010-08-21 04:22:52,1110.5644442020882,7,11,-1.0997490882873535,3.757866859436035,12.282146845452658,11.488244586394964,48.79096576775803,42.1975927554546,-0.0001295089750783,0.0889859497547149,0,0,0
4054,136918.47436631308,2010-08-21 04:23:22,1140.5796812131775,7,11,-1.0997490882873535,3.752686738967896,12.282146845452658,11.497413880542473,48.79096576775803,42.23202625166011,-0.0001618385285837,0.0889859497547149,0,0,0
4055,136948.48978731773,2010-08-21 04:23:52,1170.59510224791,7,11,-1.099568486213684,3.7478301525115967,12.282146845452658,11.506582736441942,48.79096576775803,42.26641230810444,-0.0001295089750783,0.0889859497547149,0,0,0
4056,136978.50488539756,2010-08-21 04:24:22,1200.610200297665,7,11,-1.099568486213684,3.742973566055298,12.282146845452658,11.515751067092369,48.79096576775803,42.30075171676418,-0.0001618862152099,0.0889859497547149,0,0,0
4057,137008.52016919522,2010-08-21 04:24:52,1230.625484095361,7,11,-1.0997490882873535,3.738278865814209,12.282146845452658,11.524919621304177,48.79096576775803,42.33504792478062,-0.0001295089750783,0.0889859497547149,0,0,0
4058,137038.53560406948,2010-08-21 04:25:22,1260.6409190898858,7,11,-1.099568486213684,3.73358416557312,12.282146845452658,11.534088126538478,48.79096576775803,42.36930081325158,-0.0001295089750783,0.0889859497547149,0,0,0
4059,137068.55332370804,2010-08-21 04:25:52,1290.6586386081465,7,11,-1.099568486213684,3.7288894653320312,12.282146845452658,11.543257296537236,48.79096576775803,42.403513742778976,-0.0001295089750783,0.0889859497547149,0,0,0
4060,137098.56607392628,2010-08-21 04:26:22,1320.6713888313952,7,11,-1.099568486213684,3.724680423736572,12.282146845452658,11.552424934305268,48.79096576775803,42.43768004077118,-9.713172767078504e-05,0.0889859497547149,0,0,0
4061,137128.58121303335,2010-08-21 04:26:52,1350.6865279485023,7,11,-1.099929690361023,3.720147609710693,12.282146845452658,11.561593531998389,48.79096576775803,42.47180892075975,-9.713172767078504e-05,0.0889859497547149,0,0,0
4062,137158.5964785555,2010-08-21 04:27:22,1380.701793460625,7,11,-1.0997490882873535,3.715776681900024,12.282146845452658,11.570762680667844,48.79096576775803,42.50589949502621,-0.0001295089750783,0.0889859497547149,0,0,0
4063,137188.61174367162,2010-08-21 04:27:52,1410.717058571748,7,11,-1.0997490882873535,3.711405754089356,12.282146845452658,11.579931831360849,48.79096576775803,42.539950671820826,-0.0001295089750783,0.0889859497547149,0,0,0
4064,137218.6269844421,2010-08-21 04:28:22,1440.7322993422067,7,11,-1.099568486213684,3.7073585987091056,12.282146845452658,11.589101004496303,48.79096576775803,42.57396322723413,-9.713172767078504e-05,0.0889859497547149,0,0,0
4065,137248.64226895155,2010-08-21 04:28:52,1470.747583876739,7,11,-1.0997490882873535,3.703149557113648,12.282146845452658,11.598270180813804,48.79096576775803,42.607937678267376,-0.0001295089750783,0.0889859497547149,0,0,0
4066,137278.65762895418,2010-08-21 04:29:22,1500.7629438643237,7,11,-1.0997490882873535,3.6991024017333984,12.282146845452658,11.607439308733415,48.79096576775803,42.64187440225725,-0.0001295089750783,0.0889859497547149,0,0,0
4067,137308.67277812134,2010-08-21 04:29:52,1530.778093046516,7,11,-1.099929690361023,3.69521713256836,12.282146845452658,11.616608279022898,48.79096576775803,42.67577367917541,-9.713172767078504e-05,0.0889859497547149,0,0,0
4068,137338.68803729265,2010-08-21 04:30:22,1560.7933521927728,7,11,-1.0997490882873535,3.69133186340332,12.282146845452658,11.625777386186162,48.79096576775803,42.70963721825349,-6.47544875391759e-05,0.0889859497547149,0,0,0
4069,137368.70329862938,2010-08-21 04:30:52,1590.808613534501,7,11,-1.099568486213684,3.687446594238281,12.282146845452658,11.634946473520932,48.79096576775803,42.74346490264976,-6.47544875391759e-05,0.0889859497547149,0,0,0
4070,137398.71854953008,2010-08-21 04:31:23,1620.8238644352075,7,11,-1.0997490882873535,3.683561325073242,12.282146845452658,11.644115582758872,48.79096576775803,42.77725780495148,-9.713172767078504e-05,0.0889859497547149,0,0,0
4071,137428.7340947744,2010-08-21 04:31:53,1650.839409679509,7,11,-1.0997490882873535,3.679837942123413,12.282146845452658,11.653284810577867,48.79096576775803,42.811016824737216,-0.0001295089750783,0.0889859497547149,0,0,0
4072,137458.74921348062,2010-08-21 04:32:23,1680.8545283807334,7,11,-1.0997490882873535,3.676276445388794,12.282146845452658,11.6624539144386,48.79096576775803,42.844741611912205,-9.713172767078504e-05,0.0889859497547149,0,0,0
4073,137488.7643990435,2010-08-21 04:32:53,1710.8697139435978,7,11,-1.0997490882873535,3.6728768348693848,12.282146845452658,11.671623088627204,48.79096576775803,42.87843366560912,-6.47544875391759e-05,0.0889859497547149,0,0,0
4074,137518.7796175685,2010-08-21 04:33:23,1740.8849324736266,7,11,-1.099568486213684,3.6693155765533447,12.282146845452658,11.680792244039171,48.79096576775803,42.91209323469007,-6.47544875391759e-05,0.0889859497547149,0,0,0
4075,137548.79491131098,2010-08-21 04:33:53,1770.9002262110955,7,11,-1.0997490882873535,3.6657540798187256,12.282146845452658,11.689961399512912,48.79096576775803,42.94572110664422,-9.713172767078504e-05,0.0889859497547149,0,0,0
4076,137578.810105365,2010-08-21 04:34:23,1800.9154202651223,7,11,-1.0997490882873535,3.662354469299317,12.282146845452658,11.699130523064648,48.79096576775803,42.97931783662147,-9.713172767078504e-05,0.0889859497547149,0,0,0
4077,137608.8253902354,2010-08-21 04:34:53,1830.9307051354915,7,11,-1.0997490882873535,3.659116744995117,12.282146845452658,11.708299639671331,48.79096576775803,43.012883962517925,-9.713172767078504e-05,0.0889859497547149,0,0,0
4078,137638.84063537672,2010-08-21 04:35:23,1860.9459502818563,7,11,-1.0997490882873535,3.656040906906128,12.282146845452658,11.717468828465822,48.79096576775803,43.04642052576604,-6.47544875391759e-05,0.0889859497547149,0,0,0
4079,137668.85604270227,2010-08-21 04:35:53,1890.961357612434,7,11,-1.0997490882873535,3.6528031826019287,12.282146845452658,11.7266380397054,48.79096576775803,43.07992834979827,-9.713172767078504e-05,0.0889859497547149,0,0,0
4080,137698.871269538,2010-08-21 04:36:23,1920.9765844431504,7,11,-1.099929690361023,3.6495654582977295,12.282146845452658,11.73580721547485,48.79096576775803,43.1134077903313,-0.0001295089750783,0.0889859497547149,0,0,0
4081,137728.88644469497,2010-08-21 04:36:53,1950.99175960008,7,11,-1.0997490882873535,3.64697527885437,12.282146845452658,11.744976375054778,48.79096576775803,43.146859689056086,-3.237724376958795e-05,0.0889859497547149,0,0,0
4082,137758.9016702675,2010-08-21 04:37:23,1981.0069851776736,7,11,-1.099568486213684,3.644061326980591,12.282146845452658,11.75414549026092,48.79096576775803,43.18028403190311,-6.47544875391759e-05,0.0889859497547149,0,0,0
4083,137788.91693827588,2010-08-21 04:37:53,2011.0222531759923,7,11,-1.0997490882873535,3.641147375106812,12.282146845452658,11.763314574024644,48.79096576775803,43.2136826391468,-6.47544875391759e-05,0.0889859497547149,0,0,0
4084,137818.93219124674,2010-08-21 04:38:23,2041.0375061518707,7,11,-1.0997490882873535,3.638395309448242,12.282146845452658,11.772483694583018,48.79096576775803,43.24705609552328,-6.47544875391759e-05,0.0889859497547149,0,0,0
4085,137848.94745785158,2010-08-21 04:38:53,2071.052772756717,7,11,-1.099929690361023,3.635805130004883,12.282146845452658,11.781652805527658,48.79096576775803,43.28040502174554,-6.47544875391759e-05,0.0889859497547149,0,0,0
4086,137878.9628090723,2010-08-21 04:39:23,2101.0681241178013,7,11,-1.099568486213684,3.633214950561523,12.282146845452658,11.79082191759127,48.79096576775803,43.31372991054813,-3.237724376958795e-05,0.0889859497547149,0,0,0
4087,137908.97823017222,2010-08-21 04:39:53,2131.083545102409,7,11,-1.0997490882873535,3.630624771118164,12.282146845452658,11.7999910780774,48.79096576775803,43.34703144732645,-9.713172767078504e-05,0.0889859497547149,0,0,0
4088,137938.99323616255,2010-08-21 04:40:23,2161.0985510626488,7,11,-1.0997490882873535,3.628196477890015,12.282146845452658,11.8091601261184,48.79096576775803,43.380309452561136,-3.237724376958795e-05,0.0889859497547149,0,0,0
4089,137969.00849989022,2010-08-21 04:40:53,2191.113814790323,7,11,-1.0997490882873535,3.6256062984466553,12.282146845452658,11.818329200939017,48.79096576775803,43.413564751795015,-6.47544875391759e-05,0.0889859497547149,0,0,0
4090,137999.02375602396,2010-08-21 04:41:23,2221.1290709240725,7,11,-1.099568486213684,3.623178005218506,12.282146845452658,11.827498275296945,48.79096576775803,43.44679764854085,-6.47544875391759e-05,0.0889859497547149,0,0,0
4091,138029.03905005718,2010-08-21 04:41:53,2251.14436496229,7,11,-1.0997490882873535,3.6209115982055664,12.282146845452658,11.836667430026118,48.79096576775803,43.48000834856,-3.237724376958795e-05,0.0889859497547149,0,0,0
4092,138059.05439611504,2010-08-21 04:42:23,2281.1597110201583,7,11,-1.0997490882873535,3.618321418762207,12.282146845452658,11.84583655235356,48.79096576775803,43.513196591558746,-6.47544875391759e-05,0.0889859497547149,0,0,0
4093,138089.06968401794,2010-08-21 04:42:53,2311.174998923085,7,11,-1.0997490882873535,3.616055011749268,12.282146845452658,11.855005759971574,48.79096576775803,43.54636253114339,-3.237724376958795e-05,0.0889859497547149,0,0,0
4094,138119.08479070925,2010-08-21 04:43:23,2341.190105614377,7,11,-1.099929690361023,3.613302946090698,12.282146845452658,11.86417483492628,48.79096576775803,43.57950557219408,-3.237724376958795e-05,0.0889859497547149,0,0,0
4095,138149.10019674158,2010-08-21 04:43:53,2371.20551166677,7,11,-1.0997490882873535,3.610874652862549,12.282146845452658,11.873343968980844,48.79096576775803,43.612626208357526,-9.713172767078504e-05,0.0889859497547149,0,0,0
4096,138179.11526494697,2010-08-21 04:44:23,2401.2205798470804,7,11,-1.099568486213684,3.6084463596344,12.282146845452658,11.882513016128978,48.79096576775803,43.64572368103655,-6.47544875391759e-05,0.0889859497547149,0,0,0
4097,138209.13059031326,2010-08-21 04:44:53,2431.235905213378,7,11,-1.0997490882873535,3.60585618019104,12.282146845452658,11.891682217122026,48.79096576775803,43.678798336990006,-6.47544875391759e-05,0.0889859497547149,0,0,0
4098,138239.14583389575,2010-08-21 04:45:23,2461.2511488108826,7,11,-1.099568486213684,3.60342788696289,12.282146845452658,11.900851295906572,48.79096576775803,43.711849028558845,-3.237724376958795e-05,0.0889859497547149,0,0,0
4099,138269.16111348796,2010-08-21 04:45:53,2491.2664283780346,7,11,-1.0997490882873535,3.6006758213043213,12.282146845452658,11.910020430107036,48.79096576775803,43.74487603047445,-6.47544875391759e-05,0.0889859497547149,0,0,0
4100,138299.1764400071,2010-08-21 04:46:23,2521.281754912243,7,11,-1.0997490882873535,3.597923755645752,12.282146845452658,11.91918960485566,48.79096576775803,43.77787881136848,-9.713172767078504e-05,0.0889859497547149,0,0,0
4101,138329.191758787,2010-08-21 04:46:53,2551.2970736971374,7,11,-1.099568486213684,3.5951716899871826,12.282146845452658,11.928358806625788,48.79096576775803,43.81085682318693,-9.713172767078504e-05,0.0889859497547149,0,0,0
4102,138359.20693785365,2010-08-21 04:47:23,2581.312252753786,7,11,-1.0997490882873535,3.5924196243286133,12.282146845452658,11.937527927519197,48.79096576775803,43.8438091464983,-9.713172767078504e-05,0.0889859497547149,0,0,0
4103,138389.22214552163,2010-08-21 04:47:53,2611.327460426756,7,11,-1.0997490882873535,3.589505910873413,12.282146845452658,11.946697102815888,48.79096576775803,43.87673554851997,-9.713172767078504e-05,0.0889859497547149,0,0,0
4104,138419.23740380575,2010-08-21 04:48:23,2641.342718705851,7,11,-1.099568486213684,3.586753845214844,12.282146845452658,11.955866280880771,48.79096576775803,43.909635275680806,-3.237724376958795e-05,0.0889859497547149,0,0,0
4105,138449.25266345826,2010-08-21 04:48:53,2671.357978373408,7,11,-1.0997490882873535,3.5835161209106445,12.282146845452658,11.965035466799304,48.79096576775803,43.94250768683549,-9.713172767078504e-05,0.0889859497547149,0,0,0
4106,138479.26792260955,2010-08-21 04:49:23,2701.373237514652,7,11,-1.099568486213684,3.580602169036865,12.282146845452658,11.974204625829085,48.79096576775803,43.97535195252401,-3.237724376958795e-05,0.0889859497547149,0,0,0
4107,138509.2832270186,2010-08-21 04:49:53,2731.388541943767,7,11,-1.099568486213684,3.577364444732666,12.282146845452658,11.983373854472392,48.79096576775803,44.00816746192962,-6.47544875391759e-05,0.0889859497547149,0,0,0
4108,138539.2985602545,2010-08-21 04:50:23,2761.403875144591,7,11,-1.099929690361023,3.573964834213257,12.282146845452658,11.992543047037069,48.79096576775803,44.04095289209631,-6.47544875391759e-05,0.0889859497547149,0,0,0
4109,138569.31385540552,2010-08-21 04:50:53,2791.4191703406955,7,11,-1.0997490882873535,3.570565223693848,12.282146845452658,12.001712227692344,48.79096576775803,44.07370727891679,-9.713172767078504e-05,0.0889859497547149,0,0,0
4110,138599.3289676306,2010-08-21 04:51:23,2821.434282520667,7,11,-1.0997490882873535,3.5670037269592285,12.282146845452658,12.01088138042393,48.79096576775803,44.10642961214115,-6.47544875391759e-05,0.0889859497547149,0,0,0
4111,138629.3442298996,2010-08-21 04:51:53,2851.449544804744,7,11,-1.099568486213684,3.5634422302246094,12.282146845452658,12.02005058085566,48.79096576775803,44.139118873010666,0.0,0.0889859497547149,0,0,0
4112,138659.3596091151,2010-08-21 04:52:23,2881.464924015238,7,11,-1.099929690361023,3.5593950748443604,12.282146845452658,12.029219778062446,48.79096576775803,44.17177447939264,-9.713172767078504e-05,0.0889859497547149,0,0,0
4113,138689.37473250303,2010-08-21 04:52:53,2911.4800474181807,7,11,-1.099568486213684,3.5555098056793213,12.282146845452658,12.038388930603215,48.79096576775803,44.20439380303856,-9.713172767078504e-05,0.0889859497547149,0,0,0
4114,138719.39003615017,2010-08-21 04:53:23,2941.4953510553228,7,11,-1.0997490882873535,3.5513007640838623,12.282146845452658,12.047558113151169,48.79096576775803,44.23697593640103,-9.713172767078504e-05,0.0889859497547149,0,0,0
4115,138749.4052664345,2010-08-21 04:53:53,2971.510581334634,7,11,-1.099568486213684,3.5472536087036133,12.282146845452658,12.056727306313595,48.79096576775803,44.26951917922708,-9.713172767078504e-05,0.0889859497547149,0,0,0
4116,138779.42064108865,2010-08-21 04:54:23,3001.525955998797,7,11,-1.099568486213684,3.5425589084625244,12.282146845452658,12.065896539693457,48.79096576775803,44.30202223350837,-0.0001295089750783,0.0889859497547149,0,0,0
4117,138809.43577410054,2010-08-21 04:54:53,3031.5410890056755,7,11,-1.099929690361023,3.5377023220062256,12.282146845452658,12.07506575111688,48.79096576775803,44.33448358253665,-0.0001942634553415,0.0889859497547149,0,0,0
4118,138839.45103527186,2010-08-21 04:55:23,3061.55635017698,7,11,-1.0997490882873535,3.5333313941955566,12.282146845452658,12.08423496220907,48.79096576775803,44.36690188812081,-6.47544875391759e-05,0.0889859497547149,0,0,0
4119,138869.4665333085,2010-08-21 04:55:53,3091.571848208612,7,11,-1.099929690361023,3.528151035308838,12.282146845452658,12.093404297535264,48.79096576775803,44.39927652392609,-0.0001295089750783,0.0889859497547149,0,0,0
4120,138899.48158166942,2010-08-21 04:56:23,3121.5868965595014,7,11,-1.0997490882873535,3.523294448852539,12.282146845452658,12.102573520410054,48.79096576775803,44.43160556338107,-0.0001618862152099,0.0889859497547149,0,0,0
4121,138929.49697649883,2010-08-21 04:56:53,3151.602291408973,7,11,-1.0997490882873535,3.5182759761810303,12.282146845452658,12.111742780099132,48.79096576775803,44.463887946884746,-0.0001295089750783,0.0889859497547149,0,0,0
4122,138959.51221280315,2010-08-21 04:57:23,3181.6175277082884,7,11,-1.099929690361023,3.512448072433472,12.282146845452658,12.120912044153,48.79096576775803,44.49612160966418,-0.0001942634553415,0.0889859497547149,0,0,0
4123,138989.52789619178,2010-08-21 04:57:53,3211.633211091875,7,11,-1.0997490882873535,3.506782293319702,12.282146845452658,12.130081406832137,48.79096576775803,44.52830386207352,-0.0001618862152099,0.0889859497547149,0,0,0
4124,139019.5301281603,2010-08-21 04:58:23,3241.635443050372,7,11,-1.0997490882873535,3.5004687309265137,12.282146845452658,12.13924665285228,48.79096576775803,44.5604157527813,-0.0001618862152099,0.0889859497547149,0,0,0
4125,139049.54227986184,2010-08-21 04:58:53,3271.647594766958,7,11,-1.099929690361023,3.493183851242065,12.282146845452658,12.14841495064776,48.79096576775803,44.59247724949677,-0.0002266406954731,0.0889859497547149,0,0,0
4126,139079.55756353925,2010-08-21 04:59:23,3301.662878439341,7,11,-1.0997490882873535,3.4854133129119877,12.282146845452658,12.157584171222062,48.79096576775803,44.62447353070243,-0.0002266406954731,0.0889859497547149,0,0,0
4127,139109.57277633497,2010-08-21 04:59:53,3331.678091235078,7,11,-1.0997490882873535,3.476347684860229,12.282146845452658,12.166753328584564,48.79096576775803,44.656391839897424,-0.0002590179501567,0.0889859497547149,0,0,0
4128,139139.5880781676,2010-08-21 05:00:23,3361.6933931880226,7,11,-1.099929690361023,3.465663194656372,12.282146845452658,12.175922447750615,48.79096576775803,44.68821951817981,-0.0003237724304199,0.0889859497547149,0,0,0
4129,139169.60328862752,2010-08-21 05:00:53,3391.708603547688,7,11,-1.0997490882873535,3.4523885250091557,12.282146845452658,12.185091518952053,48.79096576775803,44.719938147903314,-0.0004209041653666,0.0889859497547149,0,0,0
4130,139199.61858657046,2010-08-21 05:01:23,3421.723901470588,7,11,-1.0997490882873535,3.4353904724121094,12.282146845452658,12.194260768680792,48.79096576775803,44.75152026054229,-0.0005180359003134,0.0889859497547149,0,0,0
4131,139229.63393532505,2010-08-21 05:01:53,3451.739250255252,7,11,-1.0997490882873535,3.412240982055664,12.282146845452658,12.203430018208872,48.79096576775803,44.78292032196589,-0.0007122993702068,0.0889859497547149,0,0,0
4132,139259.64911267746,2010-08-21 05:02:23,3481.754427607653,7,11,-1.0997490882873535,3.379054307937622,12.282146845452658,12.212599250798096,48.79096576775803,44.81406546437411,-0.0010684489971026,0.0889859497547149,0,0,0
4133,139289.66451781758,2010-08-21 05:02:53,3511.769832742759,7,11,-1.099929690361023,3.330488681793213,12.282146845452658,12.221768539323888,48.79096576775803,44.844840477418,-0.0015217304462566,0.0889859497547149,0,0,0
4134,139319.67963244868,2010-08-21 05:03:23,3541.7849473487768,7,11,-1.0997490882873535,3.259744644165039,12.282146845452658,12.230937701942809,48.79096576775803,44.87507384316971,-0.0021692751906812,0.0889859497547149,0,0,0
4135,139349.69488644207,2010-08-21 05:03:54,3571.800201347204,7,11,-1.0997490882873535,3.153385639190674,12.282146845452658,12.240106939019991,48.79096576775803,44.904511175785146,-0.003431987715885,0.0889859497547149,0,0,0
4136,139379.71056969537,2010-08-21 05:04:24,3601.8158846054785,7,11,-1.0997490882873535,2.9646267890930176,12.282146845452658,12.249276307224052,48.79096576775803,44.93266955824048,-0.00718774786219,0.0889859497547149,0,0,0
4137,139393.8351504466,2010-08-21 05:04:38,3615.9404653567353,7,11,-1.0997490882873535,2.764374256134033,12.282146845452658,12.253591176686284,48.79096576775803,44.9450790768238,-0.0142135620117187,0.0889859497547149,0,0,0
4138,139397.10056237786,2010-08-21 05:04:41,3619.20587728801,7,11,-1.0997490882873535,2.699458122253418,12.282146845452658,12.254588702122728,48.79096576775803,44.947804763489245,-0.0157676693052053,0.0889859497547149,0,0,0
4139,139457.11833095053,2010-08-21 05:05:41,60.01489853326753,8,11,0.0,3.310576677322388,12.282146845452658,12.254588702122728,48.79096576775803,44.947804763489245,0.0013274669181555,0.0889859497547149,0,0,0
4140,139457.30938992838,2010-08-21 05:05:41,0.187519225608439,9,11,-1.9243103452026844e-05,3.3107385635375977,12.282146845452658,12.254588703125076,48.79096576775803,44.94780476680776,0.0,0.0828132107853889,0,0,0
4141,139462.13742956368,2010-08-21 05:05:46,5.015558865942811,9,11,0.0008838032954372,3.318832874298096,12.28214775502528,12.254588703208718,48.79096878327968,44.94780476708467,0.0011655807029455,0.0828132107853889,0,0,0
