Data_Point,Test_Time(s),Date_Time,Step_Time(s),Step_Index,Cycle_Index,Current(A),Voltage(V),Charge_Capacity(Ah),Discharge_Capacity(Ah),Charge_Energy(Wh),Discharge_Energy(Wh),dV/dt(V/s),Internal_Resistance(Ohm),Is_FC_Data,AC_Impedance(Ohm),ACI_Phase_Angle(Deg)
1902,64213.524134233885,2010-08-20 08:11:30,30.01496250694037,1,6,0.0,3.358170986175537,5.65538205316819,5.632063625081125,22.46208350314352,20.654482374600523,0.0007122993702068,0.0867940634489059,0,0,0
1903,64243.539328724,2010-08-20 08:12:00,60.03015698702921,1,6,0.0,3.382777690887451,5.65538205316819,5.632063625081125,22.46208350314352,20.654482374600523,0.0006151676061563,0.0867940634489059,0,0,0
1904,64273.55452461762,2010-08-20 08:12:30,90.04535288565347,1,6,0.0,3.4012327194213867,5.65538205316819,5.632063625081125,22.46208350314352,20.654482374600523,0.0004532813909463,0.0867940634489059,0,0,0
1905,64303.522819429294,2010-08-20 08:13:00,120.01364769232548,1,6,0.0,3.416450023651123,5.65538205316819,5.632063625081125,22.46208350314352,20.654482374600523,0.0004209041653666,0.0867940634489059,0,0,0
1906,64333.54005925211,2010-08-20 08:13:30,30.015168530414265,2,6,0.5499359965324402,3.556481122970581,5.659968645047739,5.632063625081125,22.47823940519057,20.654482374600523,0.0015541076427325,0.0867940634489059,0,0,0
1907,64363.55526470454,2010-08-20 08:14:00,60.03037399788705,2,6,0.5499359965324402,3.6043992042541504,5.664555248300158,5.632063625081125,22.494667254728533,20.654482374600523,0.0011008263099938,0.0867940634489059,0,0,0
1908,64393.57044602183,2010-08-20 08:14:30,90.04555529512014,2,6,0.550297200679779,3.640823602676392,5.669141790268758,5.632063625081125,22.511285292082007,20.654482374600523,0.0009065627818927,0.0867940634489059,0,0,0
1909,64423.58564074753,2010-08-20 08:15:00,120.06075002082112,2,6,0.550297200679779,3.6704487800598153,5.673728298451873,5.632063625081125,22.528053513230077,20.654482374600523,0.0007446765666827,0.0867940634489059,0,0,0
1910,64453.60083161862,2010-08-20 08:15:30,150.07594103226504,2,6,0.5501165986061096,3.695379018783569,5.678314829344223,5.632063625081125,22.54494657322685,20.654482374600523,0.0006151676061563,0.0867940634489059,0,0,0
1911,64483.61596748764,2010-08-20 08:16:01,180.09107676092725,2,6,0.5501165986061096,3.716909885406494,5.682901289974178,5.632063625081125,22.561945707181348,20.654482374600523,0.0005827903514727,0.0867940634489059,0,0,0
1912,64513.631442421705,2010-08-20 08:16:31,210.10655170000612,2,6,0.5501165986061096,3.7348792552948,5.687487823013195,5.632063625081125,22.579035570051065,20.654482374600523,0.0004209041653666,0.0867940634489059,0,0,0
1913,64543.64646635674,2010-08-20 08:17:01,240.12157563003177,2,6,0.5501165986061096,3.7486395835876474,5.692074331933405,5.632063625081125,22.596199023433687,20.654482374600523,0.0003237724304199,0.0867940634489059,0,0,0
1914,64573.66152528901,2010-08-20 08:17:31,270.1366345923687,2,6,0.5499359965324402,3.756571769714356,5.696660837395939,5.632063625081125,22.61341233890105,20.654482374600523,0.0001618862152099,0.0867940634489059,0,0,0
1915,64603.67668793976,2010-08-20 08:18:01,300.1517972180666,2,6,0.5501165986061096,3.7604570388793945,5.70124726469357,5.632063625081125,22.63065142318529,20.654482374600523,6.47544875391759e-05,0.0867940634489059,0,0,0
1916,64633.69201103039,2010-08-20 08:18:31,330.16712030869246,2,6,0.5501165986061096,3.763047218322754,5.705833772559314,5.632063625081125,22.64790521415245,20.654482374600523,3.237724376958795e-05,0.0867940634489059,0,0,0
1917,64663.70704658439,2010-08-20 08:19:01,360.1821558827385,2,6,0.5501165986061096,3.765313625335693,5.710420167841341,5.632063625081125,22.665169604741028,20.654482374600523,6.47544875391759e-05,0.0867940634489059,0,0,0
1918,64693.72222881895,2010-08-20 08:19:31,390.1973380922453,2,6,0.5499359965324402,3.767580032348633,5.715006710927875,5.632063625081125,22.68244463089085,20.654482374600523,3.237724376958795e-05,0.0867940634489059,0,0,0
1919,64723.73738440711,2010-08-20 08:20:01,420.2124936854159,2,6,0.5501165986061096,3.7696845531463614,5.719593292646268,5.632063625081125,22.69972985638537,20.654482374600523,3.237724376958795e-05,0.0867940634489059,0,0,0
1920,64753.75254858668,2010-08-20 08:20:31,450.227657890049,2,6,0.5501165986061096,3.772112846374512,5.724179900172852,5.632063625081125,22.71702543275597,20.654482374600523,9.713172767078504e-05,0.0867940634489059,0,0,0
1921,64783.767872354,2010-08-20 08:21:01,480.242981642324,2,6,0.5501165986061096,3.774379253387451,5.728766467243514,5.632063625081125,22.73433176459351,20.654482374600523,3.237724376958795e-05,0.0867940634489059,0,0,0
1922,64813.78291550693,2010-08-20 08:21:31,510.2580248002714,2,6,0.5501165986061096,3.7769694328308105,5.733353063723821,5.632063625081125,22.751649382636195,20.654482374600523,6.47544875391759e-05,0.0867940634489059,0,0,0
1923,64843.7980576566,2010-08-20 08:22:01,540.2731669549493,2,6,0.5499359965324402,3.77939772605896,5.73793960019062,5.632063625081125,22.76897807415356,20.654482374600523,9.713172767078504e-05,0.0867940634489059,0,0,0
1924,64873.81338287754,2010-08-20 08:22:31,570.288492180897,2,6,0.5501165986061096,3.782149791717529,5.742526262283957,5.632063625081125,22.786318723982983,20.654482374600523,9.713172767078504e-05,0.0867940634489059,0,0,0
1925,64903.8286781789,2010-08-20 08:23:01,600.3037874822635,2,6,0.5499359965324402,3.784254312515259,5.747112883630806,5.632063625081125,22.803670823249185,20.654482374600523,0.0,0.0867940634489059,0,0,0
1926,64933.843601032015,2010-08-20 08:23:31,630.3187103052994,2,6,0.550297200679779,3.787168264389038,5.751699524391248,5.632063625081125,22.82103477887733,20.654482374600523,9.713172767078504e-05,0.0867940634489059,0,0,0
1927,64963.85877513632,2010-08-20 08:24:01,660.3338844396804,2,6,0.5501165986061096,3.7897584438323975,5.756286174311147,5.632063625081125,22.83841067659891,20.654482374600523,9.713172767078504e-05,0.0867940634489059,0,0,0
1928,64993.87419841164,2010-08-20 08:24:31,690.3493077099848,2,6,0.5499359965324402,3.792186737060547,5.760872848123131,5.632063625081125,22.85579874472086,20.654482374600523,3.237724376958795e-05,0.0867940634489059,0,0,0
1929,65023.8891421919,2010-08-20 08:25:01,720.3642514702027,2,6,0.550297200679779,3.795100688934326,5.765459506192875,5.632063625081125,22.87319922798281,20.654482374600523,9.713172767078504e-05,0.0867940634489059,0,0,0
1930,65053.90431858691,2010-08-20 08:25:31,750.379427865218,2,6,0.5501165986061096,3.797852754592896,5.770046137068074,5.632063625081125,22.89061227729947,20.654482374600523,9.713172767078504e-05,0.0867940634489059,0,0,0
1931,65083.91949719745,2010-08-20 08:26:01,780.3946064707424,2,6,0.5499359965324402,3.800604820251465,5.774632795792654,5.632063625081125,22.90803860798121,20.654482374600523,3.237724376958795e-05,0.0867940634489059,0,0,0
1932,65113.93471301071,2010-08-20 08:26:31,810.4098222840001,2,6,0.5501165986061096,3.804004430770874,5.779219500779863,5.632063625081125,22.92547866319326,20.654482374600523,9.713172767078504e-05,0.0867940634489059,0,0,0
1933,65143.94986179692,2010-08-20 08:27:01,840.4249710752182,2,6,0.5501165986061096,3.806918382644653,5.783806097843943,5.632063625081125,22.94293254200977,20.654482374600523,6.47544875391759e-05,0.0867940634489059,0,0,0
1934,65173.96503459296,2010-08-20 08:27:31,870.4401438662512,2,6,0.5499359965324402,3.810156106948853,5.788392789732177,5.632063625081125,22.960401598940315,20.654482374600523,6.47544875391759e-05,0.0867940634489059,0,0,0
1935,65203.980227724685,2010-08-20 08:28:01,900.4553369979795,2,6,0.5499359965324402,3.813717603683472,5.792979476594257,5.632063625081125,22.97788601459604,20.654482374600523,9.713172767078504e-05,0.0867940634489059,0,0,0
1936,65233.995405828966,2010-08-20 08:28:31,930.4705151022548,2,6,0.5501165986061096,3.817117214202881,5.797566124749221,5.632063625081125,22.995386170268905,20.654482374600523,6.47544875391759e-05,0.0867940634489059,0,0,0
1937,65264.01057943202,2010-08-20 08:29:01,960.4856887103242,2,6,0.5499359965324402,3.82051682472229,5.802152704669979,5.632063625081125,23.012901886069898,20.654482374600523,6.47544875391759e-05,0.0867940634489059,0,0,0
1938,65294.02591035216,2010-08-20 08:29:31,990.5010196304636,2,6,0.5501165986061096,3.824240207672119,5.806739334486685,5.632063625081125,23.03043372358221,20.654482374600523,0.0001295089750783,0.0867940634489059,0,0,0
1939,65324.040948773305,2010-08-20 08:30:01,1020.5160580465932,2,6,0.5501165986061096,3.8274779319763184,5.811325912428851,5.632063625081125,23.04798120553789,20.654482374600523,6.47544875391759e-05,0.0867940634489059,0,0,0
1940,65354.05626718728,2010-08-20 08:30:31,1050.5313764705882,2,6,0.5501165986061096,3.830877542495728,5.815912624465757,5.632063625081125,23.06554479820088,20.654482374600523,6.47544875391759e-05,0.0867940634489059,0,0,0
1941,65384.07141548727,2010-08-20 08:31:01,1080.5465247655695,2,6,0.5501165986061096,3.834115028381348,5.820499258845318,5.632063625081125,23.083123322963377,20.654482374600523,9.713172767078504e-05,0.0867940634489059,0,0,0
1942,65414.086493958224,2010-08-20 08:31:31,1110.5616032615906,2,6,0.5501165986061096,3.837352752685547,5.825085852195215,5.632063625081125,23.10071656831369,20.654482374600523,3.237724376958795e-05,0.0867940634489059,0,0,0
1943,65444.10165226816,2010-08-20 08:32:01,1140.5767615514822,2,6,0.550297200679779,3.840590476989746,5.829672464086056,5.632063625081125,23.118324382145857,20.654482374600523,9.713172767078504e-05,0.0867940634489059,0,0,0
1944,65474.1168483723,2010-08-20 08:32:31,1170.591957650606,2,6,0.5501165986061096,3.843504428863525,5.834259130817047,5.632063625081125,23.135946650775075,20.654482374600523,6.47544875391759e-05,0.0867940634489059,0,0,0
1945,65504.132023599406,2010-08-20 08:33:01,1200.6071328777105,2,6,0.5499359965324402,3.846580266952514,5.838845733827518,5.632063625081125,23.1535827323908,20.654482374600523,6.47544875391759e-05,0.0867940634489059,0,0,0
1946,65534.14718466121,2010-08-20 08:33:31,1230.6222939395109,2,6,0.5501165986061096,3.849656105041504,5.843432373352696,5.632063625081125,23.171232932112886,20.654482374600523,9.713172767078504e-05,0.0867940634489059,0,0,0
1947,65564.16244720093,2010-08-20 08:34:01,1260.637556559425,2,6,0.5501165986061096,3.852731943130493,5.848019080435065,5.632063625081125,23.188897199518877,20.654482374600523,9.713172767078504e-05,0.0867940634489059,0,0,0
1948,65594.17755588719,2010-08-20 08:34:31,1290.6526651654892,2,6,0.5499359965324402,3.855645895004273,5.852605699567743,5.632063625081125,23.206574691336773,20.654482374600523,6.47544875391759e-05,0.0867940634489059,0,0,0
1949,65624.19274882844,2010-08-20 08:35:01,1320.667858126793,2,6,0.5501165986061096,3.858397960662842,5.857192338143751,5.632063625081125,23.224265682271405,20.654482374600523,3.237724376958795e-05,0.0867940634489059,0,0,0
1950,65654.20790394543,2010-08-20 08:35:31,1350.683013223727,2,6,0.5501165986061096,3.861150026321411,5.861778936466385,5.632063625081125,23.24196943326444,20.654482374600523,3.237724376958795e-05,0.0867940634489059,0,0,0
1951,65684.22312070103,2010-08-20 08:36:01,1380.698230856519,2,6,0.5501165986061096,3.863902091979981,5.866365663834817,5.632063625081125,23.25968617683806,20.654482374600523,6.47544875391759e-05,0.0867940634489059,0,0,0
1952,65714.23827411377,2010-08-20 08:36:31,1410.7133833920695,2,6,0.5499359965324402,3.86633038520813,5.870952303354053,5.632063625081125,23.277414355976184,20.654482374600523,3.237724376958795e-05,0.0867940634489059,0,0,0
1953,65744.25356603171,2010-08-20 08:37:01,1440.7286753100034,2,6,0.5501165986061096,3.8687586784362793,5.875538990547825,5.632063625081125,23.295153869081968,20.654482374600523,3.237724376958795e-05,0.0867940634489059,0,0,0
1954,65774.26863504408,2010-08-20 08:37:31,1470.7437443173756,2,6,0.5499359965324402,3.870863199234009,5.880125629730348,5.632063625081125,23.31290344020229,20.654482374600523,6.47544875391759e-05,0.0867940634489059,0,0,0
1955,65804.28382108815,2010-08-20 08:38:01,1500.7589303664518,2,6,0.5499359965324402,3.8726439476013184,5.884712310139546,5.632063625081125,23.330662622851243,20.654482374600523,0.0,0.0867940634489059,0,0,0
1956,65834.2991451161,2010-08-20 08:38:31,1530.7742544144637,2,6,0.5501165986061096,3.874424695968628,5.889299005679439,5.632063625081125,23.34843028424449,20.654482374600523,3.237724376958795e-05,0.0867940634489059,0,0,0
1957,65864.31427990744,2010-08-20 08:39:01,1560.7893891907522,2,6,0.550297200679779,3.8762054443359375,5.893885651456847,5.632063625081125,23.366205405376892,20.654482374600523,6.47544875391759e-05,0.0867940634489059,0,0,0
1958,65894.32933027836,2010-08-20 08:39:31,1590.804439581727,2,6,0.550297200679779,3.877824306488037,5.89847226130958,5.632063625081125,23.38398716917533,20.654482374600523,6.47544875391759e-05,0.0867940634489059,0,0,0
1959,65924.3445134603,2010-08-20 08:40:01,1620.8196227385947,2,6,0.5501165986061096,3.878795623779297,5.9030589956227,5.632063625081125,23.401775578235725,20.654482374600523,0.0,0.0867940634489059,0,0,0
1960,65954.35970833135,2010-08-20 08:40:31,1650.8348176046454,2,6,0.5501165986061096,3.879928827285767,5.907645667450089,5.632063625081125,23.41956921346833,20.654482374600523,0.0,0.0867940634489059,0,0,0
1961,65984.37487997954,2010-08-20 08:41:01,1680.8499892528305,2,6,0.5501165986061096,3.8809001445770255,5.912232310126345,5.632063625081125,23.437367864645427,20.654482374600523,-3.237724376958795e-05,0.0867940634489059,0,0,0
1962,66014.39017754655,2010-08-20 08:41:31,1710.8652868298684,2,6,0.5501165986061096,3.882033348083496,5.916818948639125,5.632063625081125,23.45517123496106,20.654482374600523,3.237724376958795e-05,0.0867940634489059,0,0,0
1963,66044.40526822292,2010-08-20 08:42:01,1740.8803774962214,2,6,0.5499359965324402,3.883004665374756,5.921405673940502,5.632063625081125,23.472979465250752,20.654482374600523,3.237724376958795e-05,0.0867940634489059,0,0,0
1964,66074.42306263285,2010-08-20 08:42:31,1770.8981719061353,2,6,0.5501165986061096,3.883975982666016,5.925992755771345,5.632063625081125,23.490793308835013,20.654482374600523,3.237724376958795e-05,0.0867940634489059,0,0,0
1965,66104.43559913343,2010-08-20 08:43:01,1800.9107084117338,2,6,0.5501165986061096,3.8847854137420654,5.930579066574335,5.632063625081125,23.50860819321057,20.654482374600523,3.237724376958795e-05,0.0867940634489059,0,0,0
1966,66134.45076969391,2010-08-20 08:43:31,1830.9258789922576,2,6,0.550297200679779,3.885756731033325,5.935165821771089,5.632063625081125,23.52642877234777,20.654482374600523,3.237724376958795e-05,0.0867940634489059,0,0,0
1967,66164.46594430448,2010-08-20 08:44:01,1860.9410535777631,2,6,0.5501165986061096,3.886566162109375,5.939752482013525,5.632063625081125,23.544252838006937,20.654482374600523,0.0,0.0867940634489059,0,0,0
1968,66194.48114711532,2010-08-20 08:44:31,1890.9562563936272,2,6,0.5501165986061096,3.887213706970215,5.944339160725329,5.632063625081125,23.562080736580103,20.654482374600523,0.0,0.0867940634489059,0,0,0
1969,66224.49630474356,2010-08-20 08:45:01,1920.9714140218696,2,6,0.550297200679779,3.8881850242614746,5.948925878067306,5.632063625081125,23.57991254698723,20.654482374600523,6.47544875391759e-05,0.0867940634489059,0,0,0
1970,66254.51152321344,2010-08-20 08:45:31,1950.9866324817235,2,6,0.5501165986061096,3.888994455337525,5.953512588188858,5.632063625081125,23.59774803578742,20.654482374600523,3.237724376958795e-05,0.0867940634489059,0,0,0
1971,66284.52697522538,2010-08-20 08:46:01,1981.002084543786,2,6,0.5499359965324402,3.889642000198364,5.958099356282444,5.632063625081125,23.61558737529485,20.654482374600523,3.237724376958795e-05,0.0867940634489059,0,0,0
1972,66314.54198610288,2010-08-20 08:46:31,2011.0170953861937,2,6,0.550297200679779,3.890775203704834,5.962686186538925,5.632063625081125,23.633430545036013,20.654482374600523,3.237724376958795e-05,0.0867940634489059,0,0,0
1973,66344.55715434258,2010-08-20 08:47:01,2041.0322636258827,2,6,0.5501165986061096,3.891260862350464,5.967272878130927,5.632063625081125,23.6512767296611,20.654482374600523,3.237724376958795e-05,0.0867940634489059,0,0,0
1974,66374.57220352553,2010-08-20 08:47:31,2071.0473128038343,2,6,0.550297200679779,3.892232179641724,5.971859654600173,5.632063625081125,23.66912691634955,20.654482374600523,6.47544875391759e-05,0.0867940634489059,0,0,0
1975,66404.58682101758,2010-08-20 08:48:02,2101.061929975092,2,6,0.5501165986061096,3.892879724502564,5.976446364153913,5.632063625081125,23.686980379130283,20.654482374600523,3.237724376958795e-05,0.0867940634489059,0,0,0
1976,66434.58703010446,2010-08-20 08:48:32,2131.062139407832,2,6,0.5501165986061096,3.893689155578613,5.981030881299004,5.632063625081125,23.704829019494408,20.654482374600523,3.237724376958795e-05,0.0867940634489059,0,0,0
1977,66464.60247562523,2010-08-20 08:49:02,2161.077584903529,2,6,0.5499359965324402,3.894336700439453,5.985617741684356,5.632063625081125,23.722690451402805,20.654482374600523,-3.237724376958795e-05,0.0867940634489059,0,0,0
1978,66494.61744735515,2010-08-20 08:49:32,2191.092556628443,2,6,0.550297200679779,3.895146131515503,5.99020448465951,5.632063625081125,23.74055474718792,20.654482374600523,3.237724376958795e-05,0.0867940634489059,0,0,0
1979,66524.63248182143,2010-08-20 08:50:02,2221.1075910947284,2,6,0.5499359965324402,3.895793676376343,5.994791280958854,5.632063625081125,23.758422848175147,20.654482374600523,0.0,0.0867940634489059,0,0,0
1980,66554.64765854226,2010-08-20 08:50:32,2251.122767820568,2,6,0.550297200679779,3.896926879882813,5.99937802893821,5.632063625081125,23.776294645766217,20.654482374600523,6.47544875391759e-05,0.0867940634489059,0,0,0
1981,66584.6628706112,2010-08-20 08:51:02,2281.137979889494,2,6,0.5499359965324402,3.8974125385284415,6.003964787935639,5.632063625081125,23.794170296941942,20.654482374600523,-3.237724376958795e-05,0.0867940634489059,0,0,0
1982,66614.67806624917,2010-08-20 08:51:32,2311.153175527468,2,6,0.5501165986061096,3.898545742034912,6.008551505181496,5.632063625081125,23.81204969485449,20.654482374600523,6.47544875391759e-05,0.0867940634489059,0,0,0
1983,66644.69321650904,2010-08-20 08:52:02,2341.1683257823343,2,6,0.5501165986061096,3.899355173110962,6.0131382067637,5.632063625081125,23.829932984170533,20.654482374600523,0.0,0.0867940634489059,0,0,0
1984,66674.70837326511,2010-08-20 08:52:32,2371.1834825484284,2,6,0.5501165986061096,3.9003264904022217,6.017724908525125,5.632063625081125,23.84782020828361,20.654482374600523,6.47544875391759e-05,0.0867940634489059,0,0,0
1985,66704.7235665372,2010-08-20 08:53:02,2401.1986758104813,2,6,0.5501165986061096,3.901135921478272,6.022311627855197,5.632063625081125,23.865711560937356,20.654482374600523,0.0,0.0867940634489059,0,0,0
1986,66734.73885301658,2010-08-20 08:53:32,2431.2139622998857,2,6,0.5501165986061096,3.9021072387695312,6.02689835030673,5.632063625081125,23.88360707991656,20.654482374600523,0.0,0.0867940634489059,0,0,0
1987,66764.75390460051,2010-08-20 08:54:02,2461.2290138788208,2,6,0.5501165986061096,3.902916669845581,6.031485002880707,5.632063625081125,23.90150650855012,20.654482374600523,3.237724376958795e-05,0.0867940634489059,0,0,0
1988,66794.76908944659,2010-08-20 08:54:32,2491.244198739937,2,6,0.5499359965324402,3.903887987136841,6.036071685638058,5.632063625081125,23.91941035889326,20.654482374600523,0.0,0.0867940634489059,0,0,0
1989,66824.7842970945,2010-08-20 08:55:02,2521.259406392856,2,6,0.5501165986061096,3.905021190643311,6.040658465907303,5.632063625081125,23.937319041255197,20.654482374600523,3.237724376958795e-05,0.0867940634489059,0,0,0
1990,66854.79943770533,2010-08-20 08:55:32,2551.274546983636,2,6,0.550297200679779,3.9059925079345694,6.045245251906283,5.632063625081125,23.955232041760546,20.654482374600523,6.47544875391759e-05,0.0867940634489059,0,0,0
1991,66884.81395542873,2010-08-20 08:56:02,2581.289064697014,2,6,0.5501165986061096,3.90680193901062,6.049829550760086,5.632063625081125,23.97313990426341,20.654482374600523,6.47544875391759e-05,0.0867940634489059,0,0,0
1992,66914.8141813977,2010-08-20 08:56:32,2611.28929067098,2,6,0.5501165986061096,3.90793514251709,6.054416247601423,5.632063625081125,23.991061742126423,20.654482374600523,3.237724376958795e-05,0.0867940634489059,0,0,0
1993,66944.82938329125,2010-08-20 08:57:02,2641.3044926096577,2,6,0.5501165986061096,3.9089064598083496,6.059003043522557,5.632063625081125,24.00898867613541,20.654482374600523,3.237724376958795e-05,0.0867940634489059,0,0,0
1994,66974.84477872218,2010-08-20 08:57:32,2671.319888020528,2,6,0.550297200679779,3.9100396633148193,6.063589785347256,5.632063625081125,24.026920193869223,20.654482374600523,3.237724376958795e-05,0.0867940634489059,0,0,0
1995,67004.85972904375,2010-08-20 08:58:02,2701.334838347111,2,6,0.550297200679779,3.911010980606079,6.068176470216121,5.632063625081125,24.04485626949684,20.654482374600523,0.0,0.0867940634489059,0,0,0
1996,67034.87490100271,2010-08-20 08:58:32,2731.3500103060705,2,6,0.5501165986061096,3.911982297897339,6.072763167798925,5.632063625081125,24.062797333110566,20.654482374600523,0.0,0.0867940634489059,0,0,0
1997,67064.89008177863,2010-08-20 08:59:02,2761.3651910519293,2,6,0.550297200679779,3.9131155014038086,6.077349897200161,5.632063625081125,24.0807435692864,20.654482374600523,0.0,0.0867940634489059,0,0,0
1998,67094.90527804819,2010-08-20 08:59:32,2791.3803873214783,2,6,0.5501165986061096,3.914248466491699,6.081936585898847,5.632063625081125,24.098694696112418,20.654482374600523,0.0,0.0867940634489059,0,0,0
1999,67124.92042989202,2010-08-20 09:00:02,2821.3955392054045,2,6,0.5501165986061096,3.915381669998169,6.086523299754441,5.632063625081125,24.116651174391084,20.654482374600523,0.0,0.0867940634489059,0,0,0
2000,67154.93559935977,2010-08-20 09:00:32,2851.4107086330546,2,6,0.5501165986061096,3.916514873504639,6.091110003797662,5.632063625081125,24.13461265608729,20.654482374600523,3.237724376958795e-05,0.0867940634489059,0,0,0
2001,67184.95082772431,2010-08-20 09:01:02,2881.425936997594,2,6,0.5501165986061096,3.9178099632263184,6.095696645840529,5.632063625081125,24.152579372119305,20.654482374600523,9.713172767078504e-05,0.0867940634489059,0,0,0
2002,67214.96610368245,2010-08-20 09:01:32,2911.441212955752,2,6,0.5501165986061096,3.918943166732788,6.100283323864982,5.632063625081125,24.170551678161186,20.654482374600523,3.237724376958795e-05,0.0867940634489059,0,0,0
2003,67244.98114417375,2010-08-20 09:02:02,2941.456253452065,2,6,0.5501165986061096,3.920238256454468,6.104869990345947,5.632063625081125,24.188529532681446,20.654482374600523,6.47544875391759e-05,0.0867940634489059,0,0,0
2004,67274.99632152617,2010-08-20 09:02:32,2971.471430799454,2,6,0.5501165986061096,3.921533346176148,6.109456666424813,5.632063625081125,24.206512991894066,20.654482374600523,6.47544875391759e-05,0.0867940634489059,0,0,0
2005,67305.01150022191,2010-08-20 09:03:02,3001.4866094952035,2,6,0.5501165986061096,3.922828435897827,6.114043269638631,5.632063625081125,24.22450195968885,20.654482374600523,3.237724376958795e-05,0.0867940634489059,0,0,0
2006,67335.02669007547,2010-08-20 09:03:32,3031.501799353774,2,6,0.5501165986061096,3.924123525619507,6.118629945175847,5.632063625081125,24.24249706308587,20.654482374600523,9.713172767078504e-05,0.0867940634489059,0,0,0
2007,67365.04185388912,2010-08-20 09:04:02,3061.5169631624203,2,6,0.5499359965324402,3.925256729125977,6.12321659831499,5.632063625081125,24.260498084677405,20.654482374600523,3.237724376958795e-05,0.0867940634489059,0,0,0
2008,67395.05705868494,2010-08-20 09:04:32,3091.532167973256,2,6,0.5501165986061096,3.926713705062866,6.127803280960781,5.632063625081125,24.27850520355938,20.654482374600523,6.47544875391759e-05,0.0867940634489059,0,0,0
2009,67425.0722075363,2010-08-20 09:05:02,3121.5473168095878,2,6,0.5501165986061096,3.928008794784546,6.132389968765144,5.632063625081125,24.29651856137397,20.654482374600523,3.237724376958795e-05,0.0867940634489059,0,0,0
2010,67455.08741327444,2010-08-20 09:05:32,3151.562522552747,2,6,0.5501165986061096,3.929465770721436,6.136976630109137,5.632063625081125,24.314538052436937,20.654482374600523,6.47544875391759e-05,0.0867940634489059,0,0,0
2011,67485.1027148715,2010-08-20 09:06:02,3181.5778241548164,2,6,0.5499359965324402,3.9307608604431152,6.141562843473575,5.632063625081125,24.33256206349415,20.654482374600523,6.47544875391759e-05,0.0867940634489059,0,0,0
2012,67515.11772096709,2010-08-20 09:06:32,3211.592830245381,2,6,0.5501165986061096,3.932217836380005,6.146148595188017,5.632063625081125,24.350590603841223,20.654482374600523,3.237724376958795e-05,0.0867940634489059,0,0,0
2013,67545.13291139707,2010-08-20 09:07:02,3241.6080206954257,2,6,0.5499359965324402,3.933512926101685,6.150734490373592,5.632063625081125,24.368626271160785,20.654482374600523,3.237724376958795e-05,0.0867940634489059,0,0,0
2014,67575.1481025188,2010-08-20 09:07:32,3271.6232117970944,2,6,0.5499359965324402,3.934969902038574,6.155320290670421,5.632063625081125,24.386668113421845,20.654482374600523,3.237724376958795e-05,0.0867940634489059,0,0,0
2015,67605.16327796143,2010-08-20 09:08:02,3301.638387259786,2,6,0.5499359965324402,3.936264991760254,6.159906062744962,5.632063625081125,24.40471650796217,20.654482374600523,0.0,0.0867940634489059,0,0,0
2016,67635.17843998563,2010-08-20 09:08:32,3331.6535492639346,2,6,0.5497553944587708,3.9378838539123535,6.164491795384745,5.632063625081125,24.422771472174624,20.654482374600523,3.237724376958795e-05,0.0867940634489059,0,0,0
2017,67665.19362095704,2010-08-20 09:09:02,3361.6687302303435,2,6,0.5499359965324402,3.939340829849243,6.169077945429451,5.632063625081125,24.44083509012181,20.654482374600523,0.0,0.0867940634489059,0,0,0
2018,67695.20881794339,2010-08-20 09:09:32,3391.6839272166785,2,6,0.5501165986061096,3.9411215782165527,6.173664701932855,5.632063625081125,24.4589081512506,20.654482374600523,3.237724376958795e-05,0.0867940634489059,0,0,0
2019,67725.2241117811,2010-08-20 09:10:02,3421.6992210594094,2,6,0.5501165986061096,3.9425785541534415,6.178251521503708,5.632063625081125,24.47698839750966,20.654482374600523,3.237724376958795e-05,0.0867940634489059,0,0,0
2020,67755.23917031738,2010-08-20 09:10:32,3451.7142795906725,2,6,0.5501165986061096,3.944197416305542,6.182838217818373,5.632063625081125,24.49507528105893,20.654482374600523,6.47544875391759e-05,0.0867940634489059,0,0,0
2021,67785.25434186032,2010-08-20 09:11:02,3481.7294511335945,2,6,0.5501165986061096,3.945654392242432,6.187424911873883,5.632063625081125,24.513169339676733,20.654482374600523,6.47544875391759e-05,0.0867940634489059,0,0,0
2022,67815.2695408416,2010-08-20 09:11:32,3511.744650139964,2,6,0.5501165986061096,3.9472732543945312,6.192011655784733,5.632063625081125,24.531270819529876,20.654482374600523,3.237724376958795e-05,0.0867940634489059,0,0,0
2023,67845.28469589344,2010-08-20 09:12:02,3541.7598051767486,2,6,0.5499359965324402,3.948892116546631,6.196598341006645,5.632063625081125,24.549379396062257,20.654482374600523,3.237724376958795e-05,0.0867940634489059,0,0,0
2024,67875.29987280472,2010-08-20 09:12:32,3571.7749821030875,2,6,0.5501165986061096,3.950672864913941,6.20118499790228,5.632063625081125,24.56749527191821,20.654482374600523,9.713172767078504e-05,0.0867940634489059,0,0,0
2025,67905.31508457792,2010-08-20 09:13:02,3601.790193871264,2,6,0.5501165986061096,3.95212984085083,6.205771736831128,5.632063625081125,24.58561896838567,20.654482374600523,3.237724376958795e-05,0.0867940634489059,0,0,0
2026,67935.33048962783,2010-08-20 09:13:32,3631.805598931182,2,6,0.5501165986061096,3.9537487030029297,6.210358520336891,5.632063625081125,24.603750428560232,20.654482374600523,3.237724376958795e-05,0.0867940634489059,0,0,0
2027,67965.34546760832,2010-08-20 09:14:02,3661.8205769066753,2,6,0.5499359965324402,3.9555294513702393,6.214945334638842,5.632063625081125,24.621889698137945,20.654482374600523,3.237724376958795e-05,0.0867940634489059,0,0,0
2028,67995.36060391343,2010-08-20 09:14:32,3691.835713186711,2,6,0.550297200679779,3.957310199737549,6.219532115838823,5.632063625081125,24.64003661807528,20.654482374600523,6.47544875391759e-05,0.0867940634489059,0,0,0
2029,68025.37580520549,2010-08-20 09:15:02,3721.8509144787786,2,6,0.5501165986061096,3.958929061889648,6.224118838043407,5.632063625081125,24.65819106658684,20.654482374600523,6.47544875391759e-05,0.0867940634489059,0,0,0
2030,68055.39361011657,2010-08-20 09:15:32,3751.868719414927,2,6,0.5504778623580933,3.960871696472168,6.22870596577208,5.632063625081125,24.67635513582204,20.654482374600523,6.47544875391759e-05,0.0867940634489059,0,0,0
2031,68085.4061415746,2010-08-20 09:16:02,3781.881250852896,2,6,0.550297200679779,3.9623286724090576,6.233292393358292,5.632063625081125,24.69452455930148,20.654482374600523,0.0,0.0867940634489059,0,0,0
2032,68115.42132302221,2010-08-20 09:16:32,3811.8964322954894,2,6,0.5501165986061096,3.964271306991577,6.237879229742569,5.632063625081125,24.712703797024453,20.654482374600523,3.237724376958795e-05,0.0867940634489059,0,0,0
2033,68145.43650323171,2010-08-20 09:17:02,3841.911612510025,2,6,0.550297200679779,3.9662139415740967,6.24246600471285,5.632063625081125,24.73089113325246,20.654482374600523,6.47544875391759e-05,0.0867940634489059,0,0,0
2034,68175.45169999752,2010-08-20 09:17:32,3871.9268092707975,2,6,0.5501165986061096,3.9679946899414062,6.247052813291927,5.632063625081125,24.74908703408268,20.654482374600523,6.47544875391759e-05,0.0867940634489059,0,0,0
2035,68205.4668633049,2010-08-20 09:18:02,3901.941972578195,2,6,0.5501165986061096,3.969775438308716,6.251639531151191,5.632063625081125,24.767291068835128,20.654482374600523,6.47544875391759e-05,0.0867940634489059,0,0,0
2036,68235.48207277236,2010-08-20 09:18:32,3931.957182070699,2,6,0.550297200679779,3.9717180728912354,6.256226267196206,5.632063625081125,24.78550376967865,20.654482374600523,6.47544875391759e-05,0.0867940634489059,0,0,0
2037,68265.49721905732,2010-08-20 09:19:02,3961.972328330608,2,6,0.550297200679779,3.973660707473755,6.260813116783573,5.632063625081125,24.80372562059268,20.654482374600523,6.47544875391759e-05,0.0867940634489059,0,0,0
2038,68295.51242681549,2010-08-20 09:19:32,3991.987536113853,2,6,0.5501165986061096,3.975441455841065,6.265399916843123,5.632063625081125,24.821956017410827,20.654482374600523,3.237724376958795e-05,0.0867940634489059,0,0,0
2039,68325.52758070442,2010-08-20 09:20:02,4022.002689977714,2,6,0.5501165986061096,3.977384090423584,6.269986712715539,5.632063625081125,24.840195210952565,20.654482374600523,3.237724376958795e-05,0.0867940634489059,0,0,0
2040,68355.54276685875,2010-08-20 09:20:32,4052.0178761320526,2,6,0.5501165986061096,3.979326725006104,6.27457349313591,5.632063625081125,24.85844269239435,20.654482374600523,3.237724376958795e-05,0.0867940634489059,0,0,0
2041,68385.55794781013,2010-08-20 09:21:03,4082.033057083423,2,6,0.5501165986061096,3.981431245803833,6.279160219615337,5.632063625081125,24.876699192632348,20.654482374600523,9.713172767078504e-05,0.0867940634489059,0,0,0
2042,68415.57342161138,2010-08-20 09:21:33,4112.048530889679,2,6,0.5501165986061096,3.9830501079559326,6.283746977064447,5.632063625081125,24.89496465079288,20.654482374600523,3.237724376958795e-05,0.0867940634489059,0,0,0
2043,68445.58844972182,2010-08-20 09:22:03,4142.063559020174,2,6,0.5501165986061096,3.985154628753662,6.288333708704715,5.632063625081125,24.91323880673828,20.654482374600523,3.237724376958795e-05,0.0867940634489059,0,0,0
2044,68475.60348395252,2010-08-20 09:22:33,4172.078593225809,2,6,0.5501165986061096,3.9870972633361816,6.292920360885479,5.632063625081125,24.93152143860308,20.654482374600523,6.47544875391759e-05,0.0867940634489059,0,0,0
2045,68505.61866439262,2010-08-20 09:23:03,4202.093773695981,2,6,0.550297200679779,3.989039897918701,6.297507179830348,5.632063625081125,24.949813516841697,20.654482374600523,9.713172767078504e-05,0.0867940634489059,0,0,0
2046,68535.63387294779,2010-08-20 09:23:33,4232.108982221074,2,6,0.5499359965324402,3.9908206462860103,6.302093835467095,5.632063625081125,24.968113695732555,20.654482374600523,6.47544875391759e-05,0.0867940634489059,0,0,0
2047,68565.64902890686,2010-08-20 09:24:03,4262.124138190182,2,6,0.5499359965324402,3.9927632808685294,6.306680537830121,5.632063625081125,24.98642290086264,20.654482374600523,3.237724376958795e-05,0.0867940634489059,0,0,0
2048,68595.6642031064,2010-08-20 09:24:33,4292.1393123797,2,6,0.5501165986061096,3.9945437908172607,6.311267334841426,5.632063625081125,25.00474133247004,20.654482374600523,0.0,0.0867940634489059,0,0,0
2049,68625.67955926445,2010-08-20 09:25:03,4322.154668547765,2,6,0.5499359965324402,3.9966483116149902,6.315854120838733,5.632063625081125,25.023068662947868,20.654482374600523,6.47544875391759e-05,0.0867940634489059,0,0,0
2050,68655.69477482708,2010-08-20 09:25:33,4352.169884110399,2,6,0.5501165986061096,3.9985909461975098,6.320440842469692,5.632063625081125,25.04140470263392,20.654482374600523,6.47544875391759e-05,0.0867940634489059,0,0,0
2051,68685.7098782402,2010-08-20 09:26:03,4382.184987513496,2,6,0.550297200679779,4.000695705413818,6.325027617287163,5.632063625081125,25.05974984278573,20.654482374600523,9.71794142969884e-05,0.0867940634489059,0,0,0
2052,68715.72493050585,2010-08-20 09:26:33,4412.200039779142,2,6,0.5501165986061096,4.002638339996338,6.329614320508214,5.632063625081125,25.07810381936381,20.654482374600523,6.47544875391759e-05,0.0867940634489059,0,0,0
2053,68745.7400653473,2010-08-20 09:27:03,4442.215174625605,2,6,0.550297200679779,4.004580974578857,6.334201788354406,5.632063625081125,25.09647009734041,20.654482374600523,3.24249267578125e-05,0.0867940634489059,0,0,0
2054,68775.75526069957,2010-08-20 09:27:33,4472.230369972855,2,6,0.550297200679779,4.006523609161377,6.338789349228413,5.632063625081125,25.114845984044383,20.654482374600523,6.47544875391759e-05,0.0867940634489059,0,0,0
2055,68805.77044551558,2010-08-20 09:28:03,4502.2455547888585,2,6,0.550297200679779,4.008790016174316,6.343376761807787,5.632063625081125,25.13323067821228,20.654482374600523,6.47544875391759e-05,0.0867940634489059,0,0,0
2056,68835.78562029656,2010-08-20 09:28:33,4532.260729574864,2,6,0.5501165986061096,4.010732650756836,6.347964400182565,5.632063625081125,25.15162560635923,20.654482374600523,6.47544875391759e-05,0.0867940634489059,0,0,0
2057,68865.80096043968,2010-08-20 09:29:03,4562.276069712977,2,6,0.5501165986061096,4.012836933135986,6.352552009304301,5.632063625081125,25.17002999048424,20.654482374600523,6.47544875391759e-05,0.0867940634489059,0,0,0
2058,68895.81615002257,2010-08-20 09:29:33,4592.291259300872,2,6,0.5501165986061096,4.014779567718506,6.35713966930225,5.632063625081125,25.188444201965,20.654482374600523,0.0,0.0867940634489059,0,0,0
2059,68925.83132422713,2010-08-20 09:30:03,4622.306433530492,2,6,0.5501165986061096,4.017045974731445,6.361726801612125,5.632063625081125,25.20686601375609,20.654482374600523,6.47544875391759e-05,0.0867940634489059,0,0,0
2060,68955.8465121208,2010-08-20 09:30:33,4652.321621404115,2,6,0.5501165986061096,4.019150733947754,6.366313730552507,5.632063625081125,25.225296877121657,20.654482374600523,6.47544875391759e-05,0.0867940634489059,0,0,0
2061,68985.86165400982,2010-08-20 09:31:03,4682.33676329313,2,6,0.5499359965324402,4.021255016326904,6.370900620517516,5.632063625081125,25.24373744651035,20.654482374600523,3.23295607813634e-05,0.0867940634489059,0,0,0
2062,69015.87675574876,2010-08-20 09:31:33,4712.351865022055,2,6,0.5501165986061096,4.023683547973633,6.375487454130436,5.632063625081125,25.262187864385965,20.654482374600523,6.47544875391759e-05,0.0867940634489059,0,0,0
2063,69045.89190131695,2010-08-20 09:32:03,4742.36701059024,2,6,0.5501165986061096,4.025787830352783,6.380074305582252,5.632063625081125,25.28064852596897,20.654482374600523,6.47544875391759e-05,0.0867940634489059,0,0,0
2064,69075.90709264418,2010-08-20 09:32:33,4772.382201927496,2,6,0.5501165986061096,4.028054237365723,6.384661206802027,5.632063625081125,25.29911960728223,20.654482374600523,6.47544875391759e-05,0.0867940634489059,0,0,0
2065,69105.92225055312,2010-08-20 09:33:03,4802.397359826414,2,6,0.5501165986061096,4.030158996582031,6.389248120350811,5.632063625081125,25.31760109877593,20.654482374600523,0.0,0.0867940634489059,0,0,0
2066,69135.93744357959,2010-08-20 09:33:33,4832.412552852879,2,6,0.5501165986061096,4.032425403594971,6.393834919017952,5.632063625081125,25.336092545276937,20.654482374600523,3.24249267578125e-05,0.0867940634489059,0,0,0
2067,69165.95274636961,2010-08-20 09:34:03,4862.42785564291,2,6,0.5499359965324402,4.034853458404541,6.398421761908217,5.632063625081125,25.354594744303437,20.654482374600523,9.71794142969884e-05,0.0867940634489059,0,0,0
2068,69195.96779707637,2010-08-20 09:34:33,4892.442906354684,2,6,0.5501165986061096,4.037281513214111,6.403008543729307,5.632063625081125,25.37310728820167,20.654482374600523,6.47544875391759e-05,0.0867940634489059,0,0,0
2069,69225.98300462404,2010-08-20 09:35:03,4922.458113932416,2,6,0.5501165986061096,4.039547920227051,6.40759539927427,5.632063625081125,25.39163090777191,20.654482374600523,6.47544875391759e-05,0.0867940634489059,0,0,0
2070,69255.99819181096,2010-08-20 09:35:33,4952.473301089253,2,6,0.5499359965324402,4.04181432723999,6.412182297337891,5.632063625081125,25.410165479099245,20.654482374600523,6.47544875391759e-05,0.0867940634489059,0,0,0
2071,69286.01336654683,2010-08-20 09:36:03,4982.488475845184,2,6,0.5501165986061096,4.04440450668335,6.416769201131613,5.632063625081125,25.42871111719304,20.654482374600523,9.70840483205393e-05,0.0867940634489059,0,0,0
2072,69316.0285333329,2010-08-20 09:36:33,5012.5036425961625,2,6,0.5501165986061096,4.046670913696289,6.421356077532704,5.632063625081125,25.44726771845346,20.654482374600523,3.23295607813634e-05,0.0867940634489059,0,0,0
2073,69346.04373495078,2010-08-20 09:37:03,5042.518844224067,2,6,0.5501165986061096,4.0494232177734375,6.425943028697176,5.632063625081125,25.46583586607637,20.654482374600523,9.71794142969884e-05,0.0867940634489059,0,0,0
2074,69376.05902014194,2010-08-20 09:37:33,5072.53412944531,2,6,0.550297200679779,4.051689624786377,6.430529955368541,5.632063625081125,25.484415205054617,20.654482374600523,6.47544875391759e-05,0.0867940634489059,0,0,0
2075,69406.07409956529,2010-08-20 09:38:03,5102.549208838567,2,6,0.5501165986061096,4.054279804229736,6.435116866862231,5.632063625081125,25.50300592424225,20.654482374600523,6.47544875391759e-05,0.0867940634489059,0,0,0
2076,69436.08937327281,2010-08-20 09:38:33,5132.56448255614,2,6,0.5501165986061096,4.056869983673096,6.439703796384306,5.632063625081125,25.521608289155672,20.654482374600523,9.71794142969884e-05,0.0867940634489059,0,0,0
2077,69466.10442600964,2010-08-20 09:39:03,5162.579535282936,2,6,0.5501165986061096,4.059298038482666,6.4442907103765,5.632063625081125,25.540222270200537,20.654482374600523,6.47544875391759e-05,0.0867940634489059,0,0,0
2078,69496.1196377678,2010-08-20 09:39:33,5192.594747041087,2,6,0.5501165986061096,4.061888217926025,6.448877671456502,5.632063625081125,25.55884795986817,20.654482374600523,9.70840483205393e-05,0.0867940634489059,0,0,0
2079,69526.134784148,2010-08-20 09:40:03,5222.609893421296,2,6,0.5499359965324402,4.064478397369385,6.453464565999694,5.632063625081125,25.57748520539997,20.654482374600523,3.23295607813634e-05,0.0867940634489059,0,0,0
2080,69556.14996924973,2010-08-20 09:40:33,5252.625078523011,2,6,0.5501165986061096,4.067068576812744,6.458051460790902,5.632063625081125,25.596134466237647,20.654482374600523,6.47544875391759e-05,0.0867940634489059,0,0,0
2081,69586.16514244175,2010-08-20 09:41:03,5282.640251720056,2,6,0.5501165986061096,4.069658756256104,6.462638358426574,5.632063625081125,25.614795877105504,20.654482374600523,3.23295607813634e-05,0.0867940634489059,0,0,0
2082,69616.18046478051,2010-08-20 09:41:33,5312.6555740638205,2,6,0.550297200679779,4.072411060333252,6.467225267394252,5.632063625081125,25.63346959053976,20.654482374600523,6.47544875391759e-05,0.0867940634489059,0,0,0
2083,69646.1957483326,2010-08-20 09:42:03,5342.670857620917,2,6,0.5501165986061096,4.075162887573242,6.471812184219552,5.632063625081125,25.652155720910468,20.654482374600523,9.70840483205393e-05,0.0867940634489059,0,0,0
2084,69676.21068781214,2010-08-20 09:42:33,5372.685797090441,2,6,0.5499359965324402,4.077753067016602,6.476399038532169,5.632063625081125,25.67085407604214,20.654482374600523,3.23295607813634e-05,0.0867940634489059,0,0,0
2085,69706.22588493882,2010-08-20 09:43:03,5402.700994212113,2,6,0.550297200679779,4.080667018890381,6.480986032651706,5.632063625081125,25.68956566022582,20.654482374600523,9.70840483205393e-05,0.0867940634489059,0,0,0
2086,69736.24106215588,2010-08-20 09:43:33,5432.716171429178,2,6,0.5499359965324402,4.083419322967529,6.485572961492489,5.632063625081125,25.708289626173723,20.654482374600523,3.24249267578125e-05,0.0867940634489059,0,0,0
2087,69766.25622401969,2010-08-20 09:44:03,5462.731333297988,2,6,0.5501165986061096,4.08617115020752,6.490159875862174,5.632063625081125,25.727026345621272,20.654482374600523,6.47544875391759e-05,0.0867940634489059,0,0,0
2088,69796.27141704113,2010-08-20 09:44:33,5492.746526319443,2,6,0.5501165986061096,4.089085102081299,6.494746823371723,5.632063625081125,25.74577613435973,20.654482374600523,9.70840483205393e-05,0.0867940634489059,0,0,0
2089,69826.2866019223,2010-08-20 09:45:03,5522.761711195595,2,6,0.5501165986061096,4.091837406158447,6.499333768170089,5.632063625081125,25.76453897308533,20.654482374600523,6.47544875391759e-05,0.0867940634489059,0,0,0
2090,69856.30213562785,2010-08-20 09:45:33,5552.777244901138,2,6,0.5501165986061096,4.094913005828857,6.503920730380556,5.632063625081125,25.78331502920771,20.654482374600523,9.70840483205393e-05,0.0867940634489059,0,0,0
2091,69886.31696578994,2010-08-20 09:46:03,5582.792075068247,2,6,0.5501165986061096,4.097826957702637,6.508507594564722,5.632063625081125,25.80210409791948,20.654482374600523,9.70840483205393e-05,0.0867940634489059,0,0,0
2092,69916.3323062689,2010-08-20 09:46:33,5612.807415552222,2,6,0.550297200679779,4.100740909576416,6.513094507666449,5.632063625081125,25.82090678594585,20.654482374600523,9.70840483205393e-05,0.0867940634489059,0,0,0
2093,69946.34744261911,2010-08-20 09:47:03,5642.822551902434,2,6,0.5501165986061096,4.103654861450195,6.517681462748926,5.632063625081125,25.83972317434665,20.654482374600523,6.47544875391759e-05,0.0867940634489059,0,0,0
2094,69976.36511061397,2010-08-20 09:47:33,5672.840219887257,2,6,0.5501165986061096,4.106730937957764,6.52226875206437,5.632063625081125,25.858554730171967,20.654482374600523,9.71794142969884e-05,0.0867940634489059,0,0,0
2095,70006.37767170083,2010-08-20 09:48:03,5702.852780999183,2,6,0.5501165986061096,4.109644889831543,6.526855217857965,5.632063625081125,25.87739670508753,20.654482374600523,6.47544875391759e-05,0.0867940634489059,0,0,0
2096,70036.39285095297,2010-08-20 09:48:33,5732.867960226256,2,6,0.550297200679779,4.112720489501953,6.531442199771881,5.632063625081125,25.896254794645127,20.654482374600523,6.47544875391759e-05,0.0867940634489059,0,0,0
2097,70066.40803325271,2010-08-20 09:49:03,5762.883142525988,2,6,0.5499359965324402,4.115796089172363,6.536029140079015,5.632063625081125,25.91512682440063,20.654482374600523,3.23295607813634e-05,0.0867940634489059,0,0,0
2098,70096.42335497994,2010-08-20 09:49:33,5792.898464253216,2,6,0.5501165986061096,4.1190338134765625,6.540616017600623,5.632063625081125,25.934012882707226,20.654482374600523,9.70840483205393e-05,0.0867940634489059,0,0,0
2099,70126.43841461393,2010-08-20 09:50:03,5822.913523887227,2,6,0.5501165986061096,4.122109889984131,6.54520292322499,5.632063625081125,25.95291351663353,20.654482374600523,6.47544875391759e-05,0.0867940634489059,0,0,0
2100,70156.45369922867,2010-08-20 09:50:33,5852.928808511983,2,6,0.5499359965324402,4.125185489654541,6.549789876803852,5.632063625081125,25.9718288869178,20.654482374600523,3.23295607813634e-05,0.0867940634489059,0,0,0
2101,70186.46890438035,2010-08-20 09:51:03,5882.9440136636695,2,6,0.5501165986061096,4.128585338592529,6.554376784808332,5.632063625081125,25.990758735914365,20.654482374600523,9.71794142969884e-05,0.0867940634489059,0,0,0
2102,70216.48394557841,2010-08-20 09:51:33,5912.959054856719,2,6,0.550297200679779,4.1318230628967285,6.558963612008598,5.632063625081125,26.009703089774312,20.654482374600523,9.71794142969884e-05,0.0867940634489059,0,0,0
2103,70246.49911226926,2010-08-20 09:52:03,5942.97422154755,2,6,0.550297200679779,4.135222434997559,6.563550484922918,5.632063625081125,26.028662575674687,20.654482374600523,9.70840483205393e-05,0.0867940634489059,0,0,0
2104,70276.51430312531,2010-08-20 09:52:33,5972.9894124036055,2,6,0.550297200679779,4.138460159301758,6.568137353627908,5.632063625081125,26.047637183555768,20.654482374600523,9.70840483205393e-05,0.0867940634489059,0,0,0
2105,70306.52946987127,2010-08-20 09:53:04,6003.004579144561,2,6,0.5501165986061096,4.141697883605957,6.572724271258301,5.632063625081125,26.0666272863097,20.654482374600523,6.47544875391759e-05,0.0867940634489059,0,0,0
2106,70336.5440400504,2010-08-20 09:53:34,6033.019149118187,2,6,0.550297200679779,4.145421504974365,6.577308685202672,5.632063625081125,26.085622474341477,20.654482374600523,9.71794142969884e-05,0.0867940634489059,0,0,0
2107,70366.54449237851,2010-08-20 09:54:04,6063.019601666846,2,6,0.5499359965324402,4.1486592292785645,6.58189568645884,5.632063625081125,26.10464425946131,20.654482374600523,9.71794142969884e-05,0.0867940634489059,0,0,0
2108,70396.5595515213,2010-08-20 09:54:34,6093.034660829683,2,6,0.5499359965324402,4.151896953582764,6.586482559626329,5.632063625081125,26.123681203212296,20.654482374600523,9.71794142969884e-05,0.0867940634489059,0,0,0
2109,70426.57457622826,2010-08-20 09:55:04,6123.049685491533,2,6,0.5501165986061096,4.155458450317383,6.59106946835923,5.632063625081125,26.142734114237367,20.654482374600523,9.71794142969884e-05,0.0867940634489059,0,0,0
2110,70456.58975981119,2010-08-20 09:55:34,6153.064869109549,2,6,0.5501165986061096,4.158857822418213,6.595656363775938,5.632063625081125,26.16180292357107,20.654482374600523,6.47544875391759e-05,0.0867940634489059,0,0,0
2111,70486.60498765443,2010-08-20 09:56:04,6183.080096917703,2,6,0.5501165986061096,4.162581443786621,6.600243303480442,5.632063625081125,26.180888005956348,20.654482374600523,0.0001295089750783,0.0867940634489059,0,0,0
2112,70516.62011451098,2010-08-20 09:56:34,6213.095223784279,2,6,0.5501165986061096,4.16614294052124,6.60483016114727,5.632063625081125,26.19998896100308,20.654482374600523,9.71794142969884e-05,0.0867940634489059,0,0,0
2113,70546.635305352,2010-08-20 09:57:04,6243.110414625297,2,6,0.550297200679779,4.169704437255859,6.60941703754852,5.632063625081125,26.21910636379997,20.654482374600523,9.71794142969884e-05,0.0867940634489059,0,0,0
2114,70576.65046238877,2010-08-20 09:57:34,6273.125571662065,2,6,0.5501165986061096,4.173265933990479,6.614003973533372,5.632063625081125,26.2382405461722,20.654482374600523,9.71794142969884e-05,0.0867940634489059,0,0,0
2115,70606.66566827729,2010-08-20 09:58:04,6303.140777575651,2,6,0.550297200679779,4.177151203155518,6.618590925595634,5.632063625081125,26.257391527032546,20.654482374600523,0.0001619339018361,0.0867940634489059,0,0,0
2116,70636.68095413514,2010-08-20 09:58:34,6333.156063408418,2,6,0.5501165986061096,4.180550575256348,6.623177871155166,5.632063625081125,26.27655931374077,20.654482374600523,9.70840483205393e-05,0.0867940634489059,0,0,0
2117,70666.6960175285,2010-08-20 09:59:04,6363.171126801798,2,6,0.550297200679779,4.184435844421387,6.627764752090341,5.632063625081125,26.29574387094624,20.654482374600523,0.0001295089750783,0.0867940634489059,0,0,0
2118,70696.71134650882,2010-08-20 09:59:34,6393.186455792128,2,6,0.550297200679779,4.188159465789795,6.632351657965486,5.632063625081125,26.31494555740533,20.654482374600523,0.0001295089750783,0.0867940634489059,0,0,0
2119,70726.72650915958,2010-08-20 10:00:04,6423.201618437876,2,6,0.550297200679779,4.192044734954834,6.636938523492197,5.632063625081125,26.3341644025685,20.654482374600523,0.0001619339018361,0.0867940634489059,0,0,0
2120,70756.74166763494,2010-08-20 10:00:34,6453.216776938292,2,6,0.5501165986061096,4.195605754852295,6.641525429127002,5.632063625081125,26.353400836757466,20.654482374600523,6.47544875391759e-05,0.0867940634489059,0,0,0
2121,70786.7568202557,2010-08-20 10:01:04,6483.23192952898,2,6,0.550297200679779,4.199653148651123,6.646112266573889,5.632063625081125,26.372654495773965,20.654482374600523,0.0001295089750783,0.0867940634489059,0,0,0
2122,70789.22544680764,2010-08-20 10:01:06,6485.700556080925,2,6,0.5501165986061096,4.200138568878174,6.64648952727866,5.632063625081125,26.37423888434775,20.654482374600523,0.0001618385285837,0.0867940634489059,0,0,0
2123,70819.24138483834,2010-08-20 10:01:36,30.015182816018385,3,6,0.0,4.121138572692871,6.64648952727866,5.632063625081125,26.37423888434775,20.654482374600523,-0.0003561019839253,0.0867940634489059,0,0,0
2124,70849.25937636454,2010-08-20 10:02:06,60.03317433719423,3,6,0.0,4.1111016273498535,6.64648952727866,5.632063625081125,26.37423888434775,20.654482374600523,-0.0001942634553415,0.0867940634489059,0,0,0
2125,70879.27171093183,2010-08-20 10:02:36,90.04550889948794,3,6,0.0,4.105112075805664,6.64648952727866,5.632063625081125,26.37423888434775,20.654482374600523,-0.0001295089750783,0.0867940634489059,0,0,0
2126,70909.2400633521,2010-08-20 10:03:06,120.01386131473826,3,6,0.0,4.101388454437256,6.64648952727866,5.632063625081125,26.37423888434775,20.654482374600523,-9.71794142969884e-05,0.0867940634489059,0,0,0
2127,70909.24259282641,2010-08-20 10:03:06,2.651608625e-06,4,6,1.0068774223327637,4.199976921081543,6.646489528020283,5.632063625081125,26.37423888746256,20.654482374600523,0.0,0.0867940634489059,0,0,0
2128,70910.05508901691,2010-08-20 10:03:07,0.812498847126685,4,6,0.9566680788993835,4.199814796447754,6.64670919734141,5.632063625081125,26.37516144342789,20.654482374600523,-3.24249267578125e-05,0.0867940634489059,0,0,0
2129,70912.19565503106,2010-08-20 10:03:09,2.953064891344582,4,6,0.9066393375396729,4.199814796447754,6.647261924952834,5.632063625081125,26.3774827596042,20.654482374600523,-3.24249267578125e-05,0.0867940634489059,0,0,0
2130,70915.3674911877,2010-08-20 10:03:13,6.124901007896604,4,6,0.8566105365753174,4.199653148651123,6.648037666427946,5.632063625081125,26.380740685500346,20.654482374600523,-3.23295607813634e-05,0.0867940634489059,0,0,0
2131,70919.61741982255,2010-08-20 10:03:17,10.374829657762424,4,6,0.8065817952156067,4.199976921081543,6.649018199438545,5.632063625081125,26.38485869810187,20.654482374600523,3.24249267578125e-05,0.0867940634489059,0,0,0
2132,70924.96111084979,2010-08-20 10:03:22,15.71852070005244,4,6,0.7565529942512512,4.199814796447754,6.650176895543854,5.632063625081125,26.38972494422733,20.654482374600523,0.0,0.0867940634489059,0,0,0
2133,70931.78911856595,2010-08-20 10:03:29,22.54652840618156,4,6,0.7065242528915405,4.199814796447754,6.651562429360879,5.632063625081125,26.39554385862081,20.654482374600523,3.23295607813634e-05,0.0867940634489059,0,0,0
2134,70940.58589769123,2010-08-20 10:03:38,31.343307541488016,4,6,0.6564954519271851,4.199653148651123,6.653225210378062,5.632063625081125,26.402527162249243,20.654482374600523,0.0,0.0867940634489059,0,0,0
2135,70952.58572106833,2010-08-20 10:03:50,43.34313090355964,4,6,0.6064667105674744,4.199653148651123,6.655326254517288,5.632063625081125,26.411351072101628,20.654482374600523,0.0,0.0867940634489059,0,0,0
2136,70969.83546112316,2010-08-20 10:04:07,60.59287097342608,4,6,0.5564379096031189,4.199814796447754,6.658105273551893,5.632063625081125,26.42302231335619,20.654482374600523,0.0,0.0867940634489059,0,0,0
2137,70996.96004660621,2010-08-20 10:04:34,87.71745645647614,4,6,0.5064091682434082,4.199814796447754,6.662095891059643,5.632063625081125,26.4397820148448,20.654482374600523,3.23295607813634e-05,0.0867940634489059,0,0,0
2138,71043.14686998642,2010-08-20 10:05:20,133.90427981160738,4,6,0.4563803970813751,4.199814796447754,6.668246653625328,5.632063625081125,26.465613823905866,20.654482374600523,3.23295607813634e-05,0.0867940634489059,0,0,0
2139,71118.53636209751,2010-08-20 10:06:36,209.29377193274004,4,6,0.406351625919342,4.199653148651123,6.677253911631301,5.632063625081125,26.50344227792417,20.654482374600523,3.24249267578125e-05,0.0867940634489059,0,0,0
2140,71222.89421993936,2010-08-20 10:08:20,313.65162977459204,4,6,0.3563228547573089,4.199653148651123,6.688292474111417,5.632063625081125,26.549801755833343,20.654482374600523,0.0,0.0867940634489059,0,0,0
2141,71351.32982441937,2010-08-20 10:10:29,442.0872342445788,4,6,0.3062940835952759,4.199653148651123,6.700096011187399,5.632063625081125,26.599373989435676,20.654482374600523,-3.23295607813634e-05,0.0867940634489059,0,0,0
2142,71506.57766421471,2010-08-20 10:13:04,597.3350740399148,4,6,0.2562653124332428,4.199653148651123,6.712200560802287,5.632063625081125,26.65021035508733,20.654482374600523,0.0,0.0867940634489059,0,0,0
2143,71696.77796010525,2010-08-20 10:16:14,787.5353699354546,4,6,0.2062365561723709,4.199814796447754,6.72438928829979,5.632063625081125,26.701400213981216,20.654482374600523,0.0,0.0867940634489059,0,0,0
2144,71949.16470140703,2010-08-20 10:20:26,1039.9221112272126,4,6,0.1562077850103378,4.199814796447754,6.737033148630184,5.632063625081125,26.7545015209056,20.654482374600523,0.0,0.0867940634489059,0,0,0
2145,72309.37813230674,2010-08-20 10:26:27,1400.1355421369412,4,6,0.1059984043240547,4.199653148651123,6.7500060605911,5.632063625081125,26.808984826387032,20.654482374600523,-3.23295607813634e-05,0.0867940634489059,0,0,0
2146,72950.30616277728,2010-08-20 10:37:08,2041.0635726275489,4,6,0.0559696331620216,4.199653148651123,6.763949181921158,5.632063625081125,26.86754273471595,20.654482374600523,0.0,0.0867940634489059,0,0,0
2147,73069.101255225,2010-08-20 10:39:06,2159.8586650552143,4,6,0.0498289167881011,4.199814796447754,6.765707931898783,5.632063625081125,26.874929086469848,20.654482374600523,0.0,0.0867940634489059,0,0,0
2148,73099.11967645878,2010-08-20 10:39:37,30.01516793392764,5,6,0.0,4.192368507385254,6.765707931898783,5.632063625081125,26.874929086469848,20.654482374600523,-3.23295607813634e-05,0.0867940634489059,0,0,0
2149,73129.11922951562,2010-08-20 10:40:07,60.0147209957895,5,6,0.0,4.191235065460205,6.765707931898783,5.632063625081125,26.874929086469848,20.654482374600523,-3.24249267578125e-05,0.0867940634489059,0,0,0
2150,73129.31076782543,2010-08-20 10:40:07,0.187385447191462,6,6,-1.9243103452026844e-05,4.191073417663574,6.765707931898783,5.632063626082759,26.874929086469848,20.65448237879844,0.0,0.0930307656526565,0,0,0
2151,73134.13896501844,2010-08-20 10:40:12,5.015582615133101,6,6,0.0010644125286489,4.191235065460205,6.765708952496571,5.632063626249989,26.874933364117748,20.654482379499317,-3.24249267578125e-05,0.0930307656526565,0,0,0
2152,73164.158244618,2010-08-20 10:40:42,30.015202730651776,7,6,-1.099568486213684,4.026921272277832,6.765708952496571,5.641231677381985,26.874933364117748,20.691587275852072,-0.0009065627818927,0.0930307656526565,0,0,0
2153,73194.17339324381,2010-08-20 10:41:12,60.03035133640766,7,6,-1.099568486213684,4.001990795135498,6.765708952496571,5.650399687833838,26.874933364117748,20.728384245059267,-0.0005503654247149,0.0930307656526565,0,0,0
2154,73224.18891964112,2010-08-20 10:41:42,90.04587774877388,7,6,-1.099568486213684,3.985316514968872,6.765708952496571,5.659567766179506,26.874933364117748,20.76499423898348,-0.0003885269106831,0.0930307656526565,0,0,0
2155,73254.20375574804,2010-08-20 10:42:12,120.060713840649,7,6,-1.0997490882873535,3.9720418453216553,6.765708952496571,5.66873552689778,26.874933364117748,20.80146713320108,-0.0003237724304199,0.0930307656526565,0,0,0
2156,73284.21892867441,2010-08-20 10:42:42,150.07588677203185,7,6,-1.099568486213684,3.961033582687378,6.765708952496571,5.677903326278368,26.874933364117748,20.83783062726092,-0.0002913951757363,0.0930307656526565,0,0,0
2157,73314.23423761477,2010-08-20 10:43:12,180.09119570737838,7,6,-1.099568486213684,3.95132040977478,6.765708952496571,5.687071245506943,26.874933364117748,20.874099357035373,-0.0002266406954731,0.0930307656526565,0,0,0
2158,73344.24931704813,2010-08-20 10:43:42,210.1062751407354,7,6,-1.0997490882873535,3.9419310092926025,6.765708952496571,5.696239119689881,26.874933364117748,20.910281002272782,-0.0002590179501567,0.0930307656526565,0,0,0
2159,73374.26451888155,2010-08-20 10:44:12,240.1214770192634,7,6,-1.099568486213684,3.9333510398864746,6.765708952496571,5.705406983014679,26.874933364117748,20.94638127060353,-0.0002266406954731,0.0930307656526565,0,0,0
2160,73404.27965113154,2010-08-20 10:44:42,270.1366092241433,7,6,-1.0993878841400146,3.925094842910767,6.765708952496571,5.714574841267384,26.874933364117748,20.98240378075529,-0.0001942634553415,0.0930307656526565,0,0,0
2161,73434.2948266243,2010-08-20 10:45:12,300.1517847118974,7,6,-1.099929690361023,3.917000532150269,6.765708952496571,5.723742767201937,26.874933364117748,21.01835178847527,-0.0002266406954731,0.0930307656526565,0,0,0
2162,73464.31002824719,2010-08-20 10:45:42,330.1669863297758,7,6,-1.0993878841400146,3.9092302322387695,6.765708952496571,5.73291061646518,26.874933364117748,21.05422714495115,-0.0001942634553415,0.0930307656526565,0,0,0
2163,73494.32532583426,2010-08-20 10:46:12,360.18228392185136,7,6,-1.099568486213684,3.901621580123901,6.765708952496571,5.742078497293285,26.874933364117748,21.090031960499235,-0.0001942634553415,0.0930307656526565,0,0,0
2164,73524.34037463626,2010-08-20 10:46:42,390.1973327338906,7,6,-1.0997490882873535,3.894012928009033,6.765708952496571,5.751246330743798,26.874933364117748,21.125767198550403,-0.0001942634553415,0.0930307656526565,0,0,0
2165,73554.35554672053,2010-08-20 10:47:12,420.2125048181622,7,6,-1.0997490882873535,3.886889934539795,6.765708952496571,5.760414206081255,26.874933364117748,21.16143485259589,-0.0001942634553415,0.0930307656526565,0,0,0
2166,73584.37074808279,2010-08-20 10:47:42,450.227706185416,7,6,-1.099568486213684,3.8796050548553462,6.765708952496571,5.769582053523764,26.874933364117748,21.19703536894517,-0.0002266406954731,0.0930307656526565,0,0,0
2167,73614.38590731501,2010-08-20 10:48:12,480.2428654126438,7,6,-1.0993878841400146,3.872482061386109,6.765708952496571,5.778749942679553,26.874933364117748,21.232569496307036,-0.0002266406954731,0.0930307656526565,0,0,0
2168,73644.40109722874,2010-08-20 10:48:42,510.2580553213394,7,6,-1.0997490882873535,3.86552095413208,6.765708952496571,5.787917883557508,26.874933364117748,21.26803890479361,-0.0001295089750783,0.0930307656526565,0,0,0
2169,73674.41626372408,2010-08-20 10:49:12,540.2732218066566,7,6,-1.0997490882873535,3.858397960662842,6.765708952496571,5.797085818992345,26.874933364117748,21.303444288316843,-0.0001618862152099,0.0930307656526565,0,0,0
2170,73704.43149552218,2010-08-20 10:49:42,570.2884536197909,7,6,-1.099568486213684,3.851598739624024,6.765708952496571,5.806253737896761,26.874933364117748,21.338786027691956,-0.0001618862152099,0.0930307656526565,0,0,0
2171,73734.44665848873,2010-08-20 10:50:12,600.3036165913508,7,6,-1.0993878841400146,3.844961404800415,6.765708952496571,5.815421641068006,26.874933364117748,21.374065170449573,-0.0001295089750783,0.0930307656526565,0,0,0
2172,73764.46188744473,2010-08-20 10:50:42,630.3188455473642,7,6,-1.099568486213684,3.8380002975463863,6.765708952496571,5.824589601337297,26.874933364117748,21.40928307274825,-0.0002266406954731,0.0930307656526565,0,0,0
2173,73794.47701528874,2010-08-20 10:51:12,660.3339734064128,7,6,-1.099568486213684,3.831525087356568,6.765708952496571,5.833757502330753,26.874933364117748,21.44444040547832,-0.0001942634553415,0.0930307656526565,0,0,0
2174,73824.49217431547,2010-08-20 10:51:42,690.3491324080786,7,6,-1.099568486213684,3.825049638748169,6.765708952496571,5.842925482120923,26.874933364117748,21.479538378092546,-0.0001942634553415,0.0930307656526565,0,0,0
2175,73854.50734472055,2010-08-20 10:52:12,720.3643028181776,7,6,-1.0997490882873535,3.8185741901397705,6.765708952496571,5.852093421278317,26.874933364117748,21.51457726130224,-0.0001942634553415,0.0930307656526565,0,0,0
2176,73884.52254281966,2010-08-20 10:52:42,750.3795009122736,7,6,-1.099568486213684,3.812260627746582,6.765708952496571,5.861261406096764,26.874933364117748,21.54955819051372,-0.0001942634553415,0.0930307656526565,0,0,0
2177,73914.53770354061,2010-08-20 10:53:12,780.3946616332244,7,6,-1.099568486213684,3.806108951568604,6.765708952496571,5.870429326986371,26.874933364117748,21.5844809606394,-0.0001942634553415,0.0930307656526565,0,0,0
2178,73944.55304357347,2010-08-20 10:53:42,810.4100016660756,7,6,-1.0997490882873535,3.799957275390625,6.765708952496571,5.879597288735929,26.874933364117748,21.61934757716501,-0.0001618862152099,0.0930307656526565,0,0,0
2179,73974.56820242977,2010-08-20 10:54:12,840.4251605273913,7,6,-1.099568486213684,3.793967485427856,6.765708952496571,5.888765165210915,26.874933364117748,21.65415831874513,-0.0001618862152099,0.0930307656526565,0,0,0
2180,74004.58326733692,2010-08-20 10:54:42,870.4402254345447,7,6,-1.099568486213684,3.788139581680298,6.765708952496571,5.897933030776634,26.874933364117748,21.68891456471812,-0.0001618862152099,0.0930307656526565,0,0,0
2181,74034.59842610802,2010-08-20 10:55:12,900.455384230698,7,6,-1.0993878841400146,3.782473564147949,6.765708952496571,5.907100971435288,26.874933364117748,21.72361773421377,-0.0001295089750783,0.0930307656526565,0,0,0
2182,74064.6136139265,2010-08-20 10:55:42,930.4705720090842,7,6,-1.0997490882873535,3.776645660400391,6.765708952496571,5.916268914187683,26.874933364117748,21.758268415784578,-0.0001942634553415,0.0930307656526565,0,0,0
2183,74094.6288590879,2010-08-20 10:56:12,960.4858173258738,7,6,-1.099568486213684,3.771141529083252,6.765708952496571,5.925436863320923,26.874933364117748,21.79286697268375,-0.0001295089750783,0.0930307656526565,0,0,0
2184,74124.64397815002,2010-08-20 10:56:42,990.5009362426356,7,6,-1.0997490882873535,3.765637397766113,6.765708952496571,5.934604760975919,26.874933364117748,21.82741466157003,-9.713172767078504e-05,0.0930307656526565,0,0,0
2185,74154.65916841962,2010-08-20 10:57:12,1020.516126517243,7,6,-1.099568486213684,3.760133266448975,6.765708952496571,5.94377270439116,26.874933364117748,21.861912556915765,-0.0001618862152099,0.0930307656526565,0,0,0
2186,74184.67447020716,2010-08-20 10:57:42,1050.5314283097875,7,6,-1.0997490882873535,3.754791021347046,6.765708952496571,5.952940740068475,26.874933364117748,21.89636201501196,-0.0001618862152099,0.0930307656526565,0,0,0
2187,74214.68953217198,2010-08-20 10:58:12,1080.5464902545575,7,6,-1.099568486213684,3.749772787094116,6.765708952496571,5.962108681875967,26.874933364117748,21.93076310192564,-0.0001295089750783,0.0930307656526565,0,0,0
2188,74244.70468417619,2010-08-20 10:58:42,1110.561642263796,7,6,-1.099568486213684,3.7445924282073975,6.765708952496571,5.971276629005417,26.874933364117748,21.96511734304304,-0.0001618862152099,0.0930307656526565,0,0,0
2189,74274.71998637475,2010-08-20 10:59:12,1140.5769444773898,7,6,-1.099568486213684,3.739735841751098,6.765708952496571,5.980444658971943,26.874933364117748,21.999425564149316,-0.0001295089750783,0.0930307656526565,0,0,0
2190,74304.73766137204,2010-08-20 10:59:42,1170.5946194596534,7,6,-1.099568486213684,3.73471736907959,6.765708952496571,5.989613267820793,26.874933364117748,22.03369041773903,-0.0001618862152099,0.0930307656526565,0,0,0
2191,74334.75020386759,2010-08-20 11:00:12,1200.6071619451557,7,6,-1.099568486213684,3.729860782623291,6.765708952496571,5.998780320615763,26.874933364117748,22.06790503432151,-0.0001618862152099,0.0930307656526565,0,0,0
2192,74364.76540671852,2010-08-20 11:00:42,1230.6223648111447,7,6,-1.099568486213684,3.725327968597412,6.765708952496571,6.007948171711967,26.874933364117748,22.102079267078537,-9.713172767078504e-05,0.0930307656526565,0,0,0
2193,74394.78063322845,2010-08-20 11:01:12,1260.6375913461245,7,6,-1.0997490882873535,3.7206332683563232,6.765708952496571,6.017116660110552,26.874933364117748,22.136212681482597,-6.47544875391759e-05,0.0930307656526565,0,0,0
2194,74424.79582229003,2010-08-20 11:01:42,1290.652780392671,7,6,-1.0997490882873535,3.7159385681152335,6.765708952496571,6.026285406316321,26.874933364117748,22.17030460028152,-0.0001295089750783,0.0930307656526565,0,0,0
2195,74454.81100432911,2010-08-20 11:02:12,1320.667962421728,7,6,-1.0997490882873535,3.711567640304565,6.765708952496571,6.035454192027808,26.874933364117748,22.20435483058582,-9.713172767078504e-05,0.0930307656526565,0,0,0
2196,74484.82622303958,2010-08-20 11:02:42,1350.6831811322063,7,6,-1.099929690361023,3.7070348262786874,6.765708952496571,6.044622963767308,26.874933364117748,22.23836418654403,-9.713172767078504e-05,0.0930307656526565,0,0,0
2197,74514.8414925166,2010-08-20 11:03:12,1380.6984506192357,7,6,-1.0997490882873535,3.702825784683228,6.765708952496571,6.053791267293299,26.874933364117748,22.27233220710702,-6.47544875391759e-05,0.0930307656526565,0,0,0
2198,74544.8566830318,2010-08-20 11:03:42,1410.7136411244178,7,6,-1.0997490882873535,3.698454856872559,6.765708952496571,6.062959314788404,26.874933364117748,22.306260170608265,-0.0001295089750783,0.0930307656526565,0,0,0
2199,74574.87172093165,2010-08-20 11:04:12,1440.7286790292728,7,6,-1.0997490882873535,3.6944077014923096,6.765708952496571,6.072127233485873,26.874933364117748,22.340148988498647,-0.0001295089750783,0.0930307656526565,0,0,0
2200,74604.88690504088,2010-08-20 11:04:42,1470.743863133502,7,6,-1.099568486213684,3.690360546112061,6.765708952496571,6.081295247205989,26.874933364117748,22.374000187844462,-9.713172767078504e-05,0.0930307656526565,0,0,0
2201,74634.90210544574,2010-08-20 11:05:13,1500.759063568432,7,6,-1.099568486213684,3.6861515045166016,6.765708952496571,6.0904632645056616,26.874933364117748,22.40781448443101,-0.0001618862152099,0.0930307656526565,0,0,0
2202,74664.91755120711,2010-08-20 11:05:43,1530.7745093247786,7,6,-1.0997490882873535,3.6822662353515625,6.765708952496571,6.099631364881778,26.874933364117748,22.441592955373824,-0.0001295089750783,0.0930307656526565,0,0,0
2203,74694.93256706701,2010-08-20 11:06:13,1560.7895251696536,7,6,-1.099568486213684,3.678542852401733,6.765708952496571,6.108799390234693,26.874933364117748,22.47533548008693,-9.713172767078504e-05,0.0930307656526565,0,0,0
2204,74724.94773187315,2010-08-20 11:06:43,1590.8046899757858,7,6,-1.099568486213684,3.6746575832366943,6.765708952496571,6.117967408699872,26.874933364117748,22.5090429909614,-0.0001295089750783,0.0930307656526565,0,0,0
2205,74754.96289334095,2010-08-20 11:07:13,1620.8198514335727,7,6,-1.099568486213684,3.670934438705444,6.765708952496571,6.127135484309656,26.874933364117748,22.542715929848267,-0.0001295089750783,0.0930307656526565,0,0,0
2206,74784.97798719526,2010-08-20 11:07:43,1650.8349452978964,7,6,-1.0997490882873535,3.6672110557556152,6.765708952496571,6.136303584893461,26.874933364117748,22.57635459596717,-0.0001618862152099,0.0930307656526565,0,0,0
2207,74814.99315474322,2010-08-20 11:08:13,1680.850112845862,7,6,-1.099568486213684,3.663811445236206,6.765708952496571,6.145471632151869,26.874933364117748,22.6099593954465,-9.713172767078504e-05,0.0930307656526565,0,0,0
2208,74845.00834051661,2010-08-20 11:08:43,1710.8652986042136,7,6,-1.099568486213684,3.659926176071167,6.765708952496571,6.154639753192078,26.874933364117748,22.64353165996001,-9.713172767078504e-05,0.0930307656526565,0,0,0
2209,74875.02349532784,2010-08-20 11:09:13,1740.8804534304727,7,6,-1.0993878841400146,3.656688451766968,6.765708952496571,6.163807807382193,26.874933364117748,22.677071677503218,-6.47544875391759e-05,0.0930307656526565,0,0,0
2210,74905.03868667512,2010-08-20 11:09:43,1770.8956447677288,7,6,-1.099568486213684,3.653288841247559,6.765708952496571,6.172975932301917,26.874933364117748,22.71058076323831,-6.47544875391759e-05,0.0930307656526565,0,0,0
2211,74935.054086106,2010-08-20 11:10:13,1800.911044208643,7,6,-1.099568486213684,3.65005111694336,6.765708952496571,6.182143997478177,26.874933364117748,22.74405892634897,-6.47544875391759e-05,0.0930307656526565,0,0,0
2212,74965.0690318211,2010-08-20 11:10:43,1830.9259899187205,7,6,-1.099568486213684,3.64648962020874,6.765708952496571,6.191311961911595,26.874933364117748,22.777506459721597,-9.713172767078504e-05,0.0930307656526565,0,0,0
2213,74995.08433371891,2010-08-20 11:11:13,1860.9412918115147,7,6,-1.099568486213684,3.643413782119751,6.765708952496571,6.200479960283098,26.874933364117748,22.810924578928336,-0.0001295089750783,0.0930307656526565,0,0,0
2214,75025.09959194787,2010-08-20 11:11:43,1890.9565500505105,7,6,-1.099568486213684,3.6403379440307617,6.765708952496571,6.209647946634993,26.874933364117748,22.84431431497161,-9.713172767078504e-05,0.0930307656526565,0,0,0
2215,75055.11458006364,2010-08-20 11:12:13,1920.9715381813128,7,6,-1.0997490882873535,3.637262105941773,6.765708952496571,6.218815850278718,26.874933364117748,22.877675344061668,-9.713172767078504e-05,0.0930307656526565,0,0,0
2216,75085.12973531095,2010-08-20 11:12:43,1950.98669340356,7,6,-1.0997490882873535,3.634510040283203,6.765708952496571,6.22798384541582,26.874933364117748,22.911009548736565,-9.713172767078504e-05,0.0930307656526565,0,0,0
2217,75115.14505907826,2010-08-20 11:13:13,1981.0020171808967,7,6,-1.099568486213684,3.631757974624634,6.765708952496571,6.237151937678854,26.874933364117748,22.944318227883457,-6.47544875391759e-05,0.0930307656526565,0,0,0
2218,75145.16033996371,2010-08-20 11:13:43,2011.0172980863845,7,6,-1.099568486213684,3.629005908966065,6.765708952496571,6.246319983869811,26.874933364117748,22.977601138800544,-6.47544875391759e-05,0.0930307656526565,0,0,0
2219,75175.17529335793,2010-08-20 11:14:13,2041.032251450538,7,6,-1.0997490882873535,3.626253843307495,6.765708952496571,6.255487957195169,26.874933364117748,23.010858587168045,-6.47544875391759e-05,0.0930307656526565,0,0,0
2220,75205.190485026,2010-08-20 11:14:43,2071.047443128644,7,6,-1.099568486213684,3.623339891433716,6.765708952496571,6.2646559261168,26.874933364117748,23.044091104146887,-9.713172767078504e-05,0.0930307656526565,0,0,0
2221,75235.20563720567,2010-08-20 11:15:13,2101.0625952982814,7,6,-1.099568486213684,3.620749711990357,6.765708952496571,6.273823979036042,26.874933364117748,23.07729907658297,-6.47544875391759e-05,0.0930307656526565,0,0,0
2222,75265.22094285283,2010-08-20 11:15:43,2131.077900970496,7,6,-1.0993878841400146,3.618321418762207,6.765708952496571,6.282992024262721,26.874933364117748,23.11048269579055,-6.47544875391759e-05,0.0930307656526565,0,0,0
2223,75295.23599613098,2010-08-20 11:16:13,2161.092954223604,7,6,-1.099568486213684,3.6155693531036377,6.765708952496571,6.292160054277169,26.874933364117748,23.143642165232983,-3.237724376958795e-05,0.0930307656526565,0,0,0
2224,75325.25117278665,2010-08-20 11:16:43,2191.1081308792686,7,6,-1.099568486213684,3.6129791736602783,6.765708952496571,6.30132802685977,26.874933364117748,23.176777755858385,-6.47544875391759e-05,0.0930307656526565,0,0,0
2225,75355.26647595262,2010-08-20 11:17:13,2221.1234340502483,7,6,-1.099568486213684,3.610388994216919,6.765708952496571,6.310496143037162,26.874933364117748,23.20989059653975,-6.47544875391759e-05,0.0930307656526565,0,0,0
2226,75385.28156495483,2010-08-20 11:17:43,2251.138523047441,7,6,-1.099568486213684,3.6079607009887695,6.765708952496571,6.319664165391808,26.874933364117748,23.24297961281087,-3.237724376958795e-05,0.0930307656526565,0,0,0
2227,75415.29671728487,2010-08-20 11:18:13,2281.153675382492,7,6,-1.099568486213684,3.6052086353302,6.765708952496571,6.328832255990799,26.874933364117748,23.27604524415028,-9.713172767078504e-05,0.0930307656526565,0,0,0
2228,75445.3118959305,2010-08-20 11:18:43,2311.168854023103,7,6,-1.0993878841400146,3.602780342102051,6.765708952496571,6.337999791366002,26.874933364117748,23.30908494687045,-6.47544875391759e-05,0.0930307656526565,0,0,0
2229,75475.32708589933,2010-08-20 11:19:13,2341.184043991949,7,6,-1.0993878841400146,3.600028276443481,6.765708952496571,6.347167076311528,26.874933364117748,23.34210005626552,-6.47544875391759e-05,0.0930307656526565,0,0,0
2230,75505.34225797358,2010-08-20 11:19:43,2371.199216066196,7,6,-1.099568486213684,3.597438097000122,6.765708952496571,6.356334366244344,26.874933364117748,23.375090902119503,-6.47544875391759e-05,0.0930307656526565,0,0,0
2231,75535.35742261431,2010-08-20 11:20:13,2401.214380706916,7,6,-1.0997490882873535,3.5945241451263428,6.765708952496571,6.365501635828696,26.874933364117748,23.408056919524387,-9.713172767078504e-05,0.0930307656526565,0,0,0
2232,75565.37261413202,2010-08-20 11:20:43,2431.229572229634,7,6,-1.099568486213684,3.5919342041015625,6.765708952496571,6.374669451522101,26.874933364117748,23.441000226650345,-6.470680091297254e-05,0.0930307656526565,0,0,0
2233,75595.38785019073,2010-08-20 11:21:13,2461.244808283337,7,6,-1.099568486213684,3.589182138442993,6.765708952496571,6.383837560739728,26.874933364117748,23.47391944415608,-6.47544875391759e-05,0.0930307656526565,0,0,0
2234,75625.40298276652,2010-08-20 11:21:43,2491.259940874179,7,6,-1.099568486213684,3.586430072784424,6.765708952496571,6.393005626339805,26.874933364117748,23.506813110311587,-3.237724376958795e-05,0.0930307656526565,0,0,0
2235,75655.41817702606,2010-08-20 11:22:13,2521.2751351186807,7,6,-1.0993878841400146,3.5835161209106445,6.765708952496571,6.402173749299581,26.874933364117748,23.53968037320029,-6.47544875391759e-05,0.0930307656526565,0,0,0
2236,75685.43334198759,2010-08-20 11:22:43,2551.290300110275,7,6,-1.099568486213684,3.580602169036865,6.765708952496571,6.411341811580114,26.874933364117748,23.57252053457917,-6.47544875391759e-05,0.0930307656526565,0,0,0
2237,75715.44850139024,2010-08-20 11:23:13,2581.3054594979026,7,6,-1.099568486213684,3.577526330947876,6.765708952496571,6.420509905938108,26.874933364117748,23.60533333740253,-6.47544875391759e-05,0.0930307656526565,0,0,0
2238,75745.46368629148,2010-08-20 11:23:43,2611.3206443941053,7,6,-1.0997490882873535,3.5744504928588867,6.765708952496571,6.4296780173626,26.874933364117748,23.63811865754075,-9.713172767078504e-05,0.0930307656526565,0,0,0
2239,75775.47886878168,2010-08-20 11:24:13,2641.335826869274,7,6,-1.099568486213684,3.5712127685546875,6.765708952496571,6.438846127649022,26.874933364117748,23.67087544760508,-9.713172767078504e-05,0.0930307656526565,0,0,0
2240,75805.49428000695,2010-08-20 11:24:43,2671.351238109596,7,6,-1.0997490882873535,3.5681369304656982,6.765708952496571,6.448014310341255,26.874933364117748,23.70360347624809,-6.47544875391759e-05,0.0930307656526565,0,0,0
2241,75835.50922812805,2010-08-20 11:25:13,2701.3661862306826,7,6,-1.099568486213684,3.564899206161499,6.765708952496571,6.457182335559703,26.874933364117748,23.736301330628635,-6.47544875391759e-05,0.0930307656526565,0,0,0
2242,75865.52441933498,2010-08-20 11:25:43,2731.381377452651,7,6,-1.099568486213684,3.5616614818573,6.765708952496571,6.466350367253004,26.874933364117748,23.768969374837138,-9.713172767078504e-05,0.0930307656526565,0,0,0
2243,75895.53972140321,2010-08-20 11:26:13,2761.3966794958205,7,6,-1.099568486213684,3.5580999851226807,6.765708952496571,6.475518454882431,26.874933364117748,23.801607398149017,-0.0001295089750783,0.0930307656526565,0,0,0
2244,75925.55488177329,2010-08-20 11:26:43,2791.411839875921,7,6,-1.0997490882873535,3.5547003746032715,6.765708952496571,6.484686547156585,26.874933364117748,23.834214064104504,-0.0001295089750783,0.0930307656526565,0,0,0
2245,75955.56993874065,2010-08-20 11:27:13,2821.4268968332613,7,6,-1.0997490882873535,3.5511388778686523,6.765708952496571,6.493854651467788,26.874933364117748,23.866788120422903,-9.713172767078504e-05,0.0930307656526565,0,0,0
2246,75985.58521323014,2010-08-20 11:27:43,2851.442171377896,7,6,-1.099568486213684,3.5474154949188232,6.765708952496571,6.503022794473928,26.874933364117748,23.8993284828618,-9.713172767078504e-05,0.0930307656526565,0,0,0
2247,76015.6002955507,2010-08-20 11:28:13,2881.457253648324,7,6,-1.0997490882873535,3.543368339538574,6.765708952496571,6.512190927319454,26.874933364117748,23.93183377661925,-0.0001618862152099,0.0930307656526565,0,0,0
2248,76045.6154551288,2010-08-20 11:28:43,2911.4724132314386,7,6,-1.0993878841400146,3.539483070373535,6.765708952496571,6.52135906530973,26.874933364117748,23.964302324258387,-0.0001295089750783,0.0930307656526565,0,0,0
2249,76075.63063698744,2010-08-20 11:29:13,2941.4875950850583,7,6,-1.099568486213684,3.535274028778076,6.765708952496571,6.53052723062499,26.874933364117748,23.99673259773644,-9.713172767078504e-05,0.0930307656526565,0,0,0
2250,76105.64606038305,2010-08-20 11:29:43,2971.5030184806747,7,6,-1.099568486213684,3.5309031009674072,6.765708952496571,6.539695386645076,26.874933364117748,24.02912306854381,-9.713172767078504e-05,0.0930307656526565,0,0,0
2251,76135.66109545084,2010-08-20 11:30:13,3001.518053593572,7,6,-1.099568486213684,3.5260465145111084,6.765708952496571,6.54886352754643,26.874933364117748,24.061471720849955,-0.0001295089750783,0.0930307656526565,0,0,0
2252,76165.67630213636,2010-08-20 11:30:43,3031.5332602389803,7,6,-1.099568486213684,3.5213518142700195,6.765708952496571,6.558031653208266,26.874933364117748,24.093777253941635,-0.0001295089750783,0.0930307656526565,0,0,0
2253,76195.69135539947,2010-08-20 11:31:13,3061.5483134971005,7,6,-1.099568486213684,3.5164952278137207,6.765708952496571,6.567199748913124,26.874933364117748,24.12603882776176,-0.0001295089750783,0.0930307656526565,0,0,0
2254,76225.70919280153,2010-08-20 11:31:43,3091.5661509192137,7,6,-1.099568486213684,3.511476993560791,6.765708952496571,6.576368711181147,26.874933364117748,24.158257963033225,-9.70840483205393e-05,0.0930307656526565,0,0,0
2255,76255.72179331166,2010-08-20 11:32:13,3121.578751524569,7,6,-1.099568486213684,3.5061347484588623,6.765708952496571,6.585536067051811,26.874933364117748,24.19042443714685,-0.0001618862152099,0.0930307656526565,0,0,0
2256,76285.73689491527,2010-08-20 11:32:43,3151.593853007881,7,6,-1.099568486213684,3.500630617141724,6.765708952496571,6.594704250775152,26.874933364117748,24.222544628863496,-0.0001618862152099,0.0930307656526565,0,0,0
2257,76315.75210010204,2010-08-20 11:33:13,3181.609058199667,7,6,-1.0997490882873535,3.494640827178955,6.765708952496571,6.603872404539139,26.874933364117748,24.25461202803703,-0.0001942634553415,0.0930307656526565,0,0,0
2258,76345.76727744442,2010-08-20 11:33:43,3211.624235537031,7,6,-1.099568486213684,3.4881653785705566,6.765708952496571,6.613040555483732,26.874933364117748,24.286622409484025,-0.0001618862152099,0.0930307656526565,0,0,0
2259,76375.78249720752,2010-08-20 11:34:13,3241.639455305145,7,6,-1.0997490882873535,3.4808804988861084,6.765708952496571,6.622208768720975,26.874933364117748,24.31857094495181,-0.0002266406954731,0.0930307656526565,0,0,0
2260,76405.79761327719,2010-08-20 11:34:43,3271.6545713697983,7,6,-1.099568486213684,3.4729480743408203,6.765708952496571,6.631376815514741,26.874933364117748,24.3504480326493,-0.0002590179501567,0.0930307656526565,0,0,0
2261,76435.81278508077,2010-08-20 11:35:13,3301.669743188408,7,6,-1.0997490882873535,3.4640443325042725,6.765708952496571,6.640544930150881,26.874933364117748,24.38224765376764,-0.0001942634553415,0.0930307656526565,0,0,0
2262,76465.82798754574,2010-08-20 11:35:43,3331.6849456283358,7,6,-1.099568486213684,3.453683614730835,6.765708952496571,6.649713051680941,26.874933364117748,24.413959999754443,-0.0003237724304199,0.0930307656526565,0,0,0
2263,76495.8431460161,2010-08-20 11:36:13,3361.700104113714,7,6,-1.099568486213684,3.441542148590088,6.765708952496571,6.658881139854776,26.874933364117748,24.44557050711752,-0.0003885269106831,0.0930307656526565,0,0,0
2264,76525.858362892,2010-08-20 11:36:43,3391.7153209846074,7,6,-1.099568486213684,3.4271345138549805,6.765708952496571,6.66804925854953,26.874933364117748,24.47705955926168,-0.0004209041653666,0.0930307656526565,0,0,0
2265,76555.87351711174,2010-08-20 11:37:14,3421.730475204356,7,6,-1.0997490882873535,3.408031940460205,6.765708952496571,6.677217426740922,26.874933364117748,24.50839642712724,-0.0005827903514727,0.0930307656526565,0,0,0
2266,76585.888979284,2010-08-20 11:37:44,3451.745937381628,7,6,-1.099568486213684,3.382939577102661,6.765708952496571,6.686385678670557,26.874933364117748,24.539533470507177,-0.0007446765666827,0.0930307656526565,0,0,0
2267,76615.90413177946,2010-08-20 11:38:14,3481.761089887103,7,6,-1.0997490882873535,3.347486734390259,6.765708952496571,6.695553783782168,26.874933364117748,24.57039575247462,-0.0011007785797119,0.0930307656526565,0,0,0
2268,76645.91917646621,2010-08-20 11:38:44,3511.776134573861,7,6,-1.099568486213684,3.297463893890381,6.765708952496571,6.704721870100991,26.874933364117748,24.60087027385545,-0.0015217304462566,0.0930307656526565,0,0,0
2269,76675.93422118305,2010-08-20 11:39:14,3541.791179285681,7,6,-1.0997490882873535,3.2251009941101074,6.765708952496571,6.713889990433411,26.874933364117748,24.63078911145266,-0.0022016526199877,0.0930307656526565,0,0,0
2270,76705.94942602896,2010-08-20 11:39:44,3571.8063841065423,7,6,-1.0997490882873535,3.1179325580596924,6.765708952496571,6.723058209892963,26.874933364117748,24.65990117844817,-0.003431987715885,0.0930307656526565,0,0,0
2271,76735.96465374189,2010-08-20 11:40:14,3601.8216119447698,7,6,-1.099929690361023,2.939210891723633,6.765708952496571,6.732227096499167,26.874933364117748,24.68775949822697,-0.0064106462523341,0.0930307656526565,0,0,0
2272,76752.91747192104,2010-08-20 11:40:31,3618.7744300286863,7,6,-1.099568486213684,2.7391200065612797,6.765708952496571,6.737405749633274,26.874933364117748,24.702520028702928,-0.0119795324280858,0.0930307656526565,0,0,0
2273,76755.26117928092,2010-08-20 11:40:33,3621.118137373531,7,6,-1.0997490882873535,2.699620008468628,6.765708952496571,6.738121696603564,26.874933364117748,24.70446721960821,-0.013080358505249,0.0930307656526565,0,0,0
2274,76815.27919598558,2010-08-20 11:41:33,60.01475354691693,8,6,0.0,3.3311362266540527,6.765708952496571,6.738121696603564,26.874933364117748,24.70446721960821,0.0012303352123126,0.0930307656526565,0,0,0
2275,76815.47063970834,2010-08-20 11:41:33,0.18731490638206,9,6,-1.9243103452026844e-05,3.3314599990844727,6.765708952496571,6.73812169760482,26.874933364117748,24.70446722294385,0.0,0.0860607847571373,0,0,0
2276,76820.29868190504,2010-08-20 11:41:38,5.015357133162651,9,6,0.0008838032954372,3.339068651199341,6.765709906183314,6.738121697688574,26.874936545383708,24.70446722322287,0.0011332035064697,0.0860607847571373,0,0,0
