Data_Point,Test_Time(s),Date_Time,Step_Time(s),Step_Index,Cycle_Index,Current(A),Voltage(V),Charge_Capacity(Ah),Discharge_Capacity(Ah),Charge_Energy(Wh),Discharge_Energy(Wh),dV/dt(V/s),Internal_Resistance(Ohm),Is_FC_Data,AC_Impedance(Ohm),ACI_Phase_Angle(Deg)
4517,151967.24565398824,2010-08-21 08:34:13,30.015274705034084,1,13,0.0,3.3528287410736084,13.387589781845175,13.359762740479498,53.17625792475764,49.01312276072699,0.0007446288946084,0.0849411338567733,0,0,0
4518,151997.2610420508,2010-08-21 08:34:43,60.03066274754002,1,13,0.0,3.3763022422790527,13.387589781845175,13.359762740479498,53.17625792475764,49.01312276072699,0.0005180359003134,0.0849411338567733,0,0,0
4519,152027.27615017566,2010-08-21 08:35:13,90.04577087240507,1,13,0.0,3.3942716121673584,13.387589781845175,13.359762740479498,53.17625792475764,49.01312276072699,0.0004209041653666,0.0849411338567733,0,0,0
4520,152057.24457826954,2010-08-21 08:35:43,120.01419896626976,1,13,0.0,3.408193826675415,13.387589781845175,13.359762740479498,53.17625792475764,49.01312276072699,0.0003237724304199,0.0849411338567733,0,0,0
4521,152087.25830656887,2010-08-21 08:36:13,30.01573987437922,2,13,0.550297200679779,3.545149087905884,13.392176847124404,13.359762740479498,53.19236378675316,49.01312276072699,0.0016188621520996,0.0849411338567733,0,0,0
4522,152117.27340620256,2010-08-21 08:36:43,60.03083951810667,2,13,0.5501165986061096,3.5919342041015625,13.396763782802571,13.359762740479498,53.20873800340052,49.01312276072699,0.0011008263099938,0.0849411338567733,0,0,0
4523,152147.28843100977,2010-08-21 08:37:13,90.04586430025603,2,13,0.5501165986061096,3.6278727054595943,13.401350688809432,13.359762740479498,53.2252995400373,49.01312276072699,0.0008741855854168,0.0849411338567733,0,0,0
4524,152177.303767178,2010-08-21 08:37:43,120.0612005837626,2,13,0.5499359965324402,3.657335996627808,13.405937642659396,13.359762740479498,53.24201015021632,49.01312276072699,0.0007122993702068,0.0849411338567733,0,0,0
4525,152207.31907939652,2010-08-21 08:38:13,150.07651269201702,2,13,0.5501165986061096,3.682428121566773,13.410524646908472,13.359762740479498,53.25884566109573,49.01312276072699,0.0006151676061563,0.0849411338567733,0,0,0
4526,152237.334264814,2010-08-21 08:38:43,180.09169810450663,2,13,0.5501165986061096,3.7041208744049072,13.415111580639463,13.359762740479498,53.27578764716882,49.01312276072699,0.0005827903514727,0.0849411338567733,0,0,0
4527,152267.3494985419,2010-08-21 08:39:13,210.1069318324131,2,13,0.550297200679779,3.7225759029388423,13.419698545475924,13.359762740479498,53.29282143268487,49.01312276072699,0.0004856586456298,0.0849411338567733,0,0,0
4528,152297.36479222926,2010-08-21 08:39:43,240.12222551474443,2,13,0.5501165986061096,3.7368218898773193,13.424285511671629,13.359762740479498,53.30993075294863,49.01312276072699,0.0003561496851034,0.0849411338567733,0,0,0
4529,152327.38004162622,2010-08-21 08:40:13,270.137474921728,2,13,0.5499359965324402,3.746049404144287,13.428872543277944,13.359762740479498,53.327095172762455,49.01312276072699,0.0001618862152099,0.0849411338567733,0,0,0
4530,152357.39532451166,2010-08-21 08:40:43,300.1527578221876,2,13,0.5501165986061096,3.751067876815796,13.433459476598152,13.359762740479498,53.34429095936608,49.01312276072699,0.0001295089750783,0.0849411338567733,0,0,0
4531,152387.410588906,2010-08-21 08:41:13,330.16802221652426,2,13,0.550297200679779,3.754143476486206,13.438046407462094,13.359762740479498,53.36150405242954,49.01312276072699,6.47544875391759e-05,0.0849411338567733,0,0,0
4532,152417.4258496312,2010-08-21 08:41:43,360.18328292166626,2,13,0.550297200679779,3.756571769714356,13.442633419218124,13.359762740479498,53.378729665794914,49.01312276072699,6.47544875391759e-05,0.0849411338567733,0,0,0
4533,152447.44124460596,2010-08-21 08:42:13,390.1986778914371,2,13,0.550297200679779,3.758838176727295,13.447220478810308,13.359762740479498,53.39596634455122,49.01312276072699,3.237724376958795e-05,0.0849411338567733,0,0,0
4534,152477.4564049259,2010-08-21 08:42:43,420.2138382364509,2,13,0.5501165986061096,3.760942697525024,13.451807480882426,13.359762740479498,53.41321335420994,49.01312276072699,-3.237724376958795e-05,0.0849411338567733,0,0,0
4535,152507.4716765182,2010-08-21 08:43:13,450.22910982872696,2,13,0.5499359965324402,3.763370990753174,13.456394431231088,13.359762740479498,53.43047080693951,49.01312276072699,3.237724376958795e-05,0.0849411338567733,0,0,0
4536,152537.48693754914,2010-08-21 08:43:43,480.24437083461856,2,13,0.550297200679779,3.765961170196533,13.460981434433869,13.359762740479498,53.44773925129178,49.01312276072699,9.713172767078504e-05,0.0849411338567733,0,0,0
4537,152567.502229031,2010-08-21 08:44:13,510.2596623164656,2,13,0.5499359965324402,3.768065690994263,13.465568460510871,13.359762740479498,53.465018679227626,49.01312276072699,6.47544875391759e-05,0.0849411338567733,0,0,0
4538,152597.51748491413,2010-08-21 08:44:43,540.2749181995897,2,13,0.550297200679779,3.770493984222412,13.470155528565533,13.359762740479498,53.48230928375519,49.01312276072699,3.237724376958795e-05,0.0849411338567733,0,0,0
4539,152627.53286699677,2010-08-21 08:45:13,570.2903002822419,2,13,0.5501165986061096,3.773084163665772,13.474742551294154,13.359762740479498,53.49961065252057,49.01312276072699,9.713172767078504e-05,0.0849411338567733,0,0,0
4540,152657.5480118582,2010-08-21 08:45:43,600.3054451486782,2,13,0.5501165986061096,3.775350570678711,13.479329482201107,13.359762740479498,53.51692279635404,49.01312276072699,6.47544875391759e-05,0.0849411338567733,0,0,0
4541,152687.56327931012,2010-08-21 08:46:13,630.3207126206853,2,13,0.550297200679779,3.7779407501220703,13.483916460139689,13.359762740479498,53.534246272522864,49.01312276072699,9.713172767078504e-05,0.0849411338567733,0,0,0
4542,152717.57859261637,2010-08-21 08:46:43,660.3360259269256,2,13,0.5501165986061096,3.78036904335022,13.488503458067372,13.359762740479498,53.55158107279917,49.01312276072699,6.47544875391759e-05,0.0849411338567733,0,0,0
4543,152747.59396925548,2010-08-21 08:47:13,690.3514025960857,2,13,0.5499359965324402,3.782797336578369,13.49309051999668,13.359762740479498,53.56892745187557,49.01312276072699,0.0,0.0849411338567733,0,0,0
4544,152777.60937778905,2010-08-21 08:47:43,720.3668110845492,2,13,0.550297200679779,3.785387516021729,13.497677464369138,13.359762740479498,53.58628498136304,49.01312276072699,9.713172767078504e-05,0.0849411338567733,0,0,0
4545,152807.62426476774,2010-08-21 08:48:13,750.3816980732748,2,13,0.5501165986061096,3.787977695465088,13.502264400378008,13.359762740479498,53.6036544393535,49.01312276072699,3.237724376958795e-05,0.0849411338567733,0,0,0
4546,152837.63962707613,2010-08-21 08:48:43,780.397060366606,2,13,0.5499359965324402,3.790891647338867,13.506851352195604,13.359762740479498,53.621036401162335,49.01312276072699,9.713172767078504e-05,0.0849411338567733,0,0,0
4547,152867.65501096827,2010-08-21 08:49:13,810.4124442838305,2,13,0.5501165986061096,3.7938055992126474,13.51143835285088,13.359762740479498,53.63843147211826,49.01312276072699,0.0001295089750783,0.0849411338567733,0,0,0
4548,152897.6702804052,2010-08-21 08:49:43,840.4277137257473,2,13,0.5501165986061096,3.796881437301636,13.516025343923644,13.359762740479498,53.65584010795602,49.01312276072699,9.713172767078504e-05,0.0849411338567733,0,0,0
4549,152927.6855022635,2010-08-21 08:50:13,870.4429355790586,2,13,0.5501165986061096,3.799957275390625,13.520612286603798,13.359762740479498,53.67326275346536,49.01312276072699,9.713172767078504e-05,0.0849411338567733,0,0,0
4550,152957.70072364062,2010-08-21 08:50:43,900.4581569411456,2,13,0.5501165986061096,3.803194999694824,13.525199324475288,13.359762740479498,53.69070051141637,49.01312276072699,9.713172767078504e-05,0.0849411338567733,0,0,0
4551,152987.71596572938,2010-08-21 08:51:13,930.4733990449272,2,13,0.5501165986061096,3.8065946102142334,13.52978642861954,13.359762740479498,53.708153812686206,49.01312276072699,9.713172767078504e-05,0.0849411338567733,0,0,0
4552,153017.7312393517,2010-08-21 08:51:43,960.4886726422006,2,13,0.550297200679779,3.810156106948853,13.534373538361963,13.359762740479498,53.7256227081643,49.01312276072699,0.0001295089750783,0.0849411338567733,0,0,0
4553,153047.74650992645,2010-08-21 08:52:13,990.503943211928,2,13,0.550297200679779,3.8135557174682617,13.53896068136017,13.359762740479498,53.74310752207399,49.01312276072699,9.713172767078504e-05,0.0849411338567733,0,0,0
4554,153077.76202165222,2010-08-21 08:52:43,1020.5194549878158,2,13,0.550297200679779,3.816955327987671,13.543547754096805,13.359762740479498,53.76060805578995,49.01312276072699,9.713172767078504e-05,0.0849411338567733,0,0,0
4555,153107.7770564042,2010-08-21 08:53:13,1050.534489689688,2,13,0.5501165986061096,3.82019305229187,13.548134737952376,13.359762740479498,53.77812373689368,49.01312276072699,6.47544875391759e-05,0.0849411338567733,0,0,0
4556,153137.7923525978,2010-08-21 08:53:43,1080.549785888291,2,13,0.5501165986061096,3.823430776596069,13.552721850583962,13.359762740479498,53.79565527935854,49.01312276072699,6.47544875391759e-05,0.0849411338567733,0,0,0
4557,153167.8075974334,2010-08-21 08:54:13,1110.565030723881,2,13,0.550297200679779,3.8268303871154794,13.55730883163883,13.359762740479498,53.81320126564472,49.01312276072699,6.47544875391759e-05,0.0849411338567733,0,0,0
4558,153197.82551572204,2010-08-21 08:54:43,1140.582949002514,2,13,0.550297200679779,3.8300681114196777,13.561896298626673,13.359762740479498,53.83076378700407,49.01312276072699,0.0001295089750783,0.0849411338567733,0,0,0
4559,153227.8383146567,2010-08-21 08:55:13,1170.5957479421793,2,13,0.5501165986061096,3.832982063293457,13.566482996967167,13.359762740479498,53.84833773262742,49.01312276072699,9.713172767078504e-05,0.0849411338567733,0,0,0
4560,153257.8534588615,2010-08-21 08:55:43,1200.610892146966,2,13,0.5501165986061096,3.836057662963867,13.571070009452889,13.359762740479498,53.865927031470775,49.01312276072699,9.713172767078504e-05,0.0849411338567733,0,0,0
4561,153287.86872945126,2010-08-21 08:56:13,1230.6261627417564,2,13,0.5501165986061096,3.839133501052856,13.575657017125344,13.359762740479498,53.88353038783769,49.01312276072699,6.47544875391759e-05,0.0849411338567733,0,0,0
4562,153317.88399090327,2010-08-21 08:56:43,1260.6414241887474,2,13,0.5499359965324402,3.8422093391418457,13.580243994721814,13.359762740479498,53.90114753345372,49.01312276072699,9.713172767078504e-05,0.0849411338567733,0,0,0
4563,153347.89926131262,2010-08-21 08:57:13,1290.656694598075,2,13,0.550297200679779,3.845123291015625,13.584831003005611,13.359762740479498,53.91877846964792,49.01312276072699,6.47544875391759e-05,0.0849411338567733,0,0,0
4564,153377.9146374454,2010-08-21 08:57:43,1320.6720707308984,2,13,0.550297200679779,3.848037242889404,13.589417985212744,13.359762740479498,53.9364227345266,49.01312276072699,6.47544875391759e-05,0.0849411338567733,0,0,0
4565,153407.92991491235,2010-08-21 08:58:13,1350.6873481978162,2,13,0.5501165986061096,3.8507893085479736,13.59400494357825,13.359762740479498,53.9540798928978,49.01312276072699,9.713172767078504e-05,0.0849411338567733,0,0,0
4566,153437.94503144317,2010-08-21 08:58:43,1380.7024647286314,2,13,0.5501165986061096,3.853379487991333,13.598592011091103,13.359762740479498,53.97175000781528,49.01312276072699,3.237724376958795e-05,0.0849411338567733,0,0,0
4567,153467.96030441386,2010-08-21 08:59:13,1410.7177377143803,2,13,0.550297200679779,3.855969667434693,13.60317903538838,13.359762740479498,53.98943161175606,49.01312276072699,9.713172767078504e-05,0.0849411338567733,0,0,0
4568,153497.9756150785,2010-08-21 08:59:43,1440.733048369012,2,13,0.5501165986061096,3.858236074447632,13.607766084136436,13.359762740479498,54.007124450636645,49.01312276072699,6.47544875391759e-05,0.0849411338567733,0,0,0
4569,153527.99087516713,2010-08-21 09:00:14,1470.74830848268,2,13,0.5501165986061096,3.8605024814605713,13.612353054193182,13.359762740479498,54.024827201016585,49.01312276072699,6.47544875391759e-05,0.0849411338567733,0,0,0
4570,153558.00645414047,2010-08-21 09:00:44,1500.7638874259694,2,13,0.5501165986061096,3.862283229827881,13.616940072177146,13.359762740479498,54.042539542120366,49.01312276072699,6.47544875391759e-05,0.0849411338567733,0,0,0
4571,153588.02167276575,2010-08-21 09:01:14,1530.779106076298,2,13,0.5501165986061096,3.8642258644104,13.621527077072017,13.359762740479498,54.06026038395016,49.01312276072699,9.713172767078504e-05,0.0849411338567733,0,0,0
4572,153618.03675626926,2010-08-21 09:01:44,1560.7941895797987,2,13,0.550297200679779,3.8658447265625,13.626113976373306,13.359762740479498,54.07798859046425,49.01312276072699,3.237724376958795e-05,0.0849411338567733,0,0,0
4573,153648.05208897885,2010-08-21 09:02:14,1590.8095222743607,2,13,0.5501165986061096,3.86713981628418,13.630700993282527,13.359762740479498,54.09572434302101,49.01312276072699,0.0,0.0849411338567733,0,0,0
4574,153678.06726327867,2010-08-21 09:02:44,1620.8246965891915,2,13,0.5501165986061096,3.8684349060058594,13.63528788587804,13.359762740479498,54.11346608113234,49.01312276072699,0.0,0.0849411338567733,0,0,0
4575,153708.08264899536,2010-08-21 09:03:14,1650.8400823059008,2,13,0.5501165986061096,3.869729995727539,13.639874910904688,13.359762740479498,54.13121421159863,49.01312276072699,0.0,0.0849411338567733,0,0,0
4576,153738.0978038517,2010-08-21 09:03:44,1680.8552371321605,2,13,0.5501165986061096,3.8710250854492183,13.644461836569889,13.359762740479498,54.14896747770333,49.01312276072699,3.237724376958795e-05,0.0849411338567733,0,0,0
4577,153768.11307502794,2010-08-21 09:04:14,1710.8705083234368,2,13,0.5501165986061096,3.8719964027404794,13.649048761275116,13.359762740479498,54.16672586107818,49.01312276072699,3.237724376958795e-05,0.0849411338567733,0,0,0
4578,153798.12834552248,2010-08-21 09:04:44,1740.885778807952,2,13,0.550297200679779,3.873129606246948,13.653635795759865,13.359762740479498,54.184489598678766,49.01312276072699,3.237724376958795e-05,0.0849411338567733,0,0,0
4579,153828.1437245826,2010-08-21 09:05:14,1770.901157883109,2,13,0.5501165986061096,3.874100923538208,13.658222709211474,13.359762740479498,54.20225752858597,49.01312276072699,6.47544875391759e-05,0.0849411338567733,0,0,0
4580,153858.15886321853,2010-08-21 09:05:44,1800.9162965039793,2,13,0.5501165986061096,3.8752341270446777,13.662809640326072,13.359762740479498,54.22002983414078,49.01312276072699,6.47544875391759e-05,0.0849411338567733,0,0,0
4581,153888.1741905096,2010-08-21 09:06:14,1830.9316238201363,2,13,0.5504778623580933,3.8762054443359375,13.66739659379472,13.359762740479498,54.237806688859045,49.01312276072699,6.47544875391759e-05,0.0849411338567733,0,0,0
4582,153918.18938002232,2010-08-21 09:06:44,1860.9468133077823,2,13,0.5501165986061096,3.876691102981568,13.671984395609574,13.359762740479498,54.255591143254925,49.01312276072699,-3.237724376958795e-05,0.0849411338567733,0,0,0
4583,153948.2045665626,2010-08-21 09:07:14,1890.9619998530952,2,13,0.550297200679779,3.877824306488037,13.676572187241952,13.359762740479498,54.27337972422901,49.01312276072699,0.0,0.0849411338567733,0,0,0
4584,153978.22007992744,2010-08-21 09:07:44,1920.9775132129307,2,13,0.5501165986061096,3.878633737564087,13.681159872937233,13.359762740479498,54.29117203055,49.01312276072699,0.0,0.0849411338567733,0,0,0
4585,154008.2352046888,2010-08-21 09:08:14,1950.9926379692463,2,13,0.550297200679779,3.8796050548553462,13.68574770065084,13.359762740479498,54.30896891381733,49.01312276072699,3.237724376958795e-05,0.0849411338567733,0,0,0
4586,154038.25086427305,2010-08-21 09:08:44,1981.0082975585303,2,13,0.550297200679779,3.8805763721466064,13.69033564985614,13.359762740479498,54.32677024978152,49.01312276072699,3.237724376958795e-05,0.0849411338567733,0,0,0
4587,154068.2657589359,2010-08-21 09:09:14,2011.0231922213827,2,13,0.550297200679779,3.881385803222656,13.694923370625505,13.359762740479498,54.34457468171051,49.01312276072699,3.237724376958795e-05,0.0849411338567733,0,0,0
4588,154098.2810130747,2010-08-21 09:09:44,2041.038446365172,2,13,0.5501165986061096,3.882195234298706,13.699510543486568,13.359762740479498,54.36238089326326,49.01312276072699,3.237724376958795e-05,0.0849411338567733,0,0,0
4589,154128.296297915,2010-08-21 09:10:14,2071.053731230528,2,13,0.5501165986061096,3.883004665374756,13.70409762313138,13.359762740479498,54.38019071778975,49.01312276072699,3.237724376958795e-05,0.0849411338567733,0,0,0
4590,154158.31159213863,2010-08-21 09:10:44,2101.0690254542087,2,13,0.5501165986061096,3.883975982666016,13.708684698786424,13.359762740479498,54.39800451084098,49.01312276072699,3.237724376958795e-05,0.0849411338567733,0,0,0
4591,154188.32686595147,2010-08-21 09:11:14,2131.084299262007,2,13,0.550297200679779,3.8847854137420654,13.713271853077526,13.359762740479498,54.4158225093219,49.01312276072699,6.47544875391759e-05,0.0849411338567733,0,0,0
4592,154218.34210564927,2010-08-21 09:11:44,2161.0995389397417,2,13,0.5499359965324402,3.8855948448181152,13.717858931527962,13.359762740479498,54.43364416762829,49.01312276072699,3.237724376958795e-05,0.0849411338567733,0,0,0
4593,154248.35737706107,2010-08-21 09:12:14,2191.114810351569,2,13,0.5501165986061096,3.886566162109375,13.722446023737028,13.359762740479498,54.45146990979754,49.01312276072699,3.237724376958795e-05,0.0849411338567733,0,0,0
4594,154278.37266886875,2010-08-21 09:12:44,2221.130102154216,2,13,0.5504778623580933,3.887375593185425,13.727033141458312,13.359762740479498,54.46929977860268,49.01312276072699,6.47544875391759e-05,0.0849411338567733,0,0,0
4595,154308.38792662154,2010-08-21 09:13:14,2251.145359906999,2,13,0.550297200679779,3.888346910476685,13.731620278909162,13.359762740479498,54.48713383114357,49.01312276072699,3.237724376958795e-05,0.0849411338567733,0,0,0
4596,154338.40319189805,2010-08-21 09:13:44,2281.16062519356,2,13,0.550297200679779,3.8891563415527344,13.736207397687515,13.359762740479498,54.50497197036714,49.01312276072699,0.0,0.0849411338567733,0,0,0
4597,154368.41847912432,2010-08-21 09:14:14,2311.175912409775,2,13,0.550297200679779,3.890289545059204,13.740794518555807,13.359762740479498,54.52281425731175,49.01312276072699,6.47544875391759e-05,0.0849411338567733,0,0,0
4598,154398.4337628819,2010-08-21 09:14:44,2341.191196197446,2,13,0.5499359965324402,3.890937089920044,13.745381605695846,13.359762740479498,54.540660620418535,49.01312276072699,0.0,0.0849411338567733,0,0,0
4599,154428.44901873494,2010-08-21 09:15:14,2371.2064520204203,2,13,0.5501165986061096,3.891908407211304,13.749968690852084,13.359762740479498,54.55851132167055,49.01312276072699,0.0,0.0849411338567733,0,0,0
4600,154458.46430731958,2010-08-21 09:15:44,2401.221740630109,2,13,0.550297200679779,3.892879724502564,13.754555842844368,13.359762740479498,54.5763665853849,49.01312276072699,0.0,0.0849411338567733,0,0,0
4601,154488.4796224654,2010-08-21 09:16:14,2431.2370557709214,2,13,0.5501165986061096,3.8938510417938232,13.759142973691388,13.359762740479498,54.59422619370024,49.01312276072699,0.0,0.0849411338567733,0,0,0
4602,154518.49497224754,2010-08-21 09:16:44,2461.252405533021,2,13,0.550297200679779,3.894822359085083,13.763730167816448,13.359762740479498,54.61209054567872,49.01312276072699,3.237724376958795e-05,0.0849411338567733,0,0,0
4603,154548.51014675788,2010-08-21 09:17:14,2491.267580048351,2,13,0.550297200679779,3.895793676376343,13.768317334736311,13.359762740479498,54.629958749510806,49.01312276072699,3.237724376958795e-05,0.0849411338567733,0,0,0
4604,154578.52538801453,2010-08-21 09:17:44,2521.2828213000093,2,13,0.550297200679779,3.896926879882813,13.772904420296747,13.359762740479498,54.647831482687806,49.01312276072699,3.237724376958795e-05,0.0849411338567733,0,0,0
4605,154608.5406908948,2010-08-21 09:18:14,2551.298124185277,2,13,0.5501165986061096,3.897898197174072,13.777491494243073,13.359762740479498,54.66570878026046,49.01312276072699,6.47544875391759e-05,0.0849411338567733,0,0,0
4606,154638.55593580054,2010-08-21 09:18:44,2581.313369096055,2,13,0.550297200679779,3.898869514465332,13.782078636186148,13.359762740479498,54.68359113103616,49.01312276072699,3.237724376958795e-05,0.0849411338567733,0,0,0
4607,154668.57120222494,2010-08-21 09:19:14,2611.3286355154382,2,13,0.5504778623580933,3.9000027179718018,13.786665802770305,13.359762740479498,54.7014784709436,49.01312276072699,3.237724376958795e-05,0.0849411338567733,0,0,0
4608,154698.5866549236,2010-08-21 09:19:44,2641.3440882291247,2,13,0.5501165986061096,3.9009740352630615,13.791252988100435,13.359762740479498,54.71937068481496,49.01312276072699,0.0,0.0849411338567733,0,0,0
4609,154728.60177167496,2010-08-21 09:20:14,2671.359204965452,2,13,0.5501165986061096,3.9021072387695312,13.795840000931936,13.359762740479498,54.73726720128776,49.01312276072699,0.0,0.0849411338567733,0,0,0
4610,154758.61703711192,2010-08-21 09:20:44,2701.3744704023875,2,13,0.5501165986061096,3.903240442276001,13.800427101805813,13.359762740479498,54.755169132296864,49.01312276072699,3.237724376958795e-05,0.0849411338567733,0,0,0
4611,154788.6324104578,2010-08-21 09:21:14,2731.3898437582898,2,13,0.550297200679779,3.904373645782471,13.80501420907546,13.359762740479498,54.77307621051391,49.01312276072699,0.0,0.0849411338567733,0,0,0
4612,154818.64758378515,2010-08-21 09:21:44,2761.4050170756345,2,13,0.5501165986061096,3.905506849288941,13.80960133194003,13.359762740479498,54.79098852207962,49.01312276072699,6.47544875391759e-05,0.0849411338567733,0,0,0
4613,154848.66292076037,2010-08-21 09:22:14,2791.4203540258027,2,13,0.5501165986061096,3.90664005279541,13.814188441802456,13.359762740479498,54.8089060479936,49.01312276072699,3.237724376958795e-05,0.0849411338567733,0,0,0
4614,154878.67812547597,2010-08-21 09:22:44,2821.4355587614514,2,13,0.5501165986061096,3.90777325630188,13.818775501722156,13.359762740479498,54.826828774216,49.01312276072699,3.237724376958795e-05,0.0849411338567733,0,0,0
4615,154908.69353717242,2010-08-21 09:23:14,2851.450970462923,2,13,0.5501165986061096,3.90906834602356,13.823362657340926,13.359762740479498,54.8447572984899,49.01312276072699,3.237724376958795e-05,0.0849411338567733,0,0,0
4616,154938.7086406908,2010-08-21 09:23:44,2881.466074001358,2,13,0.5501165986061096,3.910201549530029,13.827949719967023,13.359762740479498,54.8626910287174,49.01312276072699,3.237724376958795e-05,0.0849411338567733,0,0,0
4617,154968.7239247291,2010-08-21 09:24:14,2911.4813580396526,2,13,0.550297200679779,3.911496639251709,13.832536855224223,13.359762740479498,54.88063060254588,49.01312276072699,0.0,0.0849411338567733,0,0,0
4618,154998.73941370318,2010-08-21 09:24:44,2941.496846993661,2,13,0.5501165986061096,3.9126298427581783,13.83712394617108,13.359762740479498,54.89857569380743,49.01312276072699,0.0,0.0849411338567733,0,0,0
4619,155028.75448339724,2010-08-21 09:25:14,2971.511916692757,2,13,0.550297200679779,3.9139246940612793,13.841710967737848,13.359762740479498,54.91652629827206,49.01312276072699,3.237724376958795e-05,0.0849411338567733,0,0,0
4620,155058.7697395711,2010-08-21 09:25:44,3001.527172856581,2,13,0.550297200679779,3.915381669998169,13.846298108692435,13.359762740479498,54.93448332364314,49.01312276072699,6.47544875391759e-05,0.0849411338567733,0,0,0
4621,155088.78501897285,2010-08-21 09:26:14,3031.5424522583207,2,13,0.550297200679779,3.916514873504639,13.850885220360986,13.359762740479498,54.95244598558055,49.01312276072699,3.237724376958795e-05,0.0849411338567733,0,0,0
4622,155118.80294174264,2010-08-21 09:26:44,3061.560375028147,2,13,0.5501165986061096,3.917971849441528,13.855472743632504,13.359762740479498,54.970416411964926,49.01312276072699,3.237724376958795e-05,0.0849411338567733,0,0,0
4623,155148.81560351048,2010-08-21 09:27:14,3091.573036795937,2,13,0.550297200679779,3.919266939163208,13.860059448275942,13.359762740479498,54.988389707537344,49.01312276072699,6.47544875391759e-05,0.0849411338567733,0,0,0
4624,155178.83083886243,2010-08-21 09:27:44,3121.5882721478915,2,13,0.5501165986061096,3.920562028884888,13.864646510681194,13.359762740479498,55.006370650950544,49.01312276072699,3.237724376958795e-05,0.0849411338567733,0,0,0
4625,155208.84618388268,2010-08-21 09:28:14,3151.6036171731857,2,13,0.5501165986061096,3.922019004821777,13.869233668542998,13.359762740479498,55.02435816068177,49.01312276072699,3.237724376958795e-05,0.0849411338567733,0,0,0
4626,155238.86142821703,2010-08-21 09:28:44,3181.6188615275764,2,13,0.550297200679779,3.923475980758667,13.873820824255704,13.359762740479498,55.042352081206126,49.01312276072699,6.47544875391759e-05,0.0849411338567733,0,0,0
4627,155268.8766461205,2010-08-21 09:29:14,3211.6340794210187,2,13,0.5501165986061096,3.9249329566955566,13.878407919499788,13.359762740479498,55.06035220047927,49.01312276072699,6.47544875391759e-05,0.0849411338567733,0,0,0
4628,155298.89192501598,2010-08-21 09:29:44,3241.649358306472,2,13,0.5501165986061096,3.9260661602020255,13.8829950957005,13.359762740479498,55.07835916327991,49.01312276072699,3.237724376958795e-05,0.0849411338567733,0,0,0
4629,155328.90719564588,2010-08-21 09:30:14,3271.664628936349,2,13,0.5501165986061096,3.927685022354126,13.887582279061496,13.359762740479498,55.09637272548127,49.01312276072699,6.47544875391759e-05,0.0849411338567733,0,0,0
4630,155358.9225547362,2010-08-21 09:30:44,3301.67998805176,2,13,0.5501165986061096,3.9289801120758057,13.892169354180815,13.359762740479498,55.11439251253283,49.01312276072699,0.0,0.0849411338567733,0,0,0
4631,155388.93774552207,2010-08-21 09:31:14,3331.695178807566,2,13,0.550297200679779,3.930598974227905,13.896756475330733,13.359762740479498,55.13241930266055,49.01312276072699,3.237724376958795e-05,0.0849411338567733,0,0,0
4632,155418.95301911436,2010-08-21 09:31:44,3361.710452399827,2,13,0.550297200679779,3.932055950164795,13.901343613498122,13.359762740479498,55.15045292847632,49.01312276072699,3.237724376958795e-05,0.0849411338567733,0,0,0
4633,155448.96830514263,2010-08-21 09:32:15,3391.7257384280824,2,13,0.5501165986061096,3.933512926101685,13.905930722501925,13.359762740479498,55.168493357868726,49.01312276072699,3.237724376958795e-05,0.0849411338567733,0,0,0
4634,155478.9839757243,2010-08-21 09:32:45,3421.7414090248003,2,13,0.550297200679779,3.935131788253784,13.910517918498808,13.359762740479498,55.18654106548994,49.01312276072699,3.237724376958795e-05,0.0849411338567733,0,0,0
4635,155508.99895413587,2010-08-21 09:33:15,3451.756387426355,2,13,0.5501165986061096,3.936588764190674,13.915105072253024,13.359762740479498,55.20459563129676,49.01312276072699,3.237724376958795e-05,0.0849411338567733,0,0,0
4636,155539.01411671145,2010-08-21 09:33:45,3481.7715499969154,2,13,0.5501165986061096,3.938207626342773,13.919692177496511,13.359762740479498,55.22265717229292,49.01312276072699,6.47544875391759e-05,0.0849411338567733,0,0,0
4637,155569.02939131623,2010-08-21 09:34:15,3511.7868246267626,2,13,0.5501165986061096,3.939664602279663,13.924279254900751,13.359762740479498,55.24072582370831,49.01312276072699,-3.237724376958795e-05,0.0849411338567733,0,0,0
4638,155599.0446635852,2010-08-21 09:34:45,3541.8020968706624,2,13,0.5501165986061096,3.9412834644317623,13.9288663026943,13.359762740479498,55.258801702499845,49.01312276072699,0.0,0.0849411338567733,0,0,0
4639,155629.05990657117,2010-08-21 09:35:15,3571.8173398766926,2,13,0.5499359965324402,3.943064212799072,13.93345338749172,13.359762740479498,55.27688509258088,49.01312276072699,3.237724376958795e-05,0.0849411338567733,0,0,0
4640,155659.07518766713,2010-08-21 09:35:45,3601.832620977668,2,13,0.5501165986061096,3.944683074951172,13.93804052436846,13.359762740479498,55.29497625448799,49.01312276072699,3.237724376958795e-05,0.0849411338567733,0,0,0
4641,155689.09045398625,2010-08-21 09:36:15,3631.847887291789,2,13,0.550297200679779,3.9464638233184814,13.942627644635367,13.359762740479498,55.31307501016919,49.01312276072699,6.47544875391759e-05,0.0849411338567733,0,0,0
4642,155719.105757864,2010-08-21 09:36:45,3661.8631911344432,2,13,0.5501165986061096,3.948082685470581,13.947214742137476,13.359762740479498,55.33118126200648,49.01312276072699,6.47544875391759e-05,0.0849411338567733,0,0,0
4643,155749.12113191164,2010-08-21 09:37:15,3691.8785652021193,2,13,0.550297200679779,3.94986343383789,13.951801905712374,13.359762740479498,55.34929564120653,49.01312276072699,6.47544875391759e-05,0.0849411338567733,0,0,0
4644,155779.13627071795,2010-08-21 09:37:45,3721.893704008451,2,13,0.5501165986061096,3.9514822959899902,13.956389009494812,13.359762740479498,55.36741784512143,49.01312276072699,3.237724376958795e-05,0.0849411338567733,0,0,0
4645,155809.1515450621,2010-08-21 09:38:15,3751.9089783525865,2,13,0.5501165986061096,3.9532630443573,13.960976183387956,13.359762740479498,55.3855483625401,49.01312276072699,6.47544875391759e-05,0.0849411338567733,0,0,0
4646,155839.16685788715,2010-08-21 09:38:45,3781.9242911776273,2,13,0.550297200679779,3.9552056789398193,13.965563308858298,13.359762740479498,55.40368690121329,49.01312276072699,6.47544875391759e-05,0.0849411338567733,0,0,0
4647,155869.18211556974,2010-08-21 09:39:15,3811.9395488502114,2,13,0.550297200679779,3.956986427307129,13.970150454090732,13.359762740479498,55.42183386920208,49.01312276072699,6.47544875391759e-05,0.0849411338567733,0,0,0
4648,155899.1973645607,2010-08-21 09:39:45,3841.954797856195,2,13,0.550297200679779,3.958929061889648,13.974737567149408,13.359762740479498,55.43998894403147,49.01312276072699,9.713172767078504e-05,0.0849411338567733,0,0,0
4649,155929.21265566157,2010-08-21 09:40:15,3871.970089799192,2,13,0.5501165986061096,3.960547924041748,13.979324720022923,13.359762740479498,55.458152699723165,49.01312276072699,0.0,0.0849411338567733,0,0,0
4650,155959.22814675092,2010-08-21 09:40:45,3901.9855800664736,2,13,0.5501165986061096,3.962490558624268,13.983911891750884,13.359762740479498,55.476325086132704,49.01312276072699,6.47544875391759e-05,0.0849411338567733,0,0,0
4651,155989.24317827987,2010-08-21 09:41:15,3932.000611560351,2,13,0.5501165986061096,3.964433193206787,13.98849895181346,13.359762740479498,55.49450560165998,49.01312276072699,3.237724376958795e-05,0.0849411338567733,0,0,0
4652,156019.25844923558,2010-08-21 09:41:45,3962.0158825260646,2,13,0.5504778623580933,3.966375827789306,13.99308610165168,13.359762740479498,55.51269515245649,49.01312276072699,9.713172767078504e-05,0.0849411338567733,0,0,0
4653,156049.27385318774,2010-08-21 09:42:15,3992.031286458173,2,13,0.5499359965324402,3.9679946899414062,13.997673372912432,13.359762740479498,55.530893859700825,49.01312276072699,3.237724376958795e-05,0.0849411338567733,0,0,0
4654,156079.28903408395,2010-08-21 09:42:45,4022.046467374456,2,13,0.550297200679779,3.970099210739136,14.002260543986935,13.359762740479498,55.54910085647846,49.01312276072699,6.47544875391759e-05,0.0849411338567733,0,0,0
4655,156109.3043897157,2010-08-21 09:43:15,4052.061823011197,2,13,0.550297200679779,3.9720418453216553,14.00684769939766,13.359762740479498,55.5673165380813,49.01312276072699,3.237724376958795e-05,0.0849411338567733,0,0,0
4656,156139.31953888785,2010-08-21 09:43:45,4082.076972178352,2,13,0.5501165986061096,3.973822593688965,14.011434882214028,13.359762740479498,55.58554108150549,49.01312276072699,3.237724376958795e-05,0.0849411338567733,0,0,0
4657,156169.33481147763,2010-08-21 09:44:15,4112.092244768114,2,13,0.550297200679779,3.9759271144866943,14.016022080873482,13.359762740479498,55.60377448434357,49.01312276072699,9.713172767078504e-05,0.0849411338567733,0,0,0
4658,156199.35010398703,2010-08-21 09:44:45,4142.10753727251,2,13,0.5501165986061096,3.977707862854004,14.020609339023745,13.359762740479498,55.622017005921165,49.01312276072699,3.237724376958795e-05,0.0849411338567733,0,0,0
4659,156229.3653684014,2010-08-21 09:45:15,4172.122801686896,2,13,0.550297200679779,3.979812383651733,14.02519644346876,13.359762740479498,55.64026737784391,49.01312276072699,6.47544875391759e-05,0.0849411338567733,0,0,0
4660,156259.38075521585,2010-08-21 09:45:45,4202.138188511367,2,13,0.550297200679779,3.981593132019043,14.029783544501658,13.359762740479498,55.65852702260288,49.01312276072699,6.47544875391759e-05,0.0849411338567733,0,0,0
4661,156289.39606343443,2010-08-21 09:46:15,4232.153496729927,2,13,0.5501165986061096,3.9835357666015625,14.034370663355004,13.359762740479498,55.67679568333307,49.01312276072699,9.713172767078504e-05,0.0849411338567733,0,0,0
4662,156319.41120307284,2010-08-21 09:46:45,4262.168636348284,2,13,0.5501165986061096,3.985478401184082,14.038957701887863,13.359762740479498,55.695073011541,49.01312276072699,3.237724376958795e-05,0.0849411338567733,0,0,0
4663,156349.42658353643,2010-08-21 09:47:15,4292.184016821926,2,13,0.5501165986061096,3.987582921981812,14.04354480700516,13.359762740479498,55.71335961213381,49.01312276072699,3.237724376958795e-05,0.0849411338567733,0,0,0
4664,156379.44173974116,2010-08-21 09:47:45,4322.199173031633,2,13,0.5501165986061096,3.989525556564331,14.04813190614405,13.359762740479498,55.73165525050527,49.01312276072699,6.47544875391759e-05,0.0849411338567733,0,0,0
4665,156409.45699863677,2010-08-21 09:48:15,4352.214431927265,2,13,0.5501165986061096,3.991630077362061,14.05271900621836,13.359762740479498,55.74996008637382,49.01312276072699,6.47544875391759e-05,0.0849411338567733,0,0,0
4666,156439.47241382193,2010-08-21 09:48:45,4382.229847097381,2,13,0.5501165986061096,3.99357271194458,14.057306143503252,13.359762740479498,55.76827435781256,49.01312276072699,6.47544875391759e-05,0.0849411338567733,0,0,0
4667,156469.4875450143,2010-08-21 09:49:15,4412.244978304775,2,13,0.5499359965324402,3.995353221893311,14.061893211725296,13.359762740479498,55.786597662375726,49.01312276072699,0.0,0.0849411338567733,0,0,0
4668,156499.50288949322,2010-08-21 09:49:45,4442.260322949119,2,13,0.5501165986061096,3.99761962890625,14.066480304901605,13.359762740479498,55.80493049544353,49.01312276072699,6.47544875391759e-05,0.0849411338567733,0,0,0
4669,156529.51809932158,2010-08-21 09:50:15,4472.275532607036,2,13,0.5501165986061096,3.99972414970398,14.071067369993369,13.359762740479498,55.82327264712757,49.01312276072699,3.237724376958795e-05,0.0849411338567733,0,0,0
4670,156559.53338584604,2010-08-21 09:50:45,4502.29081913654,2,13,0.550297200679779,4.001828670501709,14.075654445560213,13.359762740479498,55.84162448677147,49.01312276072699,6.47544875391759e-05,0.0849411338567733,0,0,0
4671,156589.54864464144,2010-08-21 09:51:15,4532.306077931923,2,13,0.5501165986061096,4.0037713050842285,14.080241495808426,13.359762740479498,55.85998595405962,49.01312276072699,3.23295607813634e-05,0.0849411338567733,0,0,0
4672,156619.56403530546,2010-08-21 09:51:45,4562.321468600974,2,13,0.5501165986061096,4.006037712097168,14.084828618387782,13.359762740479498,55.87835747992133,49.01312276072699,6.47544875391759e-05,0.0849411338567733,0,0,0
4673,156649.56447000464,2010-08-21 09:52:15,4592.3219032901225,2,13,0.550297200679779,4.008304119110107,14.0894134333507,13.359762740479498,55.89672966779683,49.01312276072699,6.47544875391759e-05,0.0849411338567733,0,0,0
4674,156679.57884345346,2010-08-21 09:52:45,4622.336276743961,2,13,0.5499359965324402,4.010408878326416,14.094000330654303,13.359762740479498,55.91512014540842,49.01312276072699,6.47544875391759e-05,0.0849411338567733,0,0,0
4675,156709.59412027377,2010-08-21 09:53:15,4652.351553559256,2,13,0.550297200679779,4.012836933135986,14.098587395681204,13.359762740479498,55.93352143760091,49.01312276072699,0.0001295089750783,0.0849411338567733,0,0,0
4676,156739.60951131876,2010-08-21 09:53:45,4682.366944604244,2,13,0.550297200679779,4.014941692352295,14.10317455383078,13.359762740479498,55.95193330899203,49.01312276072699,6.47544875391759e-05,0.0849411338567733,0,0,0
4677,156769.62465126795,2010-08-21 09:54:15,4712.382084558438,2,13,0.5499359965324402,4.017208099365234,14.107761604188031,13.359762740479498,55.97035505406775,49.01312276072699,6.47544875391759e-05,0.0849411338567733,0,0,0
4678,156799.6400563279,2010-08-21 09:54:45,4742.397489618356,2,13,0.5501165986061096,4.019150733947754,14.112348707806936,13.359762740479498,55.98878741606814,49.01312276072699,0.0,0.0849411338567733,0,0,0
4679,156829.6552111441,2010-08-21 09:55:15,4772.412644429578,2,13,0.550297200679779,4.021740913391113,14.116935800432447,13.359762740479498,56.00723024261073,49.01312276072699,6.47544875391759e-05,0.0849411338567733,0,0,0
4680,156859.6705101046,2010-08-21 09:55:45,4802.427943395077,2,13,0.5501165986061096,4.024168968200684,14.1215229076352,13.359762740479498,56.02568377103268,49.01312276072699,3.23295607813634e-05,0.0849411338567733,0,0,0
4681,156889.68577181725,2010-08-21 09:56:15,4832.443205092693,2,13,0.550297200679779,4.026597499847412,14.126109966768064,13.359762740479498,56.04414779051458,49.01312276072699,9.71794142969884e-05,0.0849411338567733,0,0,0
4682,156919.70102199615,2010-08-21 09:56:45,4862.458455286638,2,13,0.5501165986061096,4.028863906860352,14.130696986161372,13.359762740479498,56.06262250714458,49.01312276072699,6.47544875391759e-05,0.0849411338567733,0,0,0
4683,156949.7166723424,2010-08-21 09:57:15,4892.474105652935,2,13,0.5501165986061096,4.031130313873291,14.135284190128049,13.359762740479498,56.081108844908975,49.01312276072699,6.47544875391759e-05,0.0849411338567733,0,0,0
4684,156979.73157724578,2010-08-21 09:57:45,4922.489010531247,2,13,0.5501165986061096,4.033558368682861,14.139871203336332,13.359762740479498,56.09960545447026,49.01312276072699,3.23295607813634e-05,0.0849411338567733,0,0,0
4685,157009.7468418757,2010-08-21 09:58:15,4952.504275186233,2,13,0.5499359965324402,4.035986423492432,14.144458252634402,13.359762740479498,56.1181133462829,49.01312276072699,3.23295607813634e-05,0.0849411338567733,0,0,0
4686,157039.7622192215,2010-08-21 09:58:45,4982.519652517042,2,13,0.5501165986061096,4.038576602935791,14.14904540401684,13.359762740479498,56.13663293296364,49.01312276072699,6.47544875391759e-05,0.0849411338567733,0,0,0
4687,157069.78003605234,2010-08-21 09:59:15,5012.537469367886,2,13,0.550297200679779,4.04100513458252,14.153632988013124,13.359762740479498,56.15516556894973,49.01312276072699,3.24249267578125e-05,0.0849411338567733,0,0,0
4688,157099.79279425045,2010-08-21 09:59:45,5042.550227591073,2,13,0.550297200679779,4.04343318939209,14.158219804020783,13.359762740479498,56.17370657109286,49.01312276072699,6.47544875391759e-05,0.0849411338567733,0,0,0
4689,157129.80804393312,2010-08-21 10:00:15,5072.565477228632,2,13,0.5501165986061096,4.045861721038818,14.16280694767902,13.359762740479498,56.19226050730462,49.01312276072699,3.24249267578125e-05,0.0849411338567733,0,0,0
4690,157159.82318699005,2010-08-21 10:00:45,5102.580620275533,2,13,0.550297200679779,4.048613548278809,14.167394136627909,13.359762740479498,56.21082630022308,49.01312276072699,6.47544875391759e-05,0.0849411338567733,0,0,0
4691,157189.83848797058,2010-08-21 10:01:15,5132.595921251041,2,13,0.5499359965324402,4.051042079925537,14.171981309307329,13.359762740479498,56.22940380008028,49.01312276072699,6.47544875391759e-05,0.0849411338567733,0,0,0
4692,157219.85375044512,2010-08-21 10:01:45,5162.611183730605,2,13,0.550297200679779,4.053793907165527,14.176568473829295,13.359762740479498,56.24799317322956,49.01312276072699,6.47544875391759e-05,0.0849411338567733,0,0,0
4693,157249.8690212354,2010-08-21 10:02:15,5192.626454520883,2,13,0.5501165986061096,4.056384086608887,14.18115562464066,13.359762740479498,56.26659451227975,49.01312276072699,6.47544875391759e-05,0.0849411338567733,0,0,0
4694,157279.88433850152,2010-08-21 10:02:45,5222.641771812055,2,13,0.550297200679779,4.059136390686035,14.185742848610222,13.359762740479498,56.28520829481712,49.01312276072699,6.47544875391759e-05,0.0849411338567733,0,0,0
4695,157309.8995795276,2010-08-21 10:03:15,5252.657012813088,2,13,0.5499359965324402,4.0615644454956055,14.190330071676447,13.359762740479498,56.30383409339324,49.01312276072699,6.47544875391759e-05,0.0849411338567733,0,0,0
4696,157339.91483899968,2010-08-21 10:03:45,5282.672272310219,2,13,0.5501165986061096,4.064316749572754,14.194917213715067,13.359762740479498,56.322471781172126,49.01312276072699,6.47544875391759e-05,0.0849411338567733,0,0,0
4697,157369.93012074727,2010-08-21 10:04:15,5312.687554032743,2,13,0.5501165986061096,4.067068576812744,14.199504390836315,13.359762740479498,56.341122094503234,49.01312276072699,6.47544875391759e-05,0.0849411338567733,0,0,0
4698,157399.9454019836,2010-08-21 10:04:46,5342.702835269055,2,13,0.5501165986061096,4.069820880889893,14.20409149655209,13.359762740479498,56.35978468520047,49.01312276072699,6.47544875391759e-05,0.0849411338567733,0,0,0
4699,157429.96110270036,2010-08-21 10:05:16,5372.718535995866,2,13,0.550297200679779,4.072734832763672,14.208678753383404,13.359762740479498,56.37846060878102,49.01312276072699,0.0001295089750783,0.0849411338567733,0,0,0
4700,157459.97607879117,2010-08-21 10:05:46,5402.7335120766365,2,13,0.550297200679779,4.075486660003662,14.213265859483396,13.359762740479498,56.39714872711409,49.01312276072699,6.47544875391759e-05,0.0849411338567733,0,0,0
4701,157489.99131616316,2010-08-21 10:06:16,5432.748749473688,2,13,0.550297200679779,4.078562736511231,14.217853023800682,13.359762740479498,56.41585004793882,49.01312276072699,0.0001295089750783,0.0849411338567733,0,0,0
4702,157520.00648869353,2010-08-21 10:06:46,5462.763921979009,2,13,0.550297200679779,4.081314563751221,14.22244021944028,13.359762740479498,56.43456457245089,49.01312276072699,0.0001295089750783,0.0849411338567733,0,0,0
4703,157550.02177232082,2010-08-21 10:07:16,5492.779205611293,2,13,0.5501165986061096,4.084066867828369,14.227027403341967,13.359762740479498,56.4532921219835,49.01312276072699,6.47544875391759e-05,0.0849411338567733,0,0,0
4704,157580.0370327553,2010-08-21 10:07:46,5522.794466045761,2,13,0.550297200679779,4.086980819702148,14.231614504308675,13.359762740479498,56.47203265334766,49.01312276072699,9.71794142969884e-05,0.0849411338567733,0,0,0
4705,157610.0523094202,2010-08-21 10:08:16,5552.809742700654,2,13,0.550297200679779,4.089894771575928,14.236201656347047,13.359762740479498,56.490786848352094,49.01312276072699,6.47544875391759e-05,0.0849411338567733,0,0,0
4706,157640.06758907755,2010-08-21 10:08:46,5582.825022363043,2,13,0.550297200679779,4.092970371246338,14.240788829278625,13.359762740479498,56.50955469063453,49.01312276072699,6.47544875391759e-05,0.0849411338567733,0,0,0
4707,157670.08287290033,2010-08-21 10:09:16,5612.840306185802,2,13,0.5499359965324402,4.095884323120117,14.245375975793795,13.359762740479498,56.528336118666765,49.01312276072699,6.47544875391759e-05,0.0849411338567733,0,0,0
4708,157700.098278662,2010-08-21 10:09:46,5642.855711972532,2,13,0.550297200679779,4.0987982749938965,14.249963200494156,13.359762740479498,56.54713169328765,49.01312276072699,6.47544875391759e-05,0.0849411338567733,0,0,0
4709,157730.11340199478,2010-08-21 10:10:16,5672.870835280237,2,13,0.550297200679779,4.101874351501465,14.25455036817287,13.359762740479498,56.56594095586378,49.01312276072699,9.71794142969884e-05,0.0849411338567733,0,0,0
4710,157760.12867184269,2010-08-21 10:10:46,5702.886105128166,2,13,0.5501165986061096,4.104949951171875,14.259137496755764,13.359762740479498,56.58476402947204,49.01312276072699,3.23295607813634e-05,0.0849411338567733,0,0,0
4711,157790.14396766035,2010-08-21 10:11:16,5732.901400965869,2,13,0.5501165986061096,4.108187675476074,14.263724717157238,13.359762740479498,56.603601790506666,49.01312276072699,6.47544875391759e-05,0.0849411338567733,0,0,0
4712,157820.1593482142,2010-08-21 10:11:46,5762.916781509685,2,13,0.550297200679779,4.111263751983643,14.268311935173768,13.359762740479498,56.62245381987056,49.01312276072699,6.47544875391759e-05,0.0849411338567733,0,0,0
4713,157850.17464344038,2010-08-21 10:12:16,5792.932076735864,2,13,0.5501165986061096,4.114339351654053,14.272899115066172,13.359762740479498,56.641320155464655,49.01312276072699,6.47544875391759e-05,0.0849411338567733,0,0,0
4714,157880.18977221672,2010-08-21 10:12:46,5822.947205502175,2,13,0.550297200679779,4.117738723754883,14.277486265764184,13.359762740479498,56.66020093552227,49.01312276072699,9.70840483205393e-05,0.0849411338567733,0,0,0
4715,157910.2050849014,2010-08-21 10:13:16,5852.962518211928,2,13,0.5501165986061096,4.120814800262451,14.28207346171794,13.359762740479498,56.67909658902327,49.01312276072699,9.71794142969884e-05,0.0849411338567733,0,0,0
4716,157940.2051377589,2010-08-21 10:13:46,5882.96257202682,2,13,0.5499359965324402,4.123890399932861,14.286658343246623,13.359762740479498,56.69799754388155,49.01312276072699,3.23295607813634e-05,0.0849411338567733,0,0,0
4717,157970.22009860672,2010-08-21 10:14:16,5912.9775318921775,2,13,0.550297200679779,4.1274518966674805,14.291245450051496,13.359762740479498,56.71692262411276,49.01312276072699,6.47544875391759e-05,0.0849411338567733,0,0,0
4718,158000.2352511222,2010-08-21 10:14:46,5942.992684407677,2,13,0.550297200679779,4.130527973175049,14.295832643298926,13.359762740479498,56.73586317677002,49.01312276072699,6.47544875391759e-05,0.0849411338567733,0,0,0
4719,158030.25064663333,2010-08-21 10:15:16,5973.008079928823,2,13,0.5501165986061096,4.134089469909668,14.30041987866429,13.359762740479498,56.75481913253953,49.01312276072699,6.47544875391759e-05,0.0849411338567733,0,0,0
4720,158060.26583252702,2010-08-21 10:15:46,6003.023265812486,2,13,0.550297200679779,4.137327194213867,14.305007098233718,13.359762740479498,56.77379043232394,49.01312276072699,9.71794142969884e-05,0.0849411338567733,0,0,0
4721,158090.2810682549,2010-08-21 10:16:16,6033.03850154539,2,13,0.5501165986061096,4.140726566314697,14.30959431952746,13.359762740479498,56.79277722277072,49.01312276072699,6.47544875391759e-05,0.0849411338567733,0,0,0
4722,158120.29632325584,2010-08-21 10:16:46,6063.053756566365,2,13,0.5501165986061096,4.1439642906188965,14.31418159332449,13.359762740479498,56.81177980821936,49.01312276072699,6.47544875391759e-05,0.0849411338567733,0,0,0
4723,158150.3115944822,2010-08-21 10:17:16,6093.06902777268,2,13,0.5501165986061096,4.147687911987305,14.318768744538906,13.359762740479498,56.83079800930665,49.01312276072699,0.0001295089750783,0.0849411338567733,0,0,0
4724,158180.32708252894,2010-08-21 10:17:46,6123.084515839477,2,13,0.5501165986061096,4.151249408721924,14.323355385268698,13.359762740479498,56.84982989986046,49.01312276072699,9.71794142969884e-05,0.0849411338567733,0,0,0
4725,158210.34231536963,2010-08-21 10:18:16,6153.099748665134,2,13,0.5499359965324402,4.154648780822754,14.327941715464576,13.359762740479498,56.868876473841134,49.01312276072699,9.70840483205393e-05,0.0849411338567733,0,0,0
4726,158240.35745617095,2010-08-21 10:18:46,6183.114889481477,2,13,0.5499359965324402,4.158048629760742,14.332527913744409,13.359762740479498,56.88793860104593,49.01312276072699,6.47544875391759e-05,0.0849411338567733,0,0,0
4727,158270.37275543218,2010-08-21 10:19:16,6213.1301887427135,2,13,0.5501165986061096,4.161771774291992,14.337114147854892,13.359762740479498,56.9070171563611,49.01312276072699,9.70840483205393e-05,0.0849411338567733,0,0,0
4728,158300.3880198315,2010-08-21 10:19:46,6243.145453116999,2,13,0.550297200679779,4.165333271026611,14.34170102730708,13.359762740479498,56.92611488148535,49.01312276072699,6.47544875391759e-05,0.0849411338567733,0,0,0
4729,158330.40328281737,2010-08-21 10:20:16,6273.160716107838,2,13,0.5501165986061096,4.16921854019165,14.346288180089488,13.359762740479498,56.94523036655153,49.01312276072699,0.0001295089750783,0.0849411338567733,0,0,0
4730,158360.41869292987,2010-08-21 10:20:46,6303.176126225361,2,13,0.5501165986061096,4.17245626449585,14.350875439558411,13.359762740479498,56.96436297330323,49.01312276072699,3.23295607813634e-05,0.0849411338567733,0,0,0
4731,158390.43382956076,2010-08-21 10:21:16,6333.191262846247,2,13,0.5501165986061096,4.176341533660889,14.355462561368372,13.359762740479498,56.98351184013614,49.01312276072699,0.0001295089750783,0.0849411338567733,0,0,0
4732,158420.4492492572,2010-08-21 10:21:46,6363.20668255267,2,13,0.5501165986061096,4.180065155029297,14.36004981453172,13.359762740479498,57.00267819797899,49.01312276072699,0.0001295089750783,0.0849411338567733,0,0,0
4733,158450.46450428816,2010-08-21 10:22:16,6393.22193758367,2,13,0.5501165986061096,4.183788299560547,14.364637001615115,13.359762740479498,57.02186138218298,49.01312276072699,9.70840483205393e-05,0.0849411338567733,0,0,0
4734,158480.47967879346,2010-08-21 10:22:46,6423.237112119051,2,13,0.550297200679779,4.187511920928955,14.36922413439698,13.359762740479498,57.04106150295507,49.01312276072699,0.0001295089750783,0.0849411338567733,0,0,0
4735,158510.495105352,2010-08-21 10:23:16,6453.252538642462,2,13,0.5501165986061096,4.191235065460205,14.373811389052806,13.359762740479498,57.060279579684206,49.01312276072699,9.70840483205393e-05,0.0849411338567733,0,0,0
4736,158540.5102400681,2010-08-21 10:23:46,6483.267673358601,2,13,0.5501165986061096,4.195120334625244,14.37839858486293,13.359762740479498,57.07951496613696,49.01312276072699,6.47544875391759e-05,0.0849411338567733,0,0,0
4737,158570.5255755396,2010-08-21 10:24:16,6513.283008830084,2,13,0.5501165986061096,4.199167251586914,14.382985770972653,13.359762740479498,57.098767858988325,49.01312276072699,9.70840483205393e-05,0.0849411338567733,0,0,0
4738,158576.57229918044,2010-08-21 10:24:22,6519.329732470927,2,13,0.550297200679779,4.200138568878174,14.383909884081405,13.359762740479498,57.102648625425296,49.01312276072699,0.0001618385285837,0.0849411338567733,0,0,0
4739,158606.58429968337,2010-08-21 10:24:52,30.015611263842192,3,13,0.0,4.126156806945801,14.383909884081405,13.359762740479498,57.102648625425296,49.01312276072699,-0.0003561973571777,0.0849411338567733,0,0,0
4740,158636.5992430977,2010-08-21 10:25:22,60.03055467819797,3,13,0.0,4.117091178894043,14.383909884081405,13.359762740479498,57.102648625425296,49.01312276072699,-0.0001295089750783,0.0849411338567733,0,0,0
4741,158666.6145040184,2010-08-21 10:25:52,90.04581557381474,3,13,0.0,4.111587524414063,14.383909884081405,13.359762740479498,57.102648625425296,49.01312276072699,-0.0001295089750783,0.0849411338567733,0,0,0
4742,158696.58313219095,2010-08-21 10:26:22,120.01444374132453,3,13,0.0,4.107863903045654,14.383909884081405,13.359762740479498,57.102648625425296,49.01312276072699,-0.0001295089750783,0.0849411338567733,0,0,0
4743,158696.59633101034,2010-08-21 10:26:22,0.01561748858694,4,13,0.9965827465057372,4.199653148651123,14.383914207448026,13.359762740479498,57.10266678206556,49.01312276072699,0.0,0.0849411338567733,0,0,0
4744,158697.64322550857,2010-08-21 10:26:23,1.062512006847836,4,13,0.9456509351730348,4.199653148651123,14.384195014992338,13.359762740479498,57.10384607775048,49.01312276072699,0.0,0.0849411338567733,0,0,0
4745,158699.84642856347,2010-08-21 10:26:26,3.265715041719362,4,13,0.8956221342086792,4.199653148651123,14.384757294773651,13.359762740479498,57.10620743853535,49.01312276072699,0.0,0.0849411338567733,0,0,0
4746,158703.1120025587,2010-08-21 10:26:29,6.531289142169715,4,13,0.8452321887016296,4.199653148651123,14.3855456548624,13.359762740479498,57.10951826643412,49.01312276072699,3.24249267578125e-05,0.0849411338567733,0,0,0
4747,158707.4088297692,2010-08-21 10:26:33,10.828116242404144,4,13,0.7950227856636047,4.199491024017334,14.38652343853854,13.359762740479498,57.11362463400112,49.01312276072699,-6.47544875391759e-05,0.0849411338567733,0,0,0
4748,158712.9086586099,2010-08-21 10:26:39,16.327945088142755,4,13,0.7446327805519104,4.199653148651123,14.387698284234911,13.359762740479498,57.11855858996083,49.01312276072699,0.0,0.0849411338567733,0,0,0
4749,158719.87731818878,2010-08-21 10:26:46,23.296604667016258,4,13,0.6944234371185303,4.199491024017334,14.38908944541948,13.359762740479498,57.124400990621695,49.01312276072699,-3.24249267578125e-05,0.0849411338567733,0,0,0
4750,158729.06479052175,2010-08-21 10:26:55,32.484077050109505,4,13,0.6440334320068359,4.199653148651123,14.390795006651574,13.359762740479498,57.13156379395439,49.01312276072699,-3.23295607813634e-05,0.0849411338567733,0,0,0
4751,158741.58021619343,2010-08-21 10:27:07,44.99950266664611,4,13,0.5940046906471252,4.199491024017334,14.39294317777145,13.359762740479498,57.14058540703122,49.01312276072699,-3.24249267578125e-05,0.0849411338567733,0,0,0
4752,158759.75197093256,2010-08-21 10:27:26,63.17125741077764,4,13,0.5437952876091003,4.199491024017334,14.395807582014523,13.359762740479498,57.15261496804423,49.01312276072699,-6.47544875391759e-05,0.0849411338567733,0,0,0
4753,158788.36090771074,2010-08-21 10:27:54,91.7801941839662,4,13,0.4937665164470672,4.199491024017334,14.399916215363357,13.359762740479498,57.16986982865582,49.01312276072699,-3.24249267578125e-05,0.0849411338567733,0,0,0
4754,158836.04784403896,2010-08-21 10:28:42,139.46713050718714,4,13,0.4437377452850342,4.199653148651123,14.406100279855975,13.359762740479498,57.19584085953543,49.01312276072699,0.0,0.0849411338567733,0,0,0
4755,158910.85949925776,2010-08-21 10:29:57,214.27878573598812,4,13,0.3937089741230011,4.199653148651123,14.414774848480077,13.359762740479498,57.23227119806242,49.01312276072699,3.24249267578125e-05,0.0849411338567733,0,0,0
4756,159011.90514105308,2010-08-21 10:31:38,315.3244275162713,4,13,0.3434996008872986,4.199491024017334,14.425101933392094,13.359762740479498,57.27564163138263,49.01312276072699,-3.24249267578125e-05,0.0849411338567733,0,0,0
4757,159134.88826341496,2010-08-21 10:33:41,438.3075498982079,4,13,0.2934708297252655,4.199491024017334,14.435965835558182,13.359762740479498,57.32126639231813,49.01312276072699,-6.47544875391759e-05,0.0849411338567733,0,0,0
4758,159284.74577433718,2010-08-21 10:36:11,588.1650608104044,4,13,0.2434420585632324,4.199653148651123,14.447114674066146,13.359762740479498,57.36808782920634,49.01312276072699,-3.23295607813634e-05,0.0849411338567733,0,0,0
4759,159469.57172231906,2010-08-21 10:39:15,772.9910087922976,4,13,0.1934132874011993,4.199653148651123,14.45828707449235,13.359762740479498,57.41500820348119,49.01312276072699,0.0,0.0849411338567733,0,0,0
4760,159715.4283672364,2010-08-21 10:43:21,1018.84765370963,4,13,0.1433845162391662,4.199653148651123,14.469713902249032,13.359762740479498,57.462997147180666,49.01312276072699,0.0,0.0849411338567733,0,0,0
4761,160079.72101581172,2010-08-21 10:49:26,1383.1403022849254,4,13,0.0933557525277137,4.199653148651123,14.48151745884803,13.359762740479498,57.51256819870074,49.01312276072699,0.0,0.0849411338567733,0,0,0
4762,160656.16732729302,2010-08-21 10:59:02,1959.5866137712453,4,13,0.0498289167881011,4.199653148651123,14.492596421136597,13.359762740479498,57.55909618107603,49.01312276072699,-3.23295607813634e-05,0.0849411338567733,0,0,0
4763,160686.18767273604,2010-08-21 10:59:32,30.015402789259383,5,13,0.0,4.192853927612305,14.492596421136597,13.359762740479498,57.55909618107603,49.01312276072699,-3.24249267578125e-05,0.0849411338567733,0,0,0
4764,160716.18731571702,2010-08-21 11:00:02,60.01504577022733,5,13,0.0,4.191882610321045,14.492596421136597,13.359762740479498,57.55909618107603,49.01312276072699,3.23295607813634e-05,0.0849411338567733,0,0,0
4765,160716.3803158375,2010-08-21 11:00:02,0.187492654384774,6,13,-0.0016447266098111,4.192368507385254,14.492596421136597,13.359762826138985,57.55909618107603,49.01312311984313,0.0,0.0874469503760337,0,0,0
4766,160721.2085046346,2010-08-21 11:00:07,5.015681456476141,6,13,0.0008838032954372,4.191882610321045,14.492597573452937,13.359762827418685,57.55910101146822,49.01312312520872,0.0,0.0874469503760337,0,0,0
4767,160751.2294802252,2010-08-21 11:00:37,30.015404383232056,7,13,-1.099568486213684,4.038900375366211,14.492597573512596,13.368931539715929,57.55910101171832,49.05032757124888,-0.0008418083307333,0.0874469503760337,0,0,0
4768,160781.24463644496,2010-08-21 11:01:07,60.03056060296431,7,13,-1.099929690361023,4.015750885009766,14.492597573512596,13.378100543150993,57.55910101171832,49.08724634826578,-0.0005180359003134,0.0874469503760337,0,0,0
4769,160811.2598957416,2010-08-21 11:01:37,90.0458199196459,7,13,-1.0997490882873535,4.000209808349609,14.492597573512596,13.387269929177744,57.55910101171832,49.1239935632133,-0.0003237724304199,0.0874469503760337,0,0,0
4770,160841.27519338377,2010-08-21 11:02:07,120.06111754179648,7,13,-1.0997490882873535,3.9877448081970215,14.492597573512596,13.39643928302864,57.55910101171832,49.16061358876114,-0.0002913951757363,0.0874469503760337,0,0,0
4771,160871.2904596628,2010-08-21 11:02:37,150.0763838208304,7,13,-1.099568486213684,3.977222204208374,14.492597573512596,13.405608617267022,57.55910101171832,49.19712891525513,-0.0002590179501567,0.0874469503760337,0,0,0
4772,160901.30572236795,2010-08-21 11:03:07,180.091646515932,7,13,-1.099929690361023,3.967509031295776,14.492597573512596,13.41477781402014,57.55910101171832,49.2335513909449,-0.0002590179501567,0.0874469503760337,0,0,0
4773,160931.32113375363,2010-08-21 11:03:37,210.10705791164133,7,13,-1.0997490882873535,3.9584434032440186,14.492597573512596,13.423947187410043,57.55910101171832,49.26988956724436,-0.0002590179501567,0.0874469503760337,0,0,0
4774,160961.3362765148,2010-08-21 11:04:08,240.12220067784324,7,13,-1.0997490882873535,3.9500253200531006,14.492597573512596,13.433116445356672,57.55910101171832,49.3061471376006,-0.0002266406954731,0.0874469503760337,0,0,0
4775,160991.35202539165,2010-08-21 11:04:38,270.1379495546593,7,13,-1.0997490882873535,3.9417691230773926,14.492597573512596,13.442285860368363,57.55910101171832,49.34232840545774,-0.0001942634553415,0.0874469503760337,0,0,0
4776,161021.36695814438,2010-08-21 11:05:08,300.1528823074432,7,13,-1.0997490882873535,3.933836698532105,14.492597573512596,13.451455020224726,57.55910101171832,49.37843428876885,-0.0001942634553415,0.0874469503760337,0,0,0
4777,161051.38211219874,2010-08-21 11:05:38,330.1680363517536,7,13,-1.0997490882873535,3.9260661602020255,14.492597573512596,13.460624339443418,57.55910101171832,49.414468326730265,-0.0001295089750783,0.0874469503760337,0,0,0
4778,161081.39751497295,2010-08-21 11:06:08,360.18343913600046,7,13,-1.099568486213684,3.918457508087158,14.492597573512596,13.469793661125903,57.55910101171832,49.45043154898509,-0.0001618862152099,0.0874469503760337,0,0,0
4779,161111.41270134787,2010-08-21 11:06:38,390.19862552592616,7,13,-1.0997490882873535,3.910687208175659,14.492597573512596,13.47896304338654,57.55910101171832,49.48632528249384,-0.0001942634553415,0.0874469503760337,0,0,0
4780,161141.42794972728,2010-08-21 11:07:08,420.2138739053488,7,13,-1.0997490882873535,3.903402328491211,14.492597573512596,13.488132409727337,57.55910101171832,49.52215038637191,-0.0001942634553415,0.0874469503760337,0,0,0
4781,161171.44322544985,2010-08-21 11:07:38,450.2291495978439,7,13,-1.0997490882873535,3.8961174488067623,14.492597573512596,13.497301720063962,57.55910101171832,49.557907897629896,-0.0001942634553415,0.0874469503760337,0,0,0
4782,161201.45851806953,2010-08-21 11:08:08,480.2444422375767,7,13,-1.099568486213684,3.888994455337525,14.492597573512596,13.506471036799669,57.55910101171832,49.59359944077386,-0.0001618862152099,0.0874469503760337,0,0,0
4783,161231.47378766182,2010-08-21 11:08:38,510.2597118098183,7,13,-1.0997490882873535,3.881709575653076,14.492597573512596,13.515640353561707,57.55910101171832,49.62922546620004,-0.0001942634553415,0.0874469503760337,0,0,0
4784,161261.4891802256,2010-08-21 11:09:08,540.2751043886301,7,13,-1.0997490882873535,3.874748468399048,14.492597573512596,13.524809784190992,57.55910101171832,49.66478716452163,-0.0001942634553415,0.0874469503760337,0,0,0
4785,161291.50433258573,2010-08-21 11:09:38,570.290256748743,7,13,-1.099568486213684,3.8679492473602295,14.492597573512596,13.533979085658316,57.55910101171832,49.70028447830752,-0.0001942634553415,0.0874469503760337,0,0,0
4786,161321.51961816783,2010-08-21 11:10:08,600.3055423258737,7,13,-1.099568486213684,3.861150026321411,14.492597573512596,13.543148457583492,57.55910101171832,49.735718954018026,-0.0001618862152099,0.0874469503760337,0,0,0
4787,161351.53490594547,2010-08-21 11:10:38,630.3208300934638,7,13,-1.0997490882873535,3.8543508052825928,14.492597573512596,13.552317814657698,57.55910101171832,49.77109118617122,-0.0001618862152099,0.0874469503760337,0,0,0
4788,161381.5501631469,2010-08-21 11:11:08,660.3360873099108,7,13,-1.0997490882873535,3.8475515842437744,14.492597573512596,13.561487169791633,57.55910101171832,49.80640194144784,-0.0002266406954731,0.0874469503760337,0,0,0
4789,161411.56547341554,2010-08-21 11:11:38,690.351397573568,7,13,-1.0997490882873535,3.841076135635376,14.492597573512596,13.570656541722162,57.55910101171832,49.841652320805615,-0.0001942634553415,0.0874469503760337,0,0,0
4790,161441.58073049164,2010-08-21 11:12:08,720.3666546396404,7,13,-1.099929690361023,3.834438800811768,14.492597573512596,13.579825936502903,57.55910101171832,49.87684325489688,-0.0001942634553415,0.0874469503760337,0,0,0
4791,161471.59647965917,2010-08-21 11:12:38,750.3824039625681,7,13,-1.0997490882873535,3.828287363052368,14.492597573512596,13.58899547196263,57.55910101171832,49.91197604483036,-0.0001942634553415,0.0874469503760337,0,0,0
4792,161501.61128515983,2010-08-21 11:13:08,780.3972093429009,7,13,-1.0997490882873535,3.8221356868743896,14.492597573512596,13.598164656478763,57.55910101171832,49.94704978782736,-0.0001618862152099,0.0874469503760337,0,0,0
4793,161531.62657828577,2010-08-21 11:13:38,810.4125024487955,7,13,-1.0997490882873535,3.815984010696411,14.492597573512596,13.607334029383352,57.55910101171832,49.98206750623293,-0.0001618862152099,0.0874469503760337,0,0,0
4794,161561.64196316537,2010-08-21 11:14:08,840.427887333431,7,13,-1.099568486213684,3.8099942207336426,14.492597573512596,13.616503391501151,57.55910101171832,50.017028867262816,-0.0001295089750783,0.0874469503760337,0,0,0
4795,161591.65715110418,2010-08-21 11:14:38,870.4430752621919,7,13,-1.0997490882873535,3.803842544555664,14.492597573512596,13.62567269760461,57.55910101171832,50.05193447579857,-0.0001618862152099,0.0874469503760337,0,0,0
4796,161621.67240115275,2010-08-21 11:15:08,900.4583253308244,7,13,-1.0997490882873535,3.7980146408081055,14.492597573512596,13.6348419867199,57.55910101171832,50.086785979899474,-0.0001618862152099,0.0874469503760337,0,0,0
4797,161651.68765256472,2010-08-21 11:15:38,930.4735767277676,7,13,-1.0997490882873535,3.792186737060547,14.492597573512596,13.644011295746164,57.55910101171832,50.121584308845655,-0.0001942634553415,0.0874469503760337,0,0,0
4798,161681.70293472335,2010-08-21 11:16:08,960.4888588713408,7,13,-1.099929690361023,3.7865207195281982,14.492597573512596,13.65318060962696,57.55910101171832,50.15633034810771,-0.0001618862152099,0.0874469503760337,0,0,0
4799,161711.71822884175,2010-08-21 11:16:38,990.5041529897592,7,13,-1.0997490882873535,3.78101658821106,14.492597573512596,13.662349913305585,57.55910101171832,50.19102505131892,-0.0001618862152099,0.0874469503760337,0,0,0
4800,161741.73349604808,2010-08-21 11:17:08,1020.519420196104,7,13,-1.0997490882873535,3.775674343109131,14.492597573512596,13.67151929129027,57.55910101171832,50.22566967920274,-0.0001295089750783,0.0874469503760337,0,0,0
4801,161771.74878005133,2010-08-21 11:17:38,1050.5347042143496,7,13,-1.099929690361023,3.770170211791992,14.492597573512596,13.68068870900568,57.55910101171832,50.26026476626358,-0.0001295089750783,0.0874469503760337,0,0,0
4802,161801.76403978403,2010-08-21 11:18:08,1080.5499639520806,7,13,-1.099929690361023,3.7649898529052734,14.492597573512596,13.68985796197207,57.55910101171832,50.2948106680776,-0.0001295089750783,0.0874469503760337,0,0,0
4803,161831.7794337864,2010-08-21 11:18:38,1110.5653579995528,7,13,-1.099568486213684,3.7599713802337646,14.492597573512596,13.69902710744402,57.55910101171832,50.32930848608767,-0.0001295089750783,0.0874469503760337,0,0,0
4804,161861.79460202108,2010-08-21 11:19:08,1140.58052619413,7,13,-1.0997490882873535,3.754791021347046,14.492597573512596,13.708196205388388,57.55910101171832,50.36375946094173,-9.713172767078504e-05,0.0874469503760337,0,0,0
4805,161891.8100724088,2010-08-21 11:19:38,1170.595996677103,7,13,-1.0997490882873535,3.749772787094116,14.492597573512596,13.717365390166137,57.55910101171832,50.39816487246832,-0.0001295089750783,0.0874469503760337,0,0,0
4806,161921.8251525439,2010-08-21 11:20:08,1200.6110766919087,7,13,-1.0997490882873535,3.7450780868530273,14.492597573512596,13.726534577788197,57.55910101171832,50.43252553897758,-0.0001295089750783,0.0874469503760337,0,0,0
4807,161951.8405707015,2010-08-21 11:20:38,1230.6264948494709,7,13,-1.099568486213684,3.740221500396729,14.492597573512596,13.735704022811554,57.55910101171832,50.46684295665106,-0.0001618862152099,0.0874469503760337,0,0,0
4808,161981.85570707676,2010-08-21 11:21:08,1260.6416312247447,7,13,-1.0997490882873535,3.73552680015564,14.492597573512596,13.74487337967504,57.55910101171832,50.5011167181969,-0.0001295089750783,0.0874469503760337,0,0,0
4809,162011.87098994214,2010-08-21 11:21:38,1290.656914090117,7,13,-1.099929690361023,3.730832099914551,14.492597573512596,13.754042793162654,57.55910101171832,50.53534808820867,-0.0001295089750783,0.0874469503760337,0,0,0
4810,162041.88628050667,2010-08-21 11:22:08,1320.6722046747277,7,13,-1.0997490882873535,3.726299285888672,14.492597573512596,13.763212158505317,57.55910101171832,50.56953776493828,-0.0001618862152099,0.0874469503760337,0,0,0
4811,162071.9015564598,2010-08-21 11:22:38,1350.687480612835,7,13,-1.0997490882873535,3.721928358078003,14.492597573512596,13.772381538447952,57.55910101171832,50.60368664393204,-0.0001295089750783,0.0874469503760337,0,0,0
4812,162101.91695807615,2010-08-21 11:23:08,1380.7028822492211,7,13,-1.099568486213684,3.717719316482544,14.492597573512596,13.781550962719594,57.55910101171832,50.63779525701575,-6.47544875391759e-05,0.0874469503760337,0,0,0
4813,162131.93317762105,2010-08-21 11:23:38,1410.7191017690243,7,13,-1.0997490882873535,3.713348388671875,14.492597573512596,13.79072067355456,57.55910101171832,50.67186519461189,-9.713172767078504e-05,0.0874469503760337,0,0,0
4814,162161.94774406083,2010-08-21 11:24:08,1440.7336682088437,7,13,-1.0997490882873535,3.708977460861206,14.492597573512596,13.79988990052482,57.55910101171832,50.70589426982146,-0.0001295089750783,0.0874469503760337,0,0,0
4815,162191.962654899,2010-08-21 11:24:38,1470.7485790570345,7,13,-1.0997490882873535,3.705092191696167,14.492597573512596,13.809059244147978,57.55910101171832,50.73988554404411,-6.47544875391759e-05,0.0874469503760337,0,0,0
4816,162221.97809283086,2010-08-21 11:25:08,1500.76401700893,7,13,-1.099929690361023,3.700883150100708,14.492597573512596,13.818228702948868,57.55910101171832,50.77383961736301,-0.0001295089750783,0.0874469503760337,0,0,0
4817,162251.99326335624,2010-08-21 11:25:38,1530.7791875242913,7,13,-1.0997490882873535,3.696835994720459,14.492597573512596,13.827398207924546,57.55910101171832,50.80775671215786,-0.0001295089750783,0.0874469503760337,0,0,0
4818,162282.0086627771,2010-08-21 11:26:08,1560.794586950168,7,13,-1.099929690361023,3.69295072555542,14.492597573512596,13.83656762817056,57.55910101171832,50.84163727260829,-9.713172767078504e-05,0.0874469503760337,0,0,0
4819,162312.02381124752,2010-08-21 11:26:38,1590.809735415574,7,13,-1.099929690361023,3.689065456390381,14.492597573512596,13.84573702688284,57.55910101171832,50.875481991009096,-9.713172767078504e-05,0.0874469503760337,0,0,0
4820,162342.0391602327,2010-08-21 11:27:08,1620.825084420787,7,13,-1.099929690361023,3.685342073440552,14.492597573512596,13.85490650699429,57.55910101171832,50.909291700155855,-0.0001295089750783,0.0874469503760337,0,0,0
4821,162372.05448112785,2010-08-21 11:27:38,1650.8404052958913,7,13,-1.099929690361023,3.6814568042755127,14.492597573512596,13.864075995100007,57.55910101171832,50.94306704596077,-0.0001295089750783,0.0874469503760337,0,0,0
4822,162402.06964547784,2010-08-21 11:28:08,1680.8555696909991,7,13,-1.0997490882873535,3.6778953075408936,14.492597573512596,13.873245475178338,57.55910101171832,50.976808437497375,-9.713172767078504e-05,0.0874469503760337,0,0,0
4823,162432.0852752127,2010-08-21 11:28:38,1710.8711993958018,7,13,-1.0997490882873535,3.6743338108062735,14.492597573512596,13.88241502863794,57.55910101171832,51.01051695047804,-9.713172767078504e-05,0.0874469503760337,0,0,0
4824,162462.10021583512,2010-08-21 11:29:08,1740.8861400232115,7,13,-1.099568486213684,3.670934438705444,14.492597573512596,13.891584433742509,57.55910101171832,51.04419242357456,-9.713172767078504e-05,0.0874469503760337,0,0,0
4825,162492.11547548763,2010-08-21 11:29:38,1770.9013996506678,7,13,-1.0997490882873535,3.667372941970825,14.492597573512596,13.900753968410571,57.55910101171832,51.07783650379526,-9.713172767078504e-05,0.0874469503760337,0,0,0
4826,162522.1307702677,2010-08-21 11:30:08,1800.9166944557976,7,13,-1.0997490882873535,3.664135217666626,14.492597573512596,13.909923427544054,57.55910101171832,51.11144911995852,-6.47544875391759e-05,0.0874469503760337,0,0,0
4827,162552.1486272185,2010-08-21 11:30:38,1830.934551376508,7,13,-1.0997490882873535,3.660735607147217,14.492597573512596,13.919093694161182,57.55910101171832,51.14503419204443,-6.47544875391759e-05,0.0874469503760337,0,0,0
4828,162582.16133149722,2010-08-21 11:31:08,1860.9472556803107,7,13,-1.0997490882873535,3.6574978828430176,14.492597573512596,13.928262469162505,57.55910101171832,51.17858387588222,-9.713172767078504e-05,0.0874469503760337,0,0,0
4829,162612.1765620372,2010-08-21 11:31:38,1890.962486220272,7,13,-1.0997490882873535,3.6545839309692383,14.492597573512596,13.937431982560891,57.55910101171832,51.21210715483421,-3.237724376958795e-05,0.0874469503760337,0,0,0
4830,162642.19183433123,2010-08-21 11:32:08,1920.9777584942472,7,13,-1.0997490882873535,3.651346206665039,14.492597573512596,13.946601469484127,57.55910101171832,51.24560195558496,-3.237724376958795e-05,0.0874469503760337,0,0,0
4831,162672.20714670012,2010-08-21 11:32:38,1950.9930708631512,7,13,-1.099568486213684,3.64843225479126,14.492597573512596,13.955770999132826,57.55910101171832,51.27906943038134,-6.47544875391759e-05,0.0874469503760337,0,0,0
4832,162702.22238702947,2010-08-21 11:33:08,1981.0083111925107,7,13,-1.099929690361023,3.6453564167022714,14.492597573512596,13.964940470226225,57.55910101171832,51.31250940505988,-9.713172767078504e-05,0.0874469503760337,0,0,0
4833,162732.23767154897,2010-08-21 11:33:38,2011.023595712005,7,13,-1.0997490882873535,3.642766237258911,14.492597573512596,13.97410988834906,57.55910101171832,51.3459232910542,-3.237724376958795e-05,0.0874469503760337,0,0,0
4834,162762.25297877003,2010-08-21 11:34:08,2041.0389029280668,7,13,-1.099929690361023,3.639852285385132,14.492597573512596,13.983279294258615,57.55910101171832,51.37931175710842,-9.713172767078504e-05,0.0874469503760337,0,0,0
4835,162792.26824316438,2010-08-21 11:34:38,2071.054167327416,7,13,-1.099568486213684,3.6374239921569824,14.492597573512596,13.992448797165164,57.55910101171832,51.41267573792619,-3.237724376958795e-05,0.0874469503760337,0,0,0
4836,162822.2835308618,2010-08-21 11:35:08,2101.0694550398684,7,13,-1.0997490882873535,3.634671926498413,14.492597573512596,14.001618242959037,57.55910101171832,51.44601532318501,-9.713172767078504e-05,0.0874469503760337,0,0,0
4837,162852.29879577743,2010-08-21 11:35:38,2131.0847199354544,7,13,-1.099929690361023,3.6320817470550537,14.492597573512596,14.010787672972237,57.55910101171832,51.47933126278128,-6.47544875391759e-05,0.0874469503760337,0,0,0
4838,162882.31408663772,2010-08-21 11:36:09,2161.1000107957525,7,13,-1.099929690361023,3.6294915676116943,14.492597573512596,14.019957139115732,57.55910101171832,51.51262415499663,-9.713172767078504e-05,0.0874469503760337,0,0,0
4839,162912.32975415175,2010-08-21 11:36:39,2191.1156783348497,7,13,-1.0997490882873535,3.627225160598755,14.492597573512596,14.02912672964166,57.55910101171832,51.54589460702268,-6.47544875391759e-05,0.0874469503760337,0,0,0
4840,162942.3447489191,2010-08-21 11:37:09,2221.130673082143,7,13,-1.099929690361023,3.624634981155396,14.492597573512596,14.038296102807772,57.55910101171832,51.57914174290883,-6.47544875391759e-05,0.0874469503760337,0,0,0
4841,162972.35989911383,2010-08-21 11:37:39,2251.145823271847,7,13,-1.099568486213684,3.622368574142456,14.492597573512596,14.047465565448322,57.55910101171832,51.61236677988135,-6.47544875391759e-05,0.0874469503760337,0,0,0
4842,163002.37522091123,2010-08-21 11:38:09,2281.1611450692494,7,13,-1.0997490882873535,3.6197783946990967,14.492597573512596,14.056635076493428,57.55910101171832,51.645569649097645,-6.47544875391759e-05,0.0874469503760337,0,0,0
4843,163032.3904748495,2010-08-21 11:38:39,2311.176399012539,7,13,-1.0997490882873535,3.6173501014709473,14.492597573512596,14.065804591158493,57.55910101171832,51.67875023208104,-6.47544875391759e-05,0.0874469503760337,0,0,0
4844,163062.40585512266,2010-08-21 11:39:09,2341.1917792906934,7,13,-1.099568486213684,3.615083694458008,14.492597573512596,14.074974068169768,57.55910101171832,51.7119083275294,-3.237724376958795e-05,0.0874469503760337,0,0,0
4845,163092.4210354675,2010-08-21 11:39:39,2371.206959645578,7,13,-1.099929690361023,3.6123316287994394,14.492597573512596,14.084143565329653,57.55910101171832,51.74504403425814,-9.713172767078504e-05,0.0874469503760337,0,0,0
4846,163122.43628432314,2010-08-21 11:40:09,2401.22220848615,7,13,-1.099929690361023,3.609903335571289,14.492597573512596,14.093313093025364,57.55910101171832,51.77815702393004,-6.47544875391759e-05,0.0874469503760337,0,0,0
4847,163152.45158470212,2010-08-21 11:40:39,2431.2375089152965,7,13,-1.0997490882873535,3.60747504234314,14.492597573512596,14.102482595787151,57.55910101171832,51.81124696069778,-6.47544875391759e-05,0.0874469503760337,0,0,0
4848,163182.4669706093,2010-08-21 11:41:09,2461.252894787393,7,13,-1.099929690361023,3.6047229766845694,14.492597573512596,14.111652099302708,57.55910101171832,51.84431340545565,-9.713172767078504e-05,0.0874469503760337,0,0,0
4849,163212.4821592749,2010-08-21 11:41:39,2491.268083437953,7,13,-1.0997490882873535,3.602294683456421,14.492597573512596,14.120821598083676,57.55910101171832,51.877356125642,-6.47544875391759e-05,0.0874469503760337,0,0,0
4850,163242.49741104277,2010-08-21 11:42:09,2521.283335205821,7,13,-1.0997490882873535,3.5993807315826416,14.492597573512596,14.129991089839374,57.55910101171832,51.91037461041678,-0.0001295089750783,0.0874469503760337,0,0,0
4851,163272.51268254482,2010-08-21 11:42:39,2551.2986067279217,7,13,-1.0997490882873535,3.5967905521392822,14.492597573512596,14.13916058520946,57.55910101171832,51.94336837949904,-9.713172767078504e-05,0.0874469503760337,0,0,0
4852,163302.52810319362,2010-08-21 11:43:09,2581.3140273817053,7,13,-1.0997490882873535,3.594038486480713,14.492597573512596,14.148330136153076,57.55910101171832,51.97633710722454,-6.47544875391759e-05,0.0874469503760337,0,0,0
4853,163332.5433294529,2010-08-21 11:43:39,2611.3292536409976,7,13,-1.0997490882873535,3.5912866592407227,14.492597573512596,14.157499111130935,57.55910101171832,52.00927815466804,-6.47544875391759e-05,0.0874469503760337,0,0,0
4854,163362.55852082022,2010-08-21 11:44:09,2641.3444449782533,7,13,-1.099568486213684,3.5882108211517334,14.492597573512596,14.16666784323858,57.55910101171832,52.04219176993515,-9.713172767078504e-05,0.0874469503760337,0,0,0
4855,163392.57402518764,2010-08-21 11:44:39,2671.359949345677,7,13,-1.099929690361023,3.585296869277954,14.492597573512596,14.175837261622036,57.55910101171832,52.07508053429498,-6.47544875391759e-05,0.0874469503760337,0,0,0
4856,163422.5891103954,2010-08-21 11:45:09,2701.375034578488,7,13,-1.0997490882873535,3.582059144973755,14.492597573512596,14.18500680076202,57.55910101171832,52.107941639424574,-9.713172767078504e-05,0.0874469503760337,0,0,0
4857,163452.6043788599,2010-08-21 11:45:39,2731.390303022919,7,13,-1.099929690361023,3.578821420669556,14.492597573512596,14.194176344281344,57.55910101171832,52.1407739101932,-0.0001295089750783,0.0874469503760337,0,0,0
4858,163482.61966468763,2010-08-21 11:46:09,2761.405588845661,7,13,-1.0997490882873535,3.5757455825805664,14.492597573512596,14.203345934870365,57.55910101171832,52.17357650473844,-9.713172767078504e-05,0.0874469503760337,0,0,0
4859,163512.63501865522,2010-08-21 11:46:39,2791.4209428132426,7,13,-1.0997490882873535,3.572345972061157,14.492597573512596,14.212515522693984,57.55910101171832,52.20634816982397,-9.713172767078504e-05,0.0874469503760337,0,0,0
4860,163542.6503461017,2010-08-21 11:47:09,2821.4362702897997,7,13,-1.0997490882873535,3.568784475326538,14.492597573512596,14.221685124343947,57.55910101171832,52.23908774357318,-6.47544875391759e-05,0.0874469503760337,0,0,0
4861,163572.66549606586,2010-08-21 11:47:39,2851.451420228878,7,13,-1.0997490882873535,3.565061092376709,14.492597573512596,14.230854681799686,57.55910101171832,52.27179379816271,-0.0001295089750783,0.0874469503760337,0,0,0
4862,163602.680815362,2010-08-21 11:48:09,2881.466739525047,7,13,-1.099929690361023,3.56117582321167,14.492597573512596,14.24002420612495,57.55910101171832,52.30446547369295,-9.713172767078504e-05,0.0874469503760337,0,0,0
4863,163632.6960823578,2010-08-21 11:48:39,2911.482006515855,7,13,-1.099568486213684,3.557290554046631,14.492597573512596,14.249193736837045,57.55910101171832,52.33710170638638,-6.47544875391759e-05,0.0874469503760337,0,0,0
4864,163662.711341073,2010-08-21 11:49:09,2941.4972652360498,7,13,-1.0997490882873535,3.553081512451172,14.492597573512596,14.258363325964853,57.55910101171832,52.36970073483116,-9.713172767078504e-05,0.0874469503760337,0,0,0
4865,163692.72660946733,2010-08-21 11:49:39,2971.512533635368,7,13,-1.0997490882873535,3.548710584640503,14.492597573512596,14.267532853299736,57.55910101171832,52.40226084565323,-9.713172767078504e-05,0.0874469503760337,0,0,0
4866,163722.74193977093,2010-08-21 11:50:09,3001.5278639289463,7,13,-1.099929690361023,3.544177770614624,14.492597573512596,14.276702495266433,57.55910101171832,52.43478094752651,-0.0001295089750783,0.0874469503760337,0,0,0
4867,163752.75718362906,2010-08-21 11:50:39,3031.5431078171755,7,13,-1.0997490882873535,3.539483070373535,14.492597573512596,14.28587208620625,57.55910101171832,52.46725896613808,-0.0001295089750783,0.0874469503760337,0,0,0
4868,163782.7724577276,2010-08-21 11:51:09,3061.5583818856226,7,13,-1.0997490882873535,3.534950256347656,14.492597573512596,14.295041693582048,57.55910101171832,52.49969416091118,-9.713172767078504e-05,0.0874469503760337,0,0,0
4869,163812.78787154434,2010-08-21 11:51:39,3091.5737957073784,7,13,-1.0997490882873535,3.5299317836761475,14.492597573512596,14.304211367451437,57.55910101171832,52.53208554973812,-0.0001295089750783,0.0874469503760337,0,0,0
4870,163842.80301101232,2010-08-21 11:52:09,3121.5889351753603,7,13,-1.099568486213684,3.5250751972198486,14.492597573512596,14.313380938669518,57.55910101171832,52.564431195183786,-0.0001295089750783,0.0874469503760337,0,0,0
4871,163872.81831037882,2010-08-21 11:52:39,3151.604234541858,7,13,-1.0997490882873535,3.51973295211792,14.492597573512596,14.32255054635498,57.55910101171832,52.59672999432816,-0.0001618862152099,0.0874469503760337,0,0,0
4872,163902.83357636715,2010-08-21 11:53:09,3181.619500530167,7,13,-1.0997490882873535,3.514390707015991,14.492597573512596,14.331720189163155,57.55910101171832,52.62898001284191,-9.713172767078504e-05,0.0874469503760337,0,0,0
4873,163932.84886802442,2010-08-21 11:53:39,3211.634792212514,7,13,-1.099568486213684,3.508563041687012,14.492597573512596,14.340889792316592,57.55910101171832,52.66117812512044,-9.713172767078504e-05,0.0874469503760337,0,0,0
4874,163962.8641343636,2010-08-21 11:54:09,3241.650058521623,7,13,-1.099929690361023,3.5020875930786133,14.492597573512596,14.350059442009664,57.55910101171832,52.69332053835081,-0.0001942634553415,0.0874469503760337,0,0,0
4875,163992.8794205272,2010-08-21 11:54:39,3271.665344685216,7,13,-1.0997490882873535,3.494964599609375,14.492597573512596,14.359229035380205,57.55910101171832,52.72540150974768,-0.0002266406954731,0.0874469503760337,0,0,0
4876,164022.89469262073,2010-08-21 11:55:09,3301.680616778741,7,13,-1.0997490882873535,3.487032175064087,14.492597573512596,14.368398677897977,57.55910101171832,52.75741443457288,-0.0002590179501567,0.0874469503760337,0,0,0
4877,164052.91000478412,2010-08-21 11:55:39,3331.695928942133,7,13,-1.0997490882873535,3.477966547012329,14.492597573512596,14.377568316763174,57.55910101171832,52.78934937089496,-0.0002590179501567,0.0874469503760337,0,0,0
4878,164082.9253341103,2010-08-21 11:56:09,3361.711258383587,7,13,-1.099568486213684,3.467282056808472,14.492597573512596,14.386737945551983,57.55910101171832,52.82119300466814,-0.0002590179501567,0.0874469503760337,0,0,0
4879,164112.94055412902,2010-08-21 11:56:39,3391.7264782870384,7,13,-1.0997490882873535,3.453683614730835,14.492597573512596,14.395907498997992,57.55910101171832,52.852926377971535,-0.0004209041653666,0.0874469503760337,0,0,0
4880,164142.95596055733,2010-08-21 11:57:09,3421.74188474043,7,13,-1.099929690361023,3.436199903488159,14.492597573512596,14.4050771611673,57.55910101171832,52.88452026718322,-0.0005504131549969,0.0874469503760337,0,0,0
4881,164172.9710897848,2010-08-21 11:57:39,3451.75701394784,7,13,-1.0997490882873535,3.412402868270874,14.492597573512596,14.414246764824318,57.55910101171832,52.91592638613994,-0.0007122993702068,0.0874469503760337,0,0,0
4882,164202.9863737078,2010-08-21 11:58:09,3481.772297865835,7,13,-1.0997490882873535,3.3780829906463623,14.492597573512596,14.42341640138168,57.55910101171832,52.94706885903218,-0.0010684489971026,0.0874469503760337,0,0,0
4883,164233.00166051302,2010-08-21 11:58:39,3511.7875846710263,7,13,-1.099929690361023,3.3275747299194336,14.492597573512596,14.432586047642832,57.55910101171832,52.97782663873445,-0.0015541076427325,0.0874469503760337,0,0,0
4884,164263.01705250033,2010-08-21 11:59:09,3541.802976658364,7,13,-1.0997490882873535,3.2537548542022705,14.492597573512596,14.441755695247176,57.55910101171832,53.00802173352615,-0.0023311614058911,0.0874469503760337,0,0,0
4885,164293.03221064486,2010-08-21 11:59:39,3571.8181348028934,7,13,-1.0997490882873535,3.142053604125977,14.492597573512596,14.450925241374351,57.55910101171832,53.0373845350617,-0.003593873931095,0.0874469503760337,0,0,0
4886,164322.1569028894,2010-08-21 12:00:08,3600.9428270474104,7,13,-1.0997490882873535,2.941801071166992,14.492597573512596,14.459822800809809,57.55910101171832,53.06457589412298,-0.0081590171903371,0.0874469503760337,0,0,0
4887,164335.000501905,2010-08-21 12:00:21,3613.7864260680462,7,13,-1.099929690361023,2.741062641143799,14.492597573512596,14.463746495516398,57.55910101171832,53.07576405734184,-0.015055370517075,0.0874469503760337,0,0,0
4888,164337.04733195528,2010-08-21 12:00:23,3615.833256113313,7,13,-1.0997490882873535,2.699943780899048,14.492597573512596,14.464371811212198,57.55910101171832,53.0774653741575,-0.0158000476658344,0.0874469503760337,0,0,0
4889,164397.06281481113,2010-08-21 12:01:23,60.0149248237916,8,13,0.0,3.3110623359680176,14.492597573512596,14.464371811212198,57.55910101171832,53.0774653741575,0.0013274669181555,0.0874469503760337,0,0,0
4890,164397.2515987382,2010-08-21 12:01:24,0.187528293207687,9,13,-1.9243103452026844e-05,3.3112242221832275,14.492597573512596,14.464371812214594,57.55910101171832,53.077465377476656,0.0,0.0859051570296287,0,0,0
4891,164402.07991271725,2010-08-21 12:01:29,5.015842187066227,9,13,0.0005225847125984,3.318832874298096,14.492598409402444,14.46437181238134,57.559103783184256,53.07746537802879,0.0011008263099938,0.0859051570296287,0,0,0
