Data_Point,Test_Time(s),Date_Time,Step_Time(s),Step_Index,Cycle_Index,Current(A),Voltage(V),Charge_Capacity(Ah),Discharge_Capacity(Ah),Charge_Energy(Wh),Discharge_Energy(Wh),dV/dt(V/s),Internal_Resistance(Ohm),Is_FC_Data,AC_Impedance(Ohm),ACI_Phase_Angle(Deg)
1,30.00057576575465,2010-08-19 14:21:41,30.0005763472038,1,1,0.0,3.511962413787842,0.0,0.0,0.0,0.0,-3.237724376958795e-05,0.0,0,0,0
2,60.01545442371757,2010-08-19 14:22:11,60.015455015191705,1,1,0.0,3.5122861862182617,0.0,0.0,0.0,0.0,0.0,0.0,0,0,0
3,90.03062552554059,2010-08-19 14:22:41,90.03062611200222,1,1,0.0,3.5122861862182617,0.0,0.0,0.0,0.0,0.0,0.0,0,0,0
4,120.01455774044544,2010-08-19 14:23:11,120.01455833693204,1,1,0.0,3.5122861862182617,0.0,0.0,0.0,0.0,0.0,0.0,0,0,0
5,150.03006660835314,2010-08-19 14:23:41,30.01508306240168,2,1,0.5501165986061096,3.6277108192443848,0.004586856101698,0.0,0.016539944880532,0.0,0.0010360718006268,0.0,0,0,0
6,180.04536312274283,2010-08-19 14:24:11,60.03037960185386,2,1,0.5501165986061096,3.6613831520080566,0.009173726696044,0.0,0.033260121915924,0.0,0.0008094310760498,0.0,0,0,0
7,210.06042182944265,2010-08-19 14:24:41,90.04543828850366,2,1,0.5501165986061096,3.688579797744751,0.013760465472864,0.0,0.050117892318173,0.0,0.0006799221155233,0.0,0,0,0
8,240.07558686113697,2010-08-19 14:25:11,120.06060332019804,2,1,0.550297200679779,3.711891412734986,0.018347249057609,0.0,0.06709098951503,0.0,0.0005827903514727,0.0,0,0,0
9,270.09075308580464,2010-08-19 14:25:41,150.07576954987815,2,1,0.5499359965324402,3.731965303421021,0.022934054507442,0.0,0.084164024920508,0.0,0.0004532813909463,0.0,0,0,0
10,300.10633358797924,2010-08-19 14:26:11,180.09135004704032,2,1,0.5501165986061096,3.750420331954956,0.027520909176705,0.0,0.101325473518967,0.0,0.0005180359003134,0.0,0,0,0
11,330.1211575847096,2010-08-19 14:26:41,210.10617404878312,2,1,0.5501165986061096,3.766284942626953,0.032107589966123,0.0,0.118564592053733,0.0,0.0003885269106831,0.0,0,0,0
12,360.1363221953546,2010-08-19 14:27:11,240.12133864940316,2,1,0.5501165986061096,3.7784264087677,0.036694336503099,0.0,0.135869655522061,0.0,0.0002590179501567,0.0,0,0,0
13,390.1514975477714,2010-08-19 14:27:41,270.13651400683244,2,1,0.5501165986061096,3.7847399711608887,0.041281106718684,0.0,0.153217399827135,0.0,6.47544875391759e-05,0.0,0,0,0
14,420.1667137820784,2010-08-19 14:28:11,300.151730246152,2,1,0.5501165986061096,3.787330150604248,0.045867909717124,0.0,0.170583878457372,0.0,9.713172767078504e-05,0.0,0,0,0
15,450.1818936758136,2010-08-19 14:28:41,330.1669101348746,2,1,0.550297200679779,3.7884633541107178,0.050454689619411,0.0,0.187957908061591,0.0,3.237724376958795e-05,0.0,0,0,0
16,480.1970482263857,2010-08-19 14:29:11,360.1820646854468,2,1,0.5499359965324402,3.7891108989715576,0.055041467515208,0.0,0.205336396063253,0.0,3.237724376958795e-05,0.0,0,0,0
17,510.2122573078658,2010-08-19 14:29:41,390.1972737669268,2,1,0.5501165986061096,3.7902441024780273,0.05962826291956,0.0,0.222718885626522,0.0,3.237724376958795e-05,0.0,0,0,0
18,540.227403262013,2010-08-19 14:30:11,420.21241972107407,2,1,0.5501165986061096,3.791053533554077,0.064215066995333,0.0,0.240105458362331,0.0,0.0,0.0,0,0,0
19,570.2426124587803,2010-08-19 14:30:41,450.22762891282895,2,1,0.5499359965324402,3.792024850845337,0.068801895125892,0.0,0.257496339443617,0.0,3.237724376958795e-05,0.0,0,0,0
20,600.2577701521855,2010-08-19 14:31:11,480.2427866062339,2,1,0.5499359965324402,3.793158054351807,0.073388692566323,0.0,0.274892192249553,0.0,0.0,0.0,0,0,0
21,630.2729608979672,2010-08-19 14:31:41,510.25797735702827,2,1,0.5501165986061096,3.794291257858277,0.077975529712857,0.0,0.292293784469746,0.0,-3.237724376958795e-05,0.0,0,0,0
22,660.2882881339245,2010-08-19 14:32:11,540.2733046130355,2,1,0.550297200679779,3.796072006225586,0.082562347731782,0.0,0.309701593167219,0.0,6.47544875391759e-05,0.0,0,0,0
23,690.3033352316912,2010-08-19 14:32:41,570.2883516857398,2,1,0.5497553944587708,3.797205209732056,0.087149118171015,0.0,0.327116120914201,0.0,0.0,0.0,0,0,0
24,720.3185213960547,2010-08-19 14:33:11,600.3035378501033,2,1,0.5501165986061096,3.799309730529785,0.091735924146325,0.0,0.344538429076932,0.0,6.47544875391759e-05,0.0,0,0,0
25,750.3336902723308,2010-08-19 14:33:41,630.3187067263796,2,1,0.5501165986061096,3.801090478897095,0.096322772990946,0.0,0.361969084364549,0.0,6.47544875391759e-05,0.0,0,0,0
26,780.3488620157531,2010-08-19 14:34:11,660.3338784798266,2,1,0.5501165986061096,3.802871227264404,0.100909540870697,0.0,0.379407956403679,0.0,0.0,0.0,0,0,0
27,810.3640688766989,2010-08-19 14:34:41,690.3490853307475,2,1,0.5499359965324402,3.804975748062134,0.105496367784859,0.0,0.396856264518694,0.0,3.237724376958795e-05,0.0,0,0,0
28,840.3792291114376,2010-08-19 14:35:11,720.3642455654863,2,1,0.5501165986061096,3.806918382644653,0.110083177144304,0.0,0.41431408172887,0.0,0.0,0.0,0,0,0
29,870.3945315255313,2010-08-19 14:35:41,750.3795479946175,2,1,0.550297200679779,3.8095085620880127,0.114670034908742,0.0,0.431782136562362,0.0,9.713172767078504e-05,0.0,0,0,0
30,900.4095982522193,2010-08-19 14:36:11,780.394614706268,2,1,0.5501165986061096,3.811774969100952,0.119256948157667,0.0,0.449261054238643,0.0,3.237724376958795e-05,0.0,0,0,0
31,930.424827218258,2010-08-19 14:36:41,810.4098436973688,2,1,0.5501165986061096,3.814365148544312,0.123843702165911,0.0,0.46675055837564,0.0,6.47544875391759e-05,0.0,0,0,0
32,960.4399586812888,2010-08-19 14:37:11,840.4249751453623,2,1,0.5501165986061096,3.816955327987671,0.128430475581419,0.0,0.484252124953618,0.0,6.47544875391759e-05,0.0,0,0,0
33,990.455142585018,2010-08-19 14:37:41,870.440159044079,2,1,0.550297200679779,3.81986927986145,0.133017289953951,0.0,0.501766256901343,0.0,6.47544875391759e-05,0.0,0,0,0
34,1020.4703240576883,2010-08-19 14:38:11,900.455340511737,2,1,0.5501165986061096,3.8227832317352295,0.137604138234153,0.0,0.519293603227723,0.0,9.713172767078504e-05,0.0,0,0,0
35,1050.4855123072489,2010-08-19 14:38:41,930.4705287713224,2,1,0.5501165986061096,3.8258590698242183,0.142190943065499,0.0,0.536834390482008,0.0,0.0001295089750783,0.0,0,0,0
36,1080.5009287605633,2010-08-19 14:39:11,960.4859452246368,2,1,0.550297200679779,3.828934907913208,0.146777742989798,0.0,0.554389162837945,0.0,0.0001295089750783,0.0,0,0,0
37,1110.51586628524,2010-08-19 14:39:41,990.5008827693636,2,1,0.5501165986061096,3.8318488597869873,0.15136448771721,0.0,0.57195802805403,0.0,6.47544875391759e-05,0.0,0,0,0
38,1140.531064123699,2010-08-19 14:40:11,1020.51608060281,2,1,0.5501165986061096,3.835086345672608,0.155951278304208,0.0,0.589541354386694,0.0,9.713172767078504e-05,0.0,0,0,0
39,1170.5462355012094,2010-08-19 14:40:41,1050.5312519652828,2,1,0.5501165986061096,3.8381621837615967,0.160538092580563,0.0,0.607139162514485,0.0,9.713172767078504e-05,0.0,0,0,0
40,1200.5616642050556,2010-08-19 14:41:11,1080.546680699204,2,1,0.5501165986061096,3.841238021850586,0.16512488462242,0.0,0.62475112679799,0.0,6.47544875391759e-05,0.0,0,0,0
41,1230.5767197037603,2010-08-19 14:41:41,1110.5617361628213,2,1,0.550297200679779,3.844313859939575,0.16971164670419,0.0,0.642376947144514,0.0,0.0001295089750783,0.0,0,0,0
42,1260.591770475684,2010-08-19 14:42:11,1140.5767869598076,2,1,0.5501165986061096,3.8472278118133545,0.174298433846176,0.0,0.660016515622508,0.0,9.713172767078504e-05,0.0,0,0,0
43,1290.6071890041706,2010-08-19 14:42:41,1170.592205488294,2,1,0.5497553944587708,3.849979877471924,0.17888523637875,0.0,0.677669490352811,0.0,6.47544875391759e-05,0.0,0,0,0
44,1320.6221647992288,2010-08-19 14:43:11,1200.6071812532775,2,1,0.5501165986061096,3.852731943130493,0.183472065275018,0.0,0.695335583181935,0.0,6.47544875391759e-05,0.0,0,0,0
45,1350.6373472443229,2010-08-19 14:43:41,1230.622363723434,2,1,0.5499359965324402,3.855645895004273,0.188058883489001,0.0,0.713014341367539,0.0,6.47544875391759e-05,0.0,0,0,0
46,1380.652617057164,2010-08-19 14:44:11,1260.6376335412876,2,1,0.5501165986061096,3.858397960662842,0.192645652813999,0.0,0.730705544638225,0.0,6.47544875391759e-05,0.0,0,0,0
47,1410.6678127653136,2010-08-19 14:44:41,1290.652829229387,2,1,0.5501165986061096,3.860988140106201,0.197232483032139,0.0,0.748409498118224,0.0,3.237724376958795e-05,0.0,0,0,0
48,1440.6698546601128,2010-08-19 14:45:11,1320.654871119174,2,1,0.5501165986061096,3.8637402057647705,0.201817284276232,0.0,0.766118095904192,0.0,6.47544875391759e-05,0.0,0,0,0
49,1470.6824085189612,2010-08-19 14:45:41,1350.6674249730097,2,1,0.5501165986061096,3.86649227142334,0.206403657256329,0.0,0.783845032357714,0.0,6.47544875391759e-05,0.0,0,0,0
50,1500.6976082671797,2010-08-19 14:46:11,1380.682624731253,2,1,0.5501165986061096,3.869244337081909,0.210990473426945,0.0,0.801585999168169,0.0,9.713172767078504e-05,0.0,0,0,0
51,1530.7127602663932,2010-08-19 14:46:41,1410.697776745504,2,1,0.5504778623580933,3.871834516525269,0.215577238927304,0.0,0.819338852434488,0.0,9.713172767078504e-05,0.0,0,0,0
52,1560.7279511274623,2010-08-19 14:47:11,1440.7129675865233,2,1,0.5501165986061096,3.874262809753418,0.220164126922317,0.0,0.837104092386319,0.0,9.713172767078504e-05,0.0,0,0,0
53,1590.7431201841882,2010-08-19 14:47:41,1470.7281366432494,2,1,0.5499359965324402,3.876691102981568,0.224750931183051,0.0,0.85488047555533,0.0,3.237724376958795e-05,0.0,0,0,0
54,1620.7583167043615,2010-08-19 14:48:11,1500.74333317846,2,1,0.550297200679779,3.878957509994507,0.229337722516804,0.0,0.872667765515425,0.0,3.237724376958795e-05,0.0,0,0,0
55,1650.773483199704,2010-08-19 14:48:41,1530.7584996587648,2,1,0.550297200679779,3.881385803222656,0.233924578685239,0.0,0.890465549522303,0.0,0.0001295089750783,0.0,0,0,0
56,1680.788669544517,2010-08-19 14:49:11,1560.773685993553,2,1,0.550297200679779,3.883166551589966,0.238511398406107,0.0,0.90827262748198,0.0,6.47544875391759e-05,0.0,0,0,0
57,1710.803860260224,2010-08-19 14:49:41,1590.788876739335,2,1,0.5501165986061096,3.8849472999572754,0.243098228859188,0.0,0.926088216383741,0.0,3.237724376958795e-05,0.0,0,0,0
58,1740.8190239636078,2010-08-19 14:50:11,1620.8040404477313,2,1,0.5501165986061096,3.886566162109375,0.247685044533204,0.0,0.943911329597015,0.0,6.47544875391759e-05,0.0,0,0,0
59,1770.8342003235357,2010-08-19 14:50:42,1650.819216777584,2,1,0.5501165986061096,3.887861251831055,0.252271807928888,0.0,0.961740943896219,0.0,3.237724376958795e-05,0.0,0,0,0
60,1800.849705096971,2010-08-19 14:51:12,1680.8347215510194,2,1,0.5501165986061096,3.888994455337525,0.256858681725823,0.0,0.979577006569966,0.0,3.237724376958795e-05,0.0,0,0,0
61,1830.864692831787,2010-08-19 14:51:42,1710.8497092858356,2,1,0.5499359965324402,3.890127658843994,0.261445484485406,0.0,0.997418026822578,0.0,0.0,0.0,0,0,0
62,1860.8797481951544,2010-08-19 14:52:12,1740.8647646792776,2,1,0.5501165986061096,3.891260862350464,0.266032268186292,0.0,1.015263793516105,0.0,3.237724376958795e-05,0.0,0,0,0
63,1890.8950444438813,2010-08-19 14:52:42,1770.880060907955,2,1,0.5501165986061096,3.8920702934265137,0.270619114914545,0.0,1.033114272354608,0.0,0.0,0.0,0,0,0
64,1920.910141310688,2010-08-19 14:53:12,1800.8951577847868,2,1,0.550297200679779,3.892879724502564,0.275205965957628,0.0,1.050968820727613,0.0,0.0,0.0,0,0,0
65,1950.9252793902097,2010-08-19 14:53:42,1830.910295844258,2,1,0.5501165986061096,3.8938510417938232,0.279792782395793,0.0,1.068827172356492,0.0,3.237724376958795e-05,0.0,0,0,0
66,1980.940457238848,2010-08-19 14:54:12,1860.925473692896,2,1,0.5501165986061096,3.894498586654663,0.284379693298688,0.0,1.086689651505647,0.0,-3.237724376958795e-05,0.0,0,0,0
67,2010.9556351576605,2010-08-19 14:54:42,1890.9406516117087,2,1,0.5501165986061096,3.895146131515503,0.2889666122684,0.0,1.104555131852225,0.0,0.0,0.0,0,0,0
68,2040.970840018622,2010-08-19 14:55:12,1920.9558564726703,2,1,0.5501165986061096,3.8961174488067623,0.293553426053491,0.0,1.122423666412296,0.0,6.47544875391759e-05,0.0,0,0,0
69,2070.9861305079958,2010-08-19 14:55:42,1950.9711469720687,2,1,0.5501165986061096,3.8967649936676025,0.298140280120721,0.0,1.14029579194695,0.0,3.237724376958795e-05,0.0,0,0,0
70,2101.0011906783434,2010-08-19 14:56:12,1980.9862071323912,2,1,0.5501165986061096,3.897574424743652,0.302727037486279,0.0,1.158170844972887,0.0,0.0,0.0,0,0,0
71,2131.0164652580647,2010-08-19 14:56:42,2011.001481852463,2,1,0.5501165986061096,3.898060083389282,0.307313959069032,0.0,1.176049706338839,0.0,0.0,0.0,0,0,0
72,2161.031567844125,2010-08-19 14:57:12,2041.0165843031864,2,1,0.5501165986061096,3.898707628250122,0.311900708761748,0.0,1.19393107437925,0.0,0.0,0.0,0,0,0
73,2191.046724184157,2010-08-19 14:57:42,2071.031740638206,2,1,0.5501165986061096,3.899517059326172,0.316487604912436,0.0,1.2118161689184,0.0,0.0,0.0,0,0,0
74,2221.0619238120767,2010-08-19 14:58:12,2101.0469402661247,2,1,0.5499359965324402,3.9000027179718018,0.321074401469677,0.0,1.229703905564437,0.0,0.0,0.0,0,0,0
75,2251.077083655841,2010-08-19 14:58:42,2131.0621001199142,2,1,0.550297200679779,3.9009740352630615,0.325661257467195,0.0,1.247594879773105,0.0,0.0,0.0,0,0,0
76,2281.0926107549185,2010-08-19 14:59:12,2161.07762721398,2,1,0.5501165986061096,3.9014596939086914,0.330248138482161,0.0,1.265489066477402,0.0,3.237724376958795e-05,0.0,0,0,0
77,2311.107575206706,2010-08-19 14:59:42,2191.09259167078,2,1,0.5501165986061096,3.9021072387695312,0.334834949622836,0.0,1.283386124106338,0.0,0.0,0.0,0,0,0
78,2341.122639878272,2010-08-19 15:00:12,2221.1076563323204,2,1,0.5497553944587708,3.902754783630371,0.339421712974899,0.0,1.301286018873263,0.0,0.0,0.0,0,0,0
79,2371.137795085481,2010-08-19 15:00:42,2251.1228115395293,2,1,0.5499359965324402,3.903564214706421,0.344008573169426,0.0,1.319189466189449,0.0,0.0,0.0,0,0,0
80,2401.1529962973477,2010-08-19 15:01:12,2281.138012756408,2,1,0.5501165986061096,3.904373645782471,0.348595352621494,0.0,1.337095747245184,0.0,3.237724376958795e-05,0.0,0,0,0
81,2431.168167855307,2010-08-19 15:01:42,2311.1531843143684,2,1,0.5499359965324402,3.905021190643311,0.353182190609313,0.0,1.35500555491369,0.0,3.237724376958795e-05,0.0,0,0,0
82,2461.183454224411,2010-08-19 15:02:12,2341.1684706784604,2,1,0.5501165986061096,3.905506849288941,0.357769038354799,0.0,1.372918443798051,0.0,-3.237724376958795e-05,0.0,0,0,0
83,2491.1985174373426,2010-08-19 15:02:42,2371.183533921466,2,1,0.5501165986061096,3.9063162803649902,0.362355827488105,0.0,1.390834511933373,0.0,-3.237724376958795e-05,0.0,0,0,0
84,2521.213700378674,2010-08-19 15:03:12,2401.1987168327214,2,1,0.5501165986061096,3.90712571144104,0.366942643631377,0.0,1.408754060294043,0.0,0.0,0.0,0,0,0
85,2551.228917465104,2010-08-19 15:03:42,2431.21393395424,2,1,0.5501165986061096,3.90777325630188,0.371529404086175,0.0,1.426676811499457,0.0,0.0,0.0,0,0,0
86,2581.24404525899,2010-08-19 15:04:12,2461.2290617180515,2,1,0.5501165986061096,3.90874457359314,0.376116261054144,0.0,1.444603411615453,0.0,3.237724376958795e-05,0.0,0,0,0
87,2611.259244310472,2010-08-19 15:04:42,2491.2442607645207,2,1,0.5501165986061096,3.9095540046691895,0.380703031148733,0.0,1.462533274366091,0.0,3.237724376958795e-05,0.0,0,0,0
88,2641.2744222944475,2010-08-19 15:05:12,2521.259438748496,2,1,0.550297200679779,3.9103634357452393,0.385289959268494,0.0,1.480467481275837,0.0,3.237724376958795e-05,0.0,0,0,0
89,2671.289704813957,2010-08-19 15:05:42,2551.274721298081,2,1,0.5501165986061096,3.911010980606079,0.389876952903482,0.0,1.498405574829163,0.0,0.0,0.0,0,0,0
90,2701.30478554555,2010-08-19 15:06:12,2581.2898020046114,2,1,0.5499359965324402,3.911820411682129,0.394463733717127,0.0,1.516346699813864,0.0,3.237724376958795e-05,0.0,0,0,0
91,2731.319952562192,2010-08-19 15:06:42,2611.3049690162406,2,1,0.550297200679779,3.912953615188599,0.399050545709539,0.0,1.534291871874019,0.0,6.47544875391759e-05,0.0,0,0,0
92,2761.3352821490084,2010-08-19 15:07:12,2641.3202986130814,2,1,0.550297200679779,3.913762807846069,0.4036374343769,0.0,1.552241288296269,0.0,3.23295607813634e-05,0.0,0,0,0
93,2791.3504235668497,2010-08-19 15:07:42,2671.335440030923,2,1,0.5501165986061096,3.914410352706909,0.408224233127736,0.0,1.570194450142971,0.0,0.0,0.0,0,0,0
94,2821.365507080376,2010-08-19 15:08:12,2701.3505235645,2,1,0.550297200679779,3.915381669998169,0.412811089426984,0.0,1.588152048828329,0.0,0.0,0.0,0,0,0
95,2851.380663009383,2010-08-19 15:08:42,2731.365679463432,2,1,0.550297200679779,3.9163529872894287,0.417397965375541,0.0,1.606113722817154,0.0,3.237724376958795e-05,0.0,0,0,0
96,2881.395847935661,2010-08-19 15:09:12,2761.380864399735,2,1,0.5501165986061096,3.9171624183654794,0.421984780384081,0.0,1.624079610575155,0.0,0.0,0.0,0,0,0
97,2911.411013704192,2010-08-19 15:09:42,2791.396030168265,2,1,0.5501165986061096,3.918295621871948,0.426571602746598,0.0,1.642049903777527,0.0,6.47544875391759e-05,0.0,0,0,0
98,2941.4262030514883,2010-08-19 15:10:12,2821.411219505537,2,1,0.5501165986061096,3.919266939163208,0.431158439340656,0.0,1.66002475046607,0.0,3.237724376958795e-05,0.0,0,0,0
99,2971.4413976067644,2010-08-19 15:10:42,2851.426414060813,2,1,0.5501165986061096,3.9204001426696777,0.435745293247217,0.0,1.678004303542571,0.0,0.0,0.0,0,0,0
100,3001.456745890179,2010-08-19 15:11:12,2881.441762364277,2,1,0.5501165986061096,3.9213714599609375,0.440332146689669,0.0,1.695988440851613,0.0,3.237724376958795e-05,0.0,0,0,0
101,3031.471974184543,2010-08-19 15:11:42,2911.4569906486167,2,1,0.550297200679779,3.9225046634674072,0.444919000672663,0.0,1.713977426894961,0.0,6.47544875391759e-05,0.0,0,0,0
102,3061.4869045714304,2010-08-19 15:12:12,2941.471921025479,2,1,0.5501165986061096,3.923475980758667,0.449505813456324,0.0,1.731971157126591,0.0,0.0,0.0,0,0,0
103,3091.5020858586386,2010-08-19 15:12:42,2971.487102312687,2,1,0.5501165986061096,3.924447298049927,0.454092638526191,0.0,1.749969904431554,0.0,0.0,0.0,0,0,0
104,3121.5172830003607,2010-08-19 15:13:12,3001.502299459422,2,1,0.5501165986061096,3.9257423877716064,0.458679551673579,0.0,1.767974150552351,0.0,3.237724376958795e-05,0.0,0,0,0
105,3151.5325031243624,2010-08-19 15:13:42,3031.517519608486,2,1,0.5501165986061096,3.926713705062866,0.463266462591645,0.0,1.785983456699069,0.0,0.0,0.0,0,0,0
106,3181.5476520258558,2010-08-19 15:14:12,3061.5326684899287,2,1,0.5501165986061096,3.928008794784546,0.467853319815634,0.0,1.80399791846857,0.0,3.237724376958795e-05,0.0,0,0,0
107,3211.5628242905764,2010-08-19 15:14:42,3091.547840744625,2,1,0.5501165986061096,3.929141998291016,0.472440206409635,0.0,1.822017839016456,0.0,0.0,0.0,0,0,0
108,3241.57820203241,2010-08-19 15:15:12,3121.5632184914707,2,1,0.5501165986061096,3.9304370880126953,0.477027119073432,0.0,1.840043437783887,0.0,3.237724376958795e-05,0.0,0,0,0
109,3271.593299104729,2010-08-19 15:15:42,3151.5783155688023,2,1,0.5501165986061096,3.931570291519165,0.481613995191221,0.0,1.85807443674394,0.0,3.237724376958795e-05,0.0,0,0,0
110,3301.6083503678765,2010-08-19 15:16:12,3181.593366826938,2,1,0.5501165986061096,3.9328653812408447,0.486200826848013,0.0,1.876111001549636,0.0,6.47544875391759e-05,0.0,0,0,0
111,3331.6236460050804,2010-08-19 15:16:42,3211.608662459129,2,1,0.550297200679779,3.934160470962525,0.490787717658895,0.0,1.894153638899321,0.0,3.237724376958795e-05,0.0,0,0,0
112,3361.6413066666523,2010-08-19 15:17:12,3241.626323150776,2,1,0.5501165986061096,3.935455560684204,0.49537497308068,0.0,1.91220366180413,0.0,3.237724376958795e-05,0.0,0,0,0
113,3391.6539019136526,2010-08-19 15:17:42,3271.638918367701,2,1,0.5501165986061096,3.936750650405884,0.499961537193744,0.0,1.930256904369471,0.0,6.47544875391759e-05,0.0,0,0,0
114,3421.669049632197,2010-08-19 15:18:12,3301.6540660862456,2,1,0.5501165986061096,3.938045740127564,0.504548402582004,0.0,1.948317554800391,0.0,0.0,0.0,0,0,0
115,3451.684263821407,2010-08-19 15:18:42,3331.669280285481,2,1,0.5501165986061096,3.939502716064453,0.50913521428148,0.0,1.966384226147874,0.0,3.237724376958795e-05,0.0,0,0,0
116,3481.6994130838,2010-08-19 15:19:12,3361.684429557898,2,1,0.550297200679779,3.940959692001343,0.513722020625688,0.0,1.98445722165101,0.0,6.47544875391759e-05,0.0,0,0,0
117,3511.7145805916657,2010-08-19 15:19:42,3391.699597070776,2,1,0.550297200679779,3.942416667938232,0.518308880902896,0.0,2.002536876914382,0.0,6.47544875391759e-05,0.0,0,0,0
118,3541.7297605555755,2010-08-19 15:20:12,3421.7147770346864,2,1,0.5501165986061096,3.943711757659912,0.52289571837091,0.0,2.020623045792097,0.0,0.0,0.0,0,0,0
119,3571.7449398578365,2010-08-19 15:20:42,3451.7299563269225,2,1,0.550297200679779,3.945330619812012,0.527482474784276,0.0,2.038715585152555,0.0,6.47544875391759e-05,0.0,0,0,0
120,3601.760166267504,2010-08-19 15:21:12,3481.745182746615,2,1,0.550297200679779,3.946787595748901,0.532069391204628,0.0,2.056815574068547,0.0,3.237724376958795e-05,0.0,0,0,0
121,3631.7752971540976,2010-08-19 15:21:42,3511.760313608146,2,1,0.5501165986061096,3.948244571685791,0.536656237383953,0.0,2.074922068540326,0.0,3.237724376958795e-05,0.0,0,0,0
122,3661.790497744415,2010-08-19 15:22:12,3541.7755142285387,2,1,0.5501165986061096,3.9497015476226807,0.541243091731906,0.0,2.093035644586774,0.0,0.0,0.0,0,0,0
123,3691.805653773673,2010-08-19 15:22:43,3571.7906702327336,2,1,0.5501165986061096,3.95132040977478,0.54582992746953,0.0,2.11115622318086,0.0,3.237724376958795e-05,0.0,0,0,0
124,3721.821120532364,2010-08-19 15:23:13,3601.806136991425,2,1,0.5501165986061096,3.95293927192688,0.550416818537699,0.0,2.129284106056731,0.0,6.47544875391759e-05,0.0,0,0,0
125,3751.83627076718,2010-08-19 15:23:43,3631.821287221229,2,1,0.5501165986061096,3.95455813407898,0.555003713301632,0.0,2.147419301534794,0.0,3.237724376958795e-05,0.0,0,0,0
126,3781.851191615293,2010-08-19 15:24:13,3661.8362080743545,2,1,0.5499359965324402,3.956015110015869,0.559590511950452,0.0,2.165561365276368,0.0,3.237724376958795e-05,0.0,0,0,0
127,3811.866399954925,2010-08-19 15:24:43,3691.851416434036,2,1,0.550297200679779,3.9577958583831783,0.564177427640842,0.0,2.183711194551115,0.0,6.47544875391759e-05,0.0,0,0,0
128,3841.881567758528,2010-08-19 15:25:13,3721.866584212576,2,1,0.5501165986061096,3.959252834320069,0.568764297034489,0.0,2.201868357805791,0.0,3.237724376958795e-05,0.0,0,0,0
129,3871.8967334568833,2010-08-19 15:25:43,3751.8817499359934,2,1,0.5501165986061096,3.961033582687378,0.573351135942121,0.0,2.220033003068739,0.0,6.47544875391759e-05,0.0,0,0,0
130,3901.9119115561466,2010-08-19 15:26:13,3781.8969280152073,2,1,0.5501165986061096,3.9626524448394775,0.577938012124207,0.0,2.238205529326565,0.0,3.237724376958795e-05,0.0,0,0,0
131,3931.927129249089,2010-08-19 15:26:43,3811.912145703137,2,1,0.5501165986061096,3.964433193206787,0.582524912508389,0.0,2.256385903846619,0.0,6.47544875391759e-05,0.0,0,0,0
132,3961.942308596462,2010-08-19 15:27:13,3841.9273250505103,2,1,0.550297200679779,3.9662139415740967,0.587111815693657,0.0,2.274574150595268,0.0,6.47544875391759e-05,0.0,0,0,0
133,3991.9575770108177,2010-08-19 15:27:43,3871.9425934648666,2,1,0.5501165986061096,3.967832803726196,0.591698785994241,0.0,2.292770627376464,0.0,6.47544875391759e-05,0.0,0,0,0
134,4021.972652544456,2010-08-19 15:28:13,3901.9576690235663,2,1,0.550297200679779,3.969775438308716,0.596285664356299,0.0,2.310974776490855,0.0,6.47544875391759e-05,0.0,0,0,0
135,4051.9878381323824,2010-08-19 15:28:43,3931.972854591443,2,1,0.550297200679779,3.9715561866760254,0.600872586244172,0.0,2.329187228306239,0.0,6.47544875391759e-05,0.0,0,0,0
136,4082.0029866278633,2010-08-19 15:29:13,3961.988003081912,2,1,0.5499359965324402,3.973013162612915,0.60545953568208,0.0,2.347408078265945,0.0,-3.237724376958795e-05,0.0,0,0,0
137,4112.018152291132,2010-08-19 15:29:43,3992.003168750193,2,1,0.5501165986061096,3.975117683410645,0.610046391933587,0.0,2.365636871356815,0.0,9.713172767078504e-05,0.0,0,0,0
138,4142.033351518051,2010-08-19 15:30:13,4022.0183679721,2,1,0.5501165986061096,3.976898431777954,0.614633360508735,0.0,2.383874561895868,0.0,3.237724376958795e-05,0.0,0,0,0
139,4172.048528163691,2010-08-19 15:30:43,4052.033544617739,2,1,0.550297200679779,3.9788410663604736,0.619220241369767,0.0,2.402120014286992,0.0,3.237724376958795e-05,0.0,0,0,0
140,4202.063920968065,2010-08-19 15:31:13,4082.048937447176,2,1,0.5501165986061096,3.980621814727783,0.623807055100748,0.0,2.42037416676995,0.0,6.47544875391759e-05,0.0,0,0,0
141,4232.079022085465,2010-08-19 15:31:43,4112.064038539514,2,1,0.5501165986061096,3.982564449310303,0.628393934241518,0.0,2.438637291841633,0.0,6.47544875391759e-05,0.0,0,0,0
142,4262.09404832625,2010-08-19 15:32:13,4142.079064785311,2,1,0.5501165986061096,3.984345197677612,0.632980724365305,0.0,2.45690863749225,0.0,3.237724376958795e-05,0.0,0,0,0
143,4292.109347001025,2010-08-19 15:32:43,4172.094363455072,2,1,0.5501165986061096,3.986287832260132,0.637567623602568,0.0,2.475189067700447,0.0,6.47544875391759e-05,0.0,0,0,0
144,4322.1244176825685,2010-08-19 15:33:13,4202.10943414163,2,1,0.5501165986061096,3.9880685806274414,0.642154481644708,0.0,2.493477954677989,0.0,3.237724376958795e-05,0.0,0,0,0
145,4352.139570924881,2010-08-19 15:33:43,4232.124587388954,2,1,0.5501165986061096,3.989849328994751,0.646741313521154,0.0,2.511775216558782,0.0,0.0,0.0,0,0,0
146,4382.154877489318,2010-08-19 15:34:13,4262.139893953391,2,1,0.5501165986061096,3.991953849792481,0.651328088312977,0.0,2.530080778792096,0.0,6.47544875391759e-05,0.0,0,0,0
147,4412.169929308853,2010-08-19 15:34:43,4292.154945767914,2,1,0.5501165986061096,3.99373459815979,0.655914871647437,0.0,2.548394910565762,0.0,6.47544875391759e-05,0.0,0,0,0
148,4442.1851440745,2010-08-19 15:35:13,4322.170160528548,2,1,0.5501165986061096,3.995515108108521,0.660501706573622,0.0,2.566717738008106,0.0,6.47544875391759e-05,0.0,0,0,0
149,4472.200291472245,2010-08-19 15:35:43,4352.185307926294,2,1,0.550297200679779,3.99761962890625,0.665088506757637,0.0,2.585048781776766,0.0,9.713172767078504e-05,0.0,0,0,0
150,4502.215464929939,2010-08-19 15:36:13,4382.200481389,2,1,0.5501165986061096,3.99907660484314,0.669675448800002,0.0,2.60338868008046,0.0,3.237724376958795e-05,0.0,0,0,0
151,4532.230779088303,2010-08-19 15:36:43,4412.215795552376,2,1,0.550297200679779,4.001019477844238,0.674262255904251,0.0,2.621736317241295,0.0,3.24249267578125e-05,0.0,0,0,0
152,4562.245825865271,2010-08-19 15:37:13,4442.230842329343,2,1,0.5501165986061096,4.002799987792969,0.678849071377509,0.0,2.640092267953469,0.0,3.23295607813634e-05,0.0,0,0,0
153,4592.260995834271,2010-08-19 15:37:43,4472.246012318393,2,1,0.5501165986061096,4.004580974578857,0.683435953556715,0.0,2.658456796497271,0.0,6.47544875391759e-05,0.0,0,0,0
154,4622.276314924927,2010-08-19 15:38:13,4502.261331383987,2,1,0.5501165986061096,4.006361484527588,0.688022798312027,0.0,2.676829440391385,0.0,3.23295607813634e-05,0.0,0,0,0
155,4652.291373220602,2010-08-19 15:38:43,4532.276389679663,2,1,0.5501165986061096,4.008304119110107,0.692609623870091,0.0,2.695210399499366,0.0,6.47544875391759e-05,0.0,0,0,0
156,4682.3065442322,2010-08-19 15:39:13,4562.291560686248,2,1,0.5499359965324402,4.009922981262207,0.697196530585881,0.0,2.713599985969862,0.0,3.23295607813634e-05,0.0,0,0,0
157,4712.321839648854,2010-08-19 15:39:43,4592.30685609789,2,1,0.550297200679779,4.012027740478516,0.701783435338625,0.0,2.73199794878511,0.0,9.71794142969884e-05,0.0,0,0,0
158,4742.337157656812,2010-08-19 15:40:13,4622.322174130911,2,1,0.5501165986061096,4.013970375061035,0.706370296404164,0.0,2.75040429847142,0.0,6.47544875391759e-05,0.0,0,0,0
159,4772.352083933456,2010-08-19 15:40:43,4652.3371003875045,2,1,0.5501165986061096,4.015589237213135,0.710957116473777,0.0,2.768819015435181,0.0,6.47544875391759e-05,0.0,0,0,0
160,4802.367290373352,2010-08-19 15:41:13,4682.352306832413,2,1,0.5499359965324402,4.017531871795654,0.715543980399921,0.0,2.787242669744784,0.0,6.47544875391759e-05,0.0,0,0,0
161,4832.382496236812,2010-08-19 15:41:43,4712.367512781086,2,1,0.550297200679779,4.019474506378174,0.720130909616941,0.0,2.805675384273754,0.0,6.47544875391759e-05,0.0,0,0,0
162,4862.397638095752,2010-08-19 15:42:13,4742.382654579876,2,1,0.550297200679779,4.021578788757324,0.724717733150109,0.0,2.824116520259974,0.0,9.70840483205393e-05,0.0,0,0,0
163,4892.412784937111,2010-08-19 15:42:43,4772.397801401185,2,1,0.5501165986061096,4.023521423339844,0.729304550571779,0.0,2.842566676546562,0.0,6.47544875391759e-05,0.0,0,0,0
164,4922.427984875805,2010-08-19 15:43:13,4802.413001329854,2,1,0.5499359965324402,4.025302410125732,0.733891437885901,0.0,2.861026258930449,0.0,3.24249267578125e-05,0.0,0,0,0
165,4952.4432765330885,2010-08-19 15:43:43,4832.428292987137,2,1,0.5501165986061096,4.027406692504883,0.738478270950216,0.0,2.879494827099524,0.0,6.47544875391759e-05,0.0,0,0,0
166,4982.458324909041,2010-08-19 15:44:13,4862.443341368103,2,1,0.550297200679779,4.029511451721191,0.743065089739954,0.0,2.89797266389628,0.0,6.47544875391759e-05,0.0,0,0,0
167,5012.473515659835,2010-08-19 15:44:43,4892.458532118896,2,1,0.550297200679779,4.031454086303711,0.74765188015889,0.0,2.916459663636597,0.0,3.24249267578125e-05,0.0,0,0,0
168,5042.488689593716,2010-08-19 15:45:13,4922.473706052778,2,1,0.550297200679779,4.03372049331665,0.752238693446108,0.0,2.934956357789088,0.0,6.47544875391759e-05,0.0,0,0,0
169,5072.503876745542,2010-08-19 15:45:43,4952.488893224652,2,1,0.5501165986061096,4.035662651062012,0.756825567804602,0.0,2.95346295207973,0.0,3.23295607813634e-05,0.0,0,0,0
170,5102.519162523172,2010-08-19 15:46:13,4982.50417897722,2,1,0.5499359965324402,4.03776741027832,0.761412408937077,0.0,2.971979136532103,0.0,3.24249267578125e-05,0.0,0,0,0
171,5132.534220092036,2010-08-19 15:46:43,5012.519236556109,2,1,0.5499359965324402,4.039871692657471,0.765999225485671,0.0,2.990505140656382,0.0,3.23295607813634e-05,0.0,0,0,0
172,5162.549620570536,2010-08-19 15:47:13,5042.534637024584,2,1,0.5499359965324402,4.04213809967041,0.770586121217509,0.0,3.00904138818998,0.0,3.23295607813634e-05,0.0,0,0,0
173,5192.564607152479,2010-08-19 15:47:43,5072.54962361154,2,1,0.5501165986061096,4.044566631317139,0.775172958776548,0.0,3.027587546469756,0.0,9.71794142969884e-05,0.0,0,0,0
174,5222.579816128697,2010-08-19 15:48:13,5102.564832587757,2,1,0.5501165986061096,4.046670913696289,0.779759821231671,0.0,3.046143988407839,0.0,6.47544875391759e-05,0.0,0,0,0
175,5252.594937536667,2010-08-19 15:48:43,5132.579953995728,2,1,0.550297200679779,4.0489373207092285,0.784346664116858,0.0,3.064710720949456,0.0,9.70840483205393e-05,0.0,0,0,0
176,5282.612789489996,2010-08-19 15:49:13,5162.597805949057,2,1,0.5501165986061096,4.051203727722168,0.788933999069626,0.0,3.083289842670262,0.0,6.47544875391759e-05,0.0,0,0,0
177,5312.62529360988,2010-08-19 15:49:43,5192.610310068941,2,1,0.5501165986061096,4.0536322593688965,0.793520395434609,0.0,3.101875649248281,0.0,6.47544875391759e-05,0.0,0,0,0
178,5342.64059780842,2010-08-19 15:50:13,5222.625614272495,2,1,0.5501165986061096,4.055736541748047,0.798107252977306,0.0,3.120473993228492,0.0,3.23295607813634e-05,0.0,0,0,0
179,5372.6556820738215,2010-08-19 15:50:43,5252.640698532882,2,1,0.550297200679779,4.058326721191406,0.802694126052507,0.0,3.139083205808723,0.0,6.47544875391759e-05,0.0,0,0,0
180,5402.670841130624,2010-08-19 15:51:13,5282.655857589685,2,1,0.5501165986061096,4.060593128204346,0.80728098305135,0.0,3.157703292599283,0.0,6.47544875391759e-05,0.0,0,0,0
181,5432.686134311706,2010-08-19 15:51:43,5312.67115077578,2,1,0.5501165986061096,4.062859535217285,0.811867872654492,0.0,3.17633408027715,0.0,3.23295607813634e-05,0.0,0,0,0
182,5462.701180186425,2010-08-19 15:52:13,5342.686196645485,2,1,0.5501165986061096,4.0654497146606445,0.816454642215938,0.0,3.194975673981427,0.0,6.47544875391759e-05,0.0,0,0,0
183,5492.716513236874,2010-08-19 15:52:43,5372.701529715984,2,1,0.5501165986061096,4.067878246307373,0.821041503599342,0.0,3.213628913824081,0.0,3.24249267578125e-05,0.0,0,0,0
184,5522.73154853022,2010-08-19 15:53:13,5402.716564984268,2,1,0.5501165986061096,4.070306301116943,0.825628279990409,0.0,3.232293229779592,0.0,3.23295607813634e-05,0.0,0,0,0
185,5552.746712639616,2010-08-19 15:53:43,5432.731729098677,2,1,0.550297200679779,4.072896480560303,0.830215102903905,0.0,3.250969158264247,0.0,3.23295607813634e-05,0.0,0,0,0
186,5582.762026381943,2010-08-19 15:54:13,5462.747042856041,2,1,0.5501165986061096,4.075486660003662,0.83480197718495,0.0,3.269656887698674,0.0,6.47544875391759e-05,0.0,0,0,0
187,5612.777079504725,2010-08-19 15:54:44,5492.762095953762,2,1,0.5501165986061096,4.0780768394470215,0.839388829990821,0.0,3.288356240058504,0.0,6.47544875391759e-05,0.0,0,0,0
188,5642.79266362592,2010-08-19 15:55:14,5522.777680100018,2,1,0.550297200679779,4.08082914352417,0.843975738102315,0.0,3.307067728343104,0.0,9.71794142969884e-05,0.0,0,0,0
189,5672.807678217672,2010-08-19 15:55:44,5552.792694681745,2,1,0.5501165986061096,4.083095550537109,0.848562555844992,0.0,3.325790739108044,0.0,3.24249267578125e-05,0.0,0,0,0
190,5702.8226225493145,2010-08-19 15:56:14,5582.807639028424,2,1,0.550297200679779,4.086009502410889,0.853149318314097,0.0,3.344525704759741,0.0,0.0001295089750783,0.0,0,0,0
191,5732.837792197513,2010-08-19 15:56:44,5612.822808651563,2,1,0.5501165986061096,4.088599681854248,0.857736101128761,0.0,3.363273039598473,0.0,6.47544875391759e-05,0.0,0,0,0
192,5762.852977750354,2010-08-19 15:57:14,5642.837994204402,2,1,0.550297200679779,4.091513633728027,0.862322913071752,0.0,3.382032961089708,0.0,9.71794142969884e-05,0.0,0,0,0
193,5792.868141122912,2010-08-19 15:57:44,5672.853157581973,2,1,0.5501165986061096,4.093941688537598,0.866909765947664,0.0,3.400805551607824,0.0,3.23295607813634e-05,0.0,0,0,0
194,5822.8833990411085,2010-08-19 15:58:14,5702.868415615457,2,1,0.550297200679779,4.096855640411377,0.871496613540371,0.0,3.419590827905383,0.0,6.47544875391759e-05,0.0,0,0,0
195,5852.898503732416,2010-08-19 15:58:44,5732.88352017644,2,1,0.5501165986061096,4.099769592285156,0.876083393969204,0.0,3.438388655755838,0.0,9.70840483205393e-05,0.0,0,0,0
196,5882.913815043684,2010-08-19 15:59:14,5762.898831497732,2,1,0.5501165986061096,4.102359771728516,0.880670300611133,0.0,3.457199969010647,0.0,6.47544875391759e-05,0.0,0,0,0
197,5912.929124084293,2010-08-19 15:59:44,5792.914140543354,2,1,0.550297200679779,4.105435848236084,0.885257144969088,0.0,3.476024175060172,0.0,9.71794142969884e-05,0.0,0,0,0
198,5942.944032957562,2010-08-19 16:00:14,5822.92904941161,2,1,0.5501165986061096,4.108349800109863,0.889843987324197,0.0,3.494861716731879,0.0,9.71794142969884e-05,0.0,0,0,0
199,5972.959344318955,2010-08-19 16:00:44,5852.944360793053,2,1,0.5501165986061096,4.111425399780273,0.894430769204526,0.0,3.513712404895133,0.0,0.0001295089750783,0.0,0,0,0
200,6002.974418203483,2010-08-19 16:01:14,5882.959434662544,2,1,0.5501165986061096,4.114177703857422,0.899017509729318,0.0,3.53257642264951,0.0,9.71794142969884e-05,0.0,0,0,0
201,6032.989571350557,2010-08-19 16:01:44,5912.974587829668,2,1,0.5501165986061096,4.117091178894043,0.903604227604607,0.0,3.551453999986661,0.0,6.47544875391759e-05,0.0,0,0,0
202,6063.004756357034,2010-08-19 16:02:14,5942.989772836145,2,1,0.5501165986061096,4.120167255401611,0.908190920659762,0.0,3.570345254381348,0.0,6.47544875391759e-05,0.0,0,0,0
203,6093.0199340903855,2010-08-19 16:02:44,5973.004950549446,2,1,0.550297200679779,4.1234049797058105,0.912777748346263,0.0,3.589251086733508,0.0,9.71794142969884e-05,0.0,0,0,0
204,6123.036502720279,2010-08-19 16:03:14,6003.021519194377,2,1,0.5501165986061096,4.126480579376221,0.917364801806879,0.0,3.608171939281987,0.0,6.47544875391759e-05,0.0,0,0,0
205,6153.0503075018105,2010-08-19 16:03:44,6033.035323950847,2,1,0.5501165986061096,4.129556655883789,0.921951439347719,0.0,3.627105425376616,0.0,9.71794142969884e-05,0.0,0,0,0
206,6183.069771397597,2010-08-19 16:04:14,6063.054787871696,2,1,0.550297200679779,4.132794380187988,0.926538957315896,0.0,3.646057073733525,0.0,9.71794142969884e-05,0.0,0,0,0
207,6213.080781965088,2010-08-19 16:04:44,6093.065798419137,2,1,0.5501165986061096,4.135869979858398,0.931125174338198,0.0,3.66501787027058,0.0,9.70840483205393e-05,0.0,0,0,0
208,6243.095860426021,2010-08-19 16:05:14,6123.080876870045,2,1,0.5501165986061096,4.139107704162598,0.935712030348769,0.0,3.683996125317398,0.0,6.47544875391759e-05,0.0,0,0,0
209,6273.111011833761,2010-08-19 16:05:44,6153.096028277784,2,1,0.5501165986061096,4.142345428466797,0.940298848797674,0.0,3.702989149946436,0.0,3.23295607813634e-05,0.0,0,0,0
210,6303.126317546075,2010-08-19 16:06:14,6183.111334005136,2,1,0.5501165986061096,4.145745277404785,0.944885737895236,0.0,3.721997691502167,0.0,9.71794142969884e-05,0.0,0,0,0
211,6333.141390939378,2010-08-19 16:06:44,6213.126407383402,2,1,0.550297200679779,4.149144649505615,0.94947255815392,0.0,3.741021448159757,0.0,9.70840483205393e-05,0.0,0,0,0
212,6363.156553159064,2010-08-19 16:07:14,6243.141569603087,2,1,0.5499359965324402,4.152544498443604,0.954059363938904,0.0,3.760060557215505,0.0,9.71794142969884e-05,0.0,0,0,0
213,6393.1717274137445,2010-08-19 16:07:44,6273.156743857769,2,1,0.5501165986061096,4.155782222747803,0.958646146643101,0.0,3.779115058674954,0.0,6.47544875391759e-05,0.0,0,0,0
214,6423.186897768707,2010-08-19 16:08:14,6303.171914207717,2,1,0.550297200679779,4.159343719482422,0.963232876657074,0.0,3.79818504287741,0.0,6.47544875391759e-05,0.0,0,0,0
215,6453.202202267997,2010-08-19 16:08:44,6333.187218722045,2,1,0.550297200679779,4.163066864013672,0.967819728946238,0.0,3.81727137582686,0.0,0.0001295089750783,0.0,0,0,0
216,6483.217270493421,2010-08-19 16:09:14,6363.2022869474695,2,1,0.5501165986061096,4.16646671295166,0.972406501569133,0.0,3.836373252955065,0.0,0.0001295089750783,0.0,0,0,0
217,6513.232452502428,2010-08-19 16:09:44,6393.217468956476,2,1,0.5501165986061096,4.16986608505249,0.976993325551472,0.0,3.855491474144125,0.0,0.0001295089750783,0.0,0,0,0
218,6543.247781678219,2010-08-19 16:10:14,6423.232798142293,2,1,0.5501165986061096,4.173265933990479,0.98158010161881,0.0,3.874625697521842,0.0,6.47544875391759e-05,0.0,0,0,0
219,6573.262807247331,2010-08-19 16:10:44,6453.247823731454,2,1,0.5501165986061096,4.1769890785217285,0.986166823559532,0.0,3.893776042274537,0.0,9.70840483205393e-05,0.0,0,0,0
220,6603.27799020871,2010-08-19 16:11:14,6483.263006672784,2,1,0.5499359965324402,4.180550575256348,0.990753672145364,0.0,3.912943408284375,0.0,6.47544875391759e-05,0.0,0,0,0
221,6633.293151781785,2010-08-19 16:11:44,6513.278168225809,2,1,0.550297200679779,4.184274196624756,0.995340481742787,0.0,3.932127244635119,0.0,0.0001295089750783,0.0,0,0,0
222,6663.308349645306,2010-08-19 16:12:14,6543.293366099356,2,1,0.5504778623580933,4.187997341156006,0.999927538527171,0.0,3.951328883892815,0.0,0.0001295089750783,0.0,0,0,0
223,6693.323505529202,2010-08-19 16:12:44,6573.308521988263,2,1,0.550297200679779,4.191558837890625,1.004515133550186,0.0,3.970549836522938,0.0,9.70840483205393e-05,0.0,0,0,0
224,6723.338698084494,2010-08-19 16:13:14,6603.323714538543,2,1,0.550297200679779,4.195281982421875,1.009102722406243,0.0,3.989787874526806,0.0,9.70840483205393e-05,0.0,0,0,0
225,6753.353890745048,2010-08-19 16:13:44,6633.338907204108,2,1,0.550297200679779,4.199167251586914,1.01369031983122,0.0,4.009043130103376,0.0,9.70840483205393e-05,0.0,0,0,0
226,6758.590740054867,2010-08-19 16:13:49,6638.575756533976,2,1,0.550297200679779,4.200138568878174,1.014490725176518,0.0,4.012404411126507,0.0,0.0001618385285837,0.0,0,0,0
227,6788.606431533873,2010-08-19 16:14:19,30.01518125212067,3,1,0.0,4.120976448059082,1.014490725176518,0.0,4.012404411126507,0.0,-0.0003561973571777,0.0,0,0,0
228,6818.621627467584,2010-08-19 16:14:49,60.03037715575742,3,1,0.0,4.110777854919434,1.014490725176518,0.0,4.012404411126507,0.0,-0.0002266883820993,0.0,0,0,0
229,6848.63682461432,2010-08-19 16:15:19,90.04557431752984,3,1,0.0,4.104788303375244,1.014490725176518,0.0,4.012404411126507,0.0,-9.70840483205393e-05,0.0,0,0,0
230,6878.605159225197,2010-08-19 16:15:49,120.013909048706,3,1,0.0,4.100903034210205,1.014490725176518,0.0,4.012404411126507,0.0,-6.47544875391759e-05,0.0,0,0,0
231,6878.605577439907,2010-08-19 16:15:50,2.656621117e-06,4,1,0.9962215423583984,4.199814796447754,1.01449072591168,0.0,4.012404414214052,0.0,0.0,0.0,0,0,0
232,6879.621303321334,2010-08-19 16:15:51,1.015728538048675,4,1,0.945831537246704,4.199814796447754,1.014762574939253,0.0,4.013546089975446,0.0,0.0,0.0,0,0,0
233,6882.0117813280585,2010-08-19 16:15:53,3.406206544773127,4,1,0.8956221342086792,4.199653148651123,1.01537277289965,0.0,4.016108731289053,0.0,-3.23295607813634e-05,0.0,0,0,0
234,6885.464875070154,2010-08-19 16:15:56,6.859300286868812,4,1,0.8454127907752991,4.199653148651123,1.016206794990769,0.0,4.019611377056381,0.0,0.0,0.0,0,0,0
235,6889.980398714468,2010-08-19 16:16:01,11.374823936194824,4,1,0.7953839898109436,4.199814796447754,1.017234833868532,0.0,4.023928838565312,0.0,3.23295607813634e-05,0.0,0,0,0
236,6895.683442298863,2010-08-19 16:16:07,17.077867520589777,4,1,0.7453552484512329,4.199814796447754,1.018453854578598,0.0,4.029048366202008,0.0,3.23295607813634e-05,0.0,0,0,0
237,6903.011503030996,2010-08-19 16:16:14,24.40592912990839,4,1,0.6949652433395386,4.199653148651123,1.019917877139803,0.0,4.035196822576991,0.0,0.0,0.0,0,0,0
238,6912.605066347646,2010-08-19 16:16:24,33.999491564360405,4,1,0.6449365019798279,4.199653148651123,1.021700137792283,0.0,4.042681816725666,0.0,0.0,0.0,0,0,0
239,6925.729874061873,2010-08-19 16:16:37,47.12429928861162,4,1,0.5949077010154724,4.199653148651123,1.023955341720473,0.0,4.052153046888865,0.0,-3.23295607813634e-05,0.0,0,0,0
240,6945.120207358705,2010-08-19 16:16:56,66.51463257541874,4,1,0.5448789596557617,4.199653148651123,1.027016529521265,0.0,4.065009170037971,0.0,-3.23295607813634e-05,0.0,0,0,0
241,6976.83842087624,2010-08-19 16:17:28,98.23284610799224,4,1,0.4948501884937286,4.199653148651123,1.031578293350529,0.0,4.08416727799426,0.0,3.24249267578125e-05,0.0,0,0,0
242,7031.134598562551,2010-08-19 16:18:22,152.52902375921528,4,1,0.4448214173316955,4.199653148651123,1.038634231159711,0.0,4.113800636174044,0.0,0.0,0.0,0,0,0
243,7116.320873154997,2010-08-19 16:19:47,237.71529845191097,4,1,0.3947926461696625,4.199814796447754,1.048537623622039,0.0,4.15539274233047,0.0,0.0,0.0,0,0,0
244,7227.99103483796,2010-08-19 16:21:39,349.3854600646997,4,1,0.3447638750076294,4.199814796447754,1.059992599074944,0.0,4.203501251666604,0.0,0.0,0.0,0,0,0
245,7366.020236699524,2010-08-19 16:23:57,487.4146618961874,4,1,0.2947351038455963,4.199653148651123,1.072234466238745,0.0,4.254914450193892,0.0,-6.47544875391759e-05,0.0,0,0,0
246,7532.220873339688,2010-08-19 16:26:43,653.6152985363522,4,1,0.2447063326835632,4.199814796447754,1.08465700703363,0.0,4.3070864018196,0.0,0.0,0.0,0,0,0
247,7741.311492127282,2010-08-19 16:30:12,862.7059173439958,4,1,0.1944969445466995,4.199814796447754,1.097370120769812,0.0,4.360478619762482,0.0,3.23295607813634e-05,0.0,0,0,0
248,8020.166771991328,2010-08-19 16:34:51,1141.5611971980163,4,1,0.144287571310997,4.199653148651123,1.110415446729901,0.0,4.415266054980494,0.0,-3.23295607813634e-05,0.0,0,0,0
249,8435.566870577419,2010-08-19 16:41:47,1556.9612957891204,4,1,0.0942588001489639,4.199653148651123,1.123997740078871,0.0,4.47230858317675,0.0,-3.23295607813634e-05,0.0,0,0,0
250,9106.822536807873,2010-08-19 16:52:58,2228.2169620245845,4,1,0.0498289167881011,4.199653148651123,1.137009762619414,0.0,4.526956162000374,0.0,-6.47544875391759e-05,0.0,0,0,0
251,9136.838482275723,2010-08-19 16:53:28,30.015131864030355,5,1,0.0,4.192368507385254,1.137009762619414,0.0,4.526956162000374,0.0,-6.47544875391759e-05,0.0,0,0,0
252,9166.838039312492,2010-08-19 16:53:58,60.0146889158364,5,1,0.0,4.191235065460205,1.137009762619414,0.0,4.526956162000374,0.0,-6.47544875391759e-05,0.0,0,0,0
253,9167.02648611556,2010-08-19 16:53:58,0.187711148940436,6,1,-1.9243103452026844e-05,4.191235065460205,1.137009762619414,1.003374e-09,4.526956162000374,4.205375e-09,0.0,0.0946486890316009,0,0,0
254,9171.854451074769,2010-08-19 16:54:03,5.015676088096487,6,1,0.0005225847125984,4.191235065460205,1.137010682151386,1.169213e-09,4.526960016050576,4.900445e-09,0.0,0.0946486890316009,0,0,0
255,9201.870329043217,2010-08-19 16:54:33,30.01518573830161,7,1,-1.0997490882873535,4.026273727416992,1.137010682151386,0.009168219886207,4.526960016050576,0.037097328741224,-0.0008741378551349,0.0946486890316009,0,0,0
256,9231.885532991902,2010-08-19 16:55:03,60.03038967195163,7,1,-1.099568486213684,4.001667022705078,1.137010682151386,0.01833638257437,4.526960016050576,0.073890371331414,-0.0005503654247149,0.0946486890316009,0,0,0
257,9261.900678540038,2010-08-19 16:55:33,90.04553522008698,7,1,-1.099929690361023,3.985154628753662,1.137010682151386,0.027505065650385,4.526960016050576,0.110501008459962,-0.0003561496851034,0.0946486890316009,0,0,0
258,9291.915998297356,2010-08-19 16:56:03,120.06085500748016,7,1,-1.0997490882873535,3.972203731536865,1.137010682151386,0.036673929800333,4.526960016050576,0.146979034978867,-0.0003237724304199,0.0946486890316009,0,0,0
259,9321.931063410022,2010-08-19 16:56:33,150.07592009007064,7,1,-1.0997490882873535,3.961519241333008,1.137010682151386,0.045842240600836,4.526960016050576,0.183347806804719,-0.0002913951757363,0.0946486890316009,0,0,0
260,9351.946447668097,2010-08-19 16:57:03,180.0913043581696,7,1,-1.099568486213684,3.95196795463562,1.137010682151386,0.05501038036748,4.526960016050576,0.21962285404665,-0.0002266406954731,0.0946486890316009,0,0,0
261,9381.961406666293,2010-08-19 16:57:33,210.10626337641503,7,1,-1.099568486213684,3.942740440368652,1.137010682151386,0.064178417265496,4.526960016050576,0.255812600571636,-0.0002590179501567,0.0946486890316009,0,0,0
262,9411.976564018849,2010-08-19 16:58:03,240.1214206988957,7,1,-1.0993878841400146,3.934484243392944,1.137010682151386,0.073346530492551,4.526960016050576,0.291923036750438,-0.0001942634553415,0.0946486890316009,0,0,0
263,9441.991807681514,2010-08-19 16:58:33,270.13666437158764,7,1,-1.099568486213684,3.9263899326324463,1.137010682151386,0.082514609117479,4.526960016050576,0.327957651562741,-0.0002266406954731,0.0946486890316009,0,0,0
264,9472.007021509824,2010-08-19 16:59:03,300.1518782099232,7,1,-1.099568486213684,3.918781280517578,1.137010682151386,0.091682780175277,4.526960016050576,0.36391953892912,-0.0001295089750783,0.0946486890316009,0,0,0
265,9502.00936424942,2010-08-19 16:59:33,330.1542210497702,7,1,-1.099568486213684,3.911010980606079,1.137010682151386,0.10084697030062,4.526960016050576,0.399794839132607,-0.0001618862152099,0.0946486890316009,0,0,0
266,9532.021700937012,2010-08-19 17:00:03,360.1665576521484,7,1,-1.0997490882873535,3.903402328491211,1.137010682151386,0.110014249634913,4.526960016050576,0.435613289312477,-0.0001942634553415,0.0946486890316009,0,0,0
267,9562.036892554966,2010-08-19 17:00:33,390.18174925005394,7,1,-1.0997490882873535,3.8961174488067623,1.137010682151386,0.119182388735008,4.526960016050576,0.471367361334428,-0.0002266406954731,0.0946486890316009,0,0,0
268,9592.05207837848,2010-08-19 17:01:03,420.196935073568,7,1,-1.099568486213684,3.888994455337525,1.137010682151386,0.128350479398146,4.526960016050576,0.507054835547862,-0.0002266406954731,0.0946486890316009,0,0,0
269,9622.067258793517,2010-08-19 17:01:33,450.21211548358986,7,1,-1.0993878841400146,3.881871461868286,1.137010682151386,0.13751839175209,4.526960016050576,0.542676100331707,-0.0001942634553415,0.0946486890316009,0,0,0
270,9652.082563768992,2010-08-19 17:02:03,480.2274204590672,7,1,-1.099568486213684,3.874910354614258,1.137010682151386,0.146685689188808,4.526960016050576,0.578230354163081,-0.0001618862152099,0.0946486890316009,0,0,0
271,9682.09773331193,2010-08-19 17:02:33,510.2425900070175,7,1,-1.0997490882873535,3.8679492473602295,1.137010682151386,0.155853211913858,4.526960016050576,0.613721694984303,-0.0001942634553415,0.0946486890316009,0,0,0
272,9712.11279416899,2010-08-19 17:03:03,540.2576508640766,7,1,-1.099568486213684,3.861150026321411,1.137010682151386,0.165021347729567,4.526960016050576,0.649152422280576,-0.0001618862152099,0.0946486890316009,0,0,0
273,9742.128019826783,2010-08-19 17:03:33,570.2728765268824,7,1,-1.0997490882873535,3.8545126914978023,1.137010682151386,0.174189554216341,4.526960016050576,0.6845213120747,-0.0001942634553415,0.0946486890316009,0,0,0
274,9772.143154628133,2010-08-19 17:04:03,600.2880113282334,7,1,-1.0997490882873535,3.847713470458984,1.137010682151386,0.183357763836778,4.526960016050576,0.719828928310879,-0.0001618862152099,0.0946486890316009,0,0,0
275,9802.15835925351,2010-08-19 17:04:33,630.3032159435825,7,1,-1.099568486213684,3.841238021850586,1.137010682151386,0.192525972209302,4.526960016050576,0.755076190477591,-0.0001942634553415,0.0946486890316009,0,0,0
276,9832.17351955341,2010-08-19 17:05:04,660.3183762635338,7,1,-1.099568486213684,3.834762573242188,1.137010682151386,0.201694125713177,4.526960016050576,0.790263727573905,-0.0001942634553415,0.0946486890316009,0,0,0
277,9862.188973836006,2010-08-19 17:05:34,690.3338305361053,7,1,-1.099568486213684,3.828449249267578,1.137010682151386,0.210862457444137,4.526960016050576,0.825393211281972,-0.0001618862152099,0.0946486890316009,0,0,0
278,9892.204109509532,2010-08-19 17:06:04,720.3489662096301,7,1,-1.0997490882873535,3.8221356868743896,1.137010682151386,0.220030680116931,4.526960016050576,0.860464592264656,-0.0001618862152099,0.0946486890316009,0,0,0
279,9922.219161449366,2010-08-19 17:06:34,750.3640181394398,7,1,-1.0997490882873535,3.815984010696411,1.137010682151386,0.229198900538227,4.526960016050576,0.8954791460716,-0.0001942634553415,0.0946486890316009,0,0,0
280,9952.234217980644,2010-08-19 17:07:04,780.3790746757303,7,1,-1.099568486213684,3.8099942207336426,1.137010682151386,0.238367073432839,4.526960016050576,0.930437002586407,-0.0001295089750783,0.0946486890316009,0,0,0
281,9982.249524459869,2010-08-19 17:07:34,810.394381149943,7,1,-1.099568486213684,3.803842544555664,1.137010682151386,0.247535334810185,4.526960016050576,0.965339106420726,-9.713172767078504e-05,0.0946486890316009,0,0,0
282,10012.264570630325,2010-08-19 17:08:04,840.409427325411,7,1,-1.0997490882873535,3.797852754592896,1.137010682151386,0.256703506772722,4.526960016050576,1.000186200579655,-0.0001618862152099,0.0946486890316009,0,0,0
283,10042.279737341203,2010-08-19 17:08:34,870.4245940362904,7,1,-1.0997490882873535,3.792024850845337,1.137010682151386,0.265871719404263,4.526960016050576,1.034979451428235,-0.0001942634553415,0.0946486890316009,0,0,0
284,10072.294947515407,2010-08-19 17:09:04,900.4398042305438,7,1,-1.099568486213684,3.786358833312988,1.137010682151386,0.275039963258145,4.526960016050576,1.06971990444108,-0.0001618862152099,0.0946486890316009,0,0,0
285,10102.310106116072,2010-08-19 17:09:34,930.4549628061476,7,1,-1.099568486213684,3.7808547019958496,1.137010682151386,0.284208226697688,4.526960016050576,1.104408473201008,-0.0001295089750783,0.0946486890316009,0,0,0
286,10132.325405327185,2010-08-19 17:10:04,960.4702620373084,7,1,-1.0997490882873535,3.775188684463501,1.137010682151386,0.293376574208405,4.526960016050576,1.139046457229607,-0.0001295089750783,0.0946486890316009,0,0,0
287,10162.340452620438,2010-08-19 17:10:34,990.4853093105124,7,1,-1.099568486213684,3.769846439361572,1.137010682151386,0.302544754060746,4.526960016050576,1.173633861029564,-0.0001618862152099,0.0946486890316009,0,0,0
288,10192.35563375727,2010-08-19 17:11:04,1020.5004904473456,7,1,-1.0997490882873535,3.764504194259644,1.137010682151386,0.311713041286992,4.526960016050576,1.20817179117866,-0.0001295089750783,0.0946486890316009,0,0,0
289,10222.370967364106,2010-08-19 17:11:34,1050.5158240591936,7,1,-1.099568486213684,3.759161949157715,1.137010682151386,0.320881379895758,4.526960016050576,1.242661028076089,-0.0001295089750783,0.0946486890316009,0,0,0
290,10252.385979359387,2010-08-19 17:12:04,1080.5308360594868,7,1,-1.0997490882873535,3.753981590270996,1.137010682151386,0.330049681532809,4.526960016050576,1.277102435623983,-0.0001295089750783,0.0946486890316009,0,0,0
291,10282.401170130232,2010-08-19 17:12:34,1110.5460268553936,7,1,-1.099568486213684,3.7489633560180655,1.137010682151386,0.33921797323958,4.526960016050576,1.311497098557737,-0.0001618862152099,0.0946486890316009,0,0,0
292,10312.416821910052,2010-08-19 17:13:04,1140.5616786001265,7,1,-1.0997490882873535,3.7439448833465576,1.137010682151386,0.348386377422186,4.526960016050576,1.345846240066618,-0.0001295089750783,0.0946486890316009,0,0,0
293,10342.431737174253,2010-08-19 17:13:34,1170.5765938643233,7,1,-1.099568486213684,3.739088296890259,1.137010682151386,0.357554659382655,4.526960016050576,1.380149471385519,-0.0001295089750783,0.0946486890316009,0,0,0
294,10372.446829835577,2010-08-19 17:14:04,1200.5916865356735,7,1,-1.0997490882873535,3.73423171043396,1.137010682151386,0.366722924368437,4.526960016050576,1.414407920049219,-9.713172767078504e-05,0.0946486890316009,0,0,0
295,10402.461871770472,2010-08-19 17:14:34,1230.6067284705728,7,1,-1.099568486213684,3.729213237762451,1.137010682151386,0.375891160324857,4.526960016050576,1.448621920126103,-0.0001942634553415,0.0946486890316009,0,0,0
296,10432.47705373938,2010-08-19 17:15:04,1260.6219104344675,7,1,-1.0993878841400146,3.725004196166992,1.137010682151386,0.385059412881564,4.526960016050576,1.482793266740554,-6.47544875391759e-05,0.0946486890316009,0,0,0
297,10462.492394604304,2010-08-19 17:15:34,1290.6372513044048,7,1,-1.0997490882873535,3.720147609710693,1.137010682151386,0.394227714056743,4.526960016050576,1.516922318581083,-0.0001618862152099,0.0946486890316009,0,0,0
298,10492.507415972948,2010-08-19 17:16:04,1320.6522726830715,7,1,-1.099568486213684,3.7156147956848153,1.137010682151386,0.403395937682671,4.526960016050576,1.551009321835173,-0.0001295089750783,0.0946486890316009,0,0,0
299,10522.522570438308,2010-08-19 17:16:34,1350.667427143419,7,1,-1.0997490882873535,3.7112438678741455,1.137010682151386,0.412564230707021,4.526960016050576,1.585055491634995,-9.713172767078504e-05,0.0946486890316009,0,0,0
300,10552.53775101374,2010-08-19 17:17:04,1380.6826077038156,7,1,-1.099568486213684,3.7070348262786874,1.137010682151386,0.421732530552524,4.526960016050576,1.61906108698872,-6.47544875391759e-05,0.0946486890316009,0,0,0
301,10582.552936556556,2010-08-19 17:17:34,1410.6977932616676,7,1,-1.099568486213684,3.7026638984680176,1.137010682151386,0.430900801617463,4.526960016050576,1.653026742914699,-9.713172767078504e-05,0.0946486890316009,0,0,0
302,10612.568130811082,2010-08-19 17:18:04,1440.7129875212067,7,1,-1.0997490882873535,3.6981310844421382,1.137010682151386,0.44006907649378,4.526960016050576,1.686952932224402,-0.0001295089750783,0.0946486890316009,0,0,0
303,10642.58328531654,2010-08-19 17:18:34,1470.728142011629,7,1,-1.099568486213684,3.6942458152771,1.137010682151386,0.449237365706844,4.526960016050576,1.720840576926217,-6.47544875391759e-05,0.0946486890316009,0,0,0
304,10672.598459952173,2010-08-19 17:19:04,1500.743316642247,7,1,-1.0997490882873535,3.6900367736816406,1.137010682151386,0.458405720136869,4.526960016050576,1.754690467243377,-9.713172767078504e-05,0.0946486890316009,0,0,0
305,10702.613787183118,2010-08-19 17:19:34,1530.7586438832166,7,1,-1.0997490882873535,3.6858277320861816,1.137010682151386,0.467574039992826,4.526960016050576,1.788502842473239,-0.0001618862152099,0.0946486890316009,0,0,0
306,10732.628809233458,2010-08-19 17:20:04,1560.7736659335576,7,1,-1.099568486213684,3.682104349136353,1.137010682151386,0.476742268019221,4.526960016050576,1.822278329728157,-6.47544875391759e-05,0.0946486890316009,0,0,0
307,10762.6440358336,2010-08-19 17:20:34,1590.7888925336993,7,1,-1.099568486213684,3.6782190799713135,1.137010682151386,0.485910633372207,4.526960016050576,1.85601874748214,-9.713172767078504e-05,0.0946486890316009,0,0,0
308,10792.659216388984,2010-08-19 17:21:04,1620.8040730890837,7,1,-1.099568486213684,3.674495697021485,1.137010682151386,0.495078955478498,4.526960016050576,1.889724338012698,-6.47544875391759e-05,0.0946486890316009,0,0,0
309,10822.67436038826,2010-08-19 17:21:34,1650.8192170883588,7,1,-1.0997490882873535,3.6704487800598153,1.137010682151386,0.504247278331412,4.526960016050576,1.923395333437038,-0.0001295089750783,0.0946486890316009,0,0,0
310,10852.689650657085,2010-08-19 17:22:04,1680.8345073571825,7,1,-1.099568486213684,3.667049169540405,1.137010682151386,0.513415606571045,4.526960016050576,1.957032228475617,-9.713172767078504e-05,0.0946486890316009,0,0,0
311,10882.704697724774,2010-08-19 17:22:34,1710.8495544198618,7,1,-1.099568486213684,3.663487672805786,1.137010682151386,0.522583872487646,4.526960016050576,1.990635721251433,-6.47544875391759e-05,0.0946486890316009,0,0,0
312,10912.719898144667,2010-08-19 17:23:04,1740.8647548598044,7,1,-1.0997490882873535,3.659926176071167,1.137010682151386,0.531752129985625,4.526960016050576,2.024206640236459,-6.47544875391759e-05,0.0946486890316009,0,0,0
313,10942.735062294165,2010-08-19 17:23:34,1770.8799189842375,7,1,-1.099568486213684,3.656364679336548,1.137010682151386,0.540920437040003,4.526960016050576,2.057745485190068,-0.0001295089750783,0.0946486890316009,0,0,0
314,10972.750219496344,2010-08-19 17:24:04,1800.8950761914307,7,1,-1.0997490882873535,3.6531269550323486,1.137010682151386,0.550088684708068,4.526960016050576,2.091253235883047,-6.47544875391759e-05,0.0946486890316009,0,0,0
315,11002.76540743513,2010-08-19 17:24:34,1830.9102641252043,7,1,-1.099568486213684,3.64972734451294,1.137010682151386,0.559256990608317,4.526960016050576,2.124730557565083,-0.0001295089750783,0.0946486890316009,0,0,0
316,11032.780578988077,2010-08-19 17:25:04,1860.925435678152,7,1,-1.0997490882873535,3.6463277339935294,1.137010682151386,0.568425269873446,4.526960016050576,2.158177645050554,-0.0001295089750783,0.0946486890316009,0,0,0
317,11062.79576617499,2010-08-19 17:25:34,1890.940622865064,7,1,-1.0997490882873535,3.643413782119751,1.137010682151386,0.577593552069217,4.526960016050576,2.19159529765767,-6.47544875391759e-05,0.0946486890316009,0,0,0
318,11092.811066438724,2010-08-19 17:26:04,1920.955923138823,7,1,-1.099568486213684,3.6403379440307617,1.137010682151386,0.586761878513006,4.526960016050576,2.224984746528464,-6.47544875391759e-05,0.0946486890316009,0,0,0
319,11122.826124869736,2010-08-19 17:26:34,1950.9709815598108,7,1,-1.099568486213684,3.637262105941773,1.137010682151386,0.595930068395136,4.526960016050576,2.258345858568575,-9.713172767078504e-05,0.0946486890316009,0,0,0
320,11152.841283700976,2010-08-19 17:27:04,1980.9861403910515,7,1,-1.0993878841400146,3.634510040283203,1.137010682151386,0.605098302210857,4.526960016050576,2.291679953048025,-6.47544875391759e-05,0.0946486890316009,0,0,0
321,11182.856597363105,2010-08-19 17:27:34,2011.0014540431537,7,1,-1.0997490882873535,3.631434202194214,1.137010682151386,0.614266648607439,4.526960016050576,2.32498776627265,-6.47544875391759e-05,0.0946486890316009,0,0,0
322,11212.87163699727,2010-08-19 17:28:04,2041.016493687344,7,1,-1.099568486213684,3.6288440227508554,1.137010682151386,0.623434908323359,4.526960016050576,2.358269408807985,-6.47544875391759e-05,0.0946486890316009,0,0,0
323,11242.8868107106,2010-08-19 17:28:34,2071.031667405688,7,1,-1.099568486213684,3.625930070877075,1.137010682151386,0.632603163573902,4.526960016050576,2.39152579138179,-9.713172767078504e-05,0.0946486890316009,0,0,0
324,11272.90199286497,2010-08-19 17:29:04,2101.046849560057,7,1,-1.099568486213684,3.623339891433716,1.137010682151386,0.641771429086985,4.526960016050576,2.424757732841212,-6.47544875391759e-05,0.0946486890316009,0,0,0
325,11302.917357925196,2010-08-19 17:29:34,2131.062214645347,7,1,-1.0997490882873535,3.620749711990357,1.137010682151386,0.650939811462299,4.526960016050576,2.45796603000009,-6.47544875391759e-05,0.0946486890316009,0,0,0
326,11332.932347248974,2010-08-19 17:30:04,2161.077203949073,7,1,-1.0997490882873535,3.618159532546997,1.137010682151386,0.660108031786868,4.526960016050576,2.491149560257321,-9.713172767078504e-05,0.0946486890316009,0,0,0
327,11362.947647352308,2010-08-19 17:30:34,2191.0925040524075,7,1,-1.099568486213684,3.6155693531036377,1.137010682151386,0.669276424962292,4.526960016050576,2.524310183170955,-6.47544875391759e-05,0.0946486890316009,0,0,0
328,11392.962795176114,2010-08-19 17:31:04,2221.10765186619,7,1,-1.0997490882873535,3.6129791736602783,1.137010682151386,0.678444798937245,4.526960016050576,2.557447595324616,-6.47544875391759e-05,0.0946486890316009,0,0,0
329,11422.980644372576,2010-08-19 17:31:34,2251.1255010726736,7,1,-1.099568486213684,3.610550880432129,1.137010682151386,0.68761394856272,4.526960016050576,2.590564635178469,-3.237724376958795e-05,0.0946486890316009,0,0,0
330,11452.993025947037,2010-08-19 17:32:04,2281.137882637111,7,1,-1.099568486213684,3.60812258720398,1.137010682151386,0.696781416643122,4.526960016050576,2.62365294989352,-3.237724376958795e-05,0.0946486890316009,0,0,0
331,11483.008209685351,2010-08-19 17:32:34,2311.15306638044,7,1,-1.099568486213684,3.60585618019104,1.137010682151386,0.705949724458675,4.526960016050576,2.656721396679111,0.0,0.0946486890316009,0,0,0
332,11513.023383965095,2010-08-19 17:33:04,2341.168240660184,7,1,-1.099929690361023,3.6029422283172607,1.137010682151386,0.715117986071227,4.526960016050576,2.689766420128308,-6.47544875391759e-05,0.0946486890316009,0,0,0
333,11543.03859263054,2010-08-19 17:33:34,2371.1834493456768,7,1,-1.099568486213684,3.6003520488739014,1.137010682151386,0.724286296407369,4.526960016050576,2.722788618970269,-9.713172767078504e-05,0.0946486890316009,0,0,0
334,11573.053752484328,2010-08-19 17:34:04,2401.198609174404,7,1,-1.0997490882873535,3.597923755645752,1.137010682151386,0.733454598415864,4.526960016050576,2.755787348292507,-6.47544875391759e-05,0.0946486890316009,0,0,0
335,11603.069044492488,2010-08-19 17:34:34,2431.213901187575,7,1,-1.0997490882873535,3.5953335762023926,1.137010682151386,0.742622952240185,4.526960016050576,2.788762273470335,-6.47544875391759e-05,0.0946486890316009,0,0,0
336,11633.08409306894,2010-08-19 17:35:04,2461.228949764027,7,1,-1.0997490882873535,3.592743396759033,1.137010682151386,0.75179115741068,4.526960016050576,2.821712762950036,-6.47544875391759e-05,0.0946486890316009,0,0,0
337,11663.09944912172,2010-08-19 17:35:34,2491.2443058218173,7,1,-1.0993878841400146,3.590153455734253,1.137010682151386,0.760959622506124,4.526960016050576,2.854640187474472,-6.47544875391759e-05,0.0946486890316009,0,0,0
338,11693.114416961953,2010-08-19 17:36:04,2521.259273652025,7,1,-1.099568486213684,3.5875632762908936,1.137010682151386,0.770127728130205,4.526960016050576,2.887542021054188,-3.237724376958795e-05,0.0946486890316009,0,0,0
339,11723.1295963394,2010-08-19 17:36:34,2551.274453044511,7,1,-1.099568486213684,3.5846493244171143,1.137010682151386,0.77929588895166,4.526960016050576,2.920419218272323,-6.47544875391759e-05,0.0946486890316009,0,0,0
340,11753.144796237992,2010-08-19 17:37:05,2581.2896529581417,7,1,-1.0997490882873535,3.581735372543335,1.137010682151386,0.788463980479716,4.526960016050576,2.95327081799719,-9.713172767078504e-05,0.0946486890316009,0,0,0
341,11783.160252069449,2010-08-19 17:37:35,2611.3051087645363,7,1,-1.099568486213684,3.579145193099976,1.137010682151386,0.797632213401288,4.526960016050576,2.986097184331897,-6.47544875391759e-05,0.0946486890316009,0,0,0
342,11813.175262771509,2010-08-19 17:38:05,2641.320119471606,7,1,-1.0997490882873535,3.5760693550109863,1.137010682151386,0.806800306811651,4.526960016050576,3.018896982484213,-9.713172767078504e-05,0.0946486890316009,0,0,0
343,11843.190299132517,2010-08-19 17:38:35,2671.3351558225886,7,1,-1.099568486213684,3.573155403137207,1.137010682151386,0.815968472746651,4.526960016050576,3.051670310881121,-3.237724376958795e-05,0.0946486890316009,0,0,0
344,11873.205481497407,2010-08-19 17:39:05,2701.350338192495,7,1,-1.099568486213684,3.5704033374786377,1.137010682151386,0.825136639985263,4.526960016050576,3.084416689474292,-3.237724376958795e-05,0.0946486890316009,0,0,0
345,11903.220816658117,2010-08-19 17:39:35,2731.365673368241,7,1,-1.0997490882873535,3.5671656131744385,1.137010682151386,0.83430490189236,4.526960016050576,3.117135737986734,-9.713172767078504e-05,0.0946486890316009,0,0,0
346,11933.235869455088,2010-08-19 17:40:05,2761.3807261451616,7,1,-1.0997490882873535,3.564089775085449,1.137010682151386,0.843473065698795,4.526960016050576,3.149826114791896,-9.713172767078504e-05,0.0946486890316009,0,0,0
347,11963.251034291296,2010-08-19 17:40:35,2791.395891006432,7,1,-1.0993878841400146,3.56117582321167,1.137010682151386,0.852641168229318,4.526960016050576,3.182487823851735,-6.47544875391759e-05,0.0946486890316009,0,0,0
348,11993.266185643895,2010-08-19 17:41:05,2821.4110423339707,7,1,-1.0997490882873535,3.557614326477051,1.137010682151386,0.86180932033084,4.526960016050576,3.215120100282673,-9.713172767078504e-05,0.0946486890316009,0,0,0
349,12023.281376444816,2010-08-19 17:41:35,2851.4262331399023,7,1,-1.0997490882873535,3.5542147159576416,1.137010682151386,0.870977484718436,4.526960016050576,3.247721584501325,-0.0001295089750783,0.0946486890316009,0,0,0
350,12053.296774567443,2010-08-19 17:42:05,2881.441631267544,7,1,-1.0993878841400146,3.5506532192230225,1.137010682151386,0.880145668501494,4.526960016050576,3.280291162446736,-9.713172767078504e-05,0.0946486890316009,0,0,0
351,12083.311715691092,2010-08-19 17:42:35,2911.456572386178,7,1,-1.099568486213684,3.5470917224884038,1.137010682151386,0.889313780365633,4.526960016050576,3.31282716479624,-6.47544875391759e-05,0.0946486890316009,0,0,0
352,12113.326905695025,2010-08-19 17:43:05,2941.4717623850984,7,1,-1.0997490882873535,3.5430445671081543,1.137010682151386,0.89848200155455,4.526960016050576,3.345329001423308,-0.0001295089750783,0.0946486890316009,0,0,0
353,12143.34210410992,2010-08-19 17:43:35,2971.486960805006,7,1,-1.099568486213684,3.5391592979431152,1.137010682151386,0.907650114077607,4.526960016050576,3.377794436817689,-6.47544875391759e-05,0.0946486890316009,0,0,0
354,12173.357261131652,2010-08-19 17:44:05,3001.5021178217253,7,1,-1.0997490882873535,3.534950256347656,1.137010682151386,0.916818313403117,4.526960016050576,3.410222943694232,-9.713172767078504e-05,0.0946486890316009,0,0,0
355,12203.37241145168,2010-08-19 17:44:35,3031.5172681467657,7,1,-1.099929690361023,3.5304174423217773,1.137010682151386,0.925986510072283,4.526960016050576,3.442612728551127,-0.0001942634553415,0.0946486890316009,0,0,0
356,12233.387607044542,2010-08-19 17:45:05,3061.532463734616,7,1,-1.0997490882873535,3.5263702869415283,1.137010682151386,0.93515474564131,4.526960016050576,3.474962884716101,-9.713172767078504e-05,0.0946486890316009,0,0,0
357,12263.40305099138,2010-08-19 17:45:35,3091.5479077115274,7,1,-1.0997490882873535,3.5218374729156494,1.137010682151386,0.944323004734997,4.526960016050576,3.50727229397428,-9.713172767078504e-05,0.0946486890316009,0,0,0
358,12293.417956466175,2010-08-19 17:46:05,3121.5628131612634,7,1,-1.099568486213684,3.5171427726745605,1.137010682151386,0.953491038887711,4.526960016050576,3.539538759663544,-9.713172767078504e-05,0.0946486890316009,0,0,0
359,12323.433124685816,2010-08-19 17:46:35,3151.577981380903,7,1,-1.099568486213684,3.512448072433472,1.137010682151386,0.962659211349477,4.526960016050576,3.571762709575448,-0.0001295089750783,0.0946486890316009,0,0,0
360,12353.448429134982,2010-08-19 17:47:05,3181.593285835081,7,1,-1.099568486213684,3.507429838180542,1.137010682151386,0.971827433174699,4.526960016050576,3.603942455149569,-0.0001295089750783,0.0946486890316009,0,0,0
361,12383.463551685802,2010-08-19 17:47:35,3211.608408400938,7,1,-1.099568486213684,3.5022494792938232,1.137010682151386,0.980995591950178,4.526960016050576,3.63607589096576,-0.0001618862152099,0.0946486890316009,0,0,0
362,12413.478658096394,2010-08-19 17:48:05,3241.6235147914804,7,1,-1.099568486213684,3.496745347976685,1.137010682151386,0.990163705708025,4.526960016050576,3.668160405105763,-0.0001618862152099,0.0946486890316009,0,0,0
363,12443.493822992752,2010-08-19 17:48:35,3271.638679687838,7,1,-1.0993878841400146,3.490917444229126,1.137010682151386,0.999331888080314,4.526960016050576,3.700192342083379,-0.0001618862152099,0.0946486890316009,0,0,0
364,12473.50911930664,2010-08-19 17:49:05,3301.653975996715,7,1,-1.099568486213684,3.4842801094055176,1.137010682151386,1.008500118338677,4.526960016050576,3.732167117099717,-0.0001942634553415,0.0946486890316009,0,0,0
365,12503.524209732395,2010-08-19 17:49:35,3331.6690664224684,7,1,-1.099568486213684,3.4769952297210693,1.137010682151386,1.017668231032956,4.526960016050576,3.764078755501477,-0.0001942634553415,0.0946486890316009,0,0,0
366,12533.539366247862,2010-08-19 17:50:05,3361.6842229379376,7,1,-1.099568486213684,3.469224691390991,1.137010682151386,1.026836373384678,4.526960016050576,3.795922000438473,-0.0001942634553415,0.0946486890316009,0,0,0
367,12563.554531129184,2010-08-19 17:50:35,3391.699387819257,7,1,-1.0997490882873535,3.4601590633392334,1.137010682151386,1.036004488375519,4.526960016050576,3.827688845725025,-0.0003237724304199,0.0946486890316009,0,0,0
368,12593.56967422621,2010-08-19 17:51:05,3421.7145309413463,7,1,-1.099568486213684,3.450284004211426,1.137010682151386,1.045172715904863,4.526960016050576,3.859368884246193,-0.0002590179501567,0.0946486890316009,0,0,0
369,12623.584874801489,2010-08-19 17:51:35,3451.729731516626,7,1,-1.099568486213684,3.4381425380706787,1.137010682151386,1.05434073240276,4.526960016050576,3.890946354658833,-0.0003885269106831,0.0946486890316009,0,0,0
370,12653.600037773049,2010-08-19 17:52:05,3481.744894488186,7,1,-1.0997490882873535,3.4235730171203613,1.137010682151386,1.063508809744941,4.526960016050576,3.922402694207859,-0.0004532813909463,0.0946486890316009,0,0,0
371,12683.6152247344,2010-08-19 17:52:35,3511.760081449536,7,1,-1.099568486213684,3.404632329940796,1.137010682151386,1.072676923750848,4.526960016050576,3.953707294970731,-0.0006151676061563,0.0946486890316009,0,0,0
372,12713.630355916732,2010-08-19 17:53:05,3541.775212611817,7,1,-1.099568486213684,3.379378080368042,1.137010682151386,1.081844991267074,4.526960016050576,3.984811953088059,-0.0007446765666827,0.0946486890316009,0,0,0
373,12743.645600486658,2010-08-19 17:53:35,3571.7904571817453,7,1,-1.099568486213684,3.34392523765564,1.137010682151386,1.091013186212675,4.526960016050576,4.015641937511486,-0.0011008263099938,0.0946486890316009,0,0,0
374,12773.66077287168,2010-08-19 17:54:05,3601.805629566766,7,1,-1.099568486213684,3.2945499420166016,1.137010682151386,1.100181290971029,4.526960016050576,4.046085525250607,-0.0014893531333655,0.0946486890316009,0,0,0
375,12803.675947757934,2010-08-19 17:54:35,3631.820804448009,7,1,-1.0997490882873535,3.227691173553467,1.137010682151386,1.10934943501737,4.526960016050576,4.075999548963167,-0.0020397664047777,0.0946486890316009,0,0,0
376,12833.691237159595,2010-08-19 17:55:05,3661.836093859696,7,1,-1.0997490882873535,3.1371970176696777,1.137010682151386,1.118517603314134,4.526960016050576,4.10519953206762,-0.0027844428550451,0.0946486890316009,0,0,0
377,12863.706282994215,2010-08-19 17:55:35,3691.8511396893023,7,1,-1.099568486213684,3.004450798034668,1.137010682151386,1.127685713320797,4.526960016050576,4.133398227930439,-0.0043061734177172,0.0946486890316009,0,0,0
378,12888.065292165147,2010-08-19 17:55:59,3716.210148855224,7,1,-1.099929690361023,2.8041980266571045,1.137010682151386,1.135126117816746,4.526960016050576,4.15511848943527,-0.0097131729125976,0.0946486890316009,0,0,0
379,12894.50268737976,2010-08-19 17:56:06,3722.647544069835,7,1,-1.0993878841400146,2.699781894683838,1.137010682151386,1.13709241050401,4.526960016050576,4.160535831356478,-0.0138574121519923,0.0946486890316009,0,0,0
380,12954.518152650047,2010-08-19 17:57:06,60.01471809355625,8,1,0.0,3.248898267745972,1.137010682151386,1.13709241050401,4.526960016050576,4.160535831356478,0.0012627125252038,0.0946486890316009,0,0,0
381,12954.706135269142,2010-08-19 17:57:06,0.18731569334341,9,1,-1.9243103452026844e-05,3.248898267745972,1.137010685848937,1.13709241050401,4.526960028063245,4.160535831356478,3.237724376958795e-05,0.0882566422224044,0,0,0
382,12959.534197395516,2010-08-19 17:57:11,5.01537782473241,9,1,0.0007031940040178,3.25634503364563,1.137011583397129,1.137092410671013,4.526962947967507,4.160535831899053,0.0010684489971026,0.0882566422224044,0,0,0
