Data_Point,Test_Time(s),Date_Time,Step_Time(s),Step_Index,Cycle_Index,Current(A),Voltage(V),Charge_Capacity(Ah),Discharge_Capacity(Ah),Charge_Energy(Wh),Discharge_Energy(Wh),dV/dt(V/s),Internal_Resistance(Ohm),Is_FC_Data,AC_Impedance(Ohm),ACI_Phase_Angle(Deg)
5267,176873.5402784508,2010-08-21 15:29:21,30.01508197469077,1,15,0.0,3.3518574237823486,15.596903814785431,15.568512744377763,61.93842048999981,57.14125904783274,0.0008093834039755,0.0842081755399704,0,0,0
5268,176903.55554181256,2010-08-21 15:29:51,60.030345336453934,1,15,0.0,3.374683380126953,15.596903814785431,15.568512744377763,61.93842048999981,57.14125904783274,0.0005504131549969,0.0842081755399704,0,0,0
5269,176933.5708369335,2010-08-21 15:30:21,90.04564047240817,1,15,0.0,3.392005205154419,15.596903814785431,15.568512744377763,61.93842048999981,57.14125904783274,0.0003885269106831,0.0842081755399704,0,0,0
5270,176963.53925384948,2010-08-21 15:30:51,120.01405737337672,1,15,0.0,3.405603647232056,15.596903814785431,15.568512744377763,61.93842048999981,57.14125904783274,0.0003237724304199,0.0842081755399704,0,0,0
5271,176993.5567015651,2010-08-21 15:31:21,30.01529102069773,2,15,0.550297200679779,3.5423970222473145,15.601490649241985,15.568512744377763,61.95451314849797,57.14125904783274,0.0015541076427325,0.0842081755399704,0,0,0
5272,177023.572114239,2010-08-21 15:31:51,60.03070370461767,2,15,0.5501165986061096,3.589344024658203,15.606077836288486,15.568512744377763,61.97087618554546,57.14125904783274,0.0011008263099938,0.0842081755399704,0,0,0
5273,177053.5872923433,2010-08-21 15:32:21,90.04588179886795,2,15,0.5501165986061096,3.6252825260162354,15.610664865089078,15.568512744377763,61.98742620867211,57.14125904783274,0.0008741855854168,0.0842081755399704,0,0,0
5274,177083.60269388443,2010-08-21 15:32:51,120.06128335004163,2,15,0.5501165986061096,3.654745817184448,15.61525202202334,15.568512744377763,62.00412583727701,57.14125904783274,0.0007122993702068,0.0842081755399704,0,0,0
5275,177113.61794812346,2010-08-21 15:33:21,150.07653772440543,2,15,0.550297200679779,3.680161714553833,15.619839144383471,15.568512744377763,62.02095042073709,57.14125904783274,0.0006475448608398,0.0842081755399704,0,0,0
5276,177143.63314577646,2010-08-21 15:33:52,180.09173523705235,2,15,0.5501165986061096,3.701692581176758,15.624426267666546,15.568512744377763,62.03788218834341,57.14125904783274,0.0005180359003134,0.0842081755399704,0,0,0
5277,177173.6488724379,2010-08-21 15:34:22,210.1074619235633,2,15,0.5501165986061096,3.720147609710693,15.629013359976234,15.568512744377763,62.05490590179193,57.14125904783274,0.0004532813909463,0.0842081755399704,0,0,0
5278,177203.66385575169,2010-08-21 15:34:52,240.12244520728584,2,15,0.5501165986061096,3.7348792552948,15.633600445133029,15.568512744377763,62.072005910252535,57.14125904783274,0.0003237724304199,0.0842081755399704,0,0,0
5279,177233.679012994,2010-08-21 15:35:22,270.1376024545791,2,15,0.550297200679779,3.744754314422608,15.638187484694653,15.568512744377763,62.0891620167729,57.14125904783274,0.0002266406954731,0.0842081755399704,0,0,0
5280,177263.69429722277,2010-08-21 15:35:52,300.1528866783368,2,15,0.5501165986061096,3.749772787094116,15.642774545575916,15.568512744377763,62.10635195349801,57.14125904783274,9.713172767078504e-05,0.0842081755399704,0,0,0
5281,177293.70960339622,2010-08-21 15:36:22,330.1681928517999,2,15,0.550297200679779,3.753010272979736,15.64736168938459,15.568512744377763,62.12356059058051,57.14125904783274,9.70840483205393e-05,0.0842081755399704,0,0,0
5282,177323.72487795088,2010-08-21 15:36:52,360.1834674064592,2,15,0.5501165986061096,3.7554385662078857,15.651948720497575,15.568512744377763,62.140781433086886,57.14125904783274,9.713172767078504e-05,0.0842081755399704,0,0,0
5283,177353.74019665056,2010-08-21 15:37:22,390.1987861061414,2,15,0.5501165986061096,3.757704973220825,15.656535764524476,15.568512744377763,62.15801334768952,57.14125904783274,3.237724376958795e-05,0.0842081755399704,0,0,0
5284,177383.7554936261,2010-08-21 15:37:52,420.21408308669294,2,15,0.5501165986061096,3.760133266448975,15.661122885788364,15.568512744377763,62.17525626782801,57.14125904783274,3.237724376958795e-05,0.0842081755399704,0,0,0
5285,177413.77091375357,2010-08-21 15:38:22,450.229503209152,2,15,0.5501165986061096,3.762399673461914,15.665709940110448,15.568512744377763,62.192509454285,57.14125904783274,6.47544875391759e-05,0.0842081755399704,0,0,0
5286,177443.78617396747,2010-08-21 15:38:52,480.2447634330947,2,15,0.5501165986061096,3.764827966690064,15.670297030716082,15.568512744377763,62.20977356841886,57.14125904783274,6.47544875391759e-05,0.0842081755399704,0,0,0
5287,177473.80133814708,2010-08-21 15:39:22,510.25992760765286,2,15,0.5501165986061096,3.767094373703003,15.674884084290827,15.568512744377763,62.22704835629112,57.14125904783274,3.237724376958795e-05,0.0842081755399704,0,0,0
5288,177503.816625258,2010-08-21 15:39:52,540.2752147135939,2,15,0.550297200679779,3.7696845531463614,15.679471181222054,15.568512744377763,62.24433424243406,57.14125904783274,9.713172767078504e-05,0.0842081755399704,0,0,0
5289,177533.8319302736,2010-08-21 15:40:22,570.2905197341837,2,15,0.550297200679779,3.772112846374512,15.684058282664546,15.568512744377763,62.26163105663636,57.14125904783274,6.47544875391759e-05,0.0842081755399704,0,0,0
5290,177563.84719831205,2010-08-21 15:40:52,600.30578776759,2,15,0.5499359965324402,3.774379253387451,15.688645386684582,15.568512744377763,62.27893890478517,57.14125904783274,6.47544875391759e-05,0.0842081755399704,0,0,0
5291,177593.86250571857,2010-08-21 15:41:22,630.3210951741263,2,15,0.5504778623580933,3.7768075466156006,15.69323277117736,15.568512744377763,62.296258844416585,57.14125904783274,6.47544875391759e-05,0.0842081755399704,0,0,0
5292,177623.87777562163,2010-08-21 15:41:52,660.3363650822049,2,15,0.550297200679779,3.77923583984375,15.697820630022507,15.568512744377763,62.313591705858265,57.14125904783274,6.47544875391759e-05,0.0842081755399704,0,0,0
5293,177653.8934212461,2010-08-21 15:42:22,690.3520106816219,2,15,0.5504778623580933,3.7816641330718994,15.702408550800593,15.568512744377763,62.33093602427769,57.14125904783274,0.0001295089750783,0.0842081755399704,0,0,0
5294,177683.90835751762,2010-08-21 15:42:52,720.366946978238,2,15,0.5501165986061096,3.784254312515259,15.706996317264558,15.568512744377763,62.34829122846418,57.14125904783274,6.47544875391759e-05,0.0842081755399704,0,0,0
5295,177713.9236408141,2010-08-21 15:43:22,750.3822302746846,2,15,0.5501165986061096,3.786844491958618,15.711583912679414,15.568512744377763,62.365657581711936,57.14125904783274,9.713172767078504e-05,0.0842081755399704,0,0,0
5296,177743.9389341355,2010-08-21 15:43:52,780.397523591104,2,15,0.5501165986061096,3.7894346714019775,15.716170981418532,15.568512744377763,62.38303417366619,57.14125904783274,6.47544875391759e-05,0.0842081755399704,0,0,0
5297,177773.9542424844,2010-08-21 15:44:22,810.4128319450012,2,15,0.550297200679779,3.792348623275757,15.720758095300557,15.568512744377763,62.400423757653854,57.14125904783274,9.713172767078504e-05,0.0842081755399704,0,0,0
5298,177803.96954031207,2010-08-21 15:44:52,840.4281297676516,2,15,0.5501165986061096,3.795424461364746,15.725345109656786,15.568512744377763,62.41782640129646,57.14125904783274,6.47544875391759e-05,0.0842081755399704,0,0,0
5299,177833.98494952737,2010-08-21 15:45:22,870.4435389829266,2,15,0.5501165986061096,3.798662185668945,15.72993215064233,15.568512744377763,62.43524325812449,57.14125904783274,0.0001295089750783,0.0842081755399704,0,0,0
5300,177864.00007134135,2010-08-21 15:45:52,900.4586608119467,2,15,0.5501165986061096,3.801899909973145,15.73451924261464,15.568512744377763,62.45267501219355,57.14125904783274,0.0001618862152099,0.0842081755399704,0,0,0
5301,177894.01544401053,2010-08-21 15:46:22,930.4740334711126,2,15,0.550297200679779,3.805137634277344,15.73910632983046,15.568512744377763,62.470121849845086,57.14125904783274,9.713172767078504e-05,0.0842081755399704,0,0,0
5302,177924.0306231323,2010-08-21 15:46:52,960.489212612974,2,15,0.5501165986061096,3.808537244796753,15.743693402132722,15.568512744377763,62.48758415133924,57.14125904783274,0.0001295089750783,0.0842081755399704,0,0,0
5303,177954.0459793405,2010-08-21 15:47:22,990.5045687960765,2,15,0.5501165986061096,3.811936855316162,15.748280510597748,15.568512744377763,62.505062267227565,57.14125904783274,9.713172767078504e-05,0.0842081755399704,0,0,0
5304,177984.0612633738,2010-08-21 15:47:52,1020.5198528193343,2,15,0.550297200679779,3.815498352050781,15.752867504885405,15.568512744377763,62.52255581195902,57.14125904783274,6.47544875391759e-05,0.0842081755399704,0,0,0
5305,178014.07658071004,2010-08-21 15:48:22,1050.535170190706,2,15,0.5501165986061096,3.818736076354981,15.75745453470117,15.568512744377763,62.54006515365151,57.14125904783274,6.47544875391759e-05,0.0842081755399704,0,0,0
5306,178044.0918436658,2010-08-21 15:48:52,1080.55043315147,2,15,0.550297200679779,3.8221356868743896,15.762041610695402,15.568512744377763,62.55759000892533,57.14125904783274,9.713172767078504e-05,0.0842081755399704,0,0,0
5307,178074.10726919674,2010-08-21 15:49:22,1110.565858657346,2,15,0.5501165986061096,3.825373411178589,15.766628624815116,15.568512744377763,62.575129499575496,57.14125904783274,9.713172767078504e-05,0.0842081755399704,0,0,0
5308,178104.1224174416,2010-08-21 15:49:52,1140.5810069072147,2,15,0.5501165986061096,3.828449249267578,15.77121561022056,15.568512744377763,62.59268362057021,57.14125904783274,6.47544875391759e-05,0.0842081755399704,0,0,0
5309,178134.13772730427,2010-08-21 15:50:22,1170.5963167899226,2,15,0.5501165986061096,3.831686973571777,15.775802565145096,15.568512744377763,62.61025202046472,57.14125904783274,9.713172767078504e-05,0.0842081755399704,0,0,0
5310,178164.15303661054,2010-08-21 15:50:52,1200.611626071131,2,15,0.5501165986061096,3.834762573242188,15.78038954705144,15.568512744377763,62.62783470502482,57.14125904783274,9.713172767078504e-05,0.0842081755399704,0,0,0
5311,178194.16828438346,2010-08-21 15:51:22,1230.6268738440422,2,15,0.5501165986061096,3.8378384113311768,15.78497654986928,15.568512744377763,62.64543156165,57.14125904783274,0.0001295089750783,0.0842081755399704,0,0,0
5312,178224.1836140655,2010-08-21 15:51:52,1260.6422035411333,2,15,0.5499359965324402,3.840752363204956,15.789563619871158,15.568512744377763,62.6630425595363,57.14125904783274,9.713172767078504e-05,0.0842081755399704,0,0,0
5313,178254.1988812167,2010-08-21 15:52:22,1290.6574706773033,2,15,0.5501165986061096,3.843666315078736,15.79415060901111,15.568512744377763,62.68066694548773,57.14125904783274,3.237724376958795e-05,0.0842081755399704,0,0,0
5314,178284.21415715484,2010-08-21 15:52:52,1320.6727466354607,2,15,0.5501165986061096,3.846580266952514,15.798737668057868,15.568512744377763,62.69830501210389,57.14125904783274,6.47544875391759e-05,0.0842081755399704,0,0,0
5315,178314.2295603551,2010-08-21 15:53:22,1350.6881498207067,2,15,0.5501165986061096,3.849494218826294,15.80332466876768,15.568512744377763,62.71595580607969,57.14125904783274,0.0001295089750783,0.0842081755399704,0,0,0
5316,178344.2447343792,2010-08-21 15:53:52,1380.7033238297756,2,15,0.5501165986061096,3.852084398269653,15.807911628890716,15.568512744377763,62.73361889579768,57.14125904783274,3.237724376958795e-05,0.0842081755399704,0,0,0
5317,178374.26003913415,2010-08-21 15:54:22,1410.7186285897158,2,15,0.5501165986061096,3.8545126914978023,15.812498605206091,15.568512744377763,62.75129375928424,57.14125904783274,3.237724376958795e-05,0.0842081755399704,0,0,0
5318,178404.27544245473,2010-08-21 15:54:52,1440.7340319203245,2,15,0.550297200679779,3.856779098510742,15.817085581362052,15.568512744377763,62.76897969076639,57.14125904783274,3.237724376958795e-05,0.0842081755399704,0,0,0
5319,178434.29062187727,2010-08-21 15:55:22,1470.7492113579228,2,15,0.5501165986061096,3.858883619308472,15.821672583447,15.568512744377763,62.78667598017936,57.14125904783274,6.47544875391759e-05,0.0842081755399704,0,0,0
5320,178464.3058979808,2010-08-21 15:55:52,1500.76448743638,2,15,0.5501165986061096,3.860826253890991,15.826259559503283,15.568512744377763,62.80438156424087,57.14125904783274,3.237724376958795e-05,0.0842081755399704,0,0,0
5321,178494.3213245343,2010-08-21 15:56:22,1530.7799139948795,2,15,0.5501165986061096,3.862768888473511,15.830846468285234,15.568512744377763,62.82209547370477,57.14125904783274,3.237724376958795e-05,0.0842081755399704,0,0,0
5322,178524.3366873439,2010-08-21 15:56:52,1560.79527680951,2,15,0.5501165986061096,3.8642258644104,15.835433490505364,15.568512744377763,62.83981761769106,57.14125904783274,0.0,0.0842081755399704,0,0,0
5323,178554.35189260586,2010-08-21 15:57:22,1590.8104820614456,2,15,0.5501165986061096,3.86568284034729,15.840020431438877,15.568512744377763,62.8575465213448,57.14125904783274,0.0,0.0842081755399704,0,0,0
5324,178584.36706085055,2010-08-21 15:57:52,1620.8256503061475,2,15,0.5501165986061096,3.86713981628418,15.844607340941804,15.568512744377763,62.875281721482,57.14125904783274,0.0,0.0842081755399704,0,0,0
5325,178614.3823845527,2010-08-21 15:58:22,1650.8409740383725,2,15,0.5499359965324402,3.8682730197906494,15.849194252508562,15.568512744377763,62.89302297791165,57.14125904783274,0.0,0.0842081755399704,0,0,0
5326,178644.39767184912,2010-08-21 15:58:52,1680.8562613297756,2,15,0.550297200679779,3.869568109512329,15.8537811759482,15.568512744377763,62.91076981263144,57.14125904783274,6.47544875391759e-05,0.0842081755399704,0,0,0
5327,178674.412853397,2010-08-21 15:59:22,1710.871442852571,2,15,0.550297200679779,3.870701313018799,15.858368095606146,15.568512744377763,62.92852186189474,57.14125904783274,3.237724376958795e-05,0.0842081755399704,0,0,0
5328,178704.42819102886,2010-08-21 15:59:52,1740.886780484438,2,15,0.5501165986061096,3.871834516525269,15.862955011463017,15.568512744377763,62.94627885623082,57.14125904783274,3.237724376958795e-05,0.0842081755399704,0,0,0
5329,178734.44612199912,2010-08-21 16:00:22,1770.904711479765,2,15,0.5501165986061096,3.8726439476013184,15.867542342902196,15.568512744377763,62.96404217365863,57.14125904783274,3.237724376958795e-05,0.0842081755399704,0,0,0
5330,178764.4587797469,2010-08-21 16:00:52,1800.917369202474,2,15,0.5501165986061096,3.873615264892578,15.87212877927097,15.568512744377763,62.98180657960783,57.14125904783274,0.0,0.0842081755399704,0,0,0
5331,178794.47407809083,2010-08-21 16:01:22,1830.9326675714856,2,15,0.5501165986061096,3.874748468399048,15.876715669348531,15.568512744377763,62.99957694026265,57.14125904783274,6.47544875391759e-05,0.0842081755399704,0,0,0
5332,178824.4893863395,2010-08-21 16:01:52,1860.9479758251337,2,15,0.5499359965324402,3.8755578994750977,15.881302649900109,15.568512744377763,63.01735204698702,57.14125904783274,0.0,0.0842081755399704,0,0,0
5333,178854.5046921771,2010-08-21 16:02:22,1890.9632816326848,2,15,0.5501165986061096,3.876367330551148,15.885889678666627,15.568512744377763,63.03513157212063,57.14125904783274,3.237724376958795e-05,0.0842081755399704,0,0,0
5334,178884.5199331581,2010-08-21 16:02:52,1920.978522613668,2,15,0.5501165986061096,3.877176761627197,15.890476718975464,15.568512744377763,63.05291520973763,57.14125904783274,0.0,0.0842081755399704,0,0,0
5335,178914.53521550217,2010-08-21 16:03:22,1950.9938049627533,2,15,0.5501165986061096,3.878309965133667,15.895063680594486,15.568512744377763,63.07070264853738,57.14125904783274,3.237724376958795e-05,0.0842081755399704,0,0,0
5336,178944.55051254286,2010-08-21 16:03:52,1981.0091020034547,2,15,0.5501165986061096,3.879119396209717,15.899650676519204,15.568512744377763,63.08849429519148,57.14125904783274,3.237724376958795e-05,0.0842081755399704,0,0,0
5337,178974.5658185008,2010-08-21 16:04:22,2011.0244079613808,2,15,0.5501165986061096,3.879928827285767,15.90423772632243,15.568512744377763,63.10629004592524,57.14125904783274,0.0,0.0842081755399704,0,0,0
5338,179004.5811094413,2010-08-21 16:04:52,2041.039698896866,2,15,0.550297200679779,3.8809001445770255,15.908824678612737,15.568512744377763,63.1240894878295,57.14125904783274,0.0,0.0842081755399704,0,0,0
5339,179034.59666758776,2010-08-21 16:05:22,2071.055257073398,2,15,0.550297200679779,3.881709575653076,15.913411680642984,15.568512744377763,63.14189314381955,57.14125904783274,0.0,0.0842081755399704,0,0,0
5340,179064.6116901393,2010-08-21 16:05:53,2101.070279599926,2,15,0.5501165986061096,3.882680892944336,15.917998714594736,15.568512744377763,63.15970089701704,57.14125904783274,6.47544875391759e-05,0.0842081755399704,0,0,0
5341,179094.62737968328,2010-08-21 16:06:23,2131.085969143866,2,15,0.5501165986061096,3.8834903240203857,15.922585716005024,15.568512744377763,63.1775125413656,57.14125904783274,3.237724376958795e-05,0.0842081755399704,0,0,0
5342,179124.6423773328,2010-08-21 16:06:53,2161.1009667883804,2,15,0.550297200679779,3.8844616413116455,15.927172719336106,15.568512744377763,63.1953282886306,57.14125904783274,3.237724376958795e-05,0.0842081755399704,0,0,0
5343,179154.65753922667,2010-08-21 16:07:23,2191.116128712329,2,15,0.5501165986061096,3.885109186172485,15.93175977998192,15.568512744377763,63.21314814811136,57.14125904783274,0.0,0.0842081755399704,0,0,0
5344,179184.67295181032,2010-08-21 16:07:53,2221.1315412659246,2,15,0.550297200679779,3.886404275894165,15.93634682280996,15.568512744377763,63.2309720912368,57.14125904783274,9.713172767078504e-05,0.0842081755399704,0,0,0
5345,179214.6881462052,2010-08-21 16:08:23,2251.146735660801,2,15,0.5501165986061096,3.887051820755005,15.940933866223116,15.568512744377763,63.24880021119206,57.14125904783274,0.0,0.0842081755399704,0,0,0
5346,179244.70353505475,2010-08-21 16:08:53,2281.1621245403926,2,15,0.5499359965324402,3.887861251831055,15.945520917618415,15.568512744377763,63.26663247072214,57.14125904783274,0.0,0.0842081755399704,0,0,0
5347,179274.71871854743,2010-08-21 16:09:23,2311.177308008035,2,15,0.5501165986061096,3.8888325691223145,15.950107902370751,15.568512744377763,63.28446874894017,57.14125904783274,3.237724376958795e-05,0.0842081755399704,0,0,0
5348,179304.73398598935,2010-08-21 16:09:53,2341.1925754499675,2,15,0.5501165986061096,3.889803886413574,15.95469498534212,15.568512744377763,63.30230967441717,57.14125904783274,3.237724376958795e-05,0.0842081755399704,0,0,0
5349,179334.7494248836,2010-08-21 16:10:23,2371.208014364261,2,15,0.5501165986061096,3.890613317489624,15.959282113200052,15.568512744377763,63.32015508695615,57.14125904783274,3.237724376958795e-05,0.0842081755399704,0,0,0
5350,179364.7647002904,2010-08-21 16:10:53,2401.223289750995,2,15,0.5501165986061096,3.8917465209960938,15.963869236344038,15.568512744377763,63.33800489227727,57.14125904783274,3.237724376958795e-05,0.0842081755399704,0,0,0
5351,179394.77989480557,2010-08-21 16:11:23,2431.238484261158,2,15,0.550297200679779,3.892879724502564,15.968456313674386,15.568512744377763,63.35585893948704,57.14125904783274,3.237724376958795e-05,0.0842081755399704,0,0,0
5352,179424.79514578145,2010-08-21 16:11:53,2461.2537352370523,2,15,0.5501165986061096,3.8938510417938232,15.973043375540763,15.568512744377763,63.37371749981072,57.14125904783274,3.237724376958795e-05,0.0842081755399704,0,0,0
5353,179454.81045732833,2010-08-21 16:12:23,2491.269046783908,2,15,0.550297200679779,3.894660472869873,15.977630526681708,15.568512744377763,63.39158102155917,57.14125904783274,3.237724376958795e-05,0.0842081755399704,0,0,0
5354,179484.82577176238,2010-08-21 16:12:53,2521.2843612380084,2,15,0.550297200679779,3.895631790161133,15.982217623349795,15.568512744377763,63.409448410264375,57.14125904783274,3.237724376958795e-05,0.0842081755399704,0,0,0
5355,179514.8411389379,2010-08-21 16:13:23,2551.299728393458,2,15,0.5501165986061096,3.8966031074523926,15.986804612938093,15.568512744377763,63.42732022450821,57.14125904783274,0.0,0.0842081755399704,0,0,0
5356,179544.85630597957,2010-08-21 16:13:53,2581.3148954401736,2,15,0.5501165986061096,3.8977363109588623,15.991391601503713,15.568512744377763,63.44519684090459,57.14125904783274,3.237724376958795e-05,0.0842081755399704,0,0,0
5357,179574.87181205125,2010-08-21 16:14:23,2611.3304015068325,2,15,0.550297200679779,3.899031400680542,15.99597870026786,15.568512744377763,63.463078808011886,57.14125904783274,9.713172767078504e-05,0.0842081755399704,0,0,0
5358,179604.8868571691,2010-08-21 16:14:53,2641.345446629677,2,15,0.5501165986061096,3.899840831756592,16.00056570679653,15.568512744377763,63.48096538273478,57.14125904783274,0.0,0.0842081755399704,0,0,0
5359,179634.90215985884,2010-08-21 16:15:23,2671.360749319458,2,15,0.5501165986061096,3.9009740352630615,16.00515280777002,15.568512744377763,63.49885723352868,57.14125904783274,0.0,0.0842081755399704,0,0,0
5360,179664.91760531947,2010-08-21 16:15:53,2701.3761947750545,2,15,0.5501165986061096,3.9021072387695312,16.009739767829316,15.568512744377763,63.51675365427043,57.14125904783274,0.0,0.0842081755399704,0,0,0
5361,179694.93286291684,2010-08-21 16:16:23,2731.391452372451,2,15,0.5501165986061096,3.903402328491211,16.014326677852054,15.568512744377763,63.53465500597574,57.14125904783274,6.47544875391759e-05,0.0842081755399704,0,0,0
5362,179724.94819793222,2010-08-21 16:16:53,2761.4067873978224,2,15,0.5499359965324402,3.904373645782471,16.01891369311474,15.568512744377763,63.55256207828656,57.14125904783274,3.237724376958795e-05,0.0842081755399704,0,0,0
5363,179754.9635169176,2010-08-21 16:17:23,2791.4221064032668,2,15,0.5501165986061096,3.905506849288941,16.023500726833376,15.568512744377763,63.57047445118646,57.14125904783274,0.0,0.0842081755399704,0,0,0
5364,179784.97865163375,2010-08-21 16:17:53,2821.437241119406,2,15,0.550297200679779,3.90680193901062,16.02808757219599,15.568512744377763,63.588391469143055,57.14125904783274,6.47544875391759e-05,0.0842081755399704,0,0,0
5365,179814.99409226232,2010-08-21 16:18:23,2851.4526817178967,2,15,0.5501165986061096,3.90793514251709,16.032674542718723,15.568512744377763,63.606314480323626,57.14125904783274,3.237724376958795e-05,0.0842081755399704,0,0,0
5366,179845.00923595583,2010-08-21 16:18:53,2881.4678254364726,2,15,0.550297200679779,3.90939211845398,16.03726143725138,15.568512744377763,63.62424272930477,57.14125904783274,6.47544875391759e-05,0.0842081755399704,0,0,0
5367,179875.0245132072,2010-08-21 16:19:23,2911.483102667803,2,15,0.5501165986061096,3.9103634357452393,16.041848416476338,15.568512744377763,63.64217702763198,57.14125904783274,3.237724376958795e-05,0.0842081755399704,0,0,0
5368,179905.03985322503,2010-08-21 16:19:53,2941.498442700654,2,15,0.5501165986061096,3.911496639251709,16.04643541365802,15.568512744377763,63.66011702326527,57.14125904783274,-3.237724376958795e-05,0.0842081755399704,0,0,0
5369,179935.05512680224,2010-08-21 16:20:23,2971.5137162828896,2,15,0.550297200679779,3.912953615188599,16.051022364361636,15.568512744377763,63.678062668069074,57.14125904783274,3.237724376958795e-05,0.0842081755399704,0,0,0
5370,179965.07038750238,2010-08-21 16:20:53,3001.528976988031,2,15,0.550297200679779,3.914410352706909,16.05560928632162,15.568512744377763,63.696014062311605,57.14125904783274,3.237724376958795e-05,0.0842081755399704,0,0,0
5371,179995.0856936257,2010-08-21 16:21:23,3031.5442831113696,2,15,0.550297200679779,3.915543556213379,16.06019626292118,15.568512744377763,63.71397168902671,57.14125904783274,3.237724376958795e-05,0.0842081755399704,0,0,0
5372,180025.10096083206,2010-08-21 16:21:53,3061.5595503127024,2,15,0.5501165986061096,3.9168386459350586,16.064783261390875,15.568512744377763,63.73193529741758,57.14125904783274,0.0,0.0842081755399704,0,0,0
5373,180055.1162749754,2010-08-21 16:22:23,3091.5748644309665,2,15,0.5501165986061096,3.9181337356567374,16.06937020667543,15.568512744377763,63.74990491536057,57.14125904783274,3.237724376958795e-05,0.0842081755399704,0,0,0
5374,180085.1315403873,2010-08-21 16:22:53,3121.59012984284,2,15,0.5501165986061096,3.919590711593628,16.073957190717167,15.568512744377763,63.76788089396768,57.14125904783274,3.237724376958795e-05,0.0842081755399704,0,0,0
5375,180115.14686479617,2010-08-21 16:23:23,3151.6054542517504,2,15,0.550297200679779,3.9210476875305176,16.078544244293443,15.568512744377763,63.7858634849207,57.14125904783274,3.237724376958795e-05,0.0842081755399704,0,0,0
5376,180145.16212307024,2010-08-21 16:23:53,3181.6207125508963,2,15,0.5501165986061096,3.922342777252197,16.083131200647966,15.568512744377763,63.80385200285863,57.14125904783274,0.0,0.0842081755399704,0,0,0
5377,180175.17746821584,2010-08-21 16:24:23,3211.636057701502,2,15,0.5501165986061096,3.923637866973877,16.08771814266898,15.568512744377763,63.8218469320105,57.14125904783274,3.237724376958795e-05,0.0842081755399704,0,0,0
5378,180205.19269710168,2010-08-21 16:24:53,3241.651286577316,2,15,0.550297200679779,3.9254186153411865,16.092305168723193,15.568512744377763,63.83984877587539,57.14125904783274,6.47544875391759e-05,0.0842081755399704,0,0,0
5379,180235.2082510276,2010-08-21 16:25:23,3271.6668405032547,2,15,0.550297200679779,3.926713705062866,16.096892523680935,15.568512744377763,63.857858444771445,57.14125904783274,3.237724376958795e-05,0.0842081755399704,0,0,0
5380,180265.2232817897,2010-08-21 16:25:53,3301.6818712452578,2,15,0.550297200679779,3.928170680999756,16.101480313532356,15.568512744377763,63.87587654912102,57.14125904783274,6.47544875391759e-05,0.0842081755399704,0,0,0
5381,180295.2387274257,2010-08-21 16:26:23,3331.6973168863165,2,15,0.5501165986061096,3.9296276569366455,16.1060678566468,15.568512744377763,63.89390035687782,57.14125904783274,3.237724376958795e-05,0.0842081755399704,0,0,0
5382,180325.2540226569,2010-08-21 16:26:53,3361.712612122521,2,15,0.5501165986061096,3.931084632873535,16.110654833084325,15.568512744377763,63.91192876264231,57.14125904783274,3.237724376958795e-05,0.0842081755399704,0,0,0
5383,180355.2691732376,2010-08-21 16:27:23,3391.7277626931736,2,15,0.5501165986061096,3.932541608810425,16.115241755509924,15.568512744377763,63.92996373963195,57.14125904783274,0.0,0.0842081755399704,0,0,0
5384,180385.28446689987,2010-08-21 16:27:53,3421.743056355455,2,15,0.5501165986061096,3.9339985847473145,16.119828693990847,15.568512744377763,63.94800580862097,57.14125904783274,3.237724376958795e-05,0.0842081755399704,0,0,0
5385,180415.29976352956,2010-08-21 16:28:23,3451.758352985132,2,15,0.5501165986061096,3.935779333114624,16.12441565999969,15.568512744377763,63.96605508612903,57.14125904783274,6.47544875391759e-05,0.0842081755399704,0,0,0
5386,180445.315046826,2010-08-21 16:28:53,3481.773636286591,2,15,0.5501165986061096,3.937074422836304,16.129002666741755,15.568512744377763,63.98411149884656,57.14125904783274,0.0,0.0842081755399704,0,0,0
5387,180475.33033060364,2010-08-21 16:29:23,3511.7889200592244,2,15,0.5501165986061096,3.9386932849884033,16.13358963566963,15.568512744377763,64.0021750895185,57.14125904783274,3.237724376958795e-05,0.0842081755399704,0,0,0
5388,180505.34562884737,2010-08-21 16:29:53,3541.8042183029243,2,15,0.5499359965324402,3.940474033355713,16.138176676654957,15.568512744377763,64.02024627294485,57.14125904783274,6.47544875391759e-05,0.0842081755399704,0,0,0
5389,180535.36113647788,2010-08-21 16:30:23,3571.8197259585427,2,15,0.550297200679779,3.942092895507813,16.142763684762457,15.568512744377763,64.03832472576484,57.14125904783274,3.237724376958795e-05,0.0842081755399704,0,0,0
5390,180565.3767008599,2010-08-21 16:30:53,3601.8352903154787,2,15,0.550297200679779,3.943711757659912,16.147350695961503,15.568512744377763,64.05641072426069,57.14125904783274,6.47544875391759e-05,0.0842081755399704,0,0,0
5391,180595.3915044959,2010-08-21 16:31:23,3631.850093956476,2,15,0.5501165986061096,3.945330619812012,16.151937619655946,15.568512744377763,64.07450402082641,57.14125904783274,3.237724376958795e-05,0.0842081755399704,0,0,0
5392,180625.4067986344,2010-08-21 16:31:53,3661.865388089932,2,15,0.5501165986061096,3.9469494819641113,16.15652464684,15.568512744377763,64.09260544565107,57.14125904783274,3.237724376958795e-05,0.0842081755399704,0,0,0
5393,180655.42471509345,2010-08-21 16:32:23,3691.883304549031,2,15,0.5501165986061096,3.948730230331421,16.16111205427823,15.568512744377763,64.1107162331648,57.14125904783274,3.237724376958795e-05,0.0842081755399704,0,0,0
5394,180685.43738239,2010-08-21 16:32:53,3721.895971840588,2,15,0.550297200679779,3.950672864913941,16.165698641715274,15.568512744377763,64.12883175072852,57.14125904783274,6.47544875391759e-05,0.0842081755399704,0,0,0
5395,180715.4526671,2010-08-21 16:33:23,3751.9112565605815,2,15,0.550297200679779,3.95229172706604,16.170285607459757,15.568512744377763,64.14695685306327,57.14125904783274,3.237724376958795e-05,0.0842081755399704,0,0,0
5396,180745.4679772333,2010-08-21 16:33:53,3781.926566688901,2,15,0.5501165986061096,3.9540724754333496,16.174872583821827,15.568512744377763,64.16509022581475,57.14125904783274,3.237724376958795e-05,0.0842081755399704,0,0,0
5397,180775.4833991152,2010-08-21 16:34:23,3811.9419885807706,2,15,0.5501165986061096,3.955853223800659,16.17945957166571,15.568512744377763,64.18323190497294,57.14125904783274,3.237724376958795e-05,0.0842081755399704,0,0,0
5398,180805.49858216176,2010-08-21 16:34:53,3841.957171617338,2,15,0.5501165986061096,3.9577958583831783,16.18404653753792,15.568512744377763,64.2013818693414,57.14125904783274,6.47544875391759e-05,0.0842081755399704,0,0,0
5399,180835.51383403488,2010-08-21 16:35:23,3871.972423490469,2,15,0.550297200679779,3.959576606750488,16.188633540704416,15.568512744377763,64.21954047036375,57.14125904783274,3.237724376958795e-05,0.0842081755399704,0,0,0
5400,180865.5292395409,2010-08-21 16:35:53,3901.9878291167984,2,15,0.5501165986061096,3.961519241333008,16.193220541773957,15.568512744377763,64.23770758500092,57.14125904783274,3.237724376958795e-05,0.0842081755399704,0,0,0
5401,180895.54454891235,2010-08-21 16:36:23,3932.00313840302,2,15,0.5501165986061096,3.963299989700317,16.19780749944104,15.568512744377763,64.25588312254638,57.14125904783274,3.237724376958795e-05,0.0842081755399704,0,0,0
5402,180925.5597313324,2010-08-21 16:36:53,3962.0183208180383,2,15,0.5501165986061096,3.965080738067627,16.202394492938037,15.568512744377763,64.27406745854896,57.14125904783274,3.237724376958795e-05,0.0842081755399704,0,0,0
5403,180955.57515989087,2010-08-21 16:37:23,3992.0337493765232,2,15,0.5499359965324402,3.967185258865357,16.20698153786702,15.568512744377763,64.29226075202699,57.14125904783274,6.47544875391759e-05,0.0842081755399704,0,0,0
5404,180985.5902836297,2010-08-21 16:37:54,4022.048873085227,2,15,0.550297200679779,3.969127893447876,16.21156848859979,15.568512744377763,64.31046224697742,57.14125904783274,6.47544875391759e-05,0.0842081755399704,0,0,0
5405,181015.6058270494,2010-08-21 16:38:24,4052.064416520019,2,15,0.5501165986061096,3.9709086418151855,16.21615554551101,15.568512744377763,64.32867294738658,57.14125904783274,3.237724376958795e-05,0.0842081755399704,0,0,0
5406,181045.62100242183,2010-08-21 16:38:54,4082.079591877448,2,15,0.5501165986061096,3.972851276397705,16.220742547363788,15.568512744377763,64.346892213986,57.14125904783274,3.237724376958795e-05,0.0842081755399704,0,0,0
5407,181075.6361653032,2010-08-21 16:39:24,4112.094754758784,2,15,0.550297200679779,3.9749557971954346,16.225329486039637,15.568512744377763,64.36512001349261,57.14125904783274,9.713172767078504e-05,0.0842081755399704,0,0,0
5408,181105.6514697424,2010-08-21 16:39:54,4142.110059197924,2,15,0.5501165986061096,3.976898431777954,16.22991646338361,15.568512744377763,64.38335680142144,57.14125904783274,9.713172767078504e-05,0.0842081755399704,0,0,0
5409,181135.66676373043,2010-08-21 16:40:24,4172.1253531860175,2,15,0.5501165986061096,3.978679180145264,16.234503530136152,15.568512744377763,64.40160247309534,57.14125904783274,6.47544875391759e-05,0.0842081755399704,0,0,0
5410,181165.6820662448,2010-08-21 16:40:54,4202.140655730435,2,15,0.550297200679779,3.980621814727783,16.23909044486553,15.568512744377763,64.41985683719523,57.14125904783274,3.237724376958795e-05,0.0842081755399704,0,0,0
5411,181195.6973635913,2010-08-21 16:41:24,4232.155953046825,2,15,0.550297200679779,3.982564449310303,16.243677392773908,15.568512744377763,64.43812035180227,57.14125904783274,6.47544875391759e-05,0.0842081755399704,0,0,0
5412,181225.7126283866,2010-08-21 16:41:54,4262.171217852186,2,15,0.5501165986061096,3.9845070838928223,16.248264349192798,15.568512744377763,64.45639281053505,57.14125904783274,3.237724376958795e-05,0.0842081755399704,0,0,0
5413,181255.72796954724,2010-08-21 16:42:24,4292.186559007835,2,15,0.550297200679779,3.986611604690552,16.252851313668966,15.568512744377763,64.47467444230294,57.14125904783274,6.47544875391759e-05,0.0842081755399704,0,0,0
5414,181285.74335048205,2010-08-21 16:42:54,4322.201939942626,2,15,0.550297200679779,3.9885542392730713,16.257438314337396,15.568512744377763,64.49296527486403,57.14125904783274,9.713172767078504e-05,0.0842081755399704,0,0,0
5415,181315.75851317288,2010-08-21 16:43:24,4352.217102638499,2,15,0.5501165986061096,3.990496873855591,16.262025229996198,15.568512744377763,64.51126496428019,57.14125904783274,3.237724376958795e-05,0.0842081755399704,0,0,0
5416,181345.7739369294,2010-08-21 16:43:54,4382.232526395015,2,15,0.550297200679779,3.9927632808685294,16.266612220960237,15.568512744377763,64.52957423735651,57.14125904783274,9.713172767078504e-05,0.0842081755399704,0,0,0
5417,181375.7891342616,2010-08-21 16:44:24,4412.2477237222,2,15,0.5501165986061096,3.994705677032471,16.27119922576354,15.568512744377763,64.5478929219511,57.14125904783274,6.47544875391759e-05,0.0842081755399704,0,0,0
5418,181405.8043977186,2010-08-21 16:44:54,4442.262987174187,2,15,0.5501165986061096,3.9966483116149902,16.27578623255072,15.568512744377763,64.56622108003526,57.14125904783274,6.47544875391759e-05,0.0842081755399704,0,0,0
5419,181435.81984596612,2010-08-21 16:45:24,4472.278435431768,2,15,0.550297200679779,3.99875283241272,16.280373266334195,15.568512744377763,64.5845588912283,57.14125904783274,6.47544875391759e-05,0.0842081755399704,0,0,0
5420,181465.83498308327,2010-08-21 16:45:54,4502.293572543879,2,15,0.550297200679779,4.000857353210449,16.28496017243954,15.568512744377763,64.60290576517927,57.14125904783274,3.23295607813634e-05,0.0842081755399704,0,0,0
5421,181495.8504145089,2010-08-21 16:46:24,4532.309003994571,2,15,0.5501165986061096,4.002962112426758,16.289547197406588,15.568512744377763,64.62126287253932,57.14125904783274,3.24249267578125e-05,0.0842081755399704,0,0,0
5422,181525.8656903167,2010-08-21 16:46:54,4562.3242797923285,2,15,0.5501165986061096,4.005066394805908,16.29413412200623,15.568512744377763,64.63962935160828,57.14125904783274,6.47544875391759e-05,0.0842081755399704,0,0,0
5423,181555.8808417044,2010-08-21 16:47:24,4592.339431159968,2,15,0.5501165986061096,4.007332801818848,16.298721026842188,15.568512744377763,64.65800571867922,57.14125904783274,6.47544875391759e-05,0.0842081755399704,0,0,0
5424,181585.89617304056,2010-08-21 16:47:54,4622.354762506169,2,15,0.5501165986061096,4.009437561035156,16.303307991355457,15.568512744377763,64.67639232932045,57.14125904783274,3.24249267578125e-05,0.0842081755399704,0,0,0
5425,181615.91163699224,2010-08-21 16:48:24,4652.370226477915,2,15,0.5501165986061096,4.011865615844727,16.307894893165813,15.568512744377763,64.69478881354563,57.14125904783274,9.70840483205393e-05,0.0842081755399704,0,0,0
5426,181645.92672882156,2010-08-21 16:48:54,4682.385318267066,2,15,0.5501165986061096,4.013970375061035,16.31248184868909,15.568512744377763,64.71319581083947,57.14125904783274,3.24249267578125e-05,0.0842081755399704,0,0,0
5427,181675.9420234562,2010-08-21 16:49:24,4712.400612916807,2,15,0.550297200679779,4.0163984298706055,16.317068797212027,15.568512744377763,64.7316131212456,57.14125904783274,9.70840483205393e-05,0.0842081755399704,0,0,0
5428,181705.95732044172,2010-08-21 16:49:54,4742.415909902373,2,15,0.550297200679779,4.018503189086914,16.32165580657285,15.568512744377763,64.75004117742998,57.14125904783274,6.47544875391759e-05,0.0842081755399704,0,0,0
5429,181735.97275865436,2010-08-21 16:50:24,4772.43134811993,2,15,0.5501165986061096,4.020931243896484,16.326242745609733,15.568512744377763,64.7684793720976,57.14125904783274,9.70840483205393e-05,0.0842081755399704,0,0,0
5430,181765.9880491738,2010-08-21 16:50:54,4802.446638629353,2,15,0.5501165986061096,4.023197650909424,16.330829690875305,15.568512744377763,64.78692836350706,57.14125904783274,6.47544875391759e-05,0.0842081755399704,0,0,0
5431,181796.0032548267,2010-08-21 16:51:24,4832.461844282288,2,15,0.5501165986061096,4.025464057922363,16.335416641207946,15.568512744377763,64.80538814541491,57.14125904783274,3.23295607813634e-05,0.0842081755399704,0,0,0
5432,181826.0185155519,2010-08-21 16:51:54,4862.477105012492,2,15,0.550297200679779,4.027892589569092,16.340003579219072,15.568512744377763,64.82385874354995,57.14125904783274,6.47544875391759e-05,0.0842081755399704,0,0,0
5433,181856.03380259263,2010-08-21 16:52:24,4892.492392053272,2,15,0.5501165986061096,4.030320644378662,16.344590555498577,15.568512744377763,64.8423404496155,57.14125904783274,3.23295607813634e-05,0.0842081755399704,0,0,0
5434,181886.04908373376,2010-08-21 16:52:54,4922.507673189333,2,15,0.5501165986061096,4.032749176025391,16.349177512218386,15.568512744377763,64.86083312310512,57.14125904783274,6.47544875391759e-05,0.0842081755399704,0,0,0
5435,181916.06439895977,2010-08-21 16:53:24,4952.522988415359,2,15,0.5501165986061096,4.035177230834961,16.353764451556525,15.568512744377763,64.87933694515135,57.14125904783274,6.47544875391759e-05,0.0842081755399704,0,0,0
5436,181946.0796805971,2010-08-21 16:53:54,4982.53827005267,2,15,0.550297200679779,4.03776741027832,16.358351422177044,15.568512744377763,64.89785214349983,57.14125904783274,9.71794142969884e-05,0.0842081755399704,0,0,0
5437,181976.0951061832,2010-08-21 16:54:24,5012.553695663808,2,15,0.5501165986061096,4.040195465087891,16.362938389111992,15.568512744377763,64.91637873921077,57.14125904783274,6.47544875391759e-05,0.0842081755399704,0,0,0
5438,182006.1103269237,2010-08-21 16:54:54,5042.568916384296,2,15,0.5501165986061096,4.04278564453125,16.367525392710874,15.568512744377763,64.93491695897481,57.14125904783274,6.47544875391759e-05,0.0842081755399704,0,0,0
5439,182036.1255553133,2010-08-21 16:55:24,5072.584144768885,2,15,0.550297200679779,4.0452141761779785,16.37211232196977,15.568512744377763,64.95346652322941,57.14125904783274,3.24249267578125e-05,0.0842081755399704,0,0,0
5440,182066.140831487,2010-08-21 16:55:54,5102.599420947593,2,15,0.5501165986061096,4.047642230987549,16.376699284055253,15.568512744377763,64.97202792042073,57.14125904783274,6.47544875391759e-05,0.0842081755399704,0,0,0
5441,182096.1561369587,2010-08-21 16:56:24,5132.614726404269,2,15,0.550297200679779,4.050394535064697,16.381286211625987,15.568512744377763,64.99060103358165,57.14125904783274,6.47544875391759e-05,0.0842081755399704,0,0,0
5442,182126.1714168717,2010-08-21 16:56:54,5162.63000635237,2,15,0.550297200679779,4.053146362304688,16.385873134416094,15.568512744377763,65.00918604789645,57.14125904783274,9.70840483205393e-05,0.0842081755399704,0,0,0
5443,182156.1868789036,2010-08-21 16:57:24,5192.645468364231,2,15,0.5501165986061096,4.055574893951416,16.39046009171891,15.568512744377763,65.0277832878968,57.14125904783274,3.24249267578125e-05,0.0842081755399704,0,0,0
5444,182186.20201066745,2010-08-21 16:57:54,5222.660600122998,2,15,0.5501165986061096,4.058165073394775,16.39504708393219,15.568512744377763,65.04639285680732,57.14125904783274,3.24249267578125e-05,0.0842081755399704,0,0,0
5445,182216.21746537607,2010-08-21 16:58:24,5252.676054831658,2,15,0.5501165986061096,4.060916900634766,16.39963404708019,15.568512744377763,65.06501451564071,57.14125904783274,6.47544875391759e-05,0.0842081755399704,0,0,0
5446,182246.23284501265,2010-08-21 16:58:54,5282.691434478238,2,15,0.550297200679779,4.063830852508545,16.40422102796795,15.568512744377763,65.08364837457593,57.14125904783274,9.70840483205393e-05,0.0842081755399704,0,0,0
5447,182276.24793268653,2010-08-21 16:59:24,5312.706522147121,2,15,0.550297200679779,4.066421031951904,16.408807966384042,15.568512744377763,65.1022946383268,57.14125904783274,9.70840483205393e-05,0.0842081755399704,0,0,0
5448,182306.2625644492,2010-08-21 16:59:54,5342.721153904731,2,15,0.5501165986061096,4.069334983825684,16.413392547963017,15.568512744377763,65.12094393315839,57.14125904783274,9.70840483205393e-05,0.0842081755399704,0,0,0
5449,182336.26300059192,2010-08-21 17:00:24,5372.721590087603,2,15,0.550297200679779,4.072087287902832,16.417979542621623,15.568512744377763,65.13961580406702,57.14125904783274,6.47544875391759e-05,0.0842081755399704,0,0,0
5450,182366.2783394869,2010-08-21 17:00:54,5402.736928952543,2,15,0.5501165986061096,4.074839115142822,16.42256648488201,15.568512744377763,65.15830028348866,57.14125904783274,9.70840483205393e-05,0.0842081755399704,0,0,0
5451,182396.2934655766,2010-08-21 17:01:24,5432.752055057219,2,15,0.5501165986061096,4.077591419219971,16.427153385557556,15.568512744377763,65.17699759919866,57.14125904783274,6.47544875391759e-05,0.0842081755399704,0,0,0
5452,182426.308871243,2010-08-21 17:01:54,5462.767460708613,2,15,0.5501165986061096,4.080667018890381,16.431740356075945,15.568512744377763,65.19570833270112,57.14125904783274,9.70840483205393e-05,0.0842081755399704,0,0,0
5453,182456.32405022948,2010-08-21 17:02:24,5492.7826396850605,2,15,0.5501165986061096,4.083419322967529,16.436327308145927,15.568512744377763,65.21443214663392,57.14125904783274,3.24249267578125e-05,0.0842081755399704,0,0,0
5454,182486.3395685868,2010-08-21 17:02:54,5522.798158042352,2,15,0.5501165986061096,4.08649492263794,16.440914253183678,15.568512744377763,65.2331692821696,57.14125904783274,9.70840483205393e-05,0.0842081755399704,0,0,0
5455,182516.35464834093,2010-08-21 17:03:24,5552.813237796508,2,15,0.5501165986061096,4.089247226715088,16.4455011345886,15.568512744377763,65.25191959449609,57.14125904783274,6.47544875391759e-05,0.0842081755399704,0,0,0
5456,182546.3699316123,2010-08-21 17:03:54,5582.828521072905,2,15,0.550297200679779,4.092322826385498,16.45008816259192,15.568512744377763,65.27068415473411,57.14125904783274,9.70840483205393e-05,0.0842081755399704,0,0,0
5457,182576.38526698356,2010-08-21 17:04:24,5612.843856449151,2,15,0.550297200679779,4.095398902893066,16.454675113516195,15.568512744377763,65.28946210040576,57.14125904783274,9.71794142969884e-05,0.0842081755399704,0,0,0
5458,182606.4032112018,2010-08-21 17:04:54,5642.861800657407,2,15,0.5501165986061096,4.098474502563477,16.459262490948117,15.568512744377763,65.30825564796721,57.14125904783274,0.0001295089750783,0.0842081755399704,0,0,0
5459,182636.4158223735,2010-08-21 17:05:24,5672.874411834109,2,15,0.550297200679779,4.101550579071045,16.463849113244343,15.568512744377763,65.32706011030915,57.14125904783274,0.0001295089750783,0.0842081755399704,0,0,0
5460,182666.43124438068,2010-08-21 17:05:54,5702.889833836254,2,15,0.5501165986061096,4.104464530944824,16.46843608001309,15.568512744377763,65.3458800276835,57.14125904783274,6.47544875391759e-05,0.0842081755399704,0,0,0
5461,182696.44640948257,2010-08-21 17:06:24,5732.904998938123,2,15,0.5501165986061096,4.107540130615234,16.47302301812543,15.568512744377763,65.36471412389496,57.14125904783274,9.70840483205393e-05,0.0842081755399704,0,0,0
5462,182726.4617304178,2010-08-21 17:06:54,5762.920319878389,2,15,0.550297200679779,4.110777854919434,16.477609984966787,15.568512744377763,65.38356269369994,57.14125904783274,9.70840483205393e-05,0.0842081755399704,0,0,0
5463,182756.47712850032,2010-08-21 17:07:24,5792.935717960919,2,15,0.550297200679779,4.113853931427002,16.48219699495619,15.568512744377763,65.40242591444674,57.14125904783274,6.47544875391759e-05,0.0842081755399704,0,0,0
5464,182786.49235926583,2010-08-21 17:07:54,5822.950948746491,2,15,0.5501165986061096,4.117091178894043,16.4867839421273,15.568512744377763,65.42130346480035,57.14125904783274,0.0001295089750783,0.0842081755399704,0,0,0
5465,182816.507592302,2010-08-21 17:08:24,5852.966181757612,2,15,0.5501165986061096,4.120328903198242,16.491370869338752,15.568512744377763,65.44019567657058,57.14125904783274,6.47544875391759e-05,0.0842081755399704,0,0,0
5466,182846.5229009717,2010-08-21 17:08:54,5882.981490432308,2,15,0.550297200679779,4.123566627502441,16.495957873486265,15.568512744377763,65.45910309718519,57.14125904783274,0.0001295089750783,0.0842081755399704,0,0,0
5467,182876.53831525464,2010-08-21 17:09:24,5912.996904700176,2,15,0.550297200679779,4.126804351806641,16.500544851653185,15.568512744377763,65.47802537934723,57.14125904783274,9.70840483205393e-05,0.0842081755399704,0,0,0
5468,182906.5534881108,2010-08-21 17:09:54,5943.012077566396,2,15,0.5499359965324402,4.130204200744629,16.50513185986303,15.568512744377763,65.49696295263317,57.14125904783274,9.71794142969884e-05,0.0842081755399704,0,0,0
5469,182936.5687775576,2010-08-21 17:10:25,5973.027367013171,2,15,0.5501165986061096,4.133441925048828,16.509718791679727,15.568512744377763,65.51591546396006,57.14125904783274,6.47544875391759e-05,0.0842081755399704,0,0,0
5470,182966.58435987929,2010-08-21 17:10:55,6003.04294933488,2,15,0.5499359965324402,4.136841297149658,16.514305770071804,15.568512744377763,65.5348835040548,57.14125904783274,6.47544875391759e-05,0.0842081755399704,0,0,0
5471,182996.599521292,2010-08-21 17:11:25,6033.058110752568,2,15,0.5501165986061096,4.140402793884277,16.518892740834513,15.568512744377763,65.55386706307905,57.14125904783274,9.70840483205393e-05,0.0842081755399704,0,0,0
5472,183026.6146676622,2010-08-21 17:11:55,6063.07325711774,2,15,0.5501165986061096,4.143478870391846,16.52347969360565,15.568512744377763,65.57286615193999,57.14125904783274,3.24249267578125e-05,0.0842081755399704,0,0,0
5473,183056.6299683419,2010-08-21 17:12:25,6093.088557797511,2,15,0.550297200679779,4.147202014923096,16.5280666542388,15.568512744377763,65.59188130725856,57.14125904783274,9.70840483205393e-05,0.0842081755399704,0,0,0
5474,183086.64527365824,2010-08-21 17:12:55,6123.103863113837,2,15,0.5499359965324402,4.150601863861084,16.532653578866224,15.568512744377763,65.61091226854379,57.14125904783274,6.47544875391759e-05,0.0842081755399704,0,0,0
5475,183116.6606907131,2010-08-21 17:13:25,6153.1192801786765,2,15,0.550297200679779,4.154325008392334,16.537240558605177,15.568512744377763,65.62995948118129,57.14125904783274,0.0001295089750783,0.0842081755399704,0,0,0
5476,183146.67600480627,2010-08-21 17:13:55,6183.134594261853,2,15,0.5501165986061096,4.157724857330322,16.541827532340843,15.568512744377763,65.64902282564059,57.14125904783274,9.71794142969884e-05,0.0842081755399704,0,0,0
5477,183176.6911206654,2010-08-21 17:14:25,6213.149710120993,2,15,0.550297200679779,4.161448001861572,16.546414446949363,15.568512744377763,65.66810217922828,57.14125904783274,0.0001295089750783,0.0842081755399704,0,0,0
5478,183206.7064465129,2010-08-21 17:14:55,6243.165035973503,2,15,0.550297200679779,4.1648478507995605,16.551001534963667,15.568512744377763,65.68719865940068,57.14125904783274,0.0001295089750783,0.0842081755399704,0,0,0
5479,183236.721907412,2010-08-21 17:15:25,6273.180496962815,2,15,0.550297200679779,4.1685709953308105,16.555588593726913,15.568512744377763,65.70631155536627,57.14125904783274,0.0001295089750783,0.0842081755399704,0,0,0
5480,183266.7370159779,2010-08-21 17:15:55,6303.195605433542,2,15,0.5501165986061096,4.17213249206543,16.560175623370082,15.568512744377763,65.72544103810377,57.14125904783274,6.47544875391759e-05,0.0842081755399704,0,0,0
5481,183296.75243748887,2010-08-21 17:16:25,6333.211026974536,2,15,0.5499359965324402,4.175693988800049,16.564762650339727,15.568512744377763,65.74458727969646,57.14125904783274,6.47544875391759e-05,0.0842081755399704,0,0,0
5482,183326.76764492624,2010-08-21 17:16:55,6363.226234386857,2,15,0.5499359965324402,4.179417610168457,16.56934969148726,15.568512744377763,65.76375056497639,57.14125904783274,9.71794142969884e-05,0.0842081755399704,0,0,0
5483,183356.78305992097,2010-08-21 17:17:25,6393.2416493865485,2,15,0.5501165986061096,4.183302879333496,16.573936817152934,15.568512744377763,65.78293129663865,57.14125904783274,0.0001295089750783,0.0842081755399704,0,0,0
5484,183386.79820833623,2010-08-21 17:17:55,6423.256797791804,2,15,0.5501165986061096,4.187026023864746,16.57852384994619,15.568512744377763,65.80212880445569,57.14125904783274,9.70840483205393e-05,0.0842081755399704,0,0,0
5485,183416.8135274018,2010-08-21 17:18:25,6453.272116867423,2,15,0.550297200679779,4.190911293029785,16.583110885295856,15.568512744377763,65.82134376969714,57.14125904783274,9.70840483205393e-05,0.0842081755399704,0,0,0
5486,183446.82901427563,2010-08-21 17:18:55,6483.287603761298,2,15,0.5501165986061096,4.194634914398193,16.58769794186765,15.568512744377763,65.84057633991104,57.14125904783274,9.71794142969884e-05,0.0842081755399704,0,0,0
5487,183476.8441014884,2010-08-21 17:19:25,6513.302690943969,2,15,0.5501165986061096,4.198681831359863,16.5922849805167,15.568512744377763,65.859826447027,57.14125904783274,0.0001295089750783,0.0842081755399704,0,0,0
5488,183487.56272738217,2010-08-21 17:19:36,6524.021316842747,2,15,0.550297200679779,4.200138568878174,16.593923038216953,15.568512744377763,65.8667050914237,57.14125904783274,0.0001295089750783,0.0842081755399704,0,0,0
5489,183517.57449894652,2010-08-21 17:20:06,30.015326629445696,3,15,0.0,4.12696647644043,16.593923038216953,15.568512744377763,65.8667050914237,57.14125904783274,-0.0003561019839253,0.0842081755399704,0,0,0
5490,183547.58977153132,2010-08-21 17:20:36,60.030599118958015,3,15,0.0,4.117738723754883,16.593923038216953,15.568512744377763,65.8667050914237,57.14125904783274,-0.0002266883820993,0.0842081755399704,0,0,0
5491,183577.6051881952,2010-08-21 17:21:06,90.04601579282212,3,15,0.0,4.112396717071533,16.593923038216953,15.568512744377763,65.8667050914237,57.14125904783274,-9.71794142969884e-05,0.0842081755399704,0,0,0
5492,183607.57347437032,2010-08-21 17:21:36,120.01430198803172,3,15,0.0,4.108997344970703,16.593923038216953,15.568512744377763,65.8667050914237,57.14125904783274,-0.0001295089750783,0.0842081755399704,0,0,0
5493,183607.58705591227,2010-08-21 17:21:36,0.015817171257596,4,15,0.9931511878967284,4.199653148651123,16.59392741488006,15.568512744377763,65.8667234718907,57.14125904783274,0.0,0.0842081755399704,0,0,0
5494,183608.64949044603,2010-08-21 17:21:37,1.078251694993677,4,15,0.9429417848587036,4.199491024017334,16.59421163659207,15.568512744377763,65.86791709468345,57.14125904783274,-3.24249267578125e-05,0.0842081755399704,0,0,0
5495,183610.8524481144,2010-08-21 17:21:39,3.281209363336315,4,15,0.8927324414253235,4.199491024017334,16.594772187625274,15.568512744377763,65.87027119577125,57.14125904783274,-3.24249267578125e-05,0.0842081755399704,0,0,0
5496,183614.11804308684,2010-08-21 17:21:42,6.546804335806163,4,15,0.8423424363136292,4.199491024017334,16.595558136458347,15.568512744377763,65.87357188679789,57.14125904783274,-6.47544875391759e-05,0.0842081755399704,0,0,0
5497,183618.43049843743,2010-08-21 17:21:47,10.859259686449304,4,15,0.7923136353492737,4.199653148651123,16.596536255205955,15.568512744377763,65.87767963743532,57.14125904783274,0.0,0.0842081755399704,0,0,0
5498,183623.94607032472,2010-08-21 17:21:52,16.374831578703848,4,15,0.742284893989563,4.199814796447754,16.597710311294303,15.568512744377763,65.88261026478168,57.14125904783274,6.47544875391759e-05,0.0842081755399704,0,0,0
5499,183630.91485663445,2010-08-21 17:21:59,23.343617888429623,4,15,0.6922560930252075,4.199653148651123,16.599096603041446,15.568512744377763,65.8884321948807,57.14125904783274,0.0,0.0842081755399704,0,0,0
5500,183640.03975829209,2010-08-21 17:22:08,32.46851955103489,4,15,0.6422273516654968,4.199653148651123,16.600785166757866,15.568512744377763,65.89552357869727,57.14125904783274,3.24249267578125e-05,0.0842081755399704,0,0,0
5501,183652.58666322476,2010-08-21 17:22:21,45.01542451378821,4,15,0.5918373465538025,4.199329376220703,16.602932076174582,15.568512744377763,65.9045398674804,57.14125904783274,-9.70840483205393e-05,0.0842081755399704,0,0,0
5502,183670.9455476937,2010-08-21 17:22:39,63.374308947685,4,15,0.5418086051940918,4.199491024017334,16.605815235667375,15.568512744377763,65.91664812813192,57.14125904783274,0.0,0.0842081755399704,0,0,0
5503,183699.6171032472,2010-08-21 17:23:08,92.04586450114132,4,15,0.4917798042297363,4.199653148651123,16.6099158372208,15.568512744377763,65.9338692292338,57.14125904783274,0.0,0.0842081755399704,0,0,0
5504,183747.22596203716,2010-08-21 17:23:55,139.6547232861131,4,15,0.4415704309940338,4.199491024017334,16.616062841818582,15.568512744377763,65.95968455632647,57.14125904783274,-6.47544875391759e-05,0.0842081755399704,0,0,0
5505,183821.75647016085,2010-08-21 17:25:10,214.1852314398964,4,15,0.3915416598320007,4.199653148651123,16.62466298367802,15.568512744377763,65.99580220742105,57.14125904783274,0.0,0.0842081755399704,0,0,0
5506,183921.69280013972,2010-08-21 17:26:50,314.1215613887689,4,15,0.3415128886699676,4.199653148651123,16.63482277990228,15.568512744377763,66.03846985154604,57.14125904783274,0.0,0.0842081755399704,0,0,0
5507,184044.4414690816,2010-08-21 17:28:53,436.8702303305932,4,15,0.2914841175079345,4.199491024017334,16.645599884363147,15.568512744377763,66.08372999606509,57.14125904783274,-3.24249267578125e-05,0.0842081755399704,0,0,0
5508,184192.64299868388,2010-08-21 17:31:21,585.0717599328326,4,15,0.2414553612470626,4.199653148651123,16.6565441131851,15.568512744377763,66.12969200651196,57.14125904783274,0.0,0.0842081755399704,0,0,0
5509,184377.2190760914,2010-08-21 17:34:25,769.6478373403713,4,15,0.1914265900850296,4.199491024017334,16.667600560989072,15.568512744377763,66.1761252412015,57.14125904783274,-3.24249267578125e-05,0.0842081755399704,0,0,0
5510,184619.7476502875,2010-08-21 17:38:28,1012.1764115364448,4,15,0.1413978189229965,4.199329376220703,16.678740943722705,15.568512744377763,66.2229105540523,57.14125904783274,-6.47544875391759e-05,0.0842081755399704,0,0,0
5511,184985.8532068072,2010-08-21 17:44:34,1378.2819680561554,4,15,0.0913690477609634,4.199653148651123,16.690429383714644,15.568512744377763,66.27199784466106,57.14125904783274,-3.23295607813634e-05,0.0842081755399704,0,0,0
5512,185529.9252822109,2010-08-21 17:53:38,1922.3540434648664,4,15,0.0498289167881011,4.199491024017334,16.700804921436973,15.568512744377763,66.31557156545071,57.14125904783274,-3.24249267578125e-05,0.0842081755399704,0,0,0
5513,185559.94367243003,2010-08-21 17:54:08,30.015297176038743,5,15,0.0,4.192853927612305,16.700804921436973,15.568512744377763,66.31557156545071,57.14125904783274,0.0,0.0842081755399704,0,0,0
5514,185589.9433521927,2010-08-21 17:54:38,60.01497693867794,5,15,0.0,4.191720962524414,16.700804921436973,15.568512744377763,66.31557156545071,57.14125904783274,-6.47544875391759e-05,0.0842081755399704,0,0,0
5515,185590.13453406445,2010-08-21 17:54:39,0.187435386655973,6,15,-1.9243103452026844e-05,4.191720962524414,16.700804921436973,15.568512745379662,66.31557156545071,57.14125905203242,0.0,0.0875260159373283,0,0,0
5516,185594.96275597907,2010-08-21 17:54:43,5.015657271198989,6,15,0.0005225847125984,4.191882610321045,16.70080581794237,15.568512745547336,66.31557532350219,57.14125905273527,0.0,0.0875260159373283,0,0,0
5517,185624.9816937821,2010-08-21 17:55:14,30.01528969238718,7,15,-1.0997490882873535,4.040519237518311,16.70080581794237,15.577682491114592,66.31557532350219,57.17848097098845,-0.000809478748124,0.0875260159373283,0,0,0
5518,185654.99687495903,2010-08-21 17:55:44,60.03047086932046,7,15,-1.0997490882873535,4.017693519592285,16.70080581794237,15.586852272834996,66.31557532350219,57.21541930789408,-0.0004857063177041,0.0875260159373283,0,0,0
5519,185685.01221796428,2010-08-21 17:56:14,90.04581387457972,7,15,-1.0997490882873535,4.002314567565918,16.70080581794237,15.596021996473212,66.31557532350219,57.25218654172625,-0.0003561019839253,0.0875260159373283,0,0,0
5520,185715.02749486483,2010-08-21 17:56:44,120.06109080014804,7,15,-1.0997490882873535,3.990011215209961,16.70080581794237,15.605191722104886,66.31557532350219,57.28882798426727,-0.0002913951757363,0.0875260159373283,0,0,0
5521,185745.04279308347,2010-08-21 17:57:14,150.07638899372282,7,15,-1.099929690361023,3.979326725006104,16.70080581794237,15.614361425386502,66.31557532350219,57.32536544724759,-0.0002913951757363,0.0875260159373283,0,0,0
5522,185775.058068806,2010-08-21 17:57:44,180.0916647162929,7,15,-1.099929690361023,3.969937324523926,16.70080581794237,15.623531043120568,66.31557532350219,57.36181050280011,-0.0001942634553415,0.0875260159373283,0,0,0
5523,185805.07338620743,2010-08-21 17:58:14,210.1069821227521,7,15,-1.099929690361023,3.960709810256958,16.70080581794237,15.632700672094789,66.31557532350219,57.39817099993324,-0.0002913951757363,0.0875260159373283,0,0,0
5524,185835.08879941265,2010-08-21 17:58:44,240.12239532797125,7,15,-1.0997490882873535,3.95229172706604,16.70080581794237,15.64187032102824,66.31557532350219,57.43445147134521,-0.0001942634553415,0.0875260159373283,0,0,0
5525,185865.10396000333,2010-08-21 17:59:14,270.1375559135846,7,15,-1.099929690361023,3.944035530090332,16.70080581794237,15.651039934695437,66.31557532350219,57.47065492692414,-0.0002266406954731,0.0875260159373283,0,0,0
5526,185895.1192566029,2010-08-21 17:59:44,300.1528525181992,7,15,-1.0997490882873535,3.936103105545044,16.70080581794237,15.66020956328412,66.31557532350219,57.50678404809438,-0.0001942634553415,0.0875260159373283,0,0,0
5527,185925.1345809216,2010-08-21 18:00:14,330.1681768569357,7,15,-1.099929690361023,3.928170680999756,16.70080581794237,15.669379297968916,66.31557532350219,57.542840993508726,-0.0002266406954731,0.0875260159373283,0,0,0
5528,185955.14985643863,2010-08-21 18:00:44,360.18345235394366,7,15,-1.099929690361023,3.920562028884888,16.70080581794237,15.678549002772051,66.31557532350219,57.57882679542526,-0.0001942634553415,0.0875260159373283,0,0,0
5529,185985.1651803363,2010-08-21 18:01:14,390.19877624656834,7,15,-1.0997490882873535,3.9131155014038086,16.70080581794237,15.687718753319848,66.31557532350219,57.614742981440905,-0.0001942157687153,0.0875260159373283,0,0,0
5530,186015.18045897112,2010-08-21 18:01:44,420.2140548763842,7,15,-1.0997490882873535,3.905506849288941,16.70080581794237,15.69688842573013,66.31557532350219,57.65059015786344,-0.0002266406954731,0.0875260159373283,0,0,0
5531,186045.19598721305,2010-08-21 18:02:14,450.2295831533977,7,15,-1.099929690361023,3.898221969604492,16.70080581794237,15.706058161048723,66.31557532350219,57.68636997848587,-0.0002266406954731,0.0875260159373283,0,0,0
5532,186075.21105729308,2010-08-21 18:02:44,480.2446532083809,7,15,-1.0997490882873535,3.891260862350464,16.70080581794237,15.715227745039028,66.31557532350219,57.72208270044334,-0.0001618862152099,0.0875260159373283,0,0,0
5533,186105.2263500631,2010-08-21 18:03:14,510.2599459784386,7,15,-1.0997490882873535,3.8841378688812256,16.70080581794237,15.724397435377982,66.31557532350219,57.75773026417967,-0.0001295089750783,0.0875260159373283,0,0,0
5534,186135.2416676651,2010-08-21 18:03:44,540.2752636004349,7,15,-1.099929690361023,3.876852989196777,16.70080581794237,15.73356719363998,66.31557532350219,57.79331312386892,-0.0002266406954731,0.0875260159373283,0,0,0
5535,186165.2570419934,2010-08-21 18:04:14,570.290637908711,7,15,-1.099929690361023,3.869891881942749,16.70080581794237,15.742736971110087,66.31557532350219,57.82883198473864,-0.0002266406954731,0.0875260159373283,0,0,0
5536,186195.27228025263,2010-08-21 18:04:44,600.3058762180357,7,15,-1.099929690361023,3.8632545471191406,16.70080581794237,15.751906715137457,66.31557532350219,57.864287386952384,-0.0001295089750783,0.0875260159373283,0,0,0
5537,186225.2876351876,2010-08-21 18:05:14,630.3212310978902,7,15,-1.0997490882873535,3.856455326080322,16.70080581794237,15.761076450070858,66.31557532350219,57.89968052693053,-0.0001618862152099,0.0875260159373283,0,0,0
5538,186255.302847848,2010-08-21 18:05:44,660.3364437582899,7,15,-1.099929690361023,3.849656105041504,16.70080581794237,15.770246155364903,66.31557532350219,57.93501186386753,-0.0001942634553415,0.0875260159373283,0,0,0
5539,186285.31816380084,2010-08-21 18:06:14,690.3517597111262,7,15,-1.0997490882873535,3.843018770217896,16.70080581794237,15.779415927459414,66.31557532350219,57.9702826040984,-0.0002266406954731,0.0875260159373283,0,0,0
5540,186315.33345401453,2010-08-21 18:06:44,720.3670499298252,7,15,-1.0997490882873535,3.836705207824707,16.70080581794237,15.788585595404268,66.31557532350219,58.00549323607249,-0.0001618862152099,0.0875260159373283,0,0,0
5541,186345.3487690952,2010-08-21 18:07:14,750.3823650054752,7,15,-1.0997490882873535,3.830229997634888,16.70080581794237,15.797755307288828,66.31557532350219,58.04064491844422,-0.0001942634553415,0.0875260159373283,0,0,0
5542,186375.3640568177,2010-08-21 18:07:44,780.3976527329651,7,15,-1.0997490882873535,3.823916435241699,16.70080581794237,15.806924987047196,66.31557532350219,58.07573849823066,-0.0001618862152099,0.0875260159373283,0,0,0
5543,186405.37937735196,2010-08-21 18:08:14,810.4129732622074,7,15,-1.0997490882873535,3.81792664527893,16.70080581794237,15.81609473604807,66.31557532350219,58.11077528485521,-0.0001618862152099,0.0875260159373283,0,0,0
5544,186435.3946413152,2010-08-21 18:08:44,840.4282372304823,7,15,-1.099929690361023,3.811613082885742,16.70080581794237,15.82526446961881,66.31557532350219,58.145755545540325,-0.0001942634553415,0.0875260159373283,0,0,0
5545,186465.4099551828,2010-08-21 18:09:14,870.4435510931089,7,15,-1.0997490882873535,3.8056232929229736,16.70080581794237,15.834434191506084,66.31557532350219,58.1806798909326,-0.0001942634553415,0.0875260159373283,0,0,0
5546,186495.4252456722,2010-08-21 18:09:44,900.4588415824826,7,15,-1.099929690361023,3.799795389175415,16.70080581794237,15.843603921090883,66.31557532350219,58.215549800304,-0.0001618862152099,0.0875260159373283,0,0,0
5547,186525.44056599596,2010-08-21 18:10:14,930.474161911225,7,15,-1.099929690361023,3.793967485427856,16.70080581794237,15.852773657896314,66.31557532350219,58.250366345426265,-0.0001618862152099,0.0875260159373283,0,0,0
5548,186555.45587382853,2010-08-21 18:10:44,960.4894697388106,7,15,-1.0997490882873535,3.7884633541107178,16.70080581794237,15.861943429830989,66.31557532350219,58.2851305684384,-0.0001295089750783,0.0875260159373283,0,0,0
5549,186585.4711424935,2010-08-21 18:11:14,990.504738433866,7,15,-1.0997490882873535,3.782635450363159,16.70080581794237,15.871113223717948,66.31557532350219,58.31984330999029,-0.0001618862152099,0.0875260159373283,0,0,0
5550,186615.4865629568,2010-08-21 18:11:44,1020.5201588670996,7,15,-1.099929690361023,3.7772932052612314,16.70080581794237,15.880283009045302,66.31557532350219,58.354505433791,-0.0001295089750783,0.0875260159373283,0,0,0
5551,186645.50187818287,2010-08-21 18:12:14,1050.5354740931243,7,15,-1.0997490882873535,3.7719509601593018,16.70080581794237,15.88945272550742,66.31557532350219,58.389117668792046,-9.713172767078504e-05,0.0875260159373283,0,0,0
5552,186675.51703515943,2010-08-21 18:12:44,1080.5506310747555,7,15,-1.099929690361023,3.766608715057373,16.70080581794237,15.89862239884502,66.31557532350219,58.42368087949942,-0.0001618862152099,0.0875260159373283,0,0,0
5553,186705.53251642932,2010-08-21 18:13:14,1110.5661123396003,7,15,-1.099929690361023,3.761590242385864,16.70080581794237,15.907792205590502,66.31557532350219,58.45819680907345,-0.0001295089750783,0.0875260159373283,0,0,0
5554,186735.547663782,2010-08-21 18:13:44,1140.5812596972455,7,15,-1.099929690361023,3.7564098834991455,16.70080581794237,15.916961877557828,66.31557532350219,58.49266541957515,-0.0001295089750783,0.0875260159373283,0,0,0
5555,186765.56298207064,2010-08-21 18:14:14,1170.5965780059532,7,15,-1.0997490882873535,3.751391649246216,16.70080581794237,15.92613160687543,66.31557532350219,58.52708816888981,-0.0001295089750783,0.0875260159373283,0,0,0
5556,186795.5783685793,2010-08-21 18:14:44,1200.6119644945863,7,15,-1.0997490882873535,3.746535062789917,16.70080581794237,15.935301376577849,66.31557532350219,58.561465911090735,-0.0001618862152099,0.0875260159373283,0,0,0
5557,186825.59353961097,2010-08-21 18:15:14,1230.6271355312472,7,15,-1.099929690361023,3.741678476333618,16.70080581794237,15.944471066917124,66.31557532350219,58.5957990533123,-0.0001295089750783,0.0875260159373283,0,0,0
5558,186855.60896706668,2010-08-21 18:15:44,1260.6425630020203,7,15,-1.099568486213684,3.736983776092529,16.70080581794237,15.953640839119863,66.31557532350219,58.63008907819824,-0.0001295089750783,0.0875260159373283,0,0,0
5559,186885.62415565207,2010-08-21 18:16:14,1290.657751562355,7,15,-1.099929690361023,3.732612848281861,16.70080581794237,15.962810490091409,66.31557532350219,58.6643360921787,-9.713172767078504e-05,0.0875260159373283,0,0,0
5560,186915.63944605624,2010-08-21 18:16:44,1320.6730419665166,7,15,-1.099568486213684,3.728080034255981,16.70080581794237,15.971980212993476,66.31557532350219,58.69854148899763,-9.713172767078504e-05,0.0875260159373283,0,0,0
5561,186945.654749949,2010-08-21 18:17:14,1350.6883458592954,7,15,-1.0997490882873535,3.7238709926605225,16.70080581794237,15.981149929439468,66.31557532350219,58.73270629547416,-3.237724376958795e-05,0.0875260159373283,0,0,0
5562,186975.67005443329,2010-08-21 18:17:44,1380.7036503686113,7,15,-1.0997490882873535,3.719338178634644,16.70080581794237,15.99031966903741,66.31557532350219,58.766830576391136,-9.713172767078504e-05,0.0875260159373283,0,0,0
5563,187005.685554906,2010-08-21 18:18:14,1410.7191508212777,7,15,-1.0997490882873535,3.714967250823975,16.70080581794237,15.999489429045948,66.31557532350219,58.80091519067864,-9.713172767078504e-05,0.0875260159373283,0,0,0
5564,187035.70077610263,2010-08-21 18:18:44,1440.734372022965,7,15,-1.0997490882873535,3.7105963230133057,16.70080581794237,16.008659175885587,66.31557532350219,58.83496057461798,-9.713172767078504e-05,0.0875260159373283,0,0,0
5565,187065.7159444276,2010-08-21 18:19:14,1470.749540367917,7,15,-1.0997490882873535,3.7065491676330566,16.70080581794237,16.017828953881054,66.31557532350219,58.86896764772107,-9.713172767078504e-05,0.0875260159373283,0,0,0
5566,187095.7312503454,2010-08-21 18:19:44,1500.764846255668,7,15,-1.099929690361023,3.702502012252808,16.70080581794237,16.026998688445733,66.31557532350219,58.9029368425803,-9.713172767078504e-05,0.0875260159373283,0,0,0
5567,187125.7493979656,2010-08-21 18:20:14,1530.7829938758907,7,15,-1.0997490882873535,3.698616743087769,16.70080581794237,16.03616937549872,66.31557532350219,58.93687241111508,-6.47544875391759e-05,0.0875260159373283,0,0,0
5568,187155.76185547933,2010-08-21 18:20:44,1560.7954513896173,7,15,-1.0997490882873535,3.6944077014923096,16.70080581794237,16.045338299495025,66.31557532350219,58.97076499552031,-0.0001295089750783,0.0875260159373283,0,0,0
5569,187185.7771677881,2010-08-21 18:21:14,1590.8107637234336,7,15,-1.099929690361023,3.690684318542481,16.70080581794237,16.054508128963516,66.31557532350219,59.00462515751081,-6.47544875391759e-05,0.0875260159373283,0,0,0
5570,187215.7924475708,2010-08-21 18:21:44,1620.8260434810604,7,15,-1.099929690361023,3.6867990493774414,16.70080581794237,16.063677915581682,66.31557532350219,59.03844982476048,-0.0001295089750783,0.0875260159373283,0,0,0
5571,187245.8077808117,2010-08-21 18:22:14,1650.8413767320087,7,15,-1.0997490882873535,3.6832375526428223,16.70080581794237,16.072847720744424,66.31557532350219,59.07224015351604,-6.47544875391759e-05,0.0875260159373283,0,0,0
5572,187275.8230951655,2010-08-21 18:22:44,1680.85669120616,7,15,-1.1001102924346924,3.679352283477783,16.70080581794237,16.08201748055951,66.31557532350219,59.10599631514152,-9.713172767078504e-05,0.0875260159373283,0,0,0
5573,187305.83837274776,2010-08-21 18:23:14,1710.8719686680647,7,15,-1.099929690361023,3.675952672958374,16.70080581794237,16.09118724115937,66.31557532350219,59.139719222934346,-9.713172767078504e-05,0.0875260159373283,0,0,0
5574,187335.8536767458,2010-08-21 18:23:44,1740.887272661094,7,15,-1.0997490882873535,3.672229528427124,16.70080581794237,16.100357014523247,66.31557532350219,59.17340953645263,-0.0001294612884521,0.0875260159373283,0,0,0
5575,187365.8691084872,2010-08-21 18:24:14,1770.9027044075233,7,15,-1.099929690361023,3.668668031692505,16.70080581794237,16.1095268576153,66.31557532350219,59.20706818024508,-0.0001295089750783,0.0875260159373283,0,0,0
5576,187395.8842729224,2010-08-21 18:24:44,1800.9178688577686,7,15,-1.0997490882873535,3.6654303073883057,16.70080581794237,16.118696545095087,66.31557532350219,59.24069488664605,-6.47544875391759e-05,0.0875260159373283,0,0,0
5577,187425.8996788395,2010-08-21 18:25:14,1830.933274759786,7,15,-1.0997490882873535,3.6621925830841056,16.70080581794237,16.12786636792675,66.31557532350219,59.27429155527267,-6.47544875391759e-05,0.0875260159373283,0,0,0
5578,187455.91485248265,2010-08-21 18:25:45,1860.9484483929173,7,15,-1.099929690361023,3.6589548587799072,16.70080581794237,16.137036107616947,66.31557532350219,59.30785790044608,-9.713172767078504e-05,0.0875260159373283,0,0,0
5579,187485.93039127084,2010-08-21 18:26:15,1890.963987191153,7,15,-1.0997490882873535,3.655717134475708,16.70080581794237,16.14620596866534,66.31557532350219,59.341395477716645,-9.713172767078504e-05,0.0875260159373283,0,0,0
5580,187515.94569961977,2010-08-21 18:26:45,1920.9792955400385,7,15,-1.099929690361023,3.6528031826019287,16.70080581794237,16.155375785883813,66.31557532350219,59.37490450516199,-6.47544875391759e-05,0.0875260159373283,0,0,0
5581,187545.9607628728,2010-08-21 18:27:15,1950.9943587880564,7,15,-1.0997490882873535,3.64972734451294,16.70080581794237,16.1645454613849,66.31557532350219,59.40838527759077,-9.713172767078504e-05,0.0875260159373283,0,0,0
5582,187575.97605561776,2010-08-21 18:27:45,1981.009651553101,7,15,-1.0997490882873535,3.64681339263916,16.70080581794237,16.17371517916587,66.31557532350219,59.441839240707104,-9.713172767078504e-05,0.0875260159373283,0,0,0
5583,187605.99150846177,2010-08-21 18:28:15,2011.0251043921005,7,15,-1.0997490882873535,3.644061326980591,16.70080581794237,16.182884909437963,66.31557532350219,59.47526636312306,-6.47544875391759e-05,0.0875260159373283,0,0,0
5584,187636.0065855192,2010-08-21 18:28:45,2041.040181439511,7,15,-1.0997490882873535,3.6413092613220215,16.70080581794237,16.192054545557262,66.31557532350219,59.50866776310513,-3.237724376958795e-05,0.0875260159373283,0,0,0
5585,187666.0219520531,2010-08-21 18:29:15,2071.055547988448,7,15,-1.099929690361023,3.638395309448242,16.70080581794237,16.201224037098285,66.31557532350219,59.54204362627784,-9.713172767078504e-05,0.0875260159373283,0,0,0
5586,187696.0372655448,2010-08-21 18:29:45,2101.0708614801506,7,15,-1.0997490882873535,3.6359670162200928,16.70080581794237,16.210393444871947,66.31557532350219,59.575394858999545,-6.47544875391759e-05,0.0875260159373283,0,0,0
5587,187726.05260774808,2010-08-21 18:30:15,2131.0862036583485,7,15,-1.099929690361023,3.633214950561523,16.70080581794237,16.21956291746977,66.31557532350219,59.60872270632171,-9.713172767078504e-05,0.0875260159373283,0,0,0
5588,187756.06789022245,2010-08-21 18:30:45,2161.1014861628214,7,15,-1.099568486213684,3.630786657333374,16.70080581794237,16.228731817107683,66.31557532350219,59.64202531743626,-6.47544875391759e-05,0.0875260159373283,0,0,0
5589,187786.08314186,2010-08-21 18:31:15,2191.116737800364,7,15,-1.0997490882873535,3.6285202503204346,16.70080581794237,16.23790072998069,66.31557532350219,59.67530513084881,-3.237724376958795e-05,0.0875260159373283,0,0,0
5590,187816.0984475172,2010-08-21 18:31:45,2221.132043432478,7,15,-1.0997490882873535,3.625768184661865,16.70080581794237,16.247069779719894,66.31557532350219,59.708562830058376,-9.713172767078504e-05,0.0875260159373283,0,0,0
5591,187846.1138656597,2010-08-21 18:32:15,2251.1474615750026,7,15,-1.0997490882873535,3.623501777648926,16.70080581794237,16.256238728208142,66.31557532350219,59.74179785441894,-6.47544875391759e-05,0.0875260159373283,0,0,0
5592,187876.12902677164,2010-08-21 18:32:45,2281.162622686927,7,15,-1.099929690361023,3.6209115982055664,16.70080581794237,16.26540759978684,66.31557532350219,59.77501041960726,-6.47544875391759e-05,0.0875260159373283,0,0,0
5593,187906.1443265041,2010-08-21 18:33:15,2311.1779224193374,7,15,-1.0997490882873535,3.618645191192627,16.70080581794237,16.27457653434721,66.31557532350219,59.80820100983422,-6.47544875391759e-05,0.0875260159373283,0,0,0
5594,187936.15964277767,2010-08-21 18:33:45,2341.1932386929734,7,15,-1.0997490882873535,3.616378784179688,16.70080581794237,16.2837459663389,66.31557532350219,59.84137111225659,-3.237724376958795e-05,0.0875260159373283,0,0,0
5595,187966.17494874063,2010-08-21 18:34:15,2371.208544650899,7,15,-1.0997490882873535,3.613788604736328,16.70080581794237,16.292915549322867,66.31557532350219,59.8745193422482,-9.713172767078504e-05,0.0875260159373283,0,0,0
5596,187996.1902293955,2010-08-21 18:34:45,2401.2238253258124,7,15,-1.099568486213684,3.6113603115081783,16.70080581794237,16.302085174331665,66.31557532350219,59.90764512550954,-3.237724376958795e-05,0.0875260159373283,0,0,0
5597,188026.20553393487,2010-08-21 18:35:15,2431.239129870215,7,15,-1.099929690361023,3.6087701320648193,16.70080581794237,16.31125480215826,66.31557532350219,59.94074805344059,-6.47544875391759e-05,0.0875260159373283,0,0,0
5598,188056.2208539879,2010-08-21 18:35:45,2461.2544499032206,7,15,-1.099568486213684,3.60634183883667,16.70080581794237,16.320424380666402,66.31557532350219,59.97382758447833,-6.47544875391759e-05,0.0875260159373283,0,0,0
5599,188086.2361939105,2010-08-21 18:36:15,2491.2697898207844,7,15,-1.099568486213684,3.6035897731781006,16.70080581794237,16.329593990272553,66.31557532350219,60.006883514555646,-9.713172767078504e-05,0.0875260159373283,0,0,0
5600,188116.25149031464,2010-08-21 18:36:45,2521.2850862499613,7,15,-1.0997490882873535,3.600999593734741,16.70080581794237,16.338763572825478,66.31557532350219,60.03991538300945,-9.713172767078504e-05,0.0875260159373283,0,0,0
5601,188146.26681926489,2010-08-21 18:37:15,2551.300415175129,7,15,-1.099929690361023,3.598247528076172,16.70080581794237,16.347933124308376,66.31557532350219,60.07292266709051,-6.47544875391759e-05,0.0875260159373283,0,0,0
5602,188176.2820635441,2010-08-21 18:37:45,2581.315659459345,7,15,-1.099929690361023,3.5953335762023926,16.70080581794237,16.35710277205008,66.31557532350219,60.10590496570264,-0.0001295089750783,0.0875260159373283,0,0,0
5603,188206.29734415884,2010-08-21 18:38:15,2611.330940074108,7,15,-1.099568486213684,3.592743396759033,16.70080581794237,16.36627246926677,66.31557532350219,60.13886165998686,-6.47544875391759e-05,0.0875260159373283,0,0,0
5604,188236.31267427697,2010-08-21 18:38:45,2641.346270192248,7,15,-1.0997490882873535,3.589829683303833,16.70080581794237,16.375442176255834,66.31557532350219,60.17179196827573,-6.47544875391759e-05,0.0875260159373283,0,0,0
5605,188266.32793637057,2010-08-21 18:39:15,2671.3615323008885,7,15,-1.099929690361023,3.586753845214844,16.70080581794237,16.384611768742417,66.31557532350219,60.20469466479465,-6.47544875391759e-05,0.0875260159373283,0,0,0
5606,188296.3432398624,2010-08-21 18:39:45,2701.3768357776307,7,15,-1.0997490882873535,3.5836780071258545,16.70080581794237,16.393781454803378,66.31557532350219,60.23756972140693,-6.47544875391759e-05,0.0875260159373283,0,0,0
5607,188326.35855813595,2010-08-21 18:40:15,2731.392154071301,7,15,-1.0997490882873535,3.580602169036865,16.70080581794237,16.402951123552185,66.31557532350219,60.27041602459457,-3.237724376958795e-05,0.0875260159373283,0,0,0
5608,188356.37385368292,2010-08-21 18:40:45,2761.40744957818,7,15,-1.0997490882873535,3.577202558517456,16.70080581794237,16.41212079882545,66.31557532350219,60.3032323779632,-9.713172767078504e-05,0.0875260159373283,0,0,0
5609,188386.3892796199,2010-08-21 18:41:15,2791.4228755301674,7,15,-1.0997490882873535,3.573641061782837,16.70080581794237,16.42129052504871,66.31557532350219,60.33601792295826,-6.47544875391759e-05,0.0875260159373283,0,0,0
5610,188416.40444109272,2010-08-21 18:41:45,2821.438037023042,7,15,-1.0997490882873535,3.5700795650482178,16.70080581794237,16.43046010529691,66.31557532350219,60.36877110251644,-9.713172767078504e-05,0.0875260159373283,0,0,0
5611,188446.4198508694,2010-08-21 18:42:15,2851.453446834804,7,15,-1.0997490882873535,3.566518068313598,16.70080581794237,16.439629825540003,66.31557532350219,60.40149153118171,-6.47544875391759e-05,0.0875260159373283,0,0,0
5612,188476.43516887733,2010-08-21 18:42:45,2881.468764782612,7,15,-1.099929690361023,3.56263279914856,16.70080581794237,16.448799462628653,66.31557532350219,60.43417707786708,-9.713172767078504e-05,0.0875260159373283,0,0,0
5613,188506.450349543,2010-08-21 18:43:15,2911.483945483358,7,15,-1.0997490882873535,3.5587475299835205,16.70080581794237,16.45796906127306,66.31557532350219,60.46682718188261,-9.713172767078504e-05,0.0875260159373283,0,0,0
5614,188536.46565402223,2010-08-21 18:43:45,2941.4992499375367,7,15,-1.099929690361023,3.554538488388061,16.70080581794237,16.46713874076995,66.31557532350219,60.499440034911366,-0.0001295089750783,0.0875260159373283,0,0,0
5615,188566.48096072703,2010-08-21 18:44:15,2971.514556642324,7,15,-1.099929690361023,3.5500056743621826,16.70080581794237,16.47630833541604,66.31557532350219,60.53201365700431,-0.0001295089750783,0.0875260159373283,0,0,0
5616,188596.4962710759,2010-08-21 18:44:45,3001.5298669911936,7,15,-1.0997490882873535,3.5456347465515137,16.70080581794237,16.48547801071032,66.31557532350219,60.56454700285577,-0.0001295089750783,0.0875260159373283,0,0,0
5617,188626.5115873345,2010-08-21 18:45:15,3031.5451832447798,7,15,-1.0997490882873535,3.5411019325256348,16.70080581794237,16.49464763742431,66.31557532350219,60.59703830824689,-0.0001295089750783,0.0875260159373283,0,0,0
5618,188656.526881082,2010-08-21 18:45:45,3061.5604769972856,7,15,-1.099929690361023,3.536083459854126,16.70080581794237,16.503817299000218,66.31557532350219,60.62948674034451,-0.0001942634553415,0.0875260159373283,0,0,0
5619,188686.5421806039,2010-08-21 18:46:15,3091.5757765141584,7,15,-1.0997490882873535,3.531388759613037,16.70080581794237,16.512986988813044,66.31557532350219,60.66189103298846,-0.0001295089750783,0.0875260159373283,0,0,0
5620,188716.55772430435,2010-08-21 18:46:45,3121.5913202246365,7,15,-1.099929690361023,3.5263702869415283,16.70080581794237,16.522156728456647,66.31557532350219,60.694250264640445,-0.0001618862152099,0.0875260159373283,0,0,0
5621,188746.5727615375,2010-08-21 18:47:15,3151.6063574528057,7,15,-1.0997490882873535,3.5211899280548096,16.70080581794237,16.531326264717134,66.31557532350219,60.72656181505186,-0.0001295089750783,0.0875260159373283,0,0,0
5622,188776.58805975612,2010-08-21 18:47:45,3181.621655671443,7,15,-1.0997490882873535,3.515685796737671,16.70080581794237,16.54049596827887,66.31557532350219,60.75882508223423,-0.0001295089750783,0.0875260159373283,0,0,0
5623,188806.60337640072,2010-08-21 18:48:15,3211.636972326028,7,15,-1.099929690361023,3.509696245193481,16.70080581794237,16.549665621215205,66.31557532350219,60.79103628785524,-0.0001942634553415,0.0875260159373283,0,0,0
5624,188836.61866590765,2010-08-21 18:48:45,3241.652261817916,7,15,-1.0997490882873535,3.503382682800293,16.70080581794237,16.55883532744939,66.31557532350219,60.82319189780408,-0.0002266406954731,0.0875260159373283,0,0,0
5625,188866.63398198577,2010-08-21 18:49:15,3271.6675778960644,7,15,-1.0997490882873535,3.4965834617614746,16.70080581794237,16.568005080715626,66.31557532350219,60.85528647897177,-0.0001942634553415,0.0875260159373283,0,0,0
5626,188896.64950519017,2010-08-21 18:49:45,3301.6831011305094,7,15,-1.1001102924346924,3.488489151000977,16.70080581794237,16.577174829523802,66.31557532350219,60.88731268723414,-0.0002590179501567,0.0875260159373283,0,0,0
5627,188926.66476958952,2010-08-21 18:50:15,3331.6983655047966,7,15,-1.0997490882873535,3.479261636734009,16.70080581794237,16.58634448087466,66.31557532350219,60.919260105565456,-0.0002266406954731,0.0875260159373283,0,0,0
5628,188956.6798750427,2010-08-21 18:50:45,3361.7134709529905,7,15,-1.099929690361023,3.4684152603149414,16.70080581794237,16.595514056804937,66.31557532350219,60.95111475049325,-0.0002913951757363,0.0875260159373283,0,0,0
5629,188986.69517024385,2010-08-21 18:51:15,3391.7287661541072,7,15,-1.099929690361023,3.4544930458068848,16.70080581794237,16.604683729639174,66.31557532350219,60.98285770937613,-0.0004532813909463,0.0875260159373283,0,0,0
5630,189016.7105125624,2010-08-21 18:51:45,3421.744108472655,7,15,-1.0997490882873535,3.436847448348999,16.70080581794237,16.613853414655225,66.31557532350219,61.014457617298014,-0.0004532813909463,0.0875260159373283,0,0,0
5631,189046.72856070468,2010-08-21 18:52:15,3451.7621566149483,7,15,-1.099568486213684,3.412079095840454,16.70080581794237,16.623023855119055,66.31557532350219,61.045866867203024,-0.0007446765666827,0.0875260159373283,0,0,0
5632,189076.7411075761,2010-08-21 18:52:45,3481.774703511444,7,15,-1.099929690361023,3.3763022422790527,16.70080581794237,16.632192655103214,66.31557532350219,61.07699704161884,-0.0011008263099938,0.0875260159373283,0,0,0
5633,189106.75637946912,2010-08-21 18:53:15,3511.7899753794068,7,15,-1.0997490882873535,3.3236894607543945,16.70080581794237,16.64136233909809,66.31557532350219,61.10773089663411,-0.0016512393485754,0.0875260159373283,0,0,0
5634,189136.771674976,2010-08-21 18:53:45,3541.8052708862856,7,15,-1.0997490882873535,3.246955633163452,16.70080581794237,16.650531985555943,66.31557532350219,61.137879439683445,-0.0024282932281494,0.0875260159373283,0,0,0
5635,189166.7870030791,2010-08-21 18:54:15,3571.820598989404,7,15,-1.0997490882873535,3.1294264793396,16.70080581794237,16.659701650909327,66.31557532350219,61.167157286773424,-0.0038205147720873,0.0875260159373283,0,0,0
5636,189193.9585627814,2010-08-21 18:54:43,3598.9921586916626,7,15,-1.0997490882873535,2.9290120601654053,16.70080581794237,16.668002545938272,66.31557532350219,61.19242381449272,-0.0087418081238865,0.0875260159373283,0,0,0
5637,189206.1146897752,2010-08-21 18:54:55,3611.1482856854777,7,15,-1.0997490882873535,2.728597402572632,16.70080581794237,16.671716228381946,66.31557532350219,61.20296074057752,-0.0153791429474949,0.0875260159373283,0,0,0
5638,189207.5209232768,2010-08-21 18:54:56,3612.5545191820383,7,15,-1.099929690361023,2.699943780899048,16.70080581794237,16.672145836787124,66.31557532350219,61.204126808620266,-0.0158648006618022,0.0875260159373283,0,0,0
5639,189267.5319444747,2010-08-21 18:55:56,60.01498475315402,8,15,0.0,3.310091018676758,16.70080581794237,16.672145836787124,66.31557532350219,61.204126808620266,0.0012950897216796,0.0875260159373283,0,0,0
5640,189267.71613245667,2010-08-21 18:55:57,0.187501075372467,9,15,-1.9243103452026844e-05,3.310091018676758,16.70080581794237,16.672145837789376,66.31557532350219,61.204126811937805,0.0,0.0850178673863411,0,0,0
5641,189272.54422001645,2010-08-21 18:56:01,5.015588640149296,9,15,0.0007031940040178,3.317861557006836,16.700806710991706,16.67214583795659,66.31557828352487,61.20412681249132,0.0011008263099938,0.0850178673863411,0,0,0
