Data_Point,Test_Time(s),Date_Time,Step_Time(s),Step_Index,Cycle_Index,Current(A),Voltage(V),Charge_Capacity(Ah),Discharge_Capacity(Ah),Charge_Energy(Wh),Discharge_Energy(Wh),dV/dt(V/s),Internal_Resistance(Ohm),Is_FC_Data,AC_Impedance(Ohm),ACI_Phase_Angle(Deg)
16620,555690.0996785944,2010-08-26 00:43:36,30.0155543319504,1,46,0.0,3.4154787063598637,49.05435303477396,48.99490525452595,194.80644060636604,179.97880630882923,0.0006475448608398,0.0842843055725097,0,0,0
16621,555720.1148322126,2010-08-26 00:44:06,60.03070792513649,1,46,0.0,3.4357142448425293,49.05435303477396,48.99490525452595,194.80644060636604,179.97880630882923,0.0004209041653666,0.0842843055725097,0,0,0
16622,555750.1298305538,2010-08-26 00:44:36,90.04570628142449,1,46,0.0,3.4506077766418457,49.05435303477396,48.99490525452595,194.80644060636604,179.97880630882923,0.0003885269106831,0.0842843055725097,0,0,0
16623,555780.0983565816,2010-08-26 00:45:06,120.01423230937104,1,46,0.0,3.461939811706543,49.05435303477396,48.99490525452595,194.80644060636604,179.97880630882923,0.0002913951757363,0.0842843055725097,0,0,0
16624,555810.1159066977,2010-08-26 00:45:36,30.01547463331688,2,46,0.5501165986061096,3.5909628868103027,49.0589400486355,48.99490525452595,194.8227760464498,179.97880630882923,0.0013598442310467,0.0842843055725097,0,0,0
16625,555840.130926738,2010-08-26 00:46:06,60.03049469369815,2,46,0.5501165986061096,3.6320817470550537,49.06352697313277,48.99490525452595,194.83934775651505,179.97880630882923,0.0009389400365762,0.0842843055725097,0,0,0
16626,555870.1461511527,2010-08-26 00:46:36,90.04571907831827,2,46,0.550297200679779,3.663325786590576,49.06811391897977,48.99490525452595,194.8560826315929,179.97880630882923,0.0007770538213662,0.0842843055725097,0,0,0
16627,555900.1613983694,2010-08-26 00:47:06,120.06096632491747,2,46,0.5499359965324402,3.688417911529541,49.07270079276592,48.99490525452595,194.87294529607087,179.97880630882923,0.0006151676061563,0.0842843055725097,0,0,0
16628,555930.1766421421,2010-08-26 00:47:36,150.0762100978593,2,46,0.5499359965324402,3.709139347076416,49.07728766813787,48.99490525452595,194.889913007842,179.97880630882923,0.0004856586456298,0.0842843055725097,0,0,0
16629,555960.192154324,2010-08-26 00:48:06,180.09172227975878,2,46,0.5501165986061096,3.726299285888672,49.08187458981055,48.99490525452595,194.9069675064964,179.97880630882923,0.0004209041653666,0.0842843055725097,0,0,0
16630,555990.2071341291,2010-08-26 00:48:36,210.1067020647614,2,46,0.5501165986061096,3.739088296890259,49.08646140750472,48.99490525452595,194.92409009431225,179.97880630882923,0.0002913951757363,0.0842843055725097,0,0,0
16631,556020.2223699072,2010-08-26 00:49:06,240.12193784277736,2,46,0.550297200679779,3.7475063800811768,49.0910483246675,48.99490525452595,194.94126210174403,179.97880630882923,0.0001618862152099,0.0842843055725097,0,0,0
16632,556050.2376151237,2010-08-26 00:49:36,270.13718305430456,2,46,0.550297200679779,3.7525248527526855,49.095635201378265,48.99490525452595,194.95846402534252,179.97880630882923,9.713172767078504e-05,0.0842843055725097,0,0,0
16633,556080.252871889,2010-08-26 00:50:06,300.1524398196274,2,46,0.5499359965324402,3.7557623386383057,49.10022212254007,48.99490525452595,194.9756849578488,179.97880630882923,3.237724376958795e-05,0.0842843055725097,0,0,0
16634,556110.2681159677,2010-08-26 00:50:36,330.16768389833123,2,46,0.5499359965324402,3.759000062942505,49.10480895968105,48.99490525452595,194.99292016277244,179.97880630882923,9.713172767078504e-05,0.0842843055725097,0,0,0
16635,556140.2833801615,2010-08-26 00:51:06,360.1829480921682,2,46,0.550297200679779,3.761914014816284,49.10939585342913,48.99490525452595,195.0101688121168,179.97880630882923,9.713172767078504e-05,0.0842843055725097,0,0,0
16636,556170.2986211075,2010-08-26 00:51:36,390.1981890430766,2,46,0.5499359965324402,3.764504194259644,49.11398274717613,48.99490525452595,195.02743028909148,179.97880630882923,6.47544875391759e-05,0.0842843055725097,0,0,0
16637,556200.3179926431,2010-08-26 00:52:06,420.2175606688978,2,46,0.5501165986061096,3.767418146133423,49.11857032493487,48.99490525452595,195.0447070218112,179.97880630882923,6.47544875391759e-05,0.0842843055725097,0,0,0
16638,556230.3291491594,2010-08-26 00:52:36,450.2287172051882,2,46,0.5501165986061096,3.770170211791992,49.12315655324007,48.99490525452595,195.06199130774047,179.97880630882923,6.47544875391759e-05,0.0842843055725097,0,0,0
16639,556260.3443236597,2010-08-26 00:53:06,480.2438915952065,2,46,0.5501165986061096,3.773084163665772,49.12774348093063,48.99490525452595,195.07929075548697,179.97880630882923,0.0001295089750783,0.0842843055725097,0,0,0
16640,556290.3595714977,2010-08-26 00:53:36,510.2591394332798,2,46,0.5499359965324402,3.775674343109131,49.13233033297087,48.99490525452595,195.0966024944108,179.97880630882923,0.0001295089750783,0.0842843055725097,0,0,0
16641,556320.3748317767,2010-08-26 00:54:06,540.274399702335,2,46,0.5501165986061096,3.77826452255249,49.13691719351995,48.99490525452595,195.1139266568846,179.97880630882923,6.47544875391759e-05,0.0842843055725097,0,0,0
16642,556350.3901963459,2010-08-26 00:54:36,570.2897642763503,2,46,0.5501165986061096,3.78101658821106,49.141504110987775,48.99490525452595,195.1312634811889,179.97880630882923,9.713172767078504e-05,0.0842843055725097,0,0,0
16643,556380.4054472414,2010-08-26 00:55:06,600.3050151770567,2,46,0.5499359965324402,3.783606767654419,49.1460910019417,48.99490525452595,195.14861250007533,179.97880630882923,6.47544875391759e-05,0.0842843055725097,0,0,0
16644,556410.4205373916,2010-08-26 00:55:36,630.320105327123,2,46,0.5501165986061096,3.7861969470977774,49.15067786508533,48.99490525452595,195.16597391433052,179.97880630882923,3.237724376958795e-05,0.0842843055725097,0,0,0
16645,556440.4358026931,2010-08-26 00:56:06,660.3353706237084,2,46,0.5501165986061096,3.789272785186768,49.15526482396755,48.99490525452595,195.18334824539377,179.97880630882923,9.713172767078504e-05,0.0842843055725097,0,0,0
16646,556470.4510244211,2010-08-26 00:56:36,690.3505923517073,2,46,0.5501165986061096,3.792024850845337,49.1598517689438,48.99490525452595,195.2007353484319,179.97880630882923,9.713172767078504e-05,0.0842843055725097,0,0,0
16647,556500.466267377,2010-08-26 00:57:06,720.3658353076128,2,46,0.5501165986061096,3.794938802719116,49.16443866802485,48.99490525452595,195.2181354296985,179.97880630882923,6.47544875391759e-05,0.0842843055725097,0,0,0
16648,556530.4815117364,2010-08-26 00:57:36,750.3810796670164,2,46,0.550297200679779,3.7980146408081055,49.16902557287226,48.99490525452595,195.23554915917424,179.97880630882923,9.713172767078504e-05,0.0842843055725097,0,0,0
16649,556560.4967686471,2010-08-26 00:58:06,780.396336582714,2,46,0.5499359965324402,3.8009285926818848,49.17361250242892,48.99490525452595,195.25297713027803,179.97880630882923,9.713172767078504e-05,0.0842843055725097,0,0,0
16650,556590.512023252,2010-08-26 00:58:36,810.4115911826399,2,46,0.5499359965324402,3.804166316986084,49.17819950347881,48.99490525452595,195.27041997678148,179.97880630882923,6.47544875391759e-05,0.0842843055725097,0,0,0
16651,556620.5273699365,2010-08-26 00:59:06,840.4269378871187,2,46,0.5501165986061096,3.807565927505493,49.18278645357516,48.99490525452595,195.2878777827551,179.97880630882923,9.713172767078504e-05,0.0842843055725097,0,0,0
16652,556650.5424832844,2010-08-26 00:59:36,870.4420512199636,2,46,0.5501165986061096,3.811127424240112,49.18737340144049,48.99490525452595,195.30535113857488,179.97880630882923,9.713172767078504e-05,0.0842843055725097,0,0,0
16653,556680.5577218343,2010-08-26 01:00:06,900.4572897648756,2,46,0.550297200679779,3.814688920974731,49.19196031899706,48.99490525452595,195.32284028369585,179.97880630882923,9.713172767078504e-05,0.0842843055725097,0,0,0
16654,556710.5729471813,2010-08-26 01:00:36,930.4725151169068,2,46,0.550297200679779,3.818250417709351,49.196547139436106,48.99490525452595,195.3403451079155,179.97880630882923,0.0001295089750783,0.0842843055725097,0,0,0
16655,556740.5881961723,2010-08-26 01:01:06,960.4877641178784,2,46,0.5499359965324402,3.82132625579834,49.20113398952637,48.99490525452595,195.3578658683132,179.97880630882923,6.47544875391759e-05,0.0842843055725097,0,0,0
16656,556770.6036813117,2010-08-26 01:01:36,990.5032492473548,2,46,0.5501165986061096,3.824725866317749,49.20572088539554,48.99490525452595,195.37540239665336,179.97880630882923,3.237724376958795e-05,0.0842843055725097,0,0,0
16657,556800.6188326743,2010-08-26 01:02:06,1020.5184006049692,2,46,0.5501165986061096,3.828287363052368,49.21030777842351,48.99490525452595,195.3929542530179,179.97880630882923,9.713172767078504e-05,0.0842843055725097,0,0,0
16658,556830.633929446,2010-08-26 01:02:36,1050.5334973765384,2,46,0.5501165986061096,3.831525087356568,49.21489462390315,48.99490525452595,195.4105209796541,179.97880630882923,0.0001295089750783,0.0842843055725097,0,0,0
16659,556860.6491742264,2010-08-26 01:03:06,1080.5487421569912,2,46,0.550297200679779,3.834762573242188,49.219481548826,48.99490525452595,195.4281027142951,179.97880630882923,9.713172767078504e-05,0.0842843055725097,0,0,0
16660,556890.6644176384,2010-08-26 01:03:36,1110.5639855690335,2,46,0.5501165986061096,3.837676525115967,49.22406842936459,48.99490525452595,195.4456987773604,179.97880630882923,6.47544875391759e-05,0.0842843055725097,0,0,0
16661,556920.6796789751,2010-08-26 01:04:06,1140.5792469057496,2,46,0.550297200679779,3.840752363204956,49.2286553242006,48.99490525452595,195.4633090800856,179.97880630882923,9.713172767078504e-05,0.0842843055725097,0,0,0
16662,556950.6949292592,2010-08-26 01:04:36,1170.5944971899194,2,46,0.550297200679779,3.843828201293945,49.23324225389214,48.99490525452595,195.48093347745765,179.97880630882923,9.713172767078504e-05,0.0842843055725097,0,0,0
16663,556980.7101567968,2010-08-26 01:05:06,1200.609724722385,2,46,0.5501165986061096,3.8467421531677246,49.23782918415334,48.99490525452595,195.49857144371845,179.97880630882923,6.47544875391759e-05,0.0842843055725097,0,0,0
16664,557010.7254236122,2010-08-26 01:05:36,1230.6249915427682,2,46,0.5501165986061096,3.849494218826294,49.2424160973364,48.99490525452595,195.51622248902905,179.97880630882923,6.47544875391759e-05,0.0842843055725097,0,0,0
16665,557040.7409443604,2010-08-26 01:06:06,1260.64051231608,2,46,0.5501165986061096,3.8522462844848633,49.24700313113325,48.99490525452595,195.5338866884354,179.97880630882923,9.713172767078504e-05,0.0842843055725097,0,0,0
16666,557070.7558967723,2010-08-26 01:06:36,1290.655464702798,2,46,0.5501165986061096,3.854836463928223,49.25158999730094,48.99490525452595,195.5515621523271,179.97880630882923,6.47544875391759e-05,0.0842843055725097,0,0,0
16667,557100.7711495475,2010-08-26 01:07:06,1320.6707174882013,2,46,0.5501165986061096,3.857264757156372,49.256176866992064,48.99490525452595,195.56924897906737,179.97880630882923,6.47544875391759e-05,0.0842843055725097,0,0,0
16668,557130.7864785029,2010-08-26 01:07:36,1350.686046518631,2,46,0.5501165986061096,3.8593692779541016,49.260763743874605,48.99490525452595,195.58694638868863,179.97880630882923,6.47544875391759e-05,0.0842843055725097,0,0,0
16669,557160.8016418954,2010-08-26 01:08:06,1380.7012098210153,2,46,0.5501165986061096,3.861473798751831,49.26535064079592,48.99490525452595,195.60465366579865,179.97880630882923,6.47544875391759e-05,0.0842843055725097,0,0,0
16670,557190.8168720795,2010-08-26 01:08:36,1410.716440010102,2,46,0.5501165986061096,3.8632545471191406,49.26993752423136,48.99490525452595,195.6223699590169,179.97880630882923,3.237724376958795e-05,0.0842843055725097,0,0,0
16671,557220.8322609792,2010-08-26 01:09:06,1440.7318289097443,2,46,0.5499359965324402,3.86503529548645,49.27452447669592,48.99490525452595,195.6400947255448,179.97880630882923,3.237724376958795e-05,0.0842843055725097,0,0,0
16672,557250.8473611992,2010-08-26 01:09:36,1470.7469291349207,2,46,0.5501165986061096,3.86649227142334,49.2791113172876,48.99490525452595,195.65782668101224,179.97880630882923,0.0,0.0842843055725097,0,0,0
16673,557280.8626244758,2010-08-26 01:10:06,1500.7621924064592,2,46,0.550297200679779,3.8682730197906494,49.28369831069893,48.99490525452595,195.67556625329712,179.97880630882923,3.237724376958795e-05,0.0842843055725097,0,0,0
16674,557310.8779760073,2010-08-26 01:10:36,1530.777543932956,2,46,0.5499359965324402,3.869244337081909,49.28828523627857,48.99490525452595,195.69331202356403,179.97880630882923,0.0,0.0842843055725097,0,0,0
16675,557340.8930942524,2010-08-26 01:11:06,1560.7926622081186,2,46,0.5501165986061096,3.870539426803589,49.29287208020212,48.99490525452595,195.7110634791499,179.97880630882923,3.237724376958795e-05,0.0842843055725097,0,0,0
16676,557370.9084672675,2010-08-26 01:11:36,1590.8080352031216,2,46,0.550297200679779,3.8719964027404794,49.297458991236624,48.99490525452595,195.7288208206789,179.97880630882923,6.47544875391759e-05,0.0842843055725097,0,0,0
16677,557400.923606946,2010-08-26 01:12:06,1620.8231748766157,2,46,0.5501165986061096,3.8729677200317374,49.302045919911485,48.99490525452595,195.74658362281536,179.97880630882923,3.237724376958795e-05,0.0842843055725097,0,0,0
16678,557430.9389767682,2010-08-26 01:12:37,1650.8385447037233,2,46,0.5501165986061096,3.874100923538208,49.30663294385451,48.99490525452595,195.76435197377032,179.97880630882923,0.0,0.0842843055725097,0,0,0
16679,557460.9542697587,2010-08-26 01:13:07,1680.8538376993429,2,46,0.5501165986061096,3.875072240829468,49.311219838968434,48.99490525452595,195.78212455391383,179.97880630882923,3.237724376958795e-05,0.0842843055725097,0,0,0
16680,557490.9694867549,2010-08-26 01:13:37,1710.869054685524,2,46,0.5499359965324402,3.8762054443359375,49.31580668651522,48.99490525452595,195.79990186982604,179.97880630882923,6.47544875391759e-05,0.0842843055725097,0,0,0
16681,557520.9845942734,2010-08-26 01:14:07,1740.8841622088898,2,46,0.5501165986061096,3.877176761627197,49.32039351218746,48.99490525452595,195.8176838405577,179.97880630882923,0.0,0.0842843055725097,0,0,0
16682,557550.9998236103,2010-08-26 01:14:37,1770.8993915458527,2,46,0.550297200679779,3.878309965133667,49.32498034111446,48.99490525452595,195.83547043523123,179.97880630882923,6.47544875391759e-05,0.0842843055725097,0,0,0
16683,557581.0150594986,2010-08-26 01:15:07,1800.9146274291309,2,46,0.550297200679779,3.879281282424927,49.32956727458885,48.99490525452595,195.85326211933733,179.97880630882923,3.237724376958795e-05,0.0842843055725097,0,0,0
16684,557611.0303062039,2010-08-26 01:15:37,1830.9298741343807,2,46,0.5501165986061096,3.8802525997161865,49.33415422518021,48.99490525452595,195.8710583417274,179.97880630882923,3.237724376958795e-05,0.0842843055725097,0,0,0
16685,557641.0455778261,2010-08-26 01:16:07,1860.945145756732,2,46,0.5501165986061096,3.881385803222656,49.33874110649472,48.99490525452595,195.8888588746049,179.97880630882923,6.47544875391759e-05,0.0842843055725097,0,0,0
16686,557671.0607995843,2010-08-26 01:16:37,1890.9603675198184,2,46,0.5501165986061096,3.882195234298706,49.34332800604163,48.99490525452595,195.9066639858828,179.97880630882923,3.237724376958795e-05,0.0842843055725097,0,0,0
16687,557701.0761654766,2010-08-26 01:17:07,1920.975733412119,2,46,0.5501165986061096,3.883166551589966,49.3479149009706,48.99490525452595,195.924473653622,179.97880630882923,0.0,0.0842843055725097,0,0,0
16688,557731.0914178208,2010-08-26 01:17:37,1950.990985741386,2,46,0.550297200679779,3.884299755096436,49.35250189002852,48.99490525452595,195.9422882589379,179.97880630882923,3.237724376958795e-05,0.0842843055725097,0,0,0
16689,557761.1065569379,2010-08-26 01:18:07,1981.0061248685183,2,46,0.5501165986061096,3.8852710723876953,49.357088859801,48.99490525452595,195.9601071850564,179.97880630882923,6.47544875391759e-05,0.0842843055725097,0,0,0
16690,557791.1219053667,2010-08-26 01:18:37,2011.0214732972947,2,46,0.5501165986061096,3.886242389678955,49.36167575362215,48.99490525452595,195.9779304217518,179.97880630882923,0.0,0.0842843055725097,0,0,0
16691,557821.1370151656,2010-08-26 01:19:07,2041.0365831213949,2,46,0.5501165986061096,3.887213706970215,49.366262636475774,48.99490525452595,195.99575823636155,179.97880630882923,3.237724376958795e-05,0.0842843055725097,0,0,0
16692,557851.1523029634,2010-08-26 01:19:37,2071.051870893997,2,46,0.550297200679779,3.888346910476685,49.370849520450925,48.99490525452595,196.01359064549231,179.97880630882923,3.237724376958795e-05,0.0842843055725097,0,0,0
16693,557881.1677187751,2010-08-26 01:20:07,2101.0672867007006,2,46,0.5501165986061096,3.889318227767944,49.37543647404126,48.99490525452595,196.03142805422164,179.97880630882923,3.237724376958795e-05,0.0842843055725097,0,0,0
16694,557911.1827602439,2010-08-26 01:20:37,2131.082328169437,2,46,0.550297200679779,3.890289545059204,49.38002335885466,48.99490525452595,196.0492698254688,179.97880630882923,3.237724376958795e-05,0.0842843055725097,0,0,0
16695,557941.1981291185,2010-08-26 01:21:07,2161.097697044172,2,46,0.550297200679779,3.891422748565674,49.3846103043156,48.99490525452595,196.0671166527852,179.97880630882923,6.47544875391759e-05,0.0842843055725097,0,0,0
16696,557971.2132395894,2010-08-26 01:21:37,2191.1128075249085,2,46,0.5501165986061096,3.8923940658569336,49.389197148505126,48.99490525452595,196.08496789656428,179.97880630882923,3.237724376958795e-05,0.0842843055725097,0,0,0
16697,558001.2286303035,2010-08-26 01:22:07,2221.128198239073,2,46,0.5501165986061096,3.893365383148194,49.39378413986215,48.99490525452595,196.10282453788616,179.97880630882923,3.237724376958795e-05,0.0842843055725097,0,0,0
16698,558031.2437346138,2010-08-26 01:22:37,2251.1433025444185,2,46,0.5501165986061096,3.894498586654663,49.39837111296679,48.99490525452595,196.12068609192497,179.97880630882923,0.0,0.0842843055725097,0,0,0
16699,558061.2591093632,2010-08-26 01:23:07,2281.158677328882,2,46,0.550297200679779,3.895631790161133,49.40295811560783,48.99490525452595,196.1385522255448,179.97880630882923,9.713172767078504e-05,0.0842843055725097,0,0,0
16700,558091.2742406308,2010-08-26 01:23:37,2311.173808561338,2,46,0.5501165986061096,3.8967649936676025,49.407545015814286,48.99490525452595,196.15642307376424,179.97880630882923,3.237724376958795e-05,0.0842843055725097,0,0,0
16701,558121.2903599457,2010-08-26 01:24:07,2341.189927881412,2,46,0.5501165986061096,3.897574424743652,49.41213208728002,48.99490525452595,196.17429966688687,179.97880630882923,0.0,0.0842843055725097,0,0,0
16702,558151.2932543905,2010-08-26 01:24:37,2371.192822326028,2,46,0.5499359965324402,3.898707628250122,49.41671671912332,48.99490525452595,196.1921718712522,179.97880630882923,3.237724376958795e-05,0.0842843055725097,0,0,0
16703,558181.3042977396,2010-08-26 01:25:07,2401.203865675221,2,46,0.5499359965324402,3.9000027179718018,49.421302029708094,48.99490525452595,196.2100519270986,179.97880630882923,3.237724376958795e-05,0.0842843055725097,0,0,0
16704,558211.3197221578,2010-08-26 01:25:37,2431.2192900933865,2,46,0.5501165986061096,3.901135921478272,49.425888247805496,48.99490525452595,196.2279407587588,179.97880630882923,3.237724376958795e-05,0.0842843055725097,0,0,0
16705,558241.3348204982,2010-08-26 01:26:07,2461.234388443891,2,46,0.5499359965324402,3.902269124984741,49.43047416823877,48.99490525452595,196.2458337932819,179.97880630882923,0.0,0.0842843055725097,0,0,0
16706,558271.3500739653,2010-08-26 01:26:37,2491.249641895956,2,46,0.5499359965324402,3.903402328491211,49.43506015274546,48.99490525452595,196.2637324462624,179.97880630882923,3.237724376958795e-05,0.0842843055725097,0,0,0
16707,558301.3654261986,2010-08-26 01:27:07,2521.264994124202,2,46,0.5499359965324402,3.90469741821289,49.43964621680146,48.99490525452595,196.2816369400529,179.97880630882923,6.47544875391759e-05,0.0842843055725097,0,0,0
16708,558331.3805548747,2010-08-26 01:27:37,2551.280122805299,2,46,0.5499359965324402,3.90583062171936,49.44423234956995,48.99490525452595,196.2995471826372,179.97880630882923,0.0,0.0842843055725097,0,0,0
16709,558361.3958040912,2010-08-26 01:28:07,2581.2953720218084,2,46,0.5499359965324402,3.90712571144104,49.44881929129144,48.99490525452595,196.31746628994773,179.97880630882923,0.0,0.0842843055725097,0,0,0
16710,558391.411197437,2010-08-26 01:28:37,2611.310765362519,2,46,0.550297200679779,3.90842080116272,49.45340626149879,48.99490525452595,196.33539117883947,179.97880630882923,3.237724376958795e-05,0.0842843055725097,0,0,0
16711,558421.4263086596,2010-08-26 01:29:07,2641.325876590117,2,46,0.5501165986061096,3.9097158908844,49.45799322894197,48.99490525452595,196.35332186645272,179.97880630882923,3.237724376958795e-05,0.0842843055725097,0,0,0
16712,558451.4415414851,2010-08-26 01:29:37,2671.3411094157746,2,46,0.5501165986061096,3.910849094390869,49.46258019121144,48.99490525452595,196.3712582771361,179.97880630882923,0.0,0.0842843055725097,0,0,0
16713,558481.4567798998,2010-08-26 01:30:07,2701.3563478303618,2,46,0.550297200679779,3.912306070327759,49.467167183626565,48.99490525452595,196.38920068072463,179.97880630882923,6.47544875391759e-05,0.0842843055725097,0,0,0
16714,558511.472059482,2010-08-26 01:30:37,2731.3716274075387,2,46,0.5499359965324402,3.9136011600494394,49.47175419865109,48.99490525452595,196.4071491344125,179.97880630882923,0.0,0.0842843055725097,0,0,0
16715,558541.4872798265,2010-08-26 01:31:07,2761.3868477571023,2,46,0.5501165986061096,3.914734125137329,49.47634125676451,48.99490525452595,196.42510382504116,179.97880630882923,0.0,0.0842843055725097,0,0,0
16716,558571.4872964036,2010-08-26 01:31:37,2791.3868643391997,2,46,0.5501165986061096,3.9161911010742183,49.48092597389955,48.99490525452595,196.4430553005337,179.97880630882923,3.237724376958795e-05,0.0842843055725097,0,0,0
16717,558601.5021571569,2010-08-26 01:32:07,2821.4017250875254,2,46,0.550297200679779,3.9174861907958975,49.48551296266372,48.99490525452595,196.46102186331623,179.97880630882923,3.237724376958795e-05,0.0842843055725097,0,0,0
16718,558631.5173983384,2010-08-26 01:32:37,2851.4169662840463,2,46,0.5501165986061096,3.918943166732788,49.490099988641305,48.99490525452595,196.478994726125,179.97880630882923,3.237724376958795e-05,0.0842843055725097,0,0,0
16719,558661.5327759499,2010-08-26 01:33:07,2881.4323439005675,2,46,0.5499359965324402,3.920076370239258,49.49468697868614,48.99490525452595,196.4969737186716,179.97880630882923,0.0,0.0842843055725097,0,0,0
16720,558691.5478812979,2010-08-26 01:33:37,2911.4474492334743,2,46,0.5501165986061096,3.921695232391357,49.4992739602456,48.99490525452595,196.51495894001857,179.97880630882923,6.47544875391759e-05,0.0842843055725097,0,0,0
16721,558721.563133933,2010-08-26 01:34:07,2941.462701868503,2,46,0.5501165986061096,3.922990322113037,49.50386088493398,48.99490525452595,196.53295032007847,179.97880630882923,3.237724376958795e-05,0.0842843055725097,0,0,0
16722,558751.5785036999,2010-08-26 01:34:37,2971.478071620423,2,46,0.5501165986061096,3.924285411834717,49.50844792226072,48.99490525452595,196.5509485725256,179.97880630882923,0.0,0.0842843055725097,0,0,0
16723,558781.5936510424,2010-08-26 01:35:07,3001.4932189780684,2,46,0.5501165986061096,3.9257423877716064,49.513034894058,48.99490525452595,196.56895307334904,179.97880630882923,0.0,0.0842843055725097,0,0,0
16724,558811.6090604833,2010-08-26 01:35:37,3031.5086284189056,2,46,0.550297200679779,3.927361249923706,49.51762192802743,48.99490525452595,196.58696422807995,179.97880630882923,3.237724376958795e-05,0.0842843055725097,0,0,0
16725,558841.6241213253,2010-08-26 01:36:07,3061.523689260927,2,46,0.5501165986061096,3.9286563396453857,49.52220889170334,48.99490525452595,196.6049816934718,179.97880630882923,3.237724376958795e-05,0.0842843055725097,0,0,0
16726,558871.6393767423,2010-08-26 01:36:37,3091.538944677889,2,46,0.550297200679779,3.9301133155822754,49.52679582921209,48.99490525452595,196.62300569383493,179.97880630882923,6.47544875391759e-05,0.0842843055725097,0,0,0
16727,558901.6548454459,2010-08-26 01:37:07,3121.554413376415,2,46,0.550297200679779,3.931732177734375,49.53138289623669,48.99490525452595,196.6410369101308,179.97880630882923,6.47544875391759e-05,0.0842843055725097,0,0,0
16728,558931.6699145434,2010-08-26 01:37:37,3151.569482499074,2,46,0.5504778623580933,3.9331891536712646,49.53596990446954,48.99490525452595,196.659074591323,179.97880630882923,9.713172767078504e-05,0.0842843055725097,0,0,0
16729,558961.6852394536,2010-08-26 01:38:07,3181.584807389185,2,46,0.550297200679779,3.934484243392944,49.54055693928192,48.99490525452595,196.677119229334,179.97880630882923,0.0,0.0842843055725097,0,0,0
16730,558991.7003808564,2010-08-26 01:38:37,3211.599948791989,2,46,0.5501165986061096,3.936103105545044,49.54514393008292,48.99490525452595,196.69517064818177,179.97880630882923,3.237724376958795e-05,0.0842843055725097,0,0,0
16731,559021.7156315314,2010-08-26 01:39:07,3241.615199462121,2,46,0.5501165986061096,3.937721967697144,49.54973092184918,48.99490525452595,196.71322882966075,179.97880630882923,6.47544875391759e-05,0.0842843055725097,0,0,0
16732,559051.7308532996,2010-08-26 01:39:37,3271.630421225208,2,46,0.5501165986061096,3.9390170574188232,49.55431795074012,48.99490525452595,196.7312943394637,179.97880630882923,3.237724376958795e-05,0.0842843055725097,0,0,0
16733,559081.7461012581,2010-08-26 01:40:07,3301.6456692136558,2,46,0.5501165986061096,3.940797805786133,49.55890494183558,48.99490525452595,196.74936682693672,179.97880630882923,6.47544875391759e-05,0.0842843055725097,0,0,0
16734,559111.7614636767,2010-08-26 01:40:37,3331.661031612249,2,46,0.5501165986061096,3.9422547817230233,49.56349202845676,48.99490525452595,196.7674468988896,179.97880630882923,3.237724376958795e-05,0.0842843055725097,0,0,0
16735,559141.7766116108,2010-08-26 01:41:07,3361.6761795463312,2,46,0.5501165986061096,3.943873643875122,49.56807896422996,48.99490525452595,196.7855336938583,179.97880630882923,3.237724376958795e-05,0.0842843055725097,0,0,0
16736,559171.7918377197,2010-08-26 01:41:37,3391.691405650236,2,46,0.5499359965324402,3.9454925060272217,49.57266600937554,48.99490525452595,196.8036283360685,179.97880630882923,3.237724376958795e-05,0.0842843055725097,0,0,0
16737,559201.8071047355,2010-08-26 01:42:07,3421.706672661094,2,46,0.550297200679779,3.947111368179321,49.57725311204306,48.99490525452595,196.8217307469299,179.97880630882923,3.237724376958795e-05,0.0842843055725097,0,0,0
16738,559231.8223423831,2010-08-26 01:42:37,3451.721910333832,2,46,0.5501165986061096,3.948892116546631,49.58184010049877,48.99490525452595,196.83984028972412,179.97880630882923,3.237724376958795e-05,0.0842843055725097,0,0,0
16739,559261.8376103865,2010-08-26 01:43:07,3481.737178312101,2,46,0.5501165986061096,3.9505109786987305,49.58642710205888,48.99490525452595,196.85795760790688,179.97880630882923,6.47544875391759e-05,0.0842843055725097,0,0,0
16740,559291.8529531211,2010-08-26 01:43:37,3511.7525210567105,2,46,0.5501165986061096,3.95229172706604,49.591014161643706,48.99490525452595,196.8760830715744,179.97880630882923,6.47544875391759e-05,0.0842843055725097,0,0,0
16741,559321.8680653413,2010-08-26 01:44:07,3541.7676332717697,2,46,0.5501165986061096,3.95391058921814,49.59560116425869,48.99490525452595,196.8942163413313,179.97880630882923,3.237724376958795e-05,0.0842843055725097,0,0,0
16742,559351.883317896,2010-08-26 01:44:37,3571.782885831611,2,46,0.5499359965324402,3.9555294513702393,49.60018816654388,48.99490525452595,196.91235768918835,179.97880630882923,-3.237724376958795e-05,0.0842843055725097,0,0,0
16743,559381.8985885058,2010-08-26 01:45:07,3601.7981564364263,2,46,0.5501165986061096,3.9576339721679688,49.60477526537894,48.99490525452595,196.93050762565483,179.97880630882923,0.0,0.0842843055725097,0,0,0
16744,559411.9138309405,2010-08-26 01:45:38,3631.8133988760446,2,46,0.5499359965324402,3.9594147205352783,49.6093623233584,48.99490525452595,196.9486657532437,179.97880630882923,3.237724376958795e-05,0.0842843055725097,0,0,0
16745,559441.9293524807,2010-08-26 01:46:08,3661.8289204212806,2,46,0.550297200679779,3.961357355117798,49.61394943919037,48.99490525452595,196.96683252519665,179.97880630882923,6.47544875391759e-05,0.0842843055725097,0,0,0
16746,559471.9444337486,2010-08-26 01:46:38,3691.844001674173,2,46,0.5501165986061096,3.963299989700317,49.61853643850135,48.99490525452595,196.98500739349268,179.97880630882923,6.47544875391759e-05,0.0842843055725097,0,0,0
16747,559501.9595654221,2010-08-26 01:47:08,3721.859133347728,2,46,0.5501165986061096,3.965080738067627,49.62312339348284,48.99490525452595,197.0031906890487,179.97880630882923,6.47544875391759e-05,0.0842843055725097,0,0,0
16748,559531.9748005085,2010-08-26 01:47:38,3751.87436843402,2,46,0.5501165986061096,3.967185258865357,49.627710435011394,48.99490525452595,197.0213831139576,179.97880630882923,9.713172767078504e-05,0.0842843055725097,0,0,0
16749,559561.9900461962,2010-08-26 01:48:08,3781.889614131759,2,46,0.5501165986061096,3.968804121017456,49.63229746614754,48.99490525452595,197.0395841262881,179.97880630882923,6.47544875391759e-05,0.0842843055725097,0,0,0
16750,559592.005328866,2010-08-26 01:48:38,3811.904896796632,2,46,0.5501165986061096,3.9709086418151855,49.63688456392022,48.99490525452595,197.0577942830705,179.97880630882923,9.713172767078504e-05,0.0842843055725097,0,0,0
16751,559622.0205700074,2010-08-26 01:49:08,3841.9201379380142,2,46,0.550297200679779,3.972689390182495,49.64147164502913,48.99490525452595,197.0760133031114,179.97880630882923,3.237724376958795e-05,0.0842843055725097,0,0,0
16752,559652.035792808,2010-08-26 01:49:38,3871.935360733675,2,46,0.5501165986061096,3.974632024765015,49.64605872047247,48.99490525452595,197.0942412478303,179.97880630882923,3.237724376958795e-05,0.0842843055725097,0,0,0
16753,559682.051036165,2010-08-26 01:50:08,3901.95060409058,2,46,0.550297200679779,3.976898431777954,49.65064581017007,48.99490525452595,197.11247823041143,179.97880630882923,0.0001295089750783,0.0842843055725097,0,0,0
16754,559712.0664101525,2010-08-26 01:50:38,3931.965978083069,2,46,0.5501165986061096,3.978679180145264,49.655232924996746,48.99490525452595,197.1307240327567,179.97880630882923,9.713172767078504e-05,0.0842843055725097,0,0,0
16755,559742.0815619662,2010-08-26 01:51:08,3961.98112989682,2,46,0.5501165986061096,3.980621814727783,49.65981992184195,48.99490525452595,197.1489789077064,179.97880630882923,3.237724376958795e-05,0.0842843055725097,0,0,0
16756,559772.0967923257,2010-08-26 01:51:38,3991.996360261344,2,46,0.5501165986061096,3.9827263355255127,49.66440690975145,48.99490525452595,197.16724296756996,179.97880630882923,3.237724376958795e-05,0.0842843055725097,0,0,0
16757,559802.1120295674,2010-08-26 01:52:08,4022.011597503008,2,46,0.5501165986061096,3.984668970108032,49.668993933074965,48.99490525452595,197.18551631834936,179.97880630882923,6.47544875391759e-05,0.0842843055725097,0,0,0
16758,559832.1273142573,2010-08-26 01:52:38,4052.026882182902,2,46,0.550297200679779,3.9867734909057617,49.67358093324318,48.99490525452595,197.2037989179533,179.97880630882923,9.713172767078504e-05,0.0842843055725097,0,0,0
16759,559862.142734054,2010-08-26 01:53:08,4082.042301979549,2,46,0.5501165986061096,3.988878011703491,49.6781679091516,48.99490525452595,197.2220906905931,179.97880630882923,6.47544875391759e-05,0.0842843055725097,0,0,0
16760,559892.1577840239,2010-08-26 01:53:38,4112.057351949474,2,46,0.550297200679779,3.990658760070801,49.6827548298963,48.99490525452595,197.24039168005737,179.97880630882923,3.237724376958795e-05,0.0842843055725097,0,0,0
16761,559922.1731443873,2010-08-26 01:54:08,4142.072712323021,2,46,0.5501165986061096,3.99292516708374,49.68734185862888,48.99490525452595,197.2587026272632,179.97880630882923,6.47544875391759e-05,0.0842843055725097,0,0,0
16762,559952.1882678556,2010-08-26 01:54:38,4172.087835786113,2,46,0.5501165986061096,3.99502944946289,49.69192884619148,48.99490525452595,197.27702295552567,179.97880630882923,6.47544875391759e-05,0.0842843055725097,0,0,0
16763,559982.2035269768,2010-08-26 01:55:08,4202.103094907307,2,46,0.5504778623580933,3.99713397026062,49.696516355332726,48.99490525452595,197.29535510061788,179.97880630882923,6.47544875391759e-05,0.0842843055725097,0,0,0
16764,560012.2187850754,2010-08-26 01:55:38,4232.118353005953,2,46,0.550297200679779,3.99940037727356,49.70110413613889,48.99490525452595,197.31369807358809,179.97880630882923,6.47544875391759e-05,0.0842843055725097,0,0,0
16765,560042.2341277899,2010-08-26 01:56:08,4262.133695715476,2,46,0.5501165986061096,4.001343250274658,49.70569176265046,48.99490525452595,197.33205023382263,179.97880630882923,3.24249267578125e-05,0.0842843055725097,0,0,0
16766,560072.249264085,2010-08-26 01:56:38,4292.148832010549,2,46,0.550297200679779,4.003609657287598,49.71027941293965,48.99490525452595,197.35041247574537,179.97880630882923,6.47544875391759e-05,0.0842843055725097,0,0,0
16767,560102.2687200459,2010-08-26 01:57:08,4322.168287981584,2,46,0.550297200679779,4.005876064300537,49.71486721731797,48.99490525452595,197.36878525764092,179.97880630882923,6.47544875391759e-05,0.0842843055725097,0,0,0
16768,560132.2797959012,2010-08-26 01:57:38,4352.179363826768,2,46,0.550297200679779,4.008142471313477,49.71945355029782,48.99490525452595,197.387162302089,179.97880630882923,6.47544875391759e-05,0.0842843055725097,0,0,0
16769,560162.2950164262,2010-08-26 01:58:08,4382.194584361794,2,46,0.5501165986061096,4.010246753692627,49.72404048898229,48.99490525452595,197.4055519833557,179.97880630882923,6.47544875391759e-05,0.0842843055725097,0,0,0
16770,560192.310389732,2010-08-26 01:58:38,4412.209957667572,2,46,0.5501165986061096,4.012513160705566,49.72862745954076,48.99490525452595,197.42395210161607,179.97880630882923,6.47544875391759e-05,0.0842843055725097,0,0,0
16771,560222.3255369393,2010-08-26 01:59:08,4442.225104874842,2,46,0.550297200679779,4.014779567718506,49.733214419715225,48.99490525452595,197.4423626496997,179.97880630882923,6.47544875391759e-05,0.0842843055725097,0,0,0
16772,560252.3408025566,2010-08-26 01:59:38,4472.240370492226,2,46,0.550297200679779,4.017208099365234,49.73780140244033,48.99490525452595,197.4607837888287,179.97880630882923,9.71794142969884e-05,0.0842843055725097,0,0,0
16773,560282.3560137484,2010-08-26 02:00:08,4502.255581683967,2,46,0.5501165986061096,4.019312381744385,49.74238841747588,48.99490525452595,197.47921571768413,179.97880630882923,3.23295607813634e-05,0.0842843055725097,0,0,0
16774,560312.3712493911,2010-08-26 02:00:38,4532.270817321632,2,46,0.5499359965324402,4.021740913391113,49.74697530752003,48.99490525452595,197.49765782445652,179.97880630882923,3.24249267578125e-05,0.0842843055725097,0,0,0
16775,560342.3865280659,2010-08-26 02:01:08,4562.286096001573,2,46,0.5499359965324402,4.024168968200684,49.75156224549659,48.99490525452595,197.51611104880303,179.97880630882923,6.47544875391759e-05,0.0842843055725097,0,0,0
16776,560372.4017464357,2010-08-26 02:01:38,4592.30131436619,2,46,0.5501165986061096,4.026435375213623,49.756149154104186,48.99490525452595,197.53457506804497,179.97880630882923,6.47544875391759e-05,0.0842843055725097,0,0,0
16777,560402.4169970957,2010-08-26 02:02:08,4622.3165650313085,2,46,0.5501165986061096,4.029025554656982,49.76073607217605,48.99490525452595,197.55305022922872,179.97880630882923,9.70840483205393e-05,0.0842843055725097,0,0,0
16778,560432.4323735443,2010-08-26 02:02:38,4652.33194147992,2,46,0.5499359965324402,4.031291961669922,49.7653229641835,48.99490525452595,197.5715363567536,179.97880630882923,6.47544875391759e-05,0.0842843055725097,0,0,0
16779,560462.4475194584,2010-08-26 02:03:08,4682.3470873839415,2,46,0.5501165986061096,4.03372049331665,49.769909935684765,48.99490525452595,197.59003407132772,179.97880630882923,3.24249267578125e-05,0.0842843055725097,0,0,0
16780,560492.4627469156,2010-08-26 02:03:38,4712.362314866282,2,46,0.5501165986061096,4.036472320556641,49.77449691537743,48.99490525452595,197.608543190989,179.97880630882923,0.0001295089750783,0.0842843055725097,0,0,0
16781,560522.4779944279,2010-08-26 02:04:08,4742.37756235348,2,46,0.5501165986061096,4.038900375366211,49.77908390617716,48.99490525452595,197.62706387203897,179.97880630882923,6.47544875391759e-05,0.0842843055725097,0,0,0
16782,560552.4932666217,2010-08-26 02:04:38,4772.392834557281,2,46,0.5501165986061096,4.04132890701294,49.7836708382268,48.99490525452595,197.64559583252887,179.97880630882923,3.24249267578125e-05,0.0842843055725097,0,0,0
16783,560582.508630128,2010-08-26 02:05:08,4802.40819805361,2,46,0.5499359965324402,4.043919086456299,49.78825781342059,48.99490525452595,197.6641396966201,179.97880630882923,6.47544875391759e-05,0.0842843055725097,0,0,0
16784,560612.5237352705,2010-08-26 02:05:38,4832.423303206067,2,46,0.5501165986061096,4.046670913696289,49.79284468288395,48.99490525452595,197.68269490084057,179.97880630882923,6.47544875391759e-05,0.0842843055725097,0,0,0
16785,560642.5389920609,2010-08-26 02:06:08,4862.438559986427,2,46,0.5501165986061096,4.049099445343018,49.79743161807576,48.99490525452595,197.70126232542987,179.97880630882923,6.47544875391759e-05,0.0842843055725097,0,0,0
16786,560672.5545070699,2010-08-26 02:06:38,4892.454075000386,2,46,0.5501165986061096,4.051689624786377,49.802018607399226,48.99490525452595,197.71984196750927,179.97880630882923,3.24249267578125e-05,0.0842843055725097,0,0,0
16787,560702.5694995014,2010-08-26 02:07:08,4922.469067436919,2,46,0.550297200679779,4.054603576660156,49.80660548483274,48.99490525452595,197.738433306392,179.97880630882923,9.71794142969884e-05,0.0842843055725097,0,0,0
16788,560732.5849778389,2010-08-26 02:07:38,4952.484545789506,2,46,0.550297200679779,4.057193756103516,49.81119249758083,48.99490525452595,197.7570374779614,179.97880630882923,6.47544875391759e-05,0.0842843055725097,0,0,0
16789,560762.5999860197,2010-08-26 02:08:08,4982.4995539452175,2,46,0.550297200679779,4.059783935546875,49.81577948456285,48.99490525452595,197.77565393320853,179.97880630882923,6.47544875391759e-05,0.0842843055725097,0,0,0
16790,560792.6152316873,2010-08-26 02:08:38,5012.514799612882,2,46,0.5501165986061096,4.062535762786865,49.82036641332781,48.99490525452595,197.79428224798136,179.97880630882923,6.47544875391759e-05,0.0842843055725097,0,0,0
16791,560822.6307027015,2010-08-26 02:09:08,5042.530270657254,2,46,0.5499359965324402,4.065288066864014,49.82495336303577,48.99490525452595,197.81292323667537,179.97880630882923,6.47544875391759e-05,0.0842843055725097,0,0,0
16792,560852.6457369623,2010-08-26 02:09:38,5072.545304892964,2,46,0.5499359965324402,4.067878246307373,49.82954032575496,48.99490525452595,197.83157695686444,179.97880630882923,3.24249267578125e-05,0.0842843055725097,0,0,0
16793,560882.6611399521,2010-08-26 02:10:08,5102.560707887736,2,46,0.5501165986061096,4.070953845977783,49.8341272880905,48.99490525452595,197.8502435045445,179.97880630882923,9.70840483205393e-05,0.0842843055725097,0,0,0
16794,560912.6762430143,2010-08-26 02:10:38,5132.575810944971,2,46,0.5501165986061096,4.073706150054932,49.83871417783218,48.99490525452595,197.8689225799677,179.97880630882923,6.47544875391759e-05,0.0842843055725097,0,0,0
16795,560942.6914941306,2010-08-26 02:11:08,5162.591062061214,2,46,0.5501165986061096,4.076457977294922,49.84330110763396,48.99490525452595,197.88761490034804,179.97880630882923,6.47544875391759e-05,0.0842843055725097,0,0,0
16796,560972.7068605792,2010-08-26 02:11:38,5192.606428504889,2,46,0.550297200679779,4.07953405380249,49.847888059341,48.99490525452595,197.9063204831228,179.97880630882923,9.71794142969884e-05,0.0842843055725097,0,0,0
16797,561002.7219801177,2010-08-26 02:12:08,5222.621548048212,2,46,0.5501165986061096,4.0822858810424805,49.8524749365614,48.99490525452595,197.92503901158315,179.97880630882923,6.47544875391759e-05,0.0842843055725097,0,0,0
16798,561032.737229314,2010-08-26 02:12:38,5252.636797239658,2,46,0.5501165986061096,4.085361957550049,49.85706188561962,48.99490525452595,197.94377125553964,179.97880630882923,9.71794142969884e-05,0.0842843055725097,0,0,0
16799,561062.7525020742,2010-08-26 02:13:08,5282.652070004858,2,46,0.5501165986061096,4.088113784790039,49.86164881936978,48.99490525452595,197.9625169147773,179.97880630882923,6.47544875391759e-05,0.0842843055725097,0,0,0
16800,561092.7677484086,2010-08-26 02:13:38,5312.667316339183,2,46,0.5501165986061096,4.091189861297607,49.86623570802756,48.99490525452595,197.9812760574034,179.97880630882923,6.47544875391759e-05,0.0842843055725097,0,0,0
16801,561122.783013224,2010-08-26 02:14:08,5342.682581164595,2,46,0.5501165986061096,4.094265460968018,49.87082263867942,48.99490525452595,198.00004906923348,179.97880630882923,6.47544875391759e-05,0.0842843055725097,0,0,0
16802,561152.7983614672,2010-08-26 02:14:38,5372.697929402896,2,46,0.5501165986061096,4.097179412841797,49.87540965067005,48.99490525452595,198.01883633673893,179.97880630882923,6.47544875391759e-05,0.0842843055725097,0,0,0
16803,561182.8134926597,2010-08-26 02:15:08,5402.7130605952525,2,46,0.5501165986061096,4.100417137145996,49.87999648472564,48.99490525452595,198.0376368685526,179.97880630882923,9.70840483205393e-05,0.0842843055725097,0,0,0
16804,561212.8288771082,2010-08-26 02:15:38,5432.728445033777,2,46,0.5501165986061096,4.103331089019775,49.88458347154199,48.99490525452595,198.0564521656476,179.97880630882923,6.47544875391759e-05,0.0842843055725097,0,0,0
16805,561242.8440039948,2010-08-26 02:16:08,5462.743571930426,2,46,0.5501165986061096,4.106568813323975,49.88917038507048,48.99490525452595,198.0752814261193,179.97880630882923,9.70840483205393e-05,0.0842843055725097,0,0,0
16806,561272.8592324345,2010-08-26 02:16:38,5492.758800365141,2,46,0.5501165986061096,4.109806537628174,49.89375728653993,48.99490525452595,198.09412500989816,179.97880630882923,9.70840483205393e-05,0.0842843055725097,0,0,0
16807,561302.8745126333,2010-08-26 02:17:08,5522.774080563867,2,46,0.5501165986061096,4.112882614135742,49.89834420408497,48.99490525452595,198.1129831633191,179.97880630882923,9.71794142969884e-05,0.0842843055725097,0,0,0
16808,561332.8897275091,2010-08-26 02:17:39,5552.789295444801,2,46,0.5501165986061096,4.115958213806152,49.90293105842828,48.99490525452595,198.1318556736757,179.97880630882923,3.24249267578125e-05,0.0842843055725097,0,0,0
16809,561362.9053204072,2010-08-26 02:18:09,5582.804888332845,2,46,0.5501165986061096,4.119357585906982,49.907518041971095,48.99490525452595,198.150743516729,179.97880630882923,9.70840483205393e-05,0.0842843055725097,0,0,0
16810,561392.9203490289,2010-08-26 02:18:39,5612.819916964589,2,46,0.5501165986061096,4.122595310211182,49.91210491315445,48.99490525452595,198.1696458224804,179.97880630882923,9.70840483205393e-05,0.0842843055725097,0,0,0
16811,561422.935521028,2010-08-26 02:19:09,5642.835088958635,2,46,0.550297200679779,4.125833034515381,49.916691835389216,48.99490525452595,198.18856329828765,179.97880630882923,9.70840483205393e-05,0.0842843055725097,0,0,0
16812,561452.9507306609,2010-08-26 02:19:39,5672.850298596502,2,46,0.550297200679779,4.129232883453369,49.92127875881314,48.99490525452595,198.20749595687573,179.97880630882923,6.47544875391759e-05,0.0842843055725097,0,0,0
16813,561482.9659742082,2010-08-26 02:20:09,5702.865542138869,2,46,0.550297200679779,4.132632255554199,49.92586572944306,48.99490525452595,198.2264440994504,179.97880630882923,0.0001295089750783,0.0842843055725097,0,0,0
16814,561512.9812465323,2010-08-26 02:20:39,5732.8808144679815,2,46,0.5501165986061096,4.135869979858398,49.93045261698084,48.99490525452595,198.24540722871888,179.97880630882923,9.70840483205393e-05,0.0842843055725097,0,0,0
16815,561542.9966192918,2010-08-26 02:21:09,5762.896187227398,2,46,0.550297200679779,4.139269828796387,49.93503955604625,48.99490525452595,198.2643861152043,179.97880630882923,9.71794142969884e-05,0.0842843055725097,0,0,0
16816,561573.0117211661,2010-08-26 02:21:39,5792.911289091659,2,46,0.5501165986061096,4.142669200897217,49.93962652997704,48.99490525452595,198.28338084093525,179.97880630882923,9.70840483205393e-05,0.0842843055725097,0,0,0
16817,561603.0271015044,2010-08-26 02:22:09,5822.926669439989,2,46,0.5501165986061096,4.146230697631836,49.94421358276552,48.99490525452595,198.30239185609835,179.97880630882923,9.70840483205393e-05,0.0842843055725097,0,0,0
16818,561633.0423591018,2010-08-26 02:22:39,5852.941927017336,2,46,0.5499359965324402,4.149630546569824,49.94880049209824,48.99490525452595,198.32141836544315,179.97880630882923,9.71794142969884e-05,0.0842843055725097,0,0,0
16819,561663.057489001,2010-08-26 02:23:09,5882.957056931506,2,46,0.550297200679779,4.153353691101074,49.95338741717705,48.99490525452595,198.34046098453845,179.97880630882923,0.0001295089750783,0.0842843055725097,0,0,0
16820,561693.0727248942,2010-08-26 02:23:39,5912.972292824809,2,46,0.550297200679779,4.156915187835693,49.95797430597781,48.99490525452595,198.35951958802903,179.97880630882923,0.0001295089750783,0.0842843055725097,0,0,0
16821,561723.0879958399,2010-08-26 02:24:09,5942.987563770474,2,46,0.550297200679779,4.1604766845703125,49.96256126741732,48.99490525452595,198.37859480471383,179.97880630882923,9.70840483205393e-05,0.0842843055725097,0,0,0
16822,561753.10338091,2010-08-26 02:24:39,5973.002948840572,2,46,0.5499359965324402,4.164038181304932,49.96714828436709,48.99490525452595,198.39768672208288,179.97880630882923,0.0001295089750783,0.0842843055725097,0,0,0
16823,561783.1187028979,2010-08-26 02:25:09,6003.018270823437,2,46,0.550297200679779,4.16776180267334,49.9717352134694,48.99490525452595,198.4167947190155,179.97880630882923,0.0001619339018361,0.0842843055725097,0,0,0
16824,561813.1337362664,2010-08-26 02:25:39,6033.033304191986,2,46,0.550297200679779,4.171323299407959,49.97632210266882,48.99490525452595,198.43591928625332,179.97880630882923,0.0001295089750783,0.0842843055725097,0,0,0
16825,561843.1489827159,2010-08-26 02:26:09,6063.048550651624,2,46,0.550297200679779,4.175046443939209,49.980909015000194,48.99490525452595,198.45506078809925,179.97880630882923,0.0001618385285837,0.0842843055725097,0,0,0
16826,561873.1642363836,2010-08-26 02:26:39,6093.063804309201,2,46,0.5501165986061096,4.178607940673828,49.98549588118737,48.99490525452595,198.4742190451007,179.97880630882923,0.0001295089750783,0.0842843055725097,0,0,0
16827,561903.1795096601,2010-08-26 02:27:09,6123.079077590687,2,46,0.5499359965324402,4.182331562042236,49.99008280015459,48.99490525452595,198.4933947102716,179.97880630882923,6.47544875391759e-05,0.0842843055725097,0,0,0
16828,561933.194763052,2010-08-26 02:27:39,6153.094331002652,2,46,0.550297200679779,4.186054706573486,49.99466976144249,48.99490525452595,198.5125877760989,179.97880630882923,6.47544875391759e-05,0.0842843055725097,0,0,0
16829,561963.2099993764,2010-08-26 02:28:09,6183.10956730698,2,46,0.5501165986061096,4.189939975738525,49.99925665025616,48.99490525452595,198.53179796638096,179.97880630882923,9.70840483205393e-05,0.0842843055725097,0,0,0
16830,561993.2253620857,2010-08-26 02:28:39,6213.124930011336,2,46,0.5501165986061096,4.1938252449035645,50.00384351308048,48.99490525452595,198.55102557480788,179.97880630882923,9.70840483205393e-05,0.0842843055725097,0,0,0
16831,562023.2449239607,2010-08-26 02:29:09,6243.144491886317,2,46,0.5501165986061096,4.197710514068604,50.00843112979352,48.99490525452595,198.5702740510084,179.97880630882923,9.71794142969884e-05,0.0842843055725097,0,0,0
16832,562039.6309102655,2010-08-26 02:29:25,6259.53047819103,2,46,0.550297200679779,4.200138568878174,50.01093523633775,48.99490525452595,198.5807881735424,179.97880630882923,0.0001942634553415,0.0842843055725097,0,0,0
16833,562069.6179636873,2010-08-26 02:29:55,30.015291476834573,3,46,0.0,4.125185489654541,50.01093523633775,48.99490525452595,198.5807881735424,179.97880630882923,-0.0003561973571777,0.0842843055725097,0,0,0
16834,562099.6332982364,2010-08-26 02:30:25,60.03062603604368,3,46,0.0,4.116119861602783,50.01093523633775,48.99490525452595,198.5807881735424,179.97880630882923,-0.0001619339018361,0.0842843055725097,0,0,0
16835,562129.6484690976,2010-08-26 02:30:55,90.04579689225454,3,46,0.0,4.110616207122803,50.01093523633775,48.99490525452595,198.5807881735424,179.97880630882923,-0.0001295089750783,0.0842843055725097,0,0,0
16836,562159.6168281694,2010-08-26 02:31:25,120.01415596409512,3,46,0.0,4.107216358184815,50.01093523633775,48.99490525452595,198.5807881735424,179.97880630882923,-6.47544875391759e-05,0.0842843055725097,0,0,0
16837,562159.6369349102,2010-08-26 02:31:26,2.676671088e-06,4,46,1.004529595375061,4.199814796447754,50.01093523708464,48.99490525452595,198.5807881766792,179.97880630882923,0.0,0.0842843055725097,0,0,0
16838,562160.4962635014,2010-08-26 02:31:26,0.859331257904315,4,46,0.9541395902633668,4.199653148651123,50.01116757727377,48.99490525452595,198.5817639315985,179.97880630882923,-3.23295607813634e-05,0.0842843055725097,0,0,0
16839,562162.5119918868,2010-08-26 02:31:28,2.875059643264752,4,46,0.903207778930664,4.199653148651123,50.01168653833675,48.99490525452595,198.58394338974264,179.97880630882923,-3.23295607813634e-05,0.0842843055725097,0,0,0
16840,562165.5430946023,2010-08-26 02:31:31,5.906162358879053,4,46,0.8531789779663086,4.199491024017334,50.01242496664734,48.99490525452595,198.58704454363223,179.97880630882923,0.0,0.0842843055725097,0,0,0
16841,562169.5743248235,2010-08-26 02:31:35,9.937392605031,4,46,0.8031502366065979,4.199491024017334,50.01335143093826,48.99490525452595,198.59093538489623,179.97880630882923,-3.24249267578125e-05,0.0842843055725097,0,0,0
16842,562174.8245902956,2010-08-26 02:31:41,15.187658051991116,4,46,0.752940833568573,4.199491024017334,50.014485003521976,48.99490525452595,198.59569600886195,179.97880630882923,0.0,0.0842843055725097,0,0,0
16843,562181.4491561018,2010-08-26 02:31:47,21.812223853295905,4,46,0.7027314305305481,4.199491024017334,50.01582266912988,48.99490525452595,198.60131380372763,179.97880630882923,-3.24249267578125e-05,0.0842843055725097,0,0,0
16844,562190.0896475802,2010-08-26 02:31:56,30.45271533668528,4,46,0.6527026891708374,4.199653148651123,50.0174469980995,48.99490525452595,198.60813548175503,179.97880630882923,0.0,0.0842843055725097,0,0,0
16845,562201.8708697859,2010-08-26 02:32:08,42.233937537400905,4,46,0.6026738882064819,4.199653148651123,50.01949701514154,48.99490525452595,198.61674490595715,179.97880630882923,0.0,0.0842843055725097,0,0,0
16846,562218.5424164649,2010-08-26 02:32:24,58.90548421643173,4,46,0.5526451468467712,4.199491024017334,50.02216559005804,48.99490525452595,198.62795207730937,179.97880630882923,-6.47544875391759e-05,0.0842843055725097,0,0,0
16847,562244.9014604631,2010-08-26 02:32:51,85.26452821455011,4,46,0.5026163458824158,4.199653148651123,50.02601619617087,48.99490525452595,198.64412343160552,179.97880630882923,0.0,0.0842843055725097,0,0,0
16848,562288.6509204739,2010-08-26 02:33:35,129.0139882352941,4,46,0.4525876045227051,4.199653148651123,50.031796555923954,48.99490525452595,198.6683991817077,179.97880630882923,-3.23295607813634e-05,0.0842843055725097,0,0,0
16849,562359.212535229,2010-08-26 02:34:45,199.57560298050527,4,46,0.402558833360672,4.199653148651123,50.0401474758634,48.99490525452595,198.70347048333025,179.97880630882923,0.0,0.0842843055725097,0,0,0
16850,562454.7428398221,2010-08-26 02:36:21,295.1059075835159,4,46,0.3525300621986389,4.199653148651123,50.0501454498409,48.99490525452595,198.7454588706143,179.97880630882923,0.0,0.0842843055725097,0,0,0
16851,562573.4911157686,2010-08-26 02:38:19,413.8541835200808,4,46,0.3023206889629364,4.199653148651123,50.0609323164312,48.99490525452595,198.79076043977025,179.97880630882923,0.0,0.0842843055725097,0,0,0
16852,562717.0675106419,2010-08-26 02:40:43,557.4305783984701,4,46,0.2522919178009033,4.199653148651123,50.07197255476991,48.99490525452595,198.8371262343797,179.97880630882923,0.0,0.0842843055725097,0,0,0
16853,562893.6435718928,2010-08-26 02:43:40,734.0066396542151,4,46,0.2022631466388702,4.199653148651123,50.083081382555896,48.99490525452595,198.88377991880265,179.97880630882923,0.0,0.0842843055725097,0,0,0
16854,563124.3749582067,2010-08-26 02:47:30,964.7380259681822,4,46,0.1522343754768371,4.199653148651123,50.09438049586469,48.99490525452595,198.93123284036545,179.97880630882923,-3.23295607813634e-05,0.0842843055725097,0,0,0
16855,563459.730265208,2010-08-26 02:53:06,1300.0933329544405,4,46,0.102205604314804,4.199491024017334,50.1060923297206,48.99490525452595,198.98041905903125,179.97880630882923,-6.47544875391759e-05,0.0842843055725097,0,0,0
16856,564061.0664394357,2010-08-26 03:03:07,1901.4295071971685,4,46,0.0521768368780612,4.199814796447754,50.11853462579132,48.99490525452595,199.03267304765404,179.97880630882923,0.0,0.0842843055725097,0,0,0
16857,564107.0814969074,2010-08-26 03:03:53,1947.4445646638544,4,46,0.0496483072638511,4.199491024017334,50.11919275020956,48.99490525452595,199.0354369738141,179.97880630882923,-3.24249267578125e-05,0.0842843055725097,0,0,0
16858,564137.0785096389,2010-08-26 03:04:23,30.015227161541077,5,46,0.0,4.192853927612305,50.11919275020956,48.99490525452595,199.0354369738141,179.97880630882923,0.0,0.0842843055725097,0,0,0
16859,564167.0781516775,2010-08-26 03:04:53,60.0148692001604,5,46,0.0,4.191558837890625,50.11919275020956,48.99490525452595,199.0354369738141,179.97880630882923,-3.24249267578125e-05,0.0842843055725097,0,0,0
16860,564167.2639331133,2010-08-26 03:04:53,0.187642517890743,6,46,-1.9243103452026844e-05,4.191720962524414,50.11919275020956,48.99490525552896,199.0354369738141,179.97880631303354,0.0,0.0881769880652427,0,0,0
16861,564172.0918699023,2010-08-26 03:04:58,5.015579306887935,6,46,0.0005225847125984,4.191558837890625,50.11919356155591,48.99490525561206,199.03544037477496,179.9788063133819,-6.47544875391759e-05,0.0881769880652427,0,0,0
16862,564202.089852104,2010-08-26 03:05:28,30.015412533545145,7,46,-1.099929690361023,4.036957740783691,50.11919356155591,49.00407459798903,199.03544037477496,180.0160010258717,-0.0008418083307333,0.0881769880652427,0,0,0
16863,564232.1049371813,2010-08-26 03:05:58,60.03049760094389,7,46,-1.0997490882873535,4.013322830200195,50.11919356155591,49.01324372158012,199.03544037477496,180.0529008093599,-0.0005503654247149,0.0881769880652427,0,0,0
16864,564262.1204907463,2010-08-26 03:06:28,90.0460511609704,7,46,-1.099568486213684,3.99729585647583,50.11919356155591,49.02241300612168,199.03544037477496,180.0896233289507,-0.0003561496851034,0.0881769880652427,0,0,0
16865,564292.1354573084,2010-08-26 03:06:58,120.06101773805484,7,46,-1.099568486213684,3.984668970108032,50.11919356155591,49.03158216505574,199.03544037477496,180.12621468282194,-0.0003237724304199,0.0881769880652427,0,0,0
16866,564322.1507432014,2010-08-26 03:07:28,150.07630365102256,7,46,-1.0997490882873535,3.973660707473755,50.11919356155591,49.040751356651775,199.03544037477496,180.16269819712613,-0.0002590179501567,0.0881769880652427,0,0,0
16867,564352.1659573956,2010-08-26 03:07:58,180.0915178151701,7,46,-1.0997490882873535,3.9637856483459473,50.11919356155591,49.049920533207526,199.03544037477496,180.19908680874792,-0.0002266406954731,0.0881769880652427,0,0,0
16868,564382.1812160356,2010-08-26 03:08:28,210.10677646519017,7,46,-1.099568486213684,3.95455813407898,50.11919356155591,49.059089660988185,199.03544037477496,180.23538816026817,-0.0002266406954731,0.0881769880652427,0,0,0
16869,564412.1964668159,2010-08-26 03:08:58,240.12202724058423,7,46,-1.0997490882873535,3.945978164672852,50.11919356155591,49.06825873628864,199.03544037477496,180.27160725651524,-0.0001942634553415,0.0881769880652427,0,0,0
16870,564442.2117428543,2010-08-26 03:09:28,270.1373032839539,7,46,-1.0997490882873535,3.937398195266724,50.11919356155591,49.07742783658595,199.03544037477496,180.30774783074247,-0.0001942634553415,0.0881769880652427,0,0,0
16871,564472.227024191,2010-08-26 03:09:59,300.1525846505907,7,46,-1.0997490882873535,3.9293038845062256,50.11919356155591,49.08659695540423,199.03544037477496,180.3438123783116,-0.0001942634553415,0.0881769880652427,0,0,0
16872,564502.2424020681,2010-08-26 03:10:29,330.167962502699,7,46,-1.0997490882873535,3.921209573745728,50.11919356155591,49.09576611948821,199.03544037477496,180.37980323844755,-0.0002266406954731,0.0881769880652427,0,0,0
16873,564532.2577351285,2010-08-26 03:10:59,360.18329555816035,7,46,-1.0997490882873535,3.9136011600494394,50.11919356155591,49.10493524795178,199.03544037477496,180.41572165126072,-0.0001618385285837,0.0881769880652427,0,0,0
16874,564562.2727474296,2010-08-26 03:11:29,390.1983078592029,7,46,-1.099568486213684,3.90583062171936,50.11919356155591,49.11410431532487,199.03544037477496,180.45156886392715,-0.0001942634553415,0.0881769880652427,0,0,0
16875,564592.2879993077,2010-08-26 03:11:59,420.2135597323329,7,46,-1.099568486213684,3.898221969604492,50.11919356155591,49.123273452112926,199.03544037477496,180.4873465628008,-0.0002266406954731,0.0881769880652427,0,0,0
16876,564622.3032492911,2010-08-26 03:12:29,450.22880971575313,7,46,-1.099929690361023,3.890613317489624,50.11919356155591,49.13244249391515,199.03544037477496,180.5230555427948,-0.0002266406954731,0.0881769880652427,0,0,0
16877,564652.3184991893,2010-08-26 03:12:59,480.244059613961,7,46,-1.0997490882873535,3.8834903240203857,50.11919356155591,49.14161168314568,199.03544037477496,180.5586976384613,-0.0001942634553415,0.0881769880652427,0,0,0
16878,564682.3337830422,2010-08-26 03:13:29,510.25934346178167,7,46,-1.099568486213684,3.876367330551148,50.11919356155591,49.15078088682874,199.03544037477496,180.5942729765892,-0.0001618862152099,0.0881769880652427,0,0,0
16879,564712.3490131912,2010-08-26 03:13:59,540.2745736207934,7,46,-1.0997490882873535,3.869082450866699,50.11919356155591,49.15995001483307,199.03544037477496,180.62978189459605,-0.0001942634553415,0.0881769880652427,0,0,0
16880,564742.364261736,2010-08-26 03:14:29,570.2898221556032,7,46,-1.0997490882873535,3.862121343612671,50.11919356155591,49.16911920886821,199.03544037477496,180.6652259089733,-0.0001618862152099,0.0881769880652427,0,0,0
16881,564772.379763126,2010-08-26 03:14:59,600.3053235556309,7,46,-1.0997490882873535,3.8549983501434326,50.11919356155591,49.17828845163786,199.03544037477496,180.7006059575477,-0.0002266406954731,0.0881769880652427,0,0,0
16882,564802.3948591407,2010-08-26 03:15:29,630.3204195853511,7,46,-1.0997490882873535,3.8481991291046143,50.11919356155591,49.18745755634757,199.03544037477496,180.7359220390965,-0.0001618862152099,0.0881769880652427,0,0,0
16883,564832.4101691437,2010-08-26 03:15:59,660.3357295632962,7,46,-1.0997490882873535,3.841238021850586,50.11919356155591,49.19662676338716,199.03544037477496,180.77117608942848,-0.0002266406954731,0.0881769880652427,0,0,0
16884,564862.425285474,2010-08-26 03:16:29,690.3508458986242,7,46,-1.099568486213684,3.834762573242188,50.11919356155591,49.205795936448,199.03544037477496,180.8063684348845,-0.0001942634553415,0.0881769880652427,0,0,0
16885,564892.4405540437,2010-08-26 03:16:59,720.3661144683673,7,46,-1.0997490882873535,3.828287363052368,50.11919356155591,49.21496519584228,199.03544037477496,180.84150043217863,-0.0001618862152099,0.0881769880652427,0,0,0
16886,564922.4558264029,2010-08-26 03:17:29,750.3813868225423,7,46,-1.099568486213684,3.8218119144439697,50.11919356155591,49.22413441462938,199.03544037477496,180.8765725902304,-0.0001618862152099,0.0881769880652427,0,0,0
16887,564952.4710716346,2010-08-26 03:17:59,780.3966320791819,7,46,-1.0997490882873535,3.815498352050781,50.11919356155591,49.23330366906757,199.03544037477496,180.91158635125373,-0.0001618862152099,0.0881769880652427,0,0,0
16888,564982.4862990668,2010-08-26 03:18:29,810.4118594913476,7,46,-1.0997490882873535,3.8091847896575928,50.11919356155591,49.24247374732192,199.03544037477496,180.94654496974124,-0.0001942634553415,0.0881769880652427,0,0,0
16889,565012.5016792999,2010-08-26 03:18:59,840.4272397093525,7,46,-1.0997490882873535,3.8030331134796143,50.11919356155591,49.2516438859676,199.03544037477496,180.9814469293837,-0.0001295089750783,0.0881769880652427,0,0,0
16890,565042.5168205121,2010-08-26 03:19:29,870.4423809417317,7,46,-1.0997490882873535,3.7970433235168457,50.11919356155591,49.26081399562076,199.03544037477496,181.01629315757057,-0.0001618862152099,0.0881769880652427,0,0,0
16891,565072.5321917076,2010-08-26 03:19:59,900.4577521171998,7,46,-1.099929690361023,3.791053533554077,50.11919356155591,49.26998415342467,199.03544037477496,181.0510847777136,-0.0001618862152099,0.0881769880652427,0,0,0
16892,565102.5473785588,2010-08-26 03:20:29,930.4729389782996,7,46,-1.0997490882873535,3.785387516021729,50.11919356155591,49.27915338586815,199.03544037477496,181.08581951044297,-0.0001618862152099,0.0881769880652427,0,0,0
16893,565132.5626018556,2010-08-26 03:20:59,960.488162305284,7,46,-1.0997490882873535,3.77972149848938,50.11919356155591,49.28832259894085,199.03544037477496,181.1205014306892,-0.0001618862152099,0.0881769880652427,0,0,0
16894,565162.5818956676,2010-08-26 03:21:29,990.5074561873438,7,46,-1.0997490882873535,3.773893594741821,50.11919356155591,49.29749310107028,199.03544037477496,181.15513657802703,-0.0001942634553415,0.0881769880652427,0,0,0
16895,565192.5930938125,2010-08-26 03:21:59,1020.5186542320862,7,46,-1.099929690361023,3.7685513496398926,50.11919356155591,49.30666109977409,199.03544037477496,181.1897115192704,-0.0001295089750783,0.0881769880652427,0,0,0
16896,565222.6083398511,2010-08-26 03:22:29,1050.5339002756873,7,46,-1.099929690361023,3.763209104537964,50.11919356155591,49.31583035691378,199.03544037477496,181.22424158544152,-0.0001618862152099,0.0881769880652427,0,0,0
16897,565252.6236101802,2010-08-26 03:22:59,1080.5491706048151,7,46,-1.099568486213684,3.758028745651245,50.11919356155591,49.32499957420255,199.03544037477496,181.2587227422824,-0.0001295089750783,0.0881769880652427,0,0,0
16898,565282.6389310703,2010-08-26 03:23:29,1110.5644916754063,7,46,-1.099929690361023,3.752686738967896,50.11919356155591,49.334168892707176,199.03544037477496,181.29315648975987,-0.0001618385285837,0.0881769880652427,0,0,0
16899,565312.6541375354,2010-08-26 03:23:59,1140.5796979649278,7,46,-1.0997490882873535,3.7475063800811768,50.11919356155591,49.34333813220624,199.03544037477496,181.32754309204452,-0.0001942634553415,0.0881769880652427,0,0,0
16900,565342.6694874528,2010-08-26 03:24:29,1170.5950478723896,7,46,-1.0997490882873535,3.742487907409668,50.11919356155591,49.35250746662035,199.03544037477496,181.36188420926612,-0.0001618862152099,0.0881769880652427,0,0,0
16901,565372.6846248456,2010-08-26 03:24:59,1200.6101852752245,7,46,-1.099929690361023,3.737793207168579,50.11919356155591,49.36167668385116,199.03544037477496,181.3961797800235,-0.0001295089750783,0.0881769880652427,0,0,0
16902,565402.6999035757,2010-08-26 03:25:29,1230.62546400529,7,46,-1.0997490882873535,3.73309850692749,50.11919356155591,49.370845921761465,199.03544037477496,181.43043114001955,-0.0001295089750783,0.0881769880652427,0,0,0
16903,565432.7151281558,2010-08-26 03:25:59,1260.640688580385,7,46,-1.0997490882873535,3.7285656929016113,50.11919356155591,49.38001511882019,199.03544037477496,181.464638796487,-9.713172767078504e-05,0.0881769880652427,0,0,0
16904,565462.730383262,2010-08-26 03:26:29,1290.6559437116352,7,46,-1.099568486213684,3.7238709926605225,50.11919356155591,49.38918429135268,199.03544037477496,181.4988041703156,-9.713172767078504e-05,0.0881769880652427,0,0,0
16905,565492.7456589545,2010-08-26 03:26:59,1320.6712193890928,7,46,-1.0997490882873535,3.719338178634644,50.11919356155591,49.39835349495455,199.03544037477496,181.5329274560384,-9.713172767078504e-05,0.0881769880652427,0,0,0
16906,565522.760919419,2010-08-26 03:27:29,1350.6864798385975,7,46,-1.099929690361023,3.7148053646087646,50.11919356155591,49.40752270468042,199.03544037477496,181.56700945871657,-9.713172767078504e-05,0.0881769880652427,0,0,0
16907,565552.7761541544,2010-08-26 03:27:59,1380.7017145840402,7,46,-1.0997490882873535,3.7102725505828857,50.11919356155591,49.41669198883834,199.03544037477496,181.6010511134336,-0.0001618862152099,0.0881769880652427,0,0,0
16908,565582.7915399764,2010-08-26 03:28:29,1410.7171003959868,7,46,-1.0997490882873535,3.7060635089874263,50.11919356155591,49.425861231033856,199.03544037477496,181.63505284316963,-9.713172767078504e-05,0.0881769880652427,0,0,0
16909,565612.8066806023,2010-08-26 03:28:59,1440.732241036892,7,46,-1.0997490882873535,3.701854467391968,50.11919356155591,49.43503048641605,199.03544037477496,181.6690155601224,-9.713172767078504e-05,0.0881769880652427,0,0,0
16910,565642.8220678929,2010-08-26 03:29:29,1470.7476283024614,7,46,-1.099929690361023,3.697807312011719,50.11919356155591,49.44419983855355,199.03544037477496,181.7029400682088,-9.713172767078504e-05,0.0881769880652427,0,0,0
16911,565672.8371723988,2010-08-26 03:29:59,1500.7627328283568,7,46,-1.099929690361023,3.69359827041626,50.11919356155591,49.45336911463484,199.03544037477496,181.736826647979,-9.713172767078504e-05,0.0881769880652427,0,0,0
16912,565702.8524362367,2010-08-26 03:30:29,1530.777996656282,7,46,-1.0997490882873535,3.6895511150360103,50.11919356155591,49.46253839689072,199.03544037477496,181.77067614045865,-0.0001295089750783,0.0881769880652427,0,0,0
16913,565732.8679553709,2010-08-26 03:30:59,1560.7935157905083,7,46,-1.0997490882873535,3.685665845870972,50.11919356155591,49.47170775461764,199.03544037477496,181.80448927846024,-9.713172767078504e-05,0.0881769880652427,0,0,0
16914,565762.8829642434,2010-08-26 03:31:29,1590.8085246730311,7,46,-1.099929690361023,3.6817805767059326,50.11919356155591,49.48087695025693,199.03544037477496,181.83826597643008,-6.47544875391759e-05,0.0881769880652427,0,0,0
16915,565792.8983239302,2010-08-26 03:31:59,1620.8238843548536,7,46,-1.0997490882873535,3.678057193756104,50.11919356155591,49.49004631596984,199.03544037477496,181.872008007886,-9.713172767078504e-05,0.0881769880652427,0,0,0
16916,565822.9134576138,2010-08-26 03:32:29,1650.8390180334063,7,46,-1.0997490882873535,3.6743338108062735,50.11919356155591,49.49921557688142,199.03544037477496,181.90571504517217,-6.47544875391759e-05,0.0881769880652427,0,0,0
16917,565852.9287080483,2010-08-26 03:32:59,1680.8542684729634,7,46,-1.0997490882873535,3.6704487800598153,50.11919356155591,49.50838487213543,199.03544037477496,181.93938813256912,-0.0001295089750783,0.0881769880652427,0,0,0
16918,565882.9441895639,2010-08-26 03:33:29,1710.8697499834202,7,46,-1.0997490882873535,3.6668872833251953,50.11919356155591,49.517554221119845,199.03544037477496,181.9730278691877,-9.713172767078504e-05,0.0881769880652427,0,0,0
16919,565912.9592273233,2010-08-26 03:33:59,1740.884787752938,7,46,-1.0997490882873535,3.663325786590576,50.11919356155591,49.526723472395226,199.03544037477496,182.006634738728,-9.713172767078504e-05,0.0881769880652427,0,0,0
16920,565942.9745057577,2010-08-26 03:34:29,1770.9000661772418,7,46,-1.0997490882873535,3.659926176071167,50.11919356155591,49.5358927455485,199.03544037477496,182.04020960899285,-9.713172767078504e-05,0.0881769880652427,0,0,0
16921,565972.989867259,2010-08-26 03:34:59,1800.9154276785987,7,46,-1.0997490882873535,3.656526565551758,50.11919356155591,49.54506200843928,199.03544037477496,182.0737530301057,-9.713172767078504e-05,0.0881769880652427,0,0,0
16922,566003.005004306,2010-08-26 03:35:29,1830.9305647405845,7,46,-1.099568486213684,3.653288841247559,50.11919356155591,49.5542312381035,199.03544037477496,182.1072658087424,-6.47544875391759e-05,0.0881769880652427,0,0,0
16923,566033.0202526854,2010-08-26 03:35:59,1860.9458131149945,7,46,-1.0997490882873535,3.65005111694336,50.11919356155591,49.56340055915164,199.03544037477496,182.1407489927806,-9.713172767078504e-05,0.0881769880652427,0,0,0
16924,566063.0354804635,2010-08-26 03:36:29,1890.9610408980843,7,46,-1.0997490882873535,3.64681339263916,50.11919356155591,49.57256987190208,199.03544037477496,182.1742030526433,-9.713172767078504e-05,0.0881769880652427,0,0,0
16925,566093.0507601509,2010-08-26 03:36:59,1920.9763205855363,7,46,-1.0997490882873535,3.643737554550171,50.11919356155591,49.58173907139787,199.03544037477496,182.20762787162627,-9.713172767078504e-05,0.0881769880652427,0,0,0
16926,566123.0662044035,2010-08-26 03:37:29,1950.9917648531723,7,46,-1.0997490882873535,3.6409854888916016,50.11919356155591,49.590908398610175,199.03544037477496,182.241025641584,-3.237724376958795e-05,0.0881769880652427,0,0,0
16927,566153.0813259819,2010-08-26 03:37:59,1981.0068864115176,7,46,-1.099568486213684,3.6380715370178223,50.11919356155591,49.60007762002687,199.03544037477496,182.27439626429592,-6.47544875391759e-05,0.0881769880652427,0,0,0
16928,566183.0965859402,2010-08-26 03:38:29,2011.022146374811,7,46,-1.0997490882873535,3.635157585144043,50.11919356155591,49.60924692545055,199.03544037477496,182.30774096539423,-6.47544875391759e-05,0.0881769880652427,0,0,0
16929,566213.1118092121,2010-08-26 03:38:59,2041.0373696616955,7,46,-1.0997490882873535,3.6324055194854736,50.11919356155591,49.6184161886332,199.03544037477496,182.34106003966863,-6.47544875391759e-05,0.0881769880652427,0,0,0
16930,566243.1270752705,2010-08-26 03:39:29,2071.052635715167,7,46,-1.0997490882873535,3.6294915676116943,50.11919356155591,49.62758549172993,199.03544037477496,182.37435413625883,-0.0001295089750783,0.0881769880652427,0,0,0
16931,566273.1423186274,2010-08-26 03:39:59,2101.0678790770844,7,46,-1.099568486213684,3.627063274383545,50.11919356155591,49.63675479025627,199.03544037477496,182.4076236579833,-6.47544875391759e-05,0.0881769880652427,0,0,0
16932,566303.157752409,2010-08-26 03:40:29,2131.083312848561,7,46,-1.0997490882873535,3.624311208724976,50.11919356155591,49.64592412371691,199.03544037477496,182.4408690601987,-9.713172767078504e-05,0.0881769880652427,0,0,0
16933,566333.1728286794,2010-08-26 03:40:59,2161.0983891039973,7,46,-1.099929690361023,3.621721029281616,50.11919356155591,49.65509339926983,199.03544037477496,182.4740904524132,-6.47544875391759e-05,0.0881769880652427,0,0,0
16934,566363.1881247126,2010-08-26 03:41:29,2191.1136851622505,7,46,-1.0997490882873535,3.619130849838257,50.11919356155591,49.66426267102516,199.03544037477496,182.50728819602776,-0.0001295089750783,0.0881769880652427,0,0,0
16935,566393.2033415535,2010-08-26 03:42:00,2221.128901983019,7,46,-1.099929690361023,3.6167025566101074,50.11919356155591,49.67343198708826,199.03544037477496,182.5404624720555,-6.47544875391759e-05,0.0881769880652427,0,0,0
16936,566423.2187929087,2010-08-26 03:42:30,2251.1443534485948,7,46,-1.099929690361023,3.614112377166748,50.11919356155591,49.68260141978176,199.03544037477496,182.57361368886228,-6.47544875391759e-05,0.0881769880652427,0,0,0
16937,566453.2339815343,2010-08-26 03:43:00,2281.159541983868,7,46,-1.099568486213684,3.611684083938599,50.11919356155591,49.69177067250594,199.03544037477496,182.60674085385628,-6.47544875391759e-05,0.0881769880652427,0,0,0
16938,566483.2491254834,2010-08-26 03:43:30,2311.174685907956,7,46,-1.0997490882873535,3.608932018280029,50.11919356155591,49.700939996919296,199.03544037477496,182.6398445874584,-9.713172767078504e-05,0.0881769880652427,0,0,0
16939,566513.2644999921,2010-08-26 03:44:00,2341.1900604217435,7,46,-1.099929690361023,3.60617995262146,50.11919356155591,49.71010940664588,199.03544037477496,182.6729247122373,-9.713172767078504e-05,0.0881769880652427,0,0,0
16940,566543.2797475596,2010-08-26 03:44:30,2371.2053079941547,7,46,-1.099929690361023,3.603751659393311,50.11919356155591,49.71927868221295,199.03544037477496,182.7059800628414,-6.47544875391759e-05,0.0881769880652427,0,0,0
16941,566573.2949003507,2010-08-26 03:45:00,2401.220460785342,7,46,-1.099929690361023,3.600999593734741,50.11919356155591,49.728447907275886,199.03544037477496,182.7390108777618,-9.713172767078504e-05,0.0881769880652427,0,0,0
16942,566603.3101571611,2010-08-26 03:45:30,2431.235717595777,7,46,-1.099929690361023,3.598247528076172,50.11919356155591,49.73761723518713,199.03544037477496,182.7720172173386,-6.47544875391759e-05,0.0881769880652427,0,0,0
16943,566633.3253934203,2010-08-26 03:46:00,2461.250953865017,7,46,-1.0997490882873535,3.5956573486328125,50.11919356155591,49.746786537900086,199.03544037477496,182.8049980797559,-6.47544875391759e-05,0.0881769880652427,0,0,0
16944,566663.3406507772,2010-08-26 03:46:30,2491.266211201764,7,46,-1.099568486213684,3.592743396759033,50.11919356155591,49.7559557629848,199.03544037477496,182.83795288970265,-6.47544875391759e-05,0.0881769880652427,0,0,0
16945,566693.3561474304,2010-08-26 03:47:00,2521.2817078599737,7,46,-1.099568486213684,3.589829683303833,50.11919356155591,49.76512515351926,199.03544037477496,182.87088188493863,-6.47544875391759e-05,0.0881769880652427,0,0,0
16946,566723.3711739519,2010-08-26 03:47:30,2551.2967343814585,7,46,-1.0997490882873535,3.586753845214844,50.11919356155591,49.77429436819614,199.03544037477496,182.90378323893336,-6.47544875391759e-05,0.0881769880652427,0,0,0
16947,566753.3864332134,2010-08-26 03:48:00,2581.311993648015,7,46,-1.0997490882873535,3.5835161209106445,50.11919356155591,49.78346372747825,199.03544037477496,182.93665723010585,-9.713172767078504e-05,0.0881769880652427,0,0,0
16948,566783.4016959686,2010-08-26 03:48:30,2611.327256393242,7,46,-1.099929690361023,3.5804402828216557,50.11919356155591,49.79263302125111,199.03544037477496,182.9695025433708,-9.713172767078504e-05,0.0881769880652427,0,0,0
16949,566813.4169508844,2010-08-26 03:49:00,2641.3425113089547,7,46,-1.0997490882873535,3.577202558517456,50.11919356155591,49.80180234169252,199.03544037477496,183.00231837822412,-9.713172767078504e-05,0.0881769880652427,0,0,0
16950,566843.43236024,2010-08-26 03:49:30,2671.3579206645795,7,46,-1.099568486213684,3.573802947998047,50.11919356155591,49.8109717242584,199.03544037477496,183.0351040217008,-9.713172767078504e-05,0.0881769880652427,0,0,0
16951,566873.4474811918,2010-08-26 03:50:00,2701.373041616413,7,46,-1.099929690361023,3.5704033374786377,50.11919356155591,49.82014100707989,199.03544037477496,183.06785800802476,-9.713172767078504e-05,0.0881769880652427,0,0,0
16952,566903.4627437515,2010-08-26 03:50:30,2731.3883042112648,7,46,-1.099568486213684,3.5668418407440186,50.11919356155591,49.82931031103537,199.03544037477496,183.1005794897588,-6.47544875391759e-05,0.0881769880652427,0,0,0
16953,566933.4781181301,2010-08-26 03:51:00,2761.403678539591,7,46,-1.0997490882873535,3.563118457794189,50.11919356155591,49.83847960950942,199.03544037477496,183.13326706749265,-6.47544875391759e-05,0.0881769880652427,0,0,0
16954,566963.4932355832,2010-08-26 03:51:30,2791.418796012755,7,46,-1.0997490882873535,3.5589094161987305,50.11919356155591,49.84764886837437,199.03544037477496,183.16592011438053,-0.0001618862152099,0.0881769880652427,0,0,0
16955,566993.5086285179,2010-08-26 03:52:00,2821.434188947453,7,46,-1.0997490882873535,3.5551860332489014,50.11919356155591,49.85681824683619,199.03544037477496,183.1985371796478,-9.713172767078504e-05,0.0881769880652427,0,0,0
16956,567023.5237476852,2010-08-26 03:52:30,2851.449308109827,7,46,-1.099929690361023,3.5509769916534424,50.11919356155591,49.86598753643466,199.03544037477496,183.2311163207009,-0.0001295089750783,0.0881769880652427,0,0,0
16957,567053.5389887916,2010-08-26 03:53:00,2881.464549211111,7,46,-1.099929690361023,3.5467679500579834,50.11919356155591,49.87515693427199,199.03544037477496,183.26365691889177,-9.713172767078504e-05,0.0881769880652427,0,0,0
16958,567083.5558384017,2010-08-26 03:53:30,2911.481398851368,7,46,-1.099929690361023,3.5420732498168945,50.11919356155591,49.88432690058638,199.03544037477496,183.29615919796635,-0.0001618862152099,0.0881769880652427,0,0,0
16959,567113.569598131,2010-08-26 03:54:00,2941.495158630741,7,46,-1.0997490882873535,3.5377023220062256,50.11919356155591,49.89349666630172,199.03544037477496,183.3286191709633,-9.713172767078504e-05,0.0881769880652427,0,0,0
16960,567143.5847971223,2010-08-26 03:54:30,2971.510357546886,7,46,-1.0997490882873535,3.5328457355499268,50.11919356155591,49.90266682237915,199.03544037477496,183.3610374969787,-0.0001295089750783,0.0881769880652427,0,0,0
16961,567173.6000671507,2010-08-26 03:55:00,3001.5256276705018,7,46,-1.0997490882873535,3.527827262878418,50.11919356155591,49.91183615423764,199.03544037477496,183.39340854103708,-0.0001618862152099,0.0881769880652427,0,0,0
16962,567203.615356422,2010-08-26 03:55:30,3031.54091686164,7,46,-1.0997490882873535,3.522646903991699,50.11919356155591,49.92100545808601,199.03544037477496,183.42573296677816,-0.0001618862152099,0.0881769880652427,0,0,0
16963,567233.6153979562,2010-08-26 03:56:00,3061.5409584109625,7,46,-1.0997490882873535,3.5171427726745605,50.11919356155591,49.93017013671426,199.03544037477496,183.45799174029224,-0.0001618862152099,0.0881769880652427,0,0,0
16964,567263.6303426939,2010-08-26 03:56:30,3091.5559031385915,7,46,-1.0997490882873535,3.510991334915161,50.11919356155591,49.939339347115165,199.03544037477496,183.4902137251497,-0.0001618385285837,0.0881769880652427,0,0,0
16965,567293.645448493,2010-08-26 03:57:00,3121.571008927635,7,46,-1.0997490882873535,3.5046777725219727,50.11919356155591,49.94850868653627,199.03544037477496,183.52237892493568,-0.0001618862152099,0.0881769880652427,0,0,0
16966,567323.6607103059,2010-08-26 03:57:30,3151.586270735525,7,46,-1.099568486213684,3.4973928928375244,50.11919356155591,49.95767802048278,199.03544037477496,183.5544809011416,-0.0001942634553415,0.0881769880652427,0,0,0
16967,567353.6761255412,2010-08-26 03:58:00,3181.6016859708043,7,46,-1.099929690361023,3.4889748096466064,50.11919356155591,49.96684750387816,199.03544037477496,183.58651240607108,-0.0002590179501567,0.0881769880652427,0,0,0
16968,567383.6912192301,2010-08-26 03:58:30,3211.616779654678,7,46,-1.0997490882873535,3.479261636734009,50.11919356155591,49.97601681115937,199.03544037477496,183.6184612264772,-0.0002590179501567,0.0881769880652427,0,0,0
16969,567413.7064719904,2010-08-26 03:59:00,3241.6320324200315,7,46,-1.0997490882873535,3.4674439430236816,50.11919356155591,49.98518612338905,199.03544037477496,183.6503118446676,-0.0003885269106831,0.0881769880652427,0,0,0
16970,567443.7217307556,2010-08-26 03:59:30,3271.647291180326,7,46,-1.0997490882873535,3.452712297439575,50.11919356155591,49.99435550482207,199.03544037477496,183.68204178186724,-0.0004532813909463,0.0881769880652427,0,0,0
16971,567473.7369996011,2010-08-26 04:00:00,3301.662560030769,7,46,-1.099568486213684,3.43344783782959,50.11919356155591,50.003524851653474,199.03544037477496,183.71361591186405,-0.0005180359003134,0.0881769880652427,0,0,0
16972,567503.7523727566,2010-08-26 04:00:30,3331.677933176147,7,46,-1.099568486213684,3.4067368507385254,50.11919356155591,50.01269428892516,199.03544037477496,183.74498160703376,-0.0007770538213662,0.0881769880652427,0,0,0
16973,567533.7674984201,2010-08-26 04:01:00,3361.693058844736,7,46,-1.0997490882873535,3.3690173625946045,50.11919356155591,50.021863653391655,199.03544037477496,183.77605620713305,-0.0011655807029455,0.0881769880652427,0,0,0
16974,567563.7827757266,2010-08-26 04:01:30,3391.7083361562663,7,46,-1.0997490882873535,3.313976287841797,50.11919356155591,50.03103304015717,199.03544037477496,183.80671152727405,-0.0017159938579425,0.0881769880652427,0,0,0
16975,567593.7980396699,2010-08-26 04:02:00,3421.7236000944654,7,46,-1.099568486213684,3.233195304870605,50.11919356155591,50.04020234012562,199.03544037477496,183.83675239368984,-0.0025578022468835,0.0881769880652427,0,0,0
16976,567623.8132613228,2010-08-26 04:02:30,3451.7388217522903,7,46,-1.099929690361023,3.106924533843994,50.11919356155591,50.04937163112074,199.03544037477496,183.8658685280888,-0.0041766166687011,0.0881769880652427,0,0,0
16977,567647.9067129726,2010-08-26 04:02:54,3475.832273402172,7,46,-1.0997490882873535,2.9066717624664307,50.11919356155591,50.05673183012565,199.03544037477496,183.88811297993823,-0.0098102567717432,0.0881769880652427,0,0,0
16978,567659.9378169506,2010-08-26 04:03:06,3487.863377380163,7,46,-1.0997490882873535,2.7060954570770264,50.11919356155591,50.060407196613056,199.03544037477496,183.89844752708896,-0.0146020893007516,0.0881769880652427,0,0,0
16979,567660.2815938384,2010-08-26 04:03:07,3488.207154262932,7,46,-1.0997490882873535,2.699781894683838,50.11919356155591,50.06051221089198,199.03544037477496,183.8987313908748,-0.0146344657987356,0.0881769880652427,0,0,0
16980,567720.306281209,2010-08-26 04:04:07,60.0148796010827,8,46,0.0,3.370474338531494,50.11919356155591,50.06051221089198,199.03544037477496,183.8987313908748,0.0012303352123126,0.0881769880652427,0,0,0
16981,567720.5004611654,2010-08-26 04:04:07,0.183599696936981,9,46,-1.9243103452026844e-05,3.370474338531494,50.11919356155591,50.06051221187337,199.03544037477496,183.89873139418256,0.0,0.0842081755399704,0,0,0
16982,567725.3283688119,2010-08-26 04:04:12,5.011507373376723,9,46,0.0005225847125984,3.3779211044311523,50.11919434062645,50.06051221203949,199.0354430039878,183.89873139474244,0.0010684489971026,0.0842081755399704,0,0,0
