Data_Point,Test_Time(s),Date_Time,Step_Time(s),Step_Index,Cycle_Index,Current(A),Voltage(V),Charge_Capacity(Ah),Discharge_Capacity(Ah),Charge_Energy(Wh),Discharge_Energy(Wh),dV/dt(V/s),Internal_Resistance(Ohm),Is_FC_Data,AC_Impedance(Ohm),ACI_Phase_Angle(Deg)
6017,201718.1255042413,2010-08-21 22:23:28,30.01529902063605,1,17,0.0,3.3513717651367188,17.804164512932843,17.775039141424546,70.68995463888072,65.26482777238613,0.0007122516399249,0.0835494250059127,0,0,0
6018,201748.140859863,2010-08-21 22:23:58,60.03065466740183,1,17,0.0,3.3740358352661133,17.804164512932843,17.775039141424546,70.68995463888072,65.26482777238613,0.0005504131549969,0.0835494250059127,0,0,0
6019,201778.15615054787,2010-08-21 22:24:28,90.0459453322126,1,17,0.0,3.390872001647949,17.804164512932843,17.775039141424546,70.68995463888072,65.26482777238613,0.0003885269106831,0.0835494250059127,0,0,0
6020,201808.124526998,2010-08-21 22:24:58,120.01432180742772,1,17,0.0,3.404146671295166,17.804164512932843,17.775039141424546,70.68995463888072,65.26482777238613,0.0003561496851034,0.0835494250059127,0,0,0
6021,201838.1465493469,2010-08-21 22:25:28,30.015311536830257,2,17,0.5501165986061096,3.540616273880005,17.808751650041543,17.775039141424546,70.70604062729021,65.26482777238613,0.0015217304462566,0.0835494250059127,0,0,0
6022,201868.16195702835,2010-08-21 22:25:58,60.03071924835745,2,17,0.5501165986061096,3.5877251625061035,17.81333880817004,17.775039141424546,70.72239571974501,65.26482777238613,0.0011332035064697,0.0835494250059127,0,0,0
6023,201898.1771232731,2010-08-21 22:26:28,90.0458854730251,2,17,0.550297200679779,3.623663663864136,17.817925913298744,17.775039141424546,70.73893810449088,65.26482777238613,0.0008741855854168,0.0835494250059127,0,0,0
6024,201928.19294393883,2010-08-21 22:26:58,120.06170613876122,2,17,0.5501165986061096,3.6531269550323486,17.822513166544255,17.775039141424546,70.75563032933897,65.26482777238613,0.0006799221155233,0.0835494250059127,0,0,0
6025,201958.2078881452,2010-08-21 22:27:28,150.07665034007834,2,17,0.550297200679779,3.678380966186523,17.82710018393869,17.775039141424546,70.772446903657,65.26482777238613,0.0006151676061563,0.0835494250059127,0,0,0
6026,201988.22303270584,2010-08-21 22:27:58,180.09179490075263,2,17,0.5499359965324402,3.699911832809448,17.83168728139224,17.775039141424546,70.78937105615819,65.26482777238613,0.0005180359003134,0.0835494250059127,0,0,0
6027,202018.2383504782,2010-08-21 22:28:28,210.10711269317372,2,17,0.5501165986061096,3.7185287475585938,17.836274346511264,17.775039141424546,70.80638731801261,65.26482777238613,0.0004532813909463,0.0835494250059127,0,0,0
6028,202048.2536251732,2010-08-21 22:28:59,240.12238739319537,2,17,0.5501165986061096,3.73342227935791,17.840861446010184,17.775039141424546,70.82348036281935,65.26482777238613,0.0003561496851034,0.0835494250059127,0,0,0
6029,202078.26921813143,2010-08-21 22:29:29,270.13798032133934,2,17,0.5501165986061096,3.7432973384857178,17.845448615239732,17.775039141424546,70.84063085950204,65.26482777238613,0.0001618862152099,0.0835494250059127,0,0,0
6030,202108.2843595994,2010-08-21 22:29:59,300.15312179431817,2,17,0.5501165986061096,3.7489633560180655,17.850035727052397,17.775039141424546,70.8578162065477,65.26482777238613,0.0001295089750783,0.0835494250059127,0,0,0
6031,202138.2995557687,2010-08-21 22:30:29,330.1683179836669,2,17,0.5501165986061096,3.7522010803222656,17.85462282150313,17.775039141424546,70.87502071850854,65.26482777238613,9.713172767078504e-05,0.0835494250059127,0,0,0
6032,202168.31484111023,2010-08-21 22:30:59,360.18360330014804,2,17,0.5501165986061096,3.754629135131836,17.859209921518243,17.775039141424546,70.89223829792019,65.26482777238613,3.237724376958795e-05,0.0835494250059127,0,0,0
6033,202198.33014241155,2010-08-21 22:31:29,390.1989046014683,2,17,0.5501165986061096,3.7572193145751953,17.863796998741062,17.775039141424546,70.90946702396975,65.26482777238613,9.713172767078504e-05,0.0835494250059127,0,0,0
6034,202228.34543394356,2010-08-21 22:31:59,420.21419613845273,2,17,0.5501165986061096,3.759485721588135,17.868384052209045,17.775039141424546,70.92670644959126,65.26482777238613,6.47544875391759e-05,0.0835494250059127,0,0,0
6035,202258.36074812696,2010-08-21 22:32:29,450.22951031686665,2,17,0.5501165986061096,3.761914014816284,17.872971155414184,17.775039141424546,70.94395673671593,65.26482777238613,9.713172767078504e-05,0.0835494250059127,0,0,0
6036,202288.3760387617,2010-08-21 22:32:59,480.2448009516025,2,17,0.550297200679779,3.764180421829224,17.877558234105773,17.775039141424546,70.96121769877257,65.26482777238613,6.47544875391759e-05,0.0835494250059127,0,0,0
6037,202318.3913640628,2010-08-21 22:33:29,510.2601262527376,2,17,0.5501165986061096,3.766446828842163,17.882145315208415,17.775039141424546,70.97848954333011,65.26482777238613,6.47544875391759e-05,0.0835494250059127,0,0,0
6038,202348.40680856103,2010-08-21 22:33:59,540.2755707810235,2,17,0.550297200679779,3.768875122070313,17.886732399646146,17.775039141424546,70.99577230566379,65.26482777238613,3.237724376958795e-05,0.0835494250059127,0,0,0
6039,202378.42196799372,2010-08-21 22:34:29,570.290730208751,2,17,0.550297200679779,3.771303415298462,17.891319451275283,17.775039141424546,71.01306585638694,65.26482777238613,9.713172767078504e-05,0.0835494250059127,0,0,0
6040,202408.43740049712,2010-08-21 22:34:59,600.3061626870045,2,17,0.550297200679779,3.7737317085266113,17.89590647867299,17.775039141424546,71.03037032172821,65.26482777238613,6.47544875391759e-05,0.0835494250059127,0,0,0
6041,202438.4525598346,2010-08-21 22:35:29,630.3213220245073,2,17,0.5501165986061096,3.7761600017547607,17.900493596634963,17.775039141424546,71.0476861307165,65.26482777238613,6.47544875391759e-05,0.0835494250059127,0,0,0
6042,202468.4678409356,2010-08-21 22:35:59,660.336603135507,2,17,0.550297200679779,3.7784264087677,17.905080650630985,17.775039141424546,71.06501272000244,65.26482777238613,3.237724376958795e-05,0.0835494250059127,0,0,0
6043,202498.483156728,2010-08-21 22:36:29,690.3519189429809,2,17,0.5501165986061096,3.7808547019958496,17.909667780891798,17.775039141424546,71.0823508174514,65.26482777238613,3.237724376958795e-05,0.0835494250059127,0,0,0
6044,202528.49846744785,2010-08-21 22:36:59,720.3672296627749,2,17,0.5499359965324402,3.783282995223999,17.9142548529566,17.775039141424546,71.09970002298466,65.26482777238613,0.0,0.0835494250059127,0,0,0
6045,202558.513988582,2010-08-21 22:37:29,750.3827507969864,2,17,0.550297200679779,3.786035060882568,17.918842022533475,17.775039141424546,71.11706141301488,65.26482777238613,6.47544875391759e-05,0.0835494250059127,0,0,0
6046,202588.529177804,2010-08-21 22:37:59,780.397939993908,2,17,0.550297200679779,3.7887871265411377,17.92342908706819,17.775039141424546,71.13443460213354,65.26482777238613,6.47544875391759e-05,0.0835494250059127,0,0,0
6047,202618.54436216387,2010-08-21 22:38:29,810.413124353774,2,17,0.5499359965324402,3.791377305984497,17.928016191996143,17.775039141424546,71.15182069583206,65.26482777238613,3.237724376958795e-05,0.0835494250059127,0,0,0
6048,202648.5597774944,2010-08-21 22:38:59,840.4285396842901,2,17,0.5499359965324402,3.7944531440734863,17.932603341778137,17.775039141424546,71.1692203412676,65.26482777238613,3.237724376958795e-05,0.0835494250059127,0,0,0
6049,202678.5749877237,2010-08-21 22:39:29,870.4437499136309,2,17,0.5499359965324402,3.7976908683776855,17.93719044737494,17.775039141424546,71.18663387621298,65.26482777238613,6.47544875391759e-05,0.0835494250059127,0,0,0
6050,202708.5902598423,2010-08-21 22:39:59,900.4590220372312,2,17,0.550297200679779,3.8012523651123047,17.941777554065098,17.775039141424546,71.20406204431553,65.26482777238613,0.0001295089750783,0.0835494250059127,0,0,0
6051,202738.6056251531,2010-08-21 22:40:29,930.4743873982078,2,17,0.550297200679779,3.804166316986084,17.946364689127037,17.775039141424546,71.22150536302806,65.26482777238613,6.47544875391759e-05,0.0835494250059127,0,0,0
6052,202768.6209040787,2010-08-21 22:40:59,960.489666273636,2,17,0.5501165986061096,3.807565927505493,17.95095176933417,17.775039141424546,71.23896391479111,65.26482777238613,3.237724376958795e-05,0.0835494250059127,0,0,0
6053,202798.63616701445,2010-08-21 22:41:29,990.5049292093372,2,17,0.5501165986061096,3.811127424240112,17.9555388797321,17.775039141424546,71.25643826168385,65.26482777238613,9.713172767078504e-05,0.0835494250059127,0,0,0
6054,202828.6514859096,2010-08-21 22:41:59,1020.5202481045068,2,17,0.5501165986061096,3.8145270347595215,17.960126001356077,17.775039141424546,71.27392843306653,65.26482777238613,6.47544875391759e-05,0.0835494250059127,0,0,0
6055,202858.6667715068,2010-08-21 22:42:29,1050.5355336966747,2,17,0.5501165986061096,3.81792664527893,17.964713124027643,17.775039141424546,71.2914342861335,65.26482777238613,9.713172767078504e-05,0.0835494250059127,0,0,0
6056,202888.68205780568,2010-08-21 22:42:59,1080.5508199956043,2,17,0.550297200679779,3.82132625579834,17.96930023762639,17.775039141424546,71.30895540162662,65.26482777238613,9.713172767078504e-05,0.0835494250059127,0,0,0
6057,202918.69749747188,2010-08-21 22:43:29,1110.5662596617726,2,17,0.5501165986061096,3.824402093887329,17.973887361817223,17.775039141424546,71.32649150309,65.26482777238613,3.237724376958795e-05,0.0835494250059127,0,0,0
6058,202948.71265809253,2010-08-21 22:43:59,1140.5814202824731,2,17,0.5501165986061096,3.8274779319763184,17.978474496455494,17.775039141424546,71.34404228986946,65.26482777238613,3.237724376958795e-05,0.0835494250059127,0,0,0
6059,202978.7279946117,2010-08-21 22:44:29,1170.5967568266294,2,17,0.550297200679779,3.8307156562805176,17.983061665675542,17.775039141424546,71.36160763425258,65.26482777238613,6.47544875391759e-05,0.0835494250059127,0,0,0
6060,203008.7432602792,2010-08-21 22:44:59,1200.6120224690767,2,17,0.5501165986061096,3.833791255950928,17.987648712564656,17.775039141424546,71.37918663652866,65.26482777238613,3.237724376958795e-05,0.0835494250059127,0,0,0
6061,203038.75860668792,2010-08-21 22:45:29,1230.627368882831,2,17,0.550297200679779,3.837028980255127,17.992235828262356,17.775039141424546,71.39677998769157,65.26482777238613,9.713172767078504e-05,0.0835494250059127,0,0,0
6062,203068.7738680196,2010-08-21 22:45:59,1260.6426302095222,2,17,0.550297200679779,3.839781045913696,17.99682291793257,17.775039141424546,71.41438713325381,65.26482777238613,6.47544875391759e-05,0.0835494250059127,0,0,0
6063,203098.78917044372,2010-08-21 22:46:29,1290.6579326336407,2,17,0.550297200679779,3.843018770217896,18.001409968393265,17.775039141424546,71.43200781065184,65.26482777238613,9.713172767078504e-05,0.0835494250059127,0,0,0
6064,203128.8046106813,2010-08-21 22:46:59,1320.6733728712327,2,17,0.5501165986061096,3.845770835876465,18.005997139886073,17.775039141424546,71.44964225802278,65.26482777238613,9.713172767078504e-05,0.0835494250059127,0,0,0
6065,203158.81978091097,2010-08-21 22:47:29,1350.688543100882,2,17,0.5501165986061096,3.848522901535034,18.01058423329223,17.775039141424546,71.4672893731844,65.26482777238613,9.713172767078504e-05,0.0835494250059127,0,0,0
6066,203188.8350801622,2010-08-21 22:47:59,1380.7038423771553,2,17,0.5501165986061096,3.8511130809783936,18.015171322565312,17.775039141424546,71.48494883983868,65.26482777238613,6.47544875391759e-05,0.0835494250059127,0,0,0
6067,203218.85036411023,2010-08-21 22:48:29,1410.719126305176,2,17,0.5499359965324402,3.853379487991333,18.01975853771344,17.775039141424546,71.5026205186017,65.26482777238613,0.0,0.0835494250059127,0,0,0
6068,203248.86578766623,2010-08-21 22:48:59,1440.7345498611924,2,17,0.5501165986061096,3.8558077812194815,18.02434566443532,17.775039141424546,71.52030276797304,65.26482777238613,3.237724376958795e-05,0.0835494250059127,0,0,0
6069,203278.88097030183,2010-08-21 22:49:29,1470.7497325218235,2,17,0.550297200679779,3.858074188232422,18.02893272276788,17.775039141424546,71.5379949538264,65.26482777238613,6.47544875391759e-05,0.0835494250059127,0,0,0
6070,203308.89639873503,2010-08-21 22:49:59,1500.7651609449706,2,17,0.5501165986061096,3.860016822814941,18.033519888831783,17.775039141424546,71.55569692994072,65.26482777238613,6.47544875391759e-05,0.0835494250059127,0,0,0
6071,203338.911580734,2010-08-21 22:50:29,1530.7803429289152,2,17,0.550297200679779,3.861797571182251,18.038107050498866,17.775039141424546,71.57340748556672,65.26482777238613,3.237724376958795e-05,0.0835494250059127,0,0,0
6072,203368.92686948905,2010-08-21 22:50:59,1560.7956316789537,2,17,0.550297200679779,3.863416433334351,18.042694184643185,17.775039141424546,71.59112572657263,65.26482777238613,6.47544875391759e-05,0.0835494250059127,0,0,0
6073,203398.94231924537,2010-08-21 22:51:29,1590.811081440282,2,17,0.5501165986061096,3.86487340927124,18.047281322974825,17.775039141424546,71.60885101368518,65.26482777238613,3.237724376958795e-05,0.0835494250059127,0,0,0
6074,203428.95748026704,2010-08-21 22:51:59,1620.8262424569696,2,17,0.5499359965324402,3.86616849899292,18.05186838681105,17.775039141424546,71.62658258121513,65.26482777238613,0.0,0.0835494250059127,0,0,0
6075,203458.97276956344,2010-08-21 22:52:29,1650.8415317583824,2,17,0.550297200679779,3.8676254749298096,18.05645555050247,17.775039141424546,71.64432049227074,65.26482777238613,3.237724376958795e-05,0.0835494250059127,0,0,0
6076,203488.9880831003,2010-08-21 22:52:59,1680.8568452901848,2,17,0.5499359965324402,3.8684349060058594,18.061042675419284,17.775039141424546,71.66206387590894,65.26482777238613,-3.237724376958795e-05,0.0835494250059127,0,0,0
6077,203519.0036514873,2010-08-21 22:53:29,1710.8724136771646,2,17,0.5501165986061096,3.869729995727539,18.06562986880911,17.775039141424546,71.67981270975493,65.26482777238613,3.237724376958795e-05,0.0835494250059127,0,0,0
6078,203549.0186883846,2010-08-21 22:53:59,1740.887450579521,2,17,0.5501165986061096,3.870863199234009,18.070216961861345,17.775039141424546,71.69756611936003,65.26482777238613,3.237724376958795e-05,0.0835494250059127,0,0,0
6079,203579.0339730144,2010-08-21 22:54:29,1770.9027352042783,2,17,0.5501165986061096,3.871834516525269,18.074804056914104,17.775039141424546,71.71532426011774,65.26482777238613,3.237724376958795e-05,0.0835494250059127,0,0,0
6080,203609.04929139325,2010-08-21 22:54:59,1800.9180536082235,2,17,0.550297200679779,3.8729677200317374,18.07939114052841,17.775039141424546,71.7330869723021,65.26482777238613,3.237724376958795e-05,0.0835494250059127,0,0,0
6081,203639.0672037722,2010-08-21 22:55:29,1830.93596596209,2,17,0.550297200679779,3.873939037322998,18.08397863147457,17.775039141424546,71.75085568317913,65.26482777238613,3.237724376958795e-05,0.0835494250059127,0,0,0
6082,203669.07987736943,2010-08-21 22:55:59,1860.9486395593635,2,17,0.5501165986061096,3.874748468399048,18.08856533827374,17.775039141424546,71.76862550222017,65.26482777238613,3.237724376958795e-05,0.0835494250059127,0,0,0
6083,203699.0951724302,2010-08-21 22:56:29,1890.963934635168,2,17,0.5501165986061096,3.8755578994750977,18.09315234040139,17.775039141424546,71.7864007280084,65.26482777238613,3.237724376958795e-05,0.0835494250059127,0,0,0
6084,203729.1104428195,2010-08-21 22:56:59,1920.9792050344704,2,17,0.5501165986061096,3.876367330551148,18.09773943712352,17.775039141424546,71.80418047353781,65.26482777238613,0.0,0.0835494250059127,0,0,0
6085,203759.12581083208,2010-08-21 22:57:29,1950.9945730270056,2,17,0.550297200679779,3.8773386478424072,18.102326472304803,17.775039141424546,71.8219640299561,65.26482777238613,0.0,0.0835494250059127,0,0,0
6086,203789.1410969255,2010-08-21 22:57:59,1981.0098591204232,2,17,0.5499359965324402,3.878148078918457,18.106913524616484,17.775039141424546,71.83975178232228,65.26482777238613,0.0,0.0835494250059127,0,0,0
6087,203819.15641409133,2010-08-21 22:58:29,2011.02517630132,2,17,0.550297200679779,3.879281282424927,18.111500657525557,17.775039141424546,71.85754393915234,65.26482777238613,6.47544875391759e-05,0.0835494250059127,0,0,0
6088,203849.17181328667,2010-08-21 22:58:59,2041.0405755016347,2,17,0.5501165986061096,3.879928827285767,18.116087731733163,17.775039141424546,71.87533976858587,65.26482777238613,3.237724376958795e-05,0.0835494250059127,0,0,0
6089,203879.1870128093,2010-08-21 22:59:29,2071.055774999229,2,17,0.5501165986061096,3.8809001445770255,18.12067482029228,17.775039141424546,71.8931396928151,65.26482777238613,3.237724376958795e-05,0.0835494250059127,0,0,0
6090,203909.20229241656,2010-08-21 22:59:59,2101.0710546114933,2,17,0.550297200679779,3.881709575653076,18.125261928275,17.775039141424546,71.91094378044716,65.26482777238613,3.237724376958795e-05,0.0835494250059127,0,0,0
6091,203939.2176033168,2010-08-21 23:00:29,2131.0863655067246,2,17,0.5501165986061096,3.882680892944336,18.12984902218775,17.775039141424546,71.92875178880564,65.26482777238613,3.237724376958795e-05,0.0835494250059127,0,0,0
6092,203969.23289255807,2010-08-21 23:01:00,2161.1016547730496,2,17,0.5501165986061096,3.8834903240203857,18.13443612901256,17.775039141424546,71.94656397562517,65.26482777238613,3.237724376958795e-05,0.0835494250059127,0,0,0
6093,203999.248481386,2010-08-21 23:01:30,2191.117243580925,2,17,0.5499359965324402,3.8844616413116455,18.139023317694058,17.775039141424546,71.96438060521919,65.26482777238613,3.237724376958795e-05,0.0835494250059127,0,0,0
6094,204029.26377587536,2010-08-21 23:02:00,2221.13253809533,2,17,0.5501165986061096,3.8852710723876953,18.143610443149303,17.775039141424546,71.98220091897852,65.26482777238613,3.237724376958795e-05,0.0835494250059127,0,0,0
6095,204059.2788006625,2010-08-21 23:02:30,2251.1475628574294,2,17,0.550297200679779,3.886242389678955,18.14819747129676,17.775039141424546,72.00002508938418,65.26482777238613,3.237724376958795e-05,0.0835494250059127,0,0,0
6096,204089.29410994373,2010-08-21 23:03:00,2281.1628721386382,2,17,0.5501165986061096,3.887051820755005,18.152784572968592,17.775039141424546,72.01785373015596,65.26482777238613,-3.237724376958795e-05,0.0835494250059127,0,0,0
6097,204119.30947383103,2010-08-21 23:03:30,2311.178236056017,2,17,0.5501165986061096,3.8881850242614746,18.15737171760562,17.775039141424546,72.03568675879967,65.26482777238613,3.237724376958795e-05,0.0835494250059127,0,0,0
6098,204149.32474776916,2010-08-21 23:04:00,2341.1935099891266,2,17,0.5501165986061096,3.888994455337525,18.161958772676364,17.775039141424546,72.05352379421122,65.26482777238613,3.237724376958795e-05,0.0835494250059127,0,0,0
6099,204179.34001916097,2010-08-21 23:04:30,2371.2087813357907,2,17,0.550297200679779,3.890127658843994,18.166545839903264,17.775039141424546,72.07136522518208,65.26482777238613,6.47544875391759e-05,0.0835494250059127,0,0,0
6100,204209.3553084072,2010-08-21 23:05:00,2401.2240706271787,2,17,0.5501165986061096,3.891098976135254,18.17113296337523,17.775039141424546,72.08921131186253,65.26482777238613,3.237724376958795e-05,0.0835494250059127,0,0,0
6101,204239.37066696625,2010-08-21 23:05:30,2431.23942918119,2,17,0.5501165986061096,3.8920702934265137,18.17572005582337,17.775039141424546,72.1070617989158,65.26482777238613,3.237724376958795e-05,0.0835494250059127,0,0,0
6102,204269.38605057768,2010-08-21 23:06:00,2461.25481278764,2,17,0.550297200679779,3.893041610717773,18.180307156284726,17.775039141424546,72.12491682108103,65.26482777238613,6.47544875391759e-05,0.0835494250059127,0,0,0
6103,204299.40121664692,2010-08-21 23:06:30,2491.2699788619325,2,17,0.5501165986061096,3.894012928009033,18.184894221029904,17.775039141424546,72.14277635999755,65.26482777238613,6.47544875391759e-05,0.0835494250059127,0,0,0
6104,204329.41655952187,2010-08-21 23:07:00,2521.2853217669426,2,17,0.5501165986061096,3.894660472869873,18.18948140098949,17.775039141424546,72.16064102131593,65.26482777238613,-3.237724376958795e-05,0.0835494250059127,0,0,0
6105,204359.43184652252,2010-08-21 23:07:30,2551.3006087425583,2,17,0.5501165986061096,3.8959555625915527,18.19406851862177,17.775039141424546,72.17850964940325,65.26482777238613,6.47544875391759e-05,0.0835494250059127,0,0,0
6106,204389.4471261549,2010-08-21 23:08:00,2581.3158883598358,2,17,0.5501165986061096,3.8970887660980233,18.198655623963905,17.775039141424546,72.19638326769976,65.26482777238613,3.237724376958795e-05,0.0835494250059127,0,0,0
6107,204419.4625450643,2010-08-21 23:08:30,2611.3313072843084,2,17,0.550297200679779,3.898060083389282,18.203242742097306,17.775039141424546,72.21426177988008,65.26482777238613,3.237724376958795e-05,0.0835494250059127,0,0,0
6108,204449.47774398548,2010-08-21 23:09:00,2641.3465061954407,2,17,0.5501165986061096,3.899193286895752,18.207829807524,17.775039141424546,72.23214507357382,65.26482777238613,0.0,0.0835494250059127,0,0,0
6109,204479.4932484181,2010-08-21 23:09:30,2671.362010638052,2,17,0.550297200679779,3.900164604187012,18.21241694921808,17.775039141424546,72.2500336872985,65.26482777238613,3.237724376958795e-05,0.0835494250059127,0,0,0
6110,204509.50831269863,2010-08-21 23:10:00,2701.3770749136306,2,17,0.5501165986061096,3.9012978076934814,18.217003938464853,17.775039141424546,72.26792679215967,65.26482777238613,0.0,0.0835494250059127,0,0,0
6111,204539.52359052145,2010-08-21 23:10:30,2731.392352736435,2,17,0.550297200679779,3.902592897415161,18.221590922018297,17.775039141424546,72.28582512286059,65.26482777238613,6.47544875391759e-05,0.0835494250059127,0,0,0
6112,204569.53901080432,2010-08-21 23:11:00,2761.407773004257,2,17,0.5501165986061096,3.903726100921631,18.226177963039348,17.775039141424546,72.30372890959796,65.26482777238613,3.237724376958795e-05,0.0835494250059127,0,0,0
6113,204599.55421204623,2010-08-21 23:11:30,2791.422974261236,2,17,0.5501165986061096,3.90469741821289,18.230764977630333,17.775039141424546,72.32163802561672,65.26482777238613,0.0,0.0835494250059127,0,0,0
6114,204629.569449318,2010-08-21 23:12:00,2821.438211537987,2,17,0.550297200679779,3.9059925079345694,18.2353522905926,17.775039141424546,72.33955353744595,65.26482777238613,3.237724376958795e-05,0.0835494250059127,0,0,0
6115,204659.58476326583,2010-08-21 23:12:30,2851.453525455752,2,17,0.550297200679779,3.90728759765625,18.23994028660962,17.775039141424546,72.3574773545046,65.26482777238613,3.237724376958795e-05,0.0835494250059127,0,0,0
6116,204689.6000539507,2010-08-21 23:13:00,2881.468816140612,2,17,0.550297200679779,3.90874457359314,18.24452807786868,17.775039141424546,72.37540589470348,65.26482777238613,6.47544875391759e-05,0.0835494250059127,0,0,0
6117,204719.61537262533,2010-08-21 23:13:30,2911.484134815232,2,17,0.550297200679779,3.90987777709961,18.249116031887738,17.775039141424546,72.39334077539506,65.26482777238613,6.47544875391759e-05,0.0835494250059127,0,0,0
6118,204749.63066831767,2010-08-21 23:14:00,2941.499430512585,2,17,0.550297200679779,3.911010980606079,18.253703991911976,17.775039141424546,72.41128142398644,65.26482777238613,3.237724376958795e-05,0.0835494250059127,0,0,0
6119,204779.64595796497,2010-08-21 23:14:30,2971.51472015986,2,17,0.550297200679779,3.912306070327759,18.258291948296662,17.775039141424546,72.42922790492788,65.26482777238613,0.0,0.0835494250059127,0,0,0
6120,204809.6612682336,2010-08-21 23:15:00,3001.5300304285297,2,17,0.5501165986061096,3.9136011600494394,18.262879711551445,17.775039141424546,72.44717949663811,65.26482777238613,6.47544875391759e-05,0.0835494250059127,0,0,0
6121,204839.67670174944,2010-08-21 23:15:30,3031.545463944369,2,17,0.550297200679779,3.914896011352539,18.2674670064417,17.775039141424546,72.46513526428654,65.26482777238613,6.47544875391759e-05,0.0835494250059127,0,0,0
6122,204869.6918846056,2010-08-21 23:16:00,3061.5606468255496,2,17,0.5501165986061096,3.9161911010742183,18.2720542607842,17.775039141424546,72.48309683727913,65.26482777238613,6.47544875391759e-05,0.0835494250059127,0,0,0
6123,204899.70730540977,2010-08-21 23:16:30,3091.576067599633,2,17,0.550297200679779,3.917648077011109,18.27664153075293,17.775039141424546,72.50106466646591,65.26482777238613,3.237724376958795e-05,0.0835494250059127,0,0,0
6124,204929.7224692936,2010-08-21 23:17:00,3121.5912314834663,2,17,0.550297200679779,3.918943166732788,18.281228765311106,17.775039141424546,72.51903856023844,65.26482777238613,3.237724376958795e-05,0.0835494250059127,0,0,0
6125,204959.73777878028,2010-08-21 23:17:30,3151.606540970188,2,17,0.5501165986061096,3.920238256454468,18.28581594091017,17.775039141424546,72.53701857463992,65.26482777238613,0.0,0.0835494250059127,0,0,0
6126,204989.75319328377,2010-08-21 23:18:00,3181.621955478655,2,17,0.5501165986061096,3.921695232391357,18.290403179582945,17.775039141424546,72.55500517183644,65.26482777238613,3.237724376958795e-05,0.0835494250059127,0,0,0
6127,205019.76837437047,2010-08-21 23:18:30,3211.63713656035,2,17,0.5499359965324402,3.923152208328247,18.29499025917579,17.775039141424546,72.57299762567604,65.26482777238613,3.237724376958795e-05,0.0835494250059127,0,0,0
6128,205049.7836686092,2010-08-21 23:19:00,3241.652430824131,2,17,0.5501165986061096,3.9246091842651367,18.299577425440624,17.775039141424546,72.5909969665841,65.26482777238613,6.47544875391759e-05,0.0835494250059127,0,0,0
6129,205079.7989952537,2010-08-21 23:19:30,3271.667757468614,2,17,0.5501165986061096,3.925904273986816,18.3041646406483,17.775039141424546,72.60900311821428,65.26482777238613,0.0,0.0835494250059127,0,0,0
6130,205109.8142702243,2010-08-21 23:20:00,3301.683032414248,2,17,0.5501165986061096,3.927523136138916,18.30875180621916,17.775039141424546,72.62701567851089,65.26482777238613,6.47544875391759e-05,0.0835494250059127,0,0,0
6131,205139.829582904,2010-08-21 23:20:30,3331.6983450989387,2,17,0.5501165986061096,3.9289801120758057,18.313339059202384,17.775039141424546,72.6450354152935,65.26482777238613,6.47544875391759e-05,0.0835494250059127,0,0,0
6132,205169.84487109768,2010-08-21 23:21:00,3361.7136332875784,2,17,0.550297200679779,3.930598974227905,18.31792630727237,17.775039141424546,72.66306196119173,65.26482777238613,6.47544875391759e-05,0.0835494250059127,0,0,0
6133,205199.8601794616,2010-08-21 23:21:30,3391.728941651501,2,17,0.550297200679779,3.932055950164795,18.322513595850804,17.775039141424546,72.68109557554645,65.26482777238613,3.237724376958795e-05,0.0835494250059127,0,0,0
6134,205229.875721939,2010-08-21 23:22:00,3421.7444841389306,2,17,0.5501165986061096,3.933512926101685,18.327100852329178,17.775039141424546,72.69913603985717,65.26482777238613,6.47544875391759e-05,0.0835494250059127,0,0,0
6135,205259.89077284123,2010-08-21 23:22:30,3451.759535031155,2,17,0.5501165986061096,3.934969902038574,18.33168806520296,17.775039141424546,72.71718337234944,65.26482777238613,0.0,0.0835494250059127,0,0,0
6136,205289.90609720504,2010-08-21 23:23:00,3481.774859420016,2,17,0.5499359965324402,3.936426877975464,18.336275400271447,17.775039141424546,72.73523834025997,65.26482777238613,0.0,0.0835494250059127,0,0,0
6137,205319.92139472195,2010-08-21 23:23:30,3511.7901569168544,2,17,0.5501165986061096,3.938045740127564,18.340862662951658,17.775039141424546,72.75330027243726,65.26482777238613,0.0,0.0835494250059127,0,0,0
6138,205349.93668160733,2010-08-21 23:24:00,3541.805443802245,2,17,0.550297200679779,3.939826488494873,18.34544994466096,17.775039141424546,72.77136964498985,65.26482777238613,3.237724376958795e-05,0.0835494250059127,0,0,0
6139,205379.9519813397,2010-08-21 23:24:30,3571.820743534656,2,17,0.5501165986061096,3.941607236862183,18.35003714324732,17.775039141424546,72.78944615550634,65.26482777238613,3.237724376958795e-05,0.0835494250059127,0,0,0
6140,205409.96730536263,2010-08-21 23:25:00,3601.836067552593,2,17,0.550297200679779,3.943226099014282,18.354624413719705,17.775039141424546,72.80753048569943,65.26482777238613,9.713172767078504e-05,0.0835494250059127,0,0,0
6141,205439.9829611375,2010-08-21 23:25:30,3631.8517233173447,2,17,0.5501165986061096,3.944683074951172,18.359211678405327,17.775039141424546,72.8256225036542,65.26482777238613,3.237724376958795e-05,0.0835494250059127,0,0,0
6142,205469.99789655188,2010-08-21 23:26:00,3661.866658741787,2,17,0.550297200679779,3.9466257095336914,18.363798888516023,17.775039141424546,72.84372212333788,65.26482777238613,9.713172767078504e-05,0.0835494250059127,0,0,0
6143,205500.0132259382,2010-08-21 23:26:30,3691.881988128104,2,17,0.5499359965324402,3.948082685470581,18.36838619165564,17.775039141424546,72.86182988642003,65.26482777238613,3.237724376958795e-05,0.0835494250059127,0,0,0
6144,205530.0286174844,2010-08-21 23:27:00,3721.8973796793553,2,17,0.5501165986061096,3.9500253200531006,18.37297344651448,17.775039141424546,72.87994553567428,65.26482777238613,3.237724376958795e-05,0.0835494250059127,0,0,0
6145,205560.0447714559,2010-08-21 23:27:30,3751.9135336457794,2,17,0.5499359965324402,3.9516441822052,18.3775608487068,17.775039141424546,72.89806995533175,65.26482777238613,0.0,0.0835494250059127,0,0,0
6146,205590.04520628537,2010-08-21 23:28:00,3781.9139684752768,2,17,0.550297200679779,3.95391058921814,18.382145841751143,17.775039141424546,72.91619305048935,65.26482777238613,9.713172767078504e-05,0.0835494250059127,0,0,0
6147,205620.0589317893,2010-08-21 23:28:30,3811.9276939792258,2,17,0.5501165986061096,3.955367565155029,18.38673290968454,17.775039141424546,72.93433279034886,65.26482777238613,3.237724376958795e-05,0.0835494250059127,0,0,0
6148,205650.0742259629,2010-08-21 23:29:00,3841.942988172831,2,17,0.550297200679779,3.957310199737549,18.391320217714146,17.775039141424546,72.95248187311081,65.26482777238613,6.47544875391759e-05,0.0835494250059127,0,0,0
6149,205680.089369511,2010-08-21 23:29:30,3871.958131705944,2,17,0.5499359965324402,3.958929061889648,18.39590754192677,17.775039141424546,72.97063951178892,65.26482777238613,3.237724376958795e-05,0.0835494250059127,0,0,0
6150,205710.10508147083,2010-08-21 23:30:00,3901.973843665752,2,17,0.5501165986061096,3.961033582687378,18.4004949119668,17.775039141424546,72.98880588570519,65.26482777238613,3.237724376958795e-05,0.0835494250059127,0,0,0
6151,205740.1199949606,2010-08-21 23:30:30,3931.9887571555255,2,17,0.550297200679779,3.9629762172698975,18.4050822069056,17.775039141424546,73.006980640227,65.26482777238613,6.47544875391759e-05,0.0835494250059127,0,0,0
6152,205770.1353016754,2010-08-21 23:31:00,3962.004063885376,2,17,0.550297200679779,3.964918851852417,18.409669366199356,17.775039141424546,73.0251635366908,65.26482777238613,3.237724376958795e-05,0.0835494250059127,0,0,0
6153,205800.15058841545,2010-08-21 23:31:30,3992.019350610368,2,17,0.5501165986061096,3.966699600219727,18.4142565535257,17.775039141424546,73.04335530429326,65.26482777238613,3.237724376958795e-05,0.0835494250059127,0,0,0
6154,205830.16589805257,2010-08-21 23:32:00,4022.0346602474633,2,17,0.5501165986061096,3.968642234802246,18.4188438342768,17.775039141424546,73.06155614036584,65.26482777238613,6.47544875391759e-05,0.0835494250059127,0,0,0
6155,205860.18155496017,2010-08-21 23:32:30,4052.0503171851374,2,17,0.550297200679779,3.9705848693847656,18.42343116632084,17.775039141424546,73.07976599467625,65.26482777238613,6.47544875391759e-05,0.0835494250059127,0,0,0
6156,205890.1965023243,2010-08-21 23:33:00,4082.0652645142513,2,17,0.550297200679779,3.972527503967285,18.42801833928795,17.775039141424546,73.09798405433318,65.26482777238613,3.237724376958795e-05,0.0835494250059127,0,0,0
6157,205920.2117868188,2010-08-21 23:33:31,4112.080549013695,2,17,0.5501165986061096,3.9744701385498047,18.432605631961984,17.775039141424546,73.11621141626823,65.26482777238613,6.47544875391759e-05,0.0835494250059127,0,0,0
6158,205950.22738758643,2010-08-21 23:34:01,4142.096149781378,2,17,0.550297200679779,3.976412773132324,18.43719296150342,17.775039141424546,73.13444780037268,65.26482777238613,9.713172767078504e-05,0.0835494250059127,0,0,0
6159,205980.2425152951,2010-08-21 23:34:31,4172.11127748504,2,17,0.5501165986061096,3.978031635284424,18.441780190099166,17.775039141424546,73.15269244058248,65.26482777238613,3.237724376958795e-05,0.0835494250059127,0,0,0
6160,206010.2576860661,2010-08-21 23:35:01,4202.12644826105,2,17,0.5501165986061096,3.9802980422973633,18.446367314021067,17.775039141424546,73.17094578853313,65.26482777238613,6.47544875391759e-05,0.0835494250059127,0,0,0
6161,206040.27300345257,2010-08-21 23:35:31,4232.14176564746,2,17,0.5501165986061096,3.982240676879883,18.450954508248724,17.775039141424546,73.18920854608726,65.26482777238613,6.47544875391759e-05,0.0835494250059127,0,0,0
6162,206070.2884671486,2010-08-21 23:36:01,4262.157229338505,2,17,0.5499359965324402,3.984021425247192,18.45554170851989,17.775039141424546,73.20748041905516,65.26482777238613,0.0,0.0835494250059127,0,0,0
6163,206100.303593539,2010-08-21 23:36:31,4292.1723557589685,2,17,0.5501165986061096,3.986287832260132,18.460128799633715,17.775039141424546,73.22576095109564,65.26482777238613,6.47544875391759e-05,0.0835494250059127,0,0,0
6164,206130.318898324,2010-08-21 23:37:01,4322.187660513897,2,17,0.5499359965324402,3.9880685806274414,18.4647159343954,17.775039141424546,73.24405088015588,65.26482777238613,3.237724376958795e-05,0.0835494250059127,0,0,0
6165,206160.33420249243,2010-08-21 23:37:31,4352.202964682362,2,17,0.5504778623580933,3.990334987640381,18.469303149923213,17.775039141424546,73.26235034627511,65.26482777238613,6.47544875391759e-05,0.0835494250059127,0,0,0
6166,206190.34950533265,2010-08-21 23:38:01,4382.21826752753,2,17,0.550297200679779,3.992277622222901,18.47389031409581,17.775039141424546,73.28065896715076,65.26482777238613,9.713172767078504e-05,0.0835494250059127,0,0,0
6167,206220.36493473823,2010-08-21 23:38:31,4412.233696938139,2,17,0.5501165986061096,3.994381904602051,18.47847753344825,17.775039141424546,73.29897728092534,65.26482777238613,6.47544875391759e-05,0.0835494250059127,0,0,0
6168,206250.38009601555,2010-08-21 23:39:01,4442.248858205451,2,17,0.550297200679779,3.99648642539978,18.483064667780955,17.775039141424546,73.31730478546294,65.26482777238613,9.713172767078504e-05,0.0835494250059127,0,0,0
6169,206280.3958609975,2010-08-21 23:39:31,4472.264623182393,2,17,0.5501165986061096,3.9984290599823,18.48765185651561,17.775039141424546,73.33564213259491,65.26482777238613,6.47544875391759e-05,0.0835494250059127,0,0,0
6170,206310.41071847768,2010-08-21 23:40:01,4502.279480667587,2,17,0.5501165986061096,4.000533580780029,18.492239003645143,17.775039141424546,73.35398894080203,65.26482777238613,3.23295607813634e-05,0.0835494250059127,0,0,0
6171,206340.42600985925,2010-08-21 23:40:31,4532.294772049184,2,17,0.5499359965324402,4.002799987792969,18.49682619562317,17.775039141424546,73.37234575600853,65.26482777238613,3.23295607813634e-05,0.0835494250059127,0,0,0
6172,206370.44176661072,2010-08-21 23:41:01,4562.310528810651,2,17,0.550297200679779,4.004904747009277,18.501413477967816,17.775039141424546,73.39071286974296,65.26482777238613,0.0,0.0835494250059127,0,0,0
6173,206400.45660775012,2010-08-21 23:41:31,4592.325369945094,2,17,0.550297200679779,4.007332801818848,18.50600059963192,17.775039141424546,73.40908935962425,65.26482777238613,6.47544875391759e-05,0.0835494250059127,0,0,0
6174,206430.472149195,2010-08-21 23:42:01,4622.340911409976,2,17,0.5501165986061096,4.009437561035156,18.51058785338977,17.775039141424546,73.42747643876574,65.26482777238613,6.47544875391759e-05,0.0835494250059127,0,0,0
6175,206460.48721687403,2010-08-21 23:42:31,4652.355979068987,2,17,0.5501165986061096,4.011541843414307,18.51517501052045,17.775039141424546,73.44587331690862,65.26482777238613,3.23295607813634e-05,0.0835494250059127,0,0,0
6176,206490.5025315487,2010-08-21 23:43:01,4682.371293738626,2,17,0.550297200679779,4.013970375061035,18.51976219894436,17.775039141424546,73.46428070570879,65.26482777238613,6.47544875391759e-05,0.0835494250059127,0,0,0
6177,206520.5179544882,2010-08-21 23:43:31,4712.386716678106,2,17,0.5501165986061096,4.0160746574401855,18.524349400666075,17.775039141424546,73.4826985439078,65.26482777238613,3.23295607813634e-05,0.0835494250059127,0,0,0
6178,206550.53314084304,2010-08-21 23:44:01,4742.401903032944,2,17,0.5501165986061096,4.018341064453125,18.528936563871145,17.775039141424546,73.5011267755712,65.26482777238613,3.23295607813634e-05,0.0835494250059127,0,0,0
6179,206580.54840907693,2010-08-21 23:44:31,4772.417171271863,2,17,0.550297200679779,4.0207695960998535,18.53352374166898,17.775039141424546,73.51956559858449,65.26482777238613,6.47544875391759e-05,0.0835494250059127,0,0,0
6180,206610.5638419111,2010-08-21 23:45:01,4802.432604106002,2,17,0.5501165986061096,4.023197650909424,18.538110913589303,17.775039141424546,73.53801517622263,65.26482777238613,6.47544875391759e-05,0.0835494250059127,0,0,0
6181,206640.5790201557,2010-08-21 23:45:31,4832.447782350628,2,17,0.5501165986061096,4.025464057922363,18.542698128457413,17.775039141424546,73.55647578368577,65.26482777238613,6.47544875391759e-05,0.0835494250059127,0,0,0
6182,206670.5943343592,2010-08-21 23:46:01,4862.463096549092,2,17,0.550297200679779,4.027892589569092,18.54728531209596,17.775039141424546,73.57494719251775,65.26482777238613,3.24249267578125e-05,0.0835494250059127,0,0,0
6183,206700.6097719251,2010-08-21 23:46:31,4892.478534115025,2,17,0.5504778623580933,4.030482769012451,18.55187252622988,17.775039141424546,73.59342972814984,65.26482777238613,0.0001295089750783,0.0835494250059127,0,0,0
6184,206730.6249583451,2010-08-21 23:47:01,4922.493720540038,2,17,0.5504778623580933,4.0329108238220215,18.55645965227665,17.775039141424546,73.61192304798145,65.26482777238613,9.70840483205393e-05,0.0835494250059127,0,0,0
6185,206760.6402170202,2010-08-21 23:47:31,4952.508979210109,2,17,0.550297200679779,4.035338878631592,18.561046829668125,17.775039141424546,73.63042782091065,65.26482777238613,6.47544875391759e-05,0.0835494250059127,0,0,0
6186,206790.6555386472,2010-08-21 23:48:01,4982.5243008420985,2,17,0.5499359965324402,4.037605285644531,18.565634034903,17.775039141424546,73.64894408538325,65.26482777238613,6.47544875391759e-05,0.0835494250059127,0,0,0
6187,206820.6708215777,2010-08-21 23:48:31,5012.539583767621,2,17,0.550297200679779,4.040195465087891,18.57022126160092,17.775039141424546,73.66747187159783,65.26482777238613,6.47544875391759e-05,0.0835494250059127,0,0,0
6188,206850.6862681511,2010-08-21 23:49:01,5042.555030366066,2,17,0.5501165986061096,4.04278564453125,18.57480850787361,17.775039141424546,73.68601126706803,65.26482777238613,9.70840483205393e-05,0.0835494250059127,0,0,0
6189,206880.7014464258,2010-08-21 23:49:31,5072.570208615703,2,17,0.550297200679779,4.045375823974609,18.57939561659085,17.775039141424546,73.70456178687718,65.26482777238613,6.47544875391759e-05,0.0835494250059127,0,0,0
6190,206910.7167690553,2010-08-21 23:50:01,5102.58553128528,2,17,0.550297200679779,4.047804355621338,18.58398275546304,17.775039141424546,73.72312421287377,65.26482777238613,6.47544875391759e-05,0.0835494250059127,0,0,0
6191,206940.73202907876,2010-08-21 23:50:31,5132.600791273636,2,17,0.5499359965324402,4.050394535064697,18.588569915552604,17.775039141424546,73.74169863285982,65.26482777238613,3.24249267578125e-05,0.0835494250059127,0,0,0
6192,206970.7473275179,2010-08-21 23:51:01,5162.616089707811,2,17,0.550297200679779,4.052984714508057,18.59315708238262,17.775039141424546,73.7602850405854,65.26482777238613,3.24249267578125e-05,0.0835494250059127,0,0,0
6193,207000.7626242629,2010-08-21 23:51:31,5192.631386457787,2,17,0.5501165986061096,4.055736541748047,18.59774426769185,17.775039141424546,73.77888365707234,65.26482777238613,6.47544875391759e-05,0.0835494250059127,0,0,0
6194,207030.7779506016,2010-08-21 23:52:01,5222.646712796508,2,17,0.5501165986061096,4.058488845825195,18.60233152973764,17.775039141424546,73.79749488272215,65.26482777238613,6.47544875391759e-05,0.0835494250059127,0,0,0
6195,207060.7932540332,2010-08-21 23:52:31,5252.662016228138,2,17,0.5501165986061096,4.060916900634766,18.60691878155001,17.775039141424546,73.81611824516212,65.26482777238613,6.47544875391759e-05,0.0835494250059127,0,0,0
6196,207090.8085297508,2010-08-21 23:53:01,5282.677291950708,2,17,0.550297200679779,4.063992977142334,18.61150592378831,17.775039141424546,73.83475336267539,65.26482777238613,0.0001295089750783,0.0835494250059127,0,0,0
6197,207120.82397398836,2010-08-21 23:53:31,5312.692736183257,2,17,0.5501165986061096,4.066583156585693,18.616093068468917,17.775039141424546,73.85340105663717,65.26482777238613,6.47544875391759e-05,0.0835494250059127,0,0,0
6198,207150.83913477947,2010-08-21 23:54:01,5342.70789698942,2,17,0.5501165986061096,4.069334983825684,18.62068015906437,17.775039141424546,73.87206122765173,65.26482777238613,6.47544875391759e-05,0.0835494250059127,0,0,0
6199,207180.85455542323,2010-08-21 23:54:31,5372.723317608115,2,17,0.5501165986061096,4.072087287902832,18.625267279411197,17.775039141424546,73.89073430406881,65.26482777238613,6.47544875391759e-05,0.0835494250059127,0,0,0
6200,207210.869725718,2010-08-21 23:55:01,5402.738487917964,2,17,0.5501165986061096,4.075001239776611,18.62985436623455,17.775039141424546,73.90942017897558,65.26482777238613,9.71794142969884e-05,0.0835494250059127,0,0,0
6201,207240.88503278373,2010-08-21 23:55:31,5432.753794963602,2,17,0.5501165986061096,4.077591419219971,18.634441527126857,17.775039141424546,73.92811940875588,65.26482777238613,3.24249267578125e-05,0.0835494250059127,0,0,0
6202,207270.90034748343,2010-08-21 23:56:01,5462.769109678352,2,17,0.550297200679779,4.08082914352417,18.639028712092465,17.775039141424546,73.9468319354498,65.26482777238613,9.71794142969884e-05,0.0835494250059127,0,0,0
6203,207300.9156064292,2010-08-21 23:56:31,5492.784368639147,2,17,0.5501165986061096,4.08358097076416,18.64361586483152,17.775039141424546,73.96555749785453,65.26482777238613,6.47544875391759e-05,0.0835494250059127,0,0,0
6204,207330.93093049727,2010-08-21 23:57:01,5522.799692672122,2,17,0.550297200679779,4.08649492263794,18.648203015539888,17.775039141424546,73.98429653553107,65.26482777238613,3.23295607813634e-05,0.0835494250059127,0,0,0
6205,207360.94620903183,2010-08-21 23:57:31,5552.814971231763,2,17,0.5501165986061096,4.089570999145508,18.652790173998685,17.775039141424546,74.00304909942646,65.26482777238613,9.71794142969884e-05,0.0835494250059127,0,0,0
6206,207390.96172851196,2010-08-21 23:58:01,5582.830490731902,2,17,0.5501165986061096,4.092484951019287,18.657377403673017,17.775039141424546,74.02181563924547,65.26482777238613,6.47544875391759e-05,0.0835494250059127,0,0,0
6207,207420.9769493728,2010-08-21 23:58:31,5612.845711572689,2,17,0.550297200679779,4.095722675323486,18.661964556537427,17.775039141424546,74.04059564663372,65.26482777238613,0.0001295089750783,0.0835494250059127,0,0,0
6208,207450.97698145348,2010-08-21 23:59:01,5642.845743673463,2,17,0.550297200679779,4.098636627197266,18.66654939745125,17.775039141424546,74.05938009784916,65.26482777238613,0.0001295089750783,0.0835494250059127,0,0,0
6209,207480.99183290865,2010-08-21 23:59:31,5672.860595128628,2,17,0.550297200679779,4.101712226867676,18.671136519751844,17.775039141424546,74.07818794942649,65.26482777238613,6.47544875391759e-05,0.0835494250059127,0,0,0
6210,207511.00709148348,2010-08-22 00:00:01,5702.875853678399,2,17,0.550297200679779,4.104788303375244,18.67572362552067,17.775039141424546,74.09700984555974,65.26482777238613,6.47544875391759e-05,0.0835494250059127,0,0,0
6211,207541.02506541583,2010-08-22 00:00:31,5732.893827605725,2,17,0.5501165986061096,4.107863903045654,18.6803111752554,17.775039141424546,74.11584787766324,65.26482777238613,9.70840483205393e-05,0.0835494250059127,0,0,0
6212,207571.03770717373,2010-08-22 00:01:01,5762.90646935362,2,17,0.5501165986061096,4.1111016273498535,18.68489785655928,17.775039141424546,74.13469676739776,65.26482777238613,9.70840483205393e-05,0.0835494250059127,0,0,0
6213,207601.0530091718,2010-08-22 00:01:31,5792.921771361701,2,17,0.5501165986061096,4.114177703857422,18.68948503419846,17.775039141424546,74.15356220231997,65.26482777238613,9.71794142969884e-05,0.0835494250059127,0,0,0
6214,207631.06833421224,2010-08-22 00:02:01,5822.937096427249,2,17,0.5501165986061096,4.117414951324463,18.69407216163051,17.775039141424546,74.17244211582492,65.26482777238613,6.47544875391759e-05,0.0835494250059127,0,0,0
6215,207661.08361660648,2010-08-22 00:02:31,5852.952378801397,2,17,0.550297200679779,4.120814800262451,18.69865931778999,17.775039141424546,74.19133691430446,65.26482777238613,0.0001295089750783,0.0835494250059127,0,0,0
6216,207691.0989275017,2010-08-22 00:03:01,5882.967689691616,2,17,0.550297200679779,4.123890399932861,18.703246456876688,17.775039141424546,74.21024657122409,65.26482777238613,9.70840483205393e-05,0.0835494250059127,0,0,0
6217,207721.1141955552,2010-08-22 00:03:31,5912.982957755097,2,17,0.5501165986061096,4.12729024887085,18.70783360514673,17.775039141424546,74.22917131450697,65.26482777238613,6.47544875391759e-05,0.0835494250059127,0,0,0
6218,207751.1295348261,2010-08-22 00:04:01,5942.9982970461,2,17,0.550297200679779,4.130527973175049,18.71242081389652,17.775039141424546,74.24811148927684,65.26482777238613,9.71794142969884e-05,0.0835494250059127,0,0,0
6219,207781.1448204183,2010-08-22 00:04:31,5973.013582608193,2,17,0.5501165986061096,4.133927345275879,18.717008057438985,17.775039141424546,74.26706712428337,65.26482777238613,9.70840483205393e-05,0.0835494250059127,0,0,0
6220,207811.16010499792,2010-08-22 00:05:01,6003.028867192849,2,17,0.5501165986061096,4.137488842010498,18.721595210330964,17.775039141424546,74.28603778574409,65.26482777238613,0.0001295089750783,0.0835494250059127,0,0,0
6221,207841.17554086965,2010-08-22 00:05:31,6033.044303059548,2,17,0.5501165986061096,4.140726566314697,18.72618250077617,17.775039141424546,74.30502461224673,65.26482777238613,6.47544875391759e-05,0.0835494250059127,0,0,0
6222,207871.190707771,2010-08-22 00:06:02,6063.059469970927,2,17,0.550297200679779,4.144288063049316,18.730769680687704,17.775039141424546,74.32402660529532,65.26482777238613,0.0001618385285837,0.0835494250059127,0,0,0
6223,207901.2062992004,2010-08-22 00:06:32,6093.075061395324,2,17,0.5501165986061096,4.147687911987305,18.73535693385389,17.775039141424546,74.34304507922238,65.26482777238613,9.71794142969884e-05,0.0835494250059127,0,0,0
6224,207931.2214526132,2010-08-22 00:07:02,6123.09021480806,2,17,0.5501165986061096,4.151087284088135,18.739944009837803,17.775039141424546,74.36207879259386,65.26482777238613,6.47544875391759e-05,0.0835494250059127,0,0,0
6225,207961.23661316364,2010-08-22 00:07:32,6153.105375343548,2,17,0.5501165986061096,4.154648780822754,18.744531188331237,17.775039141424546,74.38112898549045,65.26482777238613,6.47544875391759e-05,0.0835494250059127,0,0,0
6226,207991.25191175324,2010-08-22 00:08:02,6183.120673953161,2,17,0.5501165986061096,4.158210277557373,18.74911829812844,17.775039141424546,74.40019505840581,65.26482777238613,9.70840483205393e-05,0.0835494250059127,0,0,0
6227,208021.2673828076,2010-08-22 00:08:32,6213.136144997532,2,17,0.550297200679779,4.162095546722412,18.753705442306423,17.775039141424546,74.41927762376116,65.26482777238613,0.0001295089750783,0.0835494250059127,0,0,0
6228,208051.2825335487,2010-08-22 00:09:02,6243.151295723573,2,17,0.5501165986061096,4.165333271026611,18.75829192634792,17.775039141424546,74.4383737849565,65.26482777238613,6.47544875391759e-05,0.0835494250059127,0,0,0
6229,208081.29781953688,2010-08-22 00:09:32,6273.166581751828,2,17,0.5501165986061096,4.16905689239502,18.762878158212832,17.775039141424546,74.45748538477037,65.26482777238613,9.71794142969884e-05,0.0835494250059127,0,0,0
6230,208111.31313993572,2010-08-22 00:10:02,6303.181902125682,2,17,0.550297200679779,4.172618389129639,18.7674644053016,17.775039141424546,74.4766137720344,65.26482777238613,9.71794142969884e-05,0.0835494250059127,0,0,0
6231,208141.3284083401,2010-08-22 00:10:32,6333.1971705651,2,17,0.5499359965324402,4.176179885864258,18.77205063641373,17.775039141424546,74.49575892421305,65.26482777238613,6.47544875391759e-05,0.0835494250059127,0,0,0
6232,208171.34382532476,2010-08-22 00:11:02,6363.212587519664,2,17,0.5501165986061096,4.180065155029297,18.77663752756816,17.775039141424546,74.51492391955703,65.26482777238613,0.0001295089750783,0.0835494250059127,0,0,0
6233,208201.35904416052,2010-08-22 00:11:32,6393.227806355455,2,17,0.5501165986061096,4.184112071990967,18.781224682352992,17.775039141424546,74.53410720355079,65.26482777238613,0.0001942634553415,0.0835494250059127,0,0,0
6234,208231.37437559196,2010-08-22 00:12:02,6423.243137781857,2,17,0.5501165986061096,4.187673568725586,18.785811876843667,17.775039141424546,74.55330791888302,65.26482777238613,9.70840483205393e-05,0.0835494250059127,0,0,0
6235,208261.38979957905,2010-08-22 00:12:32,6453.258561778972,2,17,0.5501165986061096,4.191397190093994,18.790399041840818,17.775039141424546,74.57252591477281,65.26482777238613,9.71794142969884e-05,0.0835494250059127,0,0,0
6236,208291.4049510319,2010-08-22 00:13:02,6483.273713221799,2,17,0.550297200679779,4.195281982421875,18.79498616413862,17.775039141424546,74.59176129437621,65.26482777238613,9.70840483205393e-05,0.0835494250059127,0,0,0
6237,208321.4202779721,2010-08-22 00:13:32,6513.289040167032,2,17,0.550297200679779,4.199167251586914,18.799573304574125,17.775039141424546,74.6110144125838,65.26482777238613,9.70840483205393e-05,0.0835494250059127,0,0,0
6238,208327.49831706568,2010-08-22 00:13:38,6519.367079245581,2,17,0.550297200679779,4.200138568878174,18.80050220218685,17.775039141424546,74.61491534937377,65.26482777238613,9.70840483205393e-05,0.0835494250059127,0,0,0
6239,208357.512613278,2010-08-22 00:14:08,30.01530574740121,3,17,0.0,4.12729024887085,18.80050220218685,17.775039141424546,74.61491534937377,65.26482777238613,-0.0003237724304199,0.0835494250059127,0,0,0
6240,208387.52789746664,2010-08-22 00:14:38,60.03058993607144,3,17,0.0,4.118062496185303,18.80050220218685,17.775039141424546,74.61491534937377,65.26482777238613,-0.0002266883820993,0.0835494250059127,0,0,0
6241,208417.54320939948,2010-08-22 00:15:08,90.04590186387613,3,17,0.0,4.112720489501953,18.80050220218685,17.775039141424546,74.61491534937377,65.26482777238613,-0.0001295089750783,0.0835494250059127,0,0,0
6242,208447.51162788933,2010-08-22 00:15:38,120.01432035380486,3,17,0.0,4.109644889831543,18.80050220218685,17.775039141424546,74.61491534937377,65.26482777238613,-6.47544875391759e-05,0.0835494250059127,0,0,0
6243,208447.51192301183,2010-08-22 00:15:38,2.636571147e-06,4,17,0.9985694289207458,4.199653148651123,18.800502202918185,17.775039141424546,74.61491535244512,65.26482777238613,0.0,0.0835494250059127,0,0,0
6244,208448.4337732914,2010-08-22 00:15:39,0.921852906089022,4,17,0.9478182196617126,4.199491024017334,18.80074978186422,17.775039141424546,74.61595509312556,65.26482777238613,-3.24249267578125e-05,0.0835494250059127,0,0,0
6245,208450.54313552607,2010-08-22 00:15:41,3.031215140812487,4,17,0.8972476720809937,4.199491024017334,18.80128918929853,17.775039141424546,74.61822040301371,65.26482777238613,-3.24249267578125e-05,0.0835494250059127,0,0,0
6246,208453.7149738432,2010-08-22 00:15:44,6.2030534528363,4,17,0.8470382690429688,4.199814796447754,18.802056452923377,17.775039141424546,74.62144263891696,65.26482777238613,6.47544875391759e-05,0.0835494250059127,0,0,0
6247,208457.9024295412,2010-08-22 00:15:48,10.39050915088374,4,17,0.7968288660049438,4.199653148651123,18.8030114407473,17.775039141424546,74.62545324907245,65.26482777238613,0.0,0.0835494250059127,0,0,0
6248,208463.27736261324,2010-08-22 00:15:54,15.765442212899844,4,17,0.7466195225715637,4.199491024017334,18.804162528346367,17.775039141424546,74.63028742031862,65.26482777238613,-3.24249267578125e-05,0.0835494250059127,0,0,0
6249,208470.1222113073,2010-08-22 00:16:01,22.61029092199019,4,17,0.6965907216072083,4.199653148651123,18.805532740767596,17.775039141424546,74.63604183912184,65.26482777238613,0.0,0.0835494250059127,0,0,0
6250,208478.9960850461,2010-08-22 00:16:10,31.48416466578241,4,17,0.6463813781738281,4.199653148651123,18.807185681990937,17.775039141424546,74.64298363741736,65.26482777238613,-3.23295607813634e-05,0.0835494250059127,0,0,0
6251,208491.24583610988,2010-08-22 00:16:22,43.73391572958759,4,17,0.5963525772094727,4.199653148651123,18.809296171975845,17.775039141424546,74.6518469880912,65.26482777238613,0.0,0.0835494250059127,0,0,0
6252,208508.7768973887,2010-08-22 00:16:39,61.26497699844227,4,17,0.546323835849762,4.199653148651123,18.812070836866347,17.775039141424546,74.66349963013747,65.26482777238613,0.0,0.0835494250059127,0,0,0
6253,208536.13597813115,2010-08-22 00:17:07,88.62405774584349,4,17,0.4962950348854065,4.199653148651123,18.81601830989977,17.775039141424546,74.6800776972113,65.26482777238613,0.0,0.0835494250059127,0,0,0
6254,208581.3542124193,2010-08-22 00:17:52,133.84229202897993,4,17,0.4462662935256958,4.199653148651123,18.821913250089565,17.775039141424546,74.70483445422282,65.26482777238613,-3.23295607813634e-05,0.0835494250059127,0,0,0
6255,208653.16604680652,2010-08-22 00:19:04,205.65412640619692,4,17,0.3960568904876709,4.199491024017334,18.830287599853797,17.775039141424546,74.74000393756909,65.26482777238613,-3.24249267578125e-05,0.0835494250059127,0,0,0
6256,208750.50865351403,2010-08-22 00:20:41,302.9967331136834,4,17,0.3460281193256378,4.199653148651123,18.840302132313408,17.775039141424546,74.78206163443214,65.26482777238613,-3.23295607813634e-05,0.0835494250059127,0,0,0
6257,208869.64798833465,2010-08-22 00:22:40,422.1360679493507,4,17,0.2959993481636047,4.199653148651123,18.85091183458156,17.775039141424546,74.82661881181374,65.26482777238613,0.0,0.0835494250059127,0,0,0
6258,209014.69356787828,2010-08-22 00:25:05,567.1816475180449,4,17,0.2459705919027328,4.199491024017334,18.86181050168755,17.775039141424546,74.87238956323324,65.26482777238613,-3.24249267578125e-05,0.0835494250059127,0,0,0
6259,209193.06639781944,2010-08-22 00:28:04,745.5544774341436,4,17,0.1959418207406997,4.199653148651123,18.87272752722398,17.775039141424546,74.91823741385498,65.26482777238613,0.0,0.0835494250059127,0,0,0
6260,209429.8919405463,2010-08-22 00:32:00,982.3800201610168,4,17,0.1459130495786667,4.199491024017334,18.88391157545164,17.775039141424546,74.96520673539908,65.26482777238613,0.0,0.0835494250059127,0,0,0
6261,209776.5913034905,2010-08-22 00:37:47,1329.079383100188,4,17,0.0958842858672142,4.199653148651123,18.895400471479487,17.775039141424546,75.01345633439054,65.26482777238613,3.24249267578125e-05,0.0835494250059127,0,0,0
6262,210352.7570499625,2010-08-22 00:47:23,1905.2451295771768,4,17,0.0498289167881011,4.199653148651123,18.90667989561859,17.775039141424546,75.06082615330318,65.26482777238613,0.0,0.0835494250059127,0,0,0
6263,210382.7774034337,2010-08-22 00:47:53,30.015204254449557,5,17,0.0,4.192692279815674,18.90667989561859,17.775039141424546,75.06082615330318,65.26482777238613,-3.23295607813634e-05,0.0835494250059127,0,0,0
6264,210412.7770731312,2010-08-22 00:48:23,60.014873952003455,5,17,0.0,4.191720962524414,18.90667989561859,17.775039141424546,75.06082615330318,65.26482777238613,-3.23295607813634e-05,0.0835494250059127,0,0,0
6265,210412.97040908635,2010-08-22 00:48:24,0.187518824609026,6,17,-1.9243103452026844e-05,4.192044734954834,18.90667989561859,17.77503914242689,75.06082615330318,65.264827776588,0.0,0.088097482919693,0,0,0
6266,210417.7984780548,2010-08-22 00:48:29,5.015587818100497,6,17,0.0005225847125984,4.191720962524414,18.9066808130052,17.775039142593826,75.06082999888183,65.2648277772878,-3.23295607813634e-05,0.088097482919693,0,0,0
6267,210447.81961884903,2010-08-22 00:48:59,30.01529908078596,7,17,-1.099929690361023,4.04100513458252,18.9066808130052,17.784208882015463,75.06082999888183,65.30205430592125,-0.0008093834039755,0.088097482919693,0,0,0
6268,210477.81962560164,2010-08-22 00:49:29,60.01530583839724,7,17,-1.0997490882873535,4.018503189086914,18.9066808130052,17.793373956877886,75.06082999888183,65.33897934995423,-0.0004856109735555,0.088097482919693,0,0,0
6269,210507.83460400824,2010-08-22 00:49:59,90.03028424496438,7,17,-1.099568486213684,4.003123760223389,18.9066808130052,17.802543567353688,75.06082999888183,65.37575248639091,-0.0003561973571777,0.088097482919693,0,0,0
6270,210537.84986170588,2010-08-22 00:50:29,120.0455419426108,7,17,-1.099929690361023,3.990658760070801,18.9066808130052,17.8117132642949,75.06082999888183,65.4124004076836,-0.0002913951757363,0.088097482919693,0,0,0
6271,210567.86517547327,2010-08-22 00:50:59,150.06085573506277,7,17,-1.0997490882873535,3.980136156082153,18.9066808130052,17.82088296490309,75.06082999888183,65.44894483949587,-0.0002913951757363,0.088097482919693,0,0,0
6272,210597.88046192256,2010-08-22 00:51:29,180.07614215429223,7,17,-1.0997490882873535,3.9705848693847656,18.9066808130052,17.83005253062492,75.06082999888183,65.4853966173227,-0.0002266406954731,0.088097482919693,0,0,0
6273,210627.89612397293,2010-08-22 00:51:59,210.09180422476012,7,17,-1.099929690361023,3.961519241333008,18.9066808130052,17.83922225550689,75.06082999888183,65.52176438120878,-0.0002590179501567,0.088097482919693,0,0,0
6274,210657.91106928207,2010-08-22 00:52:29,240.1067495137882,7,17,-1.0997490882873535,3.95310115814209,18.9066808130052,17.84839177311543,75.06082999888183,65.55805129495448,-0.0002266406954731,0.088097482919693,0,0,0
6275,210687.92638331512,2010-08-22 00:52:59,270.1220635468398,7,17,-1.1001102924346924,3.944683074951172,18.9066808130052,17.857561394872032,75.06082999888183,65.59426168944313,-0.0002913951757363,0.088097482919693,0,0,0
6276,210717.9416727168,2010-08-22 00:53:29,300.1373529635399,7,17,-1.099929690361023,3.936750650405884,18.9066808130052,17.8667310556355,75.06082999888183,65.63039782471495,-0.0002266406954731,0.088097482919693,0,0,0
6277,210747.9570104589,2010-08-22 00:53:59,330.15269071570685,7,17,-1.0997490882873535,3.9289801120758057,18.9066808130052,17.87590069795207,75.06082999888183,65.66646122924318,-0.0002266406954731,0.088097482919693,0,0,0
6278,210777.97230734423,2010-08-22 00:54:29,360.167987601021,7,17,-1.099568486213684,3.9213714599609375,18.9066808130052,17.885070378593763,75.06082999888183,65.70245364583342,-0.0002266406954731,0.088097482919693,0,0,0
6279,210807.9875978236,2010-08-22 00:54:59,390.18327806031954,7,17,-1.0997490882873535,3.913762807846069,18.9066808130052,17.894239961743125,75.06082999888183,65.73837587160155,-0.0002266406954731,0.088097482919693,0,0,0
6280,210838.002878288,2010-08-22 00:55:29,420.1985585146827,7,17,-1.0997490882873535,3.9063162803649902,18.9066808130052,17.903409577188985,75.06082999888183,65.77422951042135,-0.0001618862152099,0.088097482919693,0,0,0
6281,210868.018194722,2010-08-22 00:55:59,450.2138749487184,7,17,-1.099568486213684,3.899193286895752,18.9066808130052,17.912579227815623,75.06082999888183,65.8100155845348,-0.0001618862152099,0.088097482919693,0,0,0
6282,210898.0334885948,2010-08-22 00:56:29,480.2291688215244,7,17,-1.099929690361023,3.891908407211304,18.9066808130052,17.921748912090912,75.06082999888183,65.84573528581845,-0.0001618862152099,0.088097482919693,0,0,0
6283,210928.04890777497,2010-08-22 00:56:59,510.2445880016349,7,17,-1.0997490882873535,3.884623527526856,18.9066808130052,17.9309186212961,75.06082999888183,65.8813896609831,-0.0001942634553415,0.088097482919693,0,0,0
6284,210958.06409328265,2010-08-22 00:57:29,540.2597735143743,7,17,-1.0997490882873535,3.877662420272827,18.9066808130052,17.94008823696404,75.06082999888183,65.91697866956594,-0.0001942634553415,0.088097482919693,0,0,0
6285,210988.0796211286,2010-08-22 00:57:59,570.2753014856257,7,17,-1.0997490882873535,3.870701313018799,18.9066808130052,17.949257957563216,75.06082999888183,65.9525038145484,-0.0002266406954731,0.088097482919693,0,0,0
6286,211018.0948176287,2010-08-22 00:58:29,600.2904978554243,7,17,-1.0997490882873535,3.863902091979981,18.9066808130052,17.9584275792341,75.06082999888183,65.98796520360209,-0.0001618862152099,0.088097482919693,0,0,0
6287,211048.11005242929,2010-08-22 00:58:59,630.3057326610167,7,17,-1.0997490882873535,3.857102870941162,18.9066808130052,17.96759720464213,75.06082999888183,66.02336411464623,-0.0001618862152099,0.088097482919693,0,0,0
6288,211078.1252953501,2010-08-22 00:59:29,660.3209755818347,7,17,-1.0997490882873535,3.8504655361175537,18.9066808130052,17.976766869161892,75.06082999888183,66.05870135832215,-0.0001295089750783,0.088097482919693,0,0,0
6289,211108.14061207988,2010-08-22 00:59:59,690.3362923166198,7,17,-1.0997490882873535,3.843828201293945,18.9066808130052,17.98593655003112,75.06082999888183,66.09397789873327,-0.0001618862152099,0.088097482919693,0,0,0
6290,211138.1559127847,2010-08-22 01:00:29,720.3515930114285,7,17,-1.099929690361023,3.837352752685547,18.9066808130052,17.995106249795306,75.06082999888183,66.12919465717913,-0.0001942634553415,0.088097482919693,0,0,0
6291,211168.17128596012,2010-08-22 01:00:59,750.3669663322434,7,17,-1.099568486213684,3.8310394287109375,18.9066808130052,18.004276025982687,75.06082999888183,66.16435264072136,-0.0001618862152099,0.088097482919693,0,0,0
6292,211198.18652573816,2010-08-22 01:01:29,780.3822059899288,7,17,-1.0997490882873535,3.824725866317749,18.9066808130052,18.013445764693138,75.06082999888183,66.19945240746246,-0.0001295089750783,0.088097482919693,0,0,0
6293,211228.20181017744,2010-08-22 01:01:59,810.3974904041612,7,17,-1.0997490882873535,3.818412303924561,18.9066808130052,18.022615384568105,75.06082999888183,66.23449446845763,-0.0001618862152099,0.088097482919693,0,0,0
6294,211258.217112762,2010-08-22 01:02:29,840.4127929886795,7,17,-1.099929690361023,3.812098741531372,18.9066808130052,18.03178507495916,75.06082999888183,66.26948035872283,-0.0001942634553415,0.088097482919693,0,0,0
6295,211288.21741048977,2010-08-22 01:02:59,870.4130907265029,7,17,-1.099929690361023,3.8062708377838135,18.9066808130052,18.04095018355348,75.06082999888183,66.3043926599184,-0.0001618862152099,0.088097482919693,0,0,0
6296,211318.2321030088,2010-08-22 01:03:29,900.4277832405381,7,17,-1.0997490882873535,3.800442934036255,18.9066808130052,18.050119612918877,75.06082999888183,66.33926698538518,-0.0001295089750783,0.088097482919693,0,0,0
6297,211348.24740587405,2010-08-22 01:03:59,930.4430861007434,7,17,-1.0997490882873535,3.7944531440734863,18.9066808130052,18.059289331754496,75.06082999888183,66.37408881602511,-0.0001618862152099,0.088097482919693,0,0,0
6298,211378.26265187253,2010-08-22 01:04:29,960.4583321242944,7,17,-1.0997490882873535,3.7887871265411377,18.9066808130052,18.068458968816373,75.06082999888183,66.40885781191513,-0.0001618862152099,0.088097482919693,0,0,0
6299,211408.27811426533,2010-08-22 01:04:59,990.4737944970542,7,17,-1.099568486213684,3.783444881439209,18.9066808130052,18.07762805255465,75.06082999888183,66.44357316236504,-0.0001295089750783,0.088097482919693,0,0,0
6300,211438.2932938533,2010-08-22 01:05:29,1020.4889740800148,7,17,-1.0997490882873535,3.7779407501220703,18.9066808130052,18.08679697574203,75.06082999888183,66.47823732692876,-0.0001295089750783,0.088097482919693,0,0,0
6301,211468.30859860824,2010-08-22 01:05:59,1050.5042788349424,7,17,-1.0997490882873535,3.7725985050201416,18.9066808130052,18.09596599676457,75.06082999888183,66.51285216736683,-0.0001295089750783,0.088097482919693,0,0,0
6302,211498.32385721817,2010-08-22 01:06:29,1080.5195374699251,7,17,-1.0997490882873535,3.767256259918213,18.9066808130052,18.105135003326943,75.06082999888183,66.54741811141447,-0.0001295089750783,0.088097482919693,0,0,0
6303,211528.33921397268,2010-08-22 01:06:59,1110.5348941943766,7,17,-1.0997490882873535,3.761914014816284,18.9066808130052,18.114304772212705,75.06082999888183,66.5819388541293,-0.0001618862152099,0.088097482919693,0,0,0
6304,211558.35470981887,2010-08-22 01:07:29,1140.5503900906876,7,17,-1.0997490882873535,3.757057428359986,18.9066808130052,18.12347454808024,75.06082999888183,66.61641262187611,-0.0001295089750783,0.088097482919693,0,0,0
6305,211588.3699392059,2010-08-22 01:07:59,1170.5656194326627,7,17,-1.099929690361023,3.752039194107056,18.9066808130052,18.132644269564288,75.06082999888183,66.65084001216006,-0.0001295089750783,0.088097482919693,0,0,0
6306,211618.3854521247,2010-08-22 01:08:29,1200.581132381474,7,17,-1.0997490882873535,3.747182607650757,18.9066808130052,18.141814025421823,75.06082999888183,66.68522220600344,-0.0001295089750783,0.088097482919693,0,0,0
6307,211648.4004266215,2010-08-22 01:08:59,1230.5961068482218,7,17,-1.099929690361023,3.742164134979248,18.9066808130052,18.150983635001825,75.06082999888183,66.71955942665578,-0.0001295089750783,0.088097482919693,0,0,0
6308,211678.41571985272,2010-08-22 01:09:29,1260.6114000844414,7,17,-1.099929690361023,3.737469434738159,18.9066808130052,18.160153376795986,75.06082999888183,66.75385351257177,-0.0001618862152099,0.088097482919693,0,0,0
6309,211708.4310394095,2010-08-22 01:09:59,1290.6267196412598,7,17,-1.0997490882873535,3.73293662071228,18.9066808130052,18.16932316482528,75.06082999888183,66.78810506288737,-9.713172767078504e-05,0.088097482919693,0,0,0
6310,211738.44894787876,2010-08-22 01:10:29,1320.6446281304943,7,17,-1.099568486213684,3.7285656929016113,18.9066808130052,18.17849363930109,75.06082999888183,66.82231723918649,-9.713172767078504e-05,0.088097482919693,0,0,0
6311,211768.4616643829,2010-08-22 01:10:59,1350.6573446196674,7,17,-1.099929690361023,3.7238709926605225,18.9066808130052,18.18766248496651,75.06082999888183,66.85648282955492,-0.0001618862152099,0.088097482919693,0,0,0
6312,211798.47705982387,2010-08-22 01:11:29,1380.6727400505877,7,17,-1.0997490882873535,3.719661951065064,18.9066808130052,18.19683229804684,75.06082999888183,66.89061149211871,-9.713172767078504e-05,0.088097482919693,0,0,0
6313,211828.49223418385,2010-08-22 01:11:59,1410.6879144155434,7,17,-1.0997490882873535,3.715452909469605,18.9066808130052,18.20600201430938,75.06082999888183,66.92469991755517,-9.713172767078504e-05,0.088097482919693,0,0,0
6314,211858.5075626428,2010-08-22 01:12:29,1440.7032428795617,7,17,-1.099929690361023,3.7109200954437256,18.9066808130052,18.21517178916224,75.06082999888183,66.95874933707597,-0.0001618862152099,0.088097482919693,0,0,0
6315,211888.52286675613,2010-08-22 01:12:59,1470.71854699289,7,17,-1.099929690361023,3.706872940063477,18.9066808130052,18.224341559256032,75.06082999888183,66.9927603435189,-0.0001295089750783,0.088097482919693,0,0,0
6316,211918.5381567393,2010-08-22 01:13:29,1500.7338369559518,7,17,-1.099929690361023,3.7026638984680176,18.9066808130052,18.233511403836808,75.06082999888183,67.02673391143404,-0.0001942634553415,0.088097482919693,0,0,0
6317,211948.55345438147,2010-08-22 01:13:59,1530.749134638252,7,17,-1.099929690361023,3.6987786293029785,18.9066808130052,18.242681234000848,75.06082999888183,67.0606702607,-0.0001295089750783,0.088097482919693,0,0,0
6318,211978.5687701338,2010-08-22 01:14:29,1560.7644503956014,7,17,-1.0997490882873535,3.695055246353149,18.9066808130052,18.25185097864302,75.06082999888183,67.09456984310916,-9.713172767078504e-05,0.088097482919693,0,0,0
6319,212008.584059751,2010-08-22 01:14:59,1590.7797399977635,7,17,-1.0997490882873535,3.691008090972901,18.9066808130052,18.261020752829488,75.06082999888183,67.1284337641262,-9.713172767078504e-05,0.088097482919693,0,0,0
6320,212038.5994881942,2010-08-22 01:15:29,1620.7951684309355,7,17,-1.099929690361023,3.6872847080230713,18.9066808130052,18.270190557617937,75.06082999888183,67.1622623608642,-6.47544875391759e-05,0.088097482919693,0,0,0
6321,212068.61465787748,2010-08-22 01:16:00,1650.8103380941732,7,17,-1.099929690361023,3.683723211288452,18.9066808130052,18.27936022603833,75.06082999888183,67.19605588996039,-6.47544875391759e-05,0.088097482919693,0,0,0
6322,212098.63020082607,2010-08-22 01:16:30,1680.8258810577902,7,17,-1.099929690361023,3.679837942123413,18.9066808130052,18.288530049384747,75.06082999888183,67.22981603150122,-6.47544875391759e-05,0.088097482919693,0,0,0
6323,212128.64539342147,2010-08-22 01:17:00,1710.8410736481692,7,17,-1.099929690361023,3.676276445388794,18.9066808130052,18.297699823769168,75.06082999888183,67.26354273138764,-6.47544875391759e-05,0.088097482919693,0,0,0
6324,212158.6605679117,2010-08-22 01:17:30,1740.8562481284123,7,17,-1.0997490882873535,3.672714948654175,18.9066808130052,18.306869613810505,75.06082999888183,67.2972368340384,-9.713172767078504e-05,0.088097482919693,0,0,0
6325,212188.67588815524,2010-08-22 01:18:00,1770.8715683919922,7,17,-1.0997490882873535,3.6693155765533447,18.9066808130052,18.31603938390944,75.06082999888183,67.33089884300108,-6.47544875391759e-05,0.088097482919693,0,0,0
6326,212218.69117998297,2010-08-22 01:18:30,1800.8868602146888,7,17,-1.0997490882873535,3.665915966033936,18.9066808130052,18.32520917140224,75.06082999888183,67.3645295759372,-6.47544875391759e-05,0.088097482919693,0,0,0
6327,212248.70659995504,2010-08-22 01:19:00,1830.9022802068232,7,17,-1.099929690361023,3.6625163555145264,18.9066808130052,18.334379054213187,75.06082999888183,67.3981299992349,-9.713172767078504e-05,0.088097482919693,0,0,0
6328,212278.72178365325,2010-08-22 01:19:30,1860.9174638799773,7,17,-1.0997490882873535,3.659278631210327,18.9066808130052,18.34354880561644,75.06082999888183,67.43169987715804,-6.47544875391759e-05,0.088097482919693,0,0,0
6329,212308.73708230292,2010-08-22 01:20:00,1890.932762534702,7,17,-1.0997490882873535,3.656202793121338,18.9066808130052,18.35271859394075,75.06082999888183,67.4652404744873,-6.47544875391759e-05,0.088097482919693,0,0,0
6330,212338.7525994172,2010-08-22 01:20:30,1920.9482796539064,7,17,-1.0997490882873535,3.653288841247559,18.9066808130052,18.361888467906088,75.06082999888183,67.49875301535712,-6.47544875391759e-05,0.088097482919693,0,0,0
6331,212368.76783650345,2010-08-22 01:21:00,1950.9635167401832,7,17,-1.099929690361023,3.65005111694336,18.9066808130052,18.37105830925088,75.06082999888183,67.53223749439579,-6.47544875391759e-05,0.088097482919693,0,0,0
6332,212398.7830115852,2010-08-22 01:21:30,1980.9786918419752,7,17,-1.099929690361023,3.64729905128479,18.9066808130052,18.38022802255772,75.06082999888183,67.56569447136239,-6.47544875391759e-05,0.088097482919693,0,0,0
6333,212428.79828734288,2010-08-22 01:22:00,2010.993967569558,7,17,-1.0997490882873535,3.6443850994110103,18.9066808130052,18.38939775522156,75.06082999888183,67.59912470916278,-3.237724376958795e-05,0.088097482919693,0,0,0
6334,212458.8136109347,2010-08-22 01:22:30,2041.009291161433,7,17,-1.0997490882873535,3.6416330337524414,18.9066808130052,18.39856751567797,75.06082999888183,67.63252976387867,-6.47544875391759e-05,0.088097482919693,0,0,0
6335,212488.8289001209,2010-08-22 01:23:00,2071.024580347558,7,17,-1.099929690361023,3.638880968093872,18.9066808130052,18.407737288831417,75.06082999888183,67.66591007258145,-9.713172767078504e-05,0.088097482919693,0,0,0
6336,212518.84421028427,2010-08-22 01:23:30,2101.039890526003,7,17,-1.099929690361023,3.6362907886505127,18.9066808130052,18.41690704412776,75.06082999888183,67.69926605655034,-3.237724376958795e-05,0.088097482919693,0,0,0
6337,212548.85952072835,2010-08-22 01:24:00,2131.0552009550725,7,17,-1.0997490882873535,3.6338624954223633,18.9066808130052,18.42607679163217,75.06082999888183,67.73259835522902,-6.47544875391759e-05,0.088097482919693,0,0,0
6338,212578.87482719257,2010-08-22 01:24:30,2161.070507444322,7,17,-1.0997490882873535,3.631110429763794,18.9066808130052,18.43524655793516,75.06082999888183,67.76590751198069,-9.713172767078504e-05,0.088097482919693,0,0,0
6339,212608.89014365667,2010-08-22 01:25:00,2191.085823883371,7,17,-1.099929690361023,3.6288440227508554,18.9066808130052,18.44441633842401,75.06082999888183,67.79919386491544,-6.47544875391759e-05,0.088097482919693,0,0,0
6340,212638.90540648712,2010-08-22 01:25:30,2221.1010867188224,7,17,-1.099929690361023,3.626253843307495,18.9066808130052,18.45358616538086,75.06082999888183,67.83245782519509,-6.47544875391759e-05,0.088097482919693,0,0,0
6341,212668.9207156079,2010-08-22 01:26:00,2251.116395839631,7,17,-1.0997490882873535,3.623987436294556,18.9066808130052,18.46275590534177,75.06082999888183,67.86569915294884,-6.47544875391759e-05,0.088097482919693,0,0,0
6342,212698.9360457461,2010-08-22 01:26:30,2281.131725962784,7,17,-1.099929690361023,3.621397256851196,18.9066808130052,18.471925659804263,75.06082999888183,67.89891834275896,-6.47544875391759e-05,0.088097482919693,0,0,0
6343,212728.9515007154,2010-08-22 01:27:00,2311.1471809521427,7,17,-1.0997490882873535,3.619130849838257,18.9066808130052,18.48109546572428,75.06082999888183,67.93211540843659,-6.47544875391759e-05,0.088097482919693,0,0,0
6344,212758.96662370232,2010-08-22 01:27:30,2341.162303929023,7,17,-1.099929690361023,3.6167025566101074,18.9066808130052,18.490265193106698,75.06082999888183,67.96528984269146,0.0,0.088097482919693,0,0,0
6345,212788.9819200112,2010-08-22 01:28:00,2371.177600227876,7,17,-1.0997490882873535,3.614274263381958,18.9066808130052,18.49943493412788,75.06082999888183,67.99844198244541,-3.237724376958795e-05,0.088097482919693,0,0,0
6346,212818.99737512085,2010-08-22 01:28:30,2401.1930553475586,7,17,-1.0997490882873535,3.611684083938599,18.9066808130052,18.508604734980487,75.06082999888183,68.0315718126572,-6.47544875391759e-05,0.088097482919693,0,0,0
6347,212849.01254613744,2010-08-22 01:29:00,2431.208226354144,7,17,-1.0997490882873535,3.609255790710449,18.9066808130052,18.51777448467224,75.06082999888183,68.06467850563625,-3.237724376958795e-05,0.088097482919693,0,0,0
6348,212879.02785728333,2010-08-22 01:29:30,2461.223537510025,7,17,-1.0997490882873535,3.60650372505188,18.9066808130052,18.52694424287476,75.06082999888183,68.09776204033729,-9.713172767078504e-05,0.088097482919693,0,0,0
6349,212909.0432687392,2010-08-22 01:30:00,2491.238948975909,7,17,-1.0997490882873535,3.6040754318237305,18.9066808130052,18.53611401876192,75.06082999888183,68.13082196860883,-6.47544875391759e-05,0.088097482919693,0,0,0
6350,212939.0584457507,2010-08-22 01:30:30,2521.2541260024987,7,17,-1.099929690361023,3.601323366165161,18.9066808130052,18.5452837607322,75.06082999888183,68.16385785469177,-9.713172767078504e-05,0.088097482919693,0,0,0
6351,212969.07374208464,2010-08-22 01:31:00,2551.269422311376,7,17,-1.0997490882873535,3.598895072937012,18.9066808130052,18.55445351298114,75.06082999888183,68.19686923295978,-3.237724376958795e-05,0.088097482919693,0,0,0
6352,212999.08917630225,2010-08-22 01:31:30,2581.284856528964,7,17,-1.099929690361023,3.5959811210632324,18.9066808130052,18.56362333188846,75.06082999888183,68.22985564501228,-6.47544875391759e-05,0.088097482919693,0,0,0
6353,213029.1043628476,2010-08-22 01:32:00,2611.3000431093647,7,17,-1.0997490882873535,3.593067169189453,18.9066808130052,18.57279305436316,75.06082999888183,68.26281594679452,-6.47544875391759e-05,0.088097482919693,0,0,0
6354,213059.11975416323,2010-08-22 01:32:30,2641.315434535303,7,17,-1.0997490882873535,3.590153455734253,18.9066808130052,18.58196284767079,75.06082999888183,68.29575004901693,-6.47544875391759e-05,0.088097482919693,0,0,0
6355,213089.1349514804,2010-08-22 01:33:00,2671.330631697076,7,17,-1.099929690361023,3.587077617645264,18.9066808130052,18.591132574191462,75.06082999888183,68.32865664125961,-9.713172767078504e-05,0.088097482919693,0,0,0
6356,213119.1502509472,2010-08-22 01:33:30,2701.3459311738484,7,17,-1.099929690361023,3.5840017795562744,18.9066808130052,18.600302328343595,75.06082999888183,68.3615351264236,-3.237724376958795e-05,0.088097482919693,0,0,0
6357,213149.16556083987,2010-08-22 01:34:00,2731.361241066581,7,17,-1.0997490882873535,3.580925941467285,18.9066808130052,18.60947212146632,75.06082999888183,68.39438503676593,-3.237724376958795e-05,0.088097482919693,0,0,0
6358,213179.1808730233,2010-08-22 01:34:30,2761.376553239998,7,17,-1.0997490882873535,3.577526330947876,18.9066808130052,18.618641916978717,75.06082999888183,68.42720500306561,-6.47544875391759e-05,0.088097482919693,0,0,0
6359,213209.19616879083,2010-08-22 01:35:00,2791.391849012539,7,17,-1.0997490882873535,3.573964834213257,18.9066808130052,18.62781173475173,75.06082999888183,68.45999400856176,-0.0001295089750783,0.088097482919693,0,0,0
6360,213239.2114826234,2010-08-22 01:35:30,2821.407162880178,7,17,-1.0997490882873535,3.570565223693848,18.9066808130052,18.636981573609308,75.06082999888183,68.49275104243246,-6.47544875391759e-05,0.088097482919693,0,0,0
6361,213269.22676575443,2010-08-22 01:36:00,2851.4224459811376,7,17,-1.099929690361023,3.5666799545288086,18.9066808130052,18.64615135019537,75.06082999888183,68.52547445041567,-9.713172767078504e-05,0.088097482919693,0,0,0
6362,213299.24208089025,2010-08-22 01:36:30,2881.4377611069126,7,17,-1.0997490882873535,3.5629565715789795,18.9066808130052,18.655321143311102,75.06082999888183,68.55816304578232,-9.713172767078504e-05,0.088097482919693,0,0,0
6363,213329.25750607028,2010-08-22 01:37:00,2911.453186317052,7,17,-1.0997490882873535,3.5589094161987305,18.9066808130052,18.66449098940775,75.06082999888183,68.59081633350368,-9.713172767078504e-05,0.088097482919693,0,0,0
6364,213359.27267270096,2010-08-22 01:37:30,2941.468352932694,7,17,-1.1001102924346924,3.5547003746032715,18.9066808130052,18.67366077925408,75.06082999888183,68.62343165121433,-9.713172767078504e-05,0.088097482919693,0,0,0
6365,213389.28810809148,2010-08-22 01:38:00,2971.483788328218,7,17,-1.0997490882873535,3.5503294467926025,18.9066808130052,18.682830662250296,75.06082999888183,68.65600816292313,-0.0001295089750783,0.088097482919693,0,0,0
6366,213419.3032928724,2010-08-22 01:38:30,3001.498973104121,7,17,-1.0997490882873535,3.5459585189819336,18.9066808130052,18.69200047482255,75.06082999888183,68.68854379415718,-9.713172767078504e-05,0.088097482919693,0,0,0
6367,213449.3187600772,2010-08-22 01:39:00,3031.5144403289737,7,17,-1.0997490882873535,3.5412638187408447,18.9066808130052,18.70117032701195,75.06082999888183,68.72103754030957,-0.0001295089750783,0.088097482919693,0,0,0
6368,213479.33390713407,2010-08-22 01:39:30,3061.5295873758446,7,17,-1.0997490882873535,3.536407232284546,18.9066808130052,18.710339916269227,75.06082999888183,68.7534870725977,-0.0001295089750783,0.088097482919693,0,0,0
6369,213509.34919946807,2010-08-22 01:40:00,3091.5448796997903,7,17,-1.0997490882873535,3.531550645828247,18.9066808130052,18.719509485548084,75.06082999888183,68.7858919235012,-0.0001295089750783,0.088097482919693,0,0,0
6370,213539.36470167007,2010-08-22 01:40:30,3121.5603819268795,7,17,-1.099568486213684,3.5263702869415283,18.9066808130052,18.72867905858634,75.06082999888183,68.81825132364767,-0.0001295089750783,0.088097482919693,0,0,0
6371,213569.37980541907,2010-08-22 01:41:00,3151.5754856357385,7,17,-1.099929690361023,3.5211899280548096,18.9066808130052,18.737848576371068,75.06082999888183,68.85056318593325,-0.0001618862152099,0.088097482919693,0,0,0
6372,213599.39510949727,2010-08-22 01:41:30,3181.590789713979,7,17,-1.1001102924346924,3.515523910522461,18.9066808130052,18.74701836508545,75.06082999888183,68.88282677497133,-0.0001942634553415,0.088097482919693,0,0,0
6373,213629.41056265708,2010-08-22 01:42:00,3211.606242893828,7,17,-1.1001102924346924,3.5095343589782715,18.9066808130052,18.756188291646847,75.06082999888183,68.91503842644121,-0.0001942634553415,0.088097482919693,0,0,0
6374,213659.42648681576,2010-08-22 01:42:30,3241.62216703245,7,17,-1.099929690361023,3.503220796585083,18.9066808130052,18.765358379941297,75.06082999888183,68.94719432430652,-0.0001942634553415,0.088097482919693,0,0,0
6375,213689.4270149177,2010-08-22 01:43:00,3271.622695134412,7,17,-1.099929690361023,3.4960978031158447,18.9066808130052,18.77452376405467,75.06082999888183,68.97927184528969,-0.0002266406954731,0.088097482919693,0,0,0
6376,213719.4407371836,2010-08-22 01:43:30,3301.6364174905148,7,17,-1.0997490882873535,3.4880034923553467,18.9066808130052,18.783693054621324,75.06082999888183,69.01129346347207,-0.0002590179501567,0.088097482919693,0,0,0
6377,213749.45597790892,2010-08-22 01:44:00,3331.651658125636,7,17,-1.1001102924346924,3.478614091873169,18.9066808130052,18.7928628006128,75.06082999888183,69.04323645755703,-0.0002590179501567,0.088097482919693,0,0,0
6378,213779.47127506995,2010-08-22 01:44:30,3361.6669552866374,7,17,-1.0997490882873535,3.4671201705932617,18.9066808130052,18.80203266141697,75.06082999888183,69.07508427994352,-0.0003561496851034,0.088097482919693,0,0,0
6379,213809.48712668783,2010-08-22 01:45:00,3391.6828070749407,7,17,-1.0997490882873535,3.453036069869995,18.9066808130052,18.81120264503935,75.06082999888183,69.10681586907853,-0.0004209041653666,0.088097482919693,0,0,0
6380,213839.50201713017,2010-08-22 01:45:30,3421.6976973819365,7,17,-1.099568486213684,3.43393349647522,18.9066808130052,18.82037236635544,75.06082999888183,69.13839596275892,-0.0005827903514727,0.088097482919693,0,0,0
6381,213869.51721104383,2010-08-22 01:46:00,3451.712891275564,7,17,-1.099929690361023,3.407546281814575,18.9066808130052,18.82954220260848,75.06082999888183,69.16977109432852,-0.0008418083307333,0.088097482919693,0,0,0
6382,213899.53265071005,2010-08-22 01:46:30,3481.7283309467443,7,17,-1.0997490882873535,3.3693411350250244,18.9066808130052,18.83871207048232,75.06082999888183,69.2008538652738,-0.0011655807029455,0.088097482919693,0,0,0
6383,213929.54783120024,2010-08-22 01:47:00,3511.743511426941,7,17,-1.0997490882873535,3.313004970550537,18.9066808130052,18.84788190856526,75.06082999888183,69.23150814354982,-0.0017483711708337,0.088097482919693,0,0,0
6384,213959.563126667,2010-08-22 01:47:30,3541.75880689372,7,17,-1.0997490882873535,3.230443239212036,18.9066808130052,18.85705172627462,75.06082999888183,69.26153355747691,-0.0025578022468835,0.088097482919693,0,0,0
6385,213989.5784324996,2010-08-22 01:48:00,3571.7741127413706,7,17,-1.099568486213684,3.1009347438812256,18.9066808130052,18.86622158825684,75.06082999888183,69.29061190342577,-0.0042413710616528,0.088097482919693,0,0,0
6386,214013.3437910806,2010-08-22 01:48:24,3595.5394713323976,7,17,-1.099568486213684,2.900358200073242,18.9066808130052,18.873481696439026,75.06082999888183,69.31250814428155,-0.0099721429869532,0.088097482919693,0,0,0
6387,214024.67181595412,2010-08-22 01:48:36,3606.8674961858783,7,17,-1.099568486213684,2.700105667114258,18.9066808130052,18.876942168203072,75.06082999888183,69.32222093776275,-0.0158000476658344,0.088097482919693,0,0,0
6388,214024.70305725708,2010-08-22 01:48:36,3606.898737483807,7,17,-1.0997490882873535,2.699458122253418,18.9066808130052,18.876951710800984,75.06082999888183,69.32224670224483,-0.0158000476658344,0.088097482919693,0,0,0
6389,214084.7158017318,2010-08-22 01:49:36,60.01503051219964,8,17,0.0,3.3118717670440674,18.9066808130052,18.876951710800984,75.06082999888183,69.32224670224483,0.0012627125252038,0.088097482919693,0,0,0
6390,214084.90156718952,2010-08-22 01:49:36,0.187454860190012,9,17,-0.0014641173183918,3.3125193119049072,18.9066808130052,18.87695178703873,75.06082999888183,69.32224695478385,0.0,0.0833984836935997,0,0,0
6391,214089.7141309592,2010-08-22 01:49:41,5.000018629892964,9,17,0.0007031940040178,3.3194804191589355,18.9066816254796,18.87695178791707,75.06083269325491,69.32224695769577,0.0011008263099938,0.0833984836935997,0,0,0
