Data_Point,Test_Time(s),Date_Time,Step_Time(s),Step_Index,Cycle_Index,Current(A),Voltage(V),Charge_Capacity(Ah),Discharge_Capacity(Ah),Charge_Energy(Wh),Discharge_Energy(Wh),dV/dt(V/s),Internal_Resistance(Ohm),Is_FC_Data,AC_Impedance(Ohm),ACI_Phase_Angle(Deg)
764,25945.61085070322,2010-08-19 21:33:39,30.01535028841112,1,3,0.0,3.288560152053833,2.273810507318694,2.268441456222386,9.042670510962008,8.31082065661933,0.0008418083307333,0.086637258529663,0,0,0
765,25975.625959945864,2010-08-19 21:34:09,60.030459521037045,1,3,0.0,3.313814401626587,2.273810507318694,2.268441456222386,9.042670510962008,8.31082065661933,0.0006151676061563,0.086637258529663,0,0,0
766,26005.64134430419,2010-08-19 21:34:39,90.04584389941085,1,3,0.0,3.333888292312622,2.273810507318694,2.268441456222386,9.042670510962008,8.31082065661933,0.0004856586456298,0.086637258529663,0,0,0
767,26035.609536364787,2010-08-19 21:35:09,120.01403595499552,1,3,0.0,3.349915027618408,2.273810507318694,2.268441456222386,9.042670510962008,8.31082065661933,0.0003885269106831,0.086637258529663,0,0,0
768,26065.62469992032,2010-08-19 21:35:39,30.01511413985626,2,3,0.5501165986061096,3.494802713394165,2.278397338628571,2.268441456222386,9.05852430215602,8.31082065661933,0.0018131255637854,0.086637258529663,0,0,0
769,26095.639803318405,2010-08-19 21:36:09,60.03021753292822,2,3,0.550297200679779,3.5500056743621826,2.282984171780198,2.268441456222386,9.074687159506922,8.31082065661933,0.0012627125252038,0.086637258529663,0,0,0
770,26125.65508321638,2010-08-19 21:36:39,90.04549746097967,2,3,0.5501165986061096,3.5919342041015625,2.287570994367444,2.268441456222386,9.09106985606404,8.31082065661933,0.0010360718006268,0.086637258529663,0,0,0
771,26155.67026372665,2010-08-19 21:37:09,120.06067795120146,2,3,0.5501165986061096,3.626415729522705,2.292157425497682,2.268441456222386,9.107625484218184,8.31082065661933,0.0008741855854168,0.086637258529663,0,0,0
772,26185.685472427183,2010-08-19 21:37:39,150.0758866567445,2,3,0.5499359965324402,3.655555248260498,2.296743237950313,2.268441456222386,9.124324017398711,8.31082065661933,0.0007122993702068,0.086637258529663,0,0,0
773,26215.700838925997,2010-08-19 21:38:09,180.09125315054442,2,3,0.5501165986061096,3.680647373199463,2.301329360113357,2.268441456222386,9.14114799733218,8.31082065661933,0.0006151676061563,0.086637258529663,0,0,0
774,26245.715966389056,2010-08-19 21:38:39,210.1063806386687,2,3,0.5501165986061096,3.7026638984680176,2.305916080694678,2.268441456222386,9.158082216856076,8.31082065661933,0.0004856586456298,0.086637258529663,0,0,0
775,26275.731188843863,2010-08-19 21:39:09,240.12160305839168,2,3,0.5501165986061096,3.721928358078003,2.310502971890829,2.268441456222386,9.175111615127824,8.31082065661933,0.0004532813909463,0.086637258529663,0,0,0
776,26305.746409559342,2010-08-19 21:39:39,270.13682377887966,2,3,0.5501165986061096,3.738440752029419,2.315089804798524,2.268441456222386,9.192222847859044,8.31082065661933,0.0004209041653666,0.086637258529663,0,0,0
777,26335.76164495641,2010-08-19 21:40:09,300.1520592010086,2,3,0.550297200679779,3.750420331954956,2.319676660344623,2.268441456222386,9.209400076285688,8.31082065661933,0.0002590179501567,0.086637258529663,0,0,0
778,26365.77687412295,2010-08-19 21:40:39,330.16728833747186,2,3,0.5501165986061096,3.756247997283936,2.324263473149634,2.268441456222386,9.226617257339752,8.31082065661933,0.0001295089750783,0.086637258529663,0,0,0
779,26395.79238191892,2010-08-19 21:41:09,360.18279626376506,2,3,0.5501165986061096,3.759161949157715,2.328850342396403,2.268441456222386,9.243853391784906,8.31082065661933,9.713172767078504e-05,0.086637258529663,0,0,0
780,26425.807485808225,2010-08-19 21:41:39,390.197900032774,2,3,0.5499359965324402,3.7611045837402335,2.333437239383084,2.268441456222386,9.26110041971566,8.31082065661933,6.47544875391759e-05,0.086637258529663,0,0,0
781,26455.82261723617,2010-08-19 21:42:09,420.213031475755,2,3,0.5501165986061096,3.762885332107544,2.33802407336658,2.268441456222386,9.278356095258966,8.31082065661933,6.47544875391759e-05,0.086637258529663,0,0,0
782,26485.837808187465,2010-08-19 21:42:39,450.22822240699895,2,3,0.5499359965324402,3.764827966690064,2.342610897230423,2.268441456222386,9.295620436420451,8.31082065661933,0.0,0.086637258529663,0,0,0
783,26515.853058912733,2010-08-19 21:43:09,480.2434731272557,2,3,0.5501165986061096,3.766770601272583,2.347197716590712,2.268441456222386,9.312893617369731,8.31082065661933,6.47544875391759e-05,0.086637258529663,0,0,0
784,26545.86826188398,2010-08-19 21:43:39,510.2586761285819,2,3,0.550297200679779,3.7690370082855225,2.351784588005516,2.268441456222386,9.330176307280386,8.31082065661933,9.713172767078504e-05,0.086637258529663,0,0,0
785,26575.883484103208,2010-08-19 21:44:09,540.2738983227428,2,3,0.5501165986061096,3.770979642868042,2.356371450816161,2.268441456222386,9.347468610681352,8.31082065661933,6.47544875391759e-05,0.086637258529663,0,0,0
786,26605.898715966465,2010-08-19 21:44:39,570.2891301809896,2,3,0.5501165986061096,3.773246049880981,2.360958238469234,2.268441456222386,9.36477070481502,8.31082065661933,6.47544875391759e-05,0.086637258529663,0,0,0
787,26635.914077903908,2010-08-19 21:45:09,600.3044921434961,2,3,0.5501165986061096,3.775674343109131,2.365545055533403,2.268441456222386,9.382083286588102,8.31082065661933,9.713172767078504e-05,0.086637258529663,0,0,0
788,26665.92933131587,2010-08-19 21:45:39,630.3197455554613,2,3,0.5501165986061096,3.7779407501220703,2.370131926574357,2.268441456222386,9.399406575909207,8.31082065661933,6.47544875391759e-05,0.086637258529663,0,0,0
789,26695.944403601417,2010-08-19 21:46:09,660.3348178209537,2,3,0.5501165986061096,3.7802071571350098,2.37471871607298,2.268441456222386,9.41674029820013,8.31082065661933,3.237724376958795e-05,0.086637258529663,0,0,0
790,26725.959634051156,2010-08-19 21:46:39,690.3500482957525,2,3,0.5501165986061096,3.782635450363159,2.379305530020848,2.268441456222386,9.434084959094331,8.31082065661933,6.47544875391759e-05,0.086637258529663,0,0,0
791,26755.97487328779,2010-08-19 21:47:09,720.3652875023135,2,3,0.5501165986061096,3.7850637435913086,2.383892441810256,2.268441456222386,9.451441019354125,8.31082065661933,9.713172767078504e-05,0.086637258529663,0,0,0
792,26785.990232453325,2010-08-19 21:47:39,750.380646687899,2,3,0.5501165986061096,3.787330150604248,2.388479376724218,2.268441456222386,9.468808388365048,8.31082065661933,3.237724376958795e-05,0.086637258529663,0,0,0
793,26816.005321059543,2010-08-19 21:48:09,780.3957352840927,2,3,0.5501165986061096,3.7900822162628174,2.393066224220685,2.268441456222386,9.486186960195711,8.31082065661933,9.713172767078504e-05,0.086637258529663,0,0,0
794,26846.02055904305,2010-08-19 21:48:39,810.4109732575803,2,3,0.5504778623580933,3.7928342819213863,2.39765349183604,2.268441456222386,9.503578945257258,8.31082065661933,0.0001295089750783,0.086637258529663,0,0,0
795,26876.03581124701,2010-08-19 21:49:09,840.4262254615348,2,3,0.550297200679779,3.795424461364746,2.402241224111583,2.268441456222386,9.520985055726063,8.31082065661933,6.47544875391759e-05,0.086637258529663,0,0,0
796,26906.051039972448,2010-08-19 21:49:39,870.4414541719364,2,3,0.550297200679779,3.798338413238525,2.406828553492064,2.268441456222386,9.538402542184018,8.31082065661933,9.713172767078504e-05,0.086637258529663,0,0,0
797,26936.0662670187,2010-08-19 21:50:09,900.4566812131775,2,3,0.5501165986061096,3.801414251327514,2.411415389880867,2.268441456222386,9.555831712219325,8.31082065661933,9.713172767078504e-05,0.086637258529663,0,0,0
798,26966.081499954635,2010-08-19 21:50:39,930.4719141791852,2,3,0.5501165986061096,3.804651975631714,2.416002258334223,2.268441456222386,9.573275220958758,8.31082065661933,9.713172767078504e-05,0.086637258529663,0,0,0
799,26996.096741837868,2010-08-19 21:51:09,960.4871560624172,2,3,0.550297200679779,3.807889699935913,2.420589164145675,2.268441456222386,9.590733782162792,8.31082065661933,0.0001295089750783,0.086637258529663,0,0,0
800,27026.11197997176,2010-08-19 21:51:39,990.5023942063297,2,3,0.5499359965324402,3.811127424240112,2.425176067949554,2.268441456222386,9.60820773910178,8.31082065661933,9.713172767078504e-05,0.086637258529663,0,0,0
801,27056.1271974642,2010-08-19 21:52:09,1020.5176116837348,2,3,0.550297200679779,3.814688920974731,2.429762927617022,2.268441456222386,9.625697343876844,8.31082065661933,6.47544875391759e-05,0.086637258529663,0,0,0
802,27086.142579722284,2010-08-19 21:52:39,1050.5329939468368,2,3,0.550297200679779,3.818250417709351,2.434349821095132,2.268441456222386,9.643203107204789,8.31082065661933,9.713172767078504e-05,0.086637258529663,0,0,0
803,27116.160416542905,2010-08-19 21:53:09,1080.5508307574262,2,3,0.5499359965324402,3.82165002822876,2.43893703688854,2.268441456222386,9.660725920637866,8.31082065661933,9.713172767078504e-05,0.086637258529663,0,0,0
804,27146.172949945765,2010-08-19 21:53:39,1110.563364160292,2,3,0.5501165986061096,3.824887752532959,2.443523503631744,2.268441456222386,9.678261538530894,8.31082065661933,6.47544875391759e-05,0.086637258529663,0,0,0
805,27176.18827431959,2010-08-19 21:54:09,1140.5786885341158,2,3,0.5501165986061096,3.828449249267578,2.448110432429812,2.268441456222386,9.695814357328953,8.31082065661933,6.47544875391759e-05,0.086637258529663,0,0,0
806,27206.2033616376,2010-08-19 21:54:39,1170.5937758521238,2,3,0.5501165986061096,3.831686973571777,2.452697207758286,2.268441456222386,9.71338163995168,8.31082065661933,9.713172767078504e-05,0.086637258529663,0,0,0
807,27236.218610608496,2010-08-19 21:55:09,1200.6090248230205,2,3,0.5501165986061096,3.8346006870269775,2.457284090631353,2.268441456222386,9.730963874199375,8.31082065661933,3.237724376958795e-05,0.086637258529663,0,0,0
808,27266.23382498818,2010-08-19 21:55:39,1230.6242392077177,2,3,0.5501165986061096,3.8378384113311768,2.461870973178149,2.268441456222386,9.748560388406702,8.31082065661933,6.47544875391759e-05,0.086637258529663,0,0,0
809,27296.24907132752,2010-08-19 21:56:09,1260.6394855470558,2,3,0.5501165986061096,3.840752363204956,2.46645776841033,2.268441456222386,9.76617051766547,8.31082065661933,3.237724376958795e-05,0.086637258529663,0,0,0
810,27326.264298133177,2010-08-19 21:56:39,1290.6547123476971,2,3,0.5501165986061096,3.843828201293945,2.471044625141645,2.268441456222386,9.783794719043318,8.31082065661933,9.713172767078504e-05,0.086637258529663,0,0,0
811,27356.279535234484,2010-08-19 21:57:09,1320.6699494490113,2,3,0.5499359965324402,3.8467421531677246,2.475631472805425,2.268441456222386,9.801432581385471,8.31082065661933,6.47544875391759e-05,0.086637258529663,0,0,0
812,27386.294913933707,2010-08-19 21:57:39,1350.6853281482308,2,3,0.5501165986061096,3.849817991256714,2.480218374276704,2.268441456222386,9.819084351741756,8.31082065661933,0.0001295089750783,0.086637258529663,0,0,0
813,27416.310126393604,2010-08-19 21:58:09,1380.7005406081312,2,3,0.5501165986061096,3.852731943130493,2.484805228661147,2.268441456222386,9.836749443751351,8.31082065661933,6.47544875391759e-05,0.086637258529663,0,0,0
814,27446.325238894377,2010-08-19 21:58:40,1410.7156531389771,2,3,0.550297200679779,3.8554840087890634,2.48939208229841,2.268441456222386,9.854427728987703,8.31082065661933,6.47544875391759e-05,0.086637258529663,0,0,0
815,27476.34069799398,2010-08-19 21:59:10,1440.7311122185292,2,3,0.5501165986061096,3.858236074447632,2.493978921534537,2.268441456222386,9.8721189315709,8.31082065661933,3.237724376958795e-05,0.086637258529663,0,0,0
816,27506.355851963104,2010-08-19 21:59:40,1470.7462661976772,2,3,0.5501165986061096,3.860988140106201,2.498565734815233,2.268441456222386,9.88982247488926,8.31082065661933,6.47544875391759e-05,0.086637258529663,0,0,0
817,27536.37092109579,2010-08-19 22:00:10,1500.761335305299,2,3,0.5501165986061096,3.863416433334351,2.503152620491568,2.268441456222386,9.9075381523126,8.31082065661933,6.47544875391759e-05,0.086637258529663,0,0,0
818,27566.38629709829,2010-08-19 22:00:40,1530.776711317823,2,3,0.5501165986061096,3.8658447265625,2.507739553072612,2.268441456222386,9.925264977693924,8.31082065661933,9.713172767078504e-05,0.086637258529663,0,0,0
819,27596.40151996412,2010-08-19 22:01:10,1560.7919341786453,2,3,0.5499359965324402,3.8679492473602295,2.512326370234546,2.268441456222386,9.94300156098942,8.31082065661933,6.47544875391759e-05,0.086637258529663,0,0,0
820,27626.416736293668,2010-08-19 22:01:40,1590.8071505132025,2,3,0.550297200679779,3.869891881942749,2.516913262957642,2.268441456222386,9.960747776423435,8.31082065661933,6.47544875391759e-05,0.086637258529663,0,0,0
821,27656.4318468947,2010-08-19 22:02:10,1620.8222611142385,2,3,0.550297200679779,3.8716726303100586,2.521500110605281,2.268441456222386,9.978502215399246,8.31082065661933,6.47544875391759e-05,0.086637258529663,0,0,0
822,27686.44707413644,2010-08-19 22:02:40,1650.837488381042,2,3,0.5501165986061096,3.873129606246948,2.526086955024868,2.268441456222386,9.996264166415006,8.31082065661933,6.47544875391759e-05,0.086637258529663,0,0,0
823,27716.46235984891,2010-08-19 22:03:10,1680.8527740884974,2,3,0.550297200679779,3.874586582183838,2.530673880658165,2.268441456222386,10.01403314576741,8.31082065661933,3.237724376958795e-05,0.086637258529663,0,0,0
824,27746.47767290954,2010-08-19 22:03:40,1710.868087134088,2,3,0.5499359965324402,3.875719785690308,2.535260768041691,2.268441456222386,10.03180805218678,8.31082065661933,3.237724376958795e-05,0.086637258529663,0,0,0
825,27776.492779285043,2010-08-19 22:04:10,1740.8831935045807,2,3,0.5499359965324402,3.8770148754119873,2.53984761591735,2.268441456222386,10.049588338358388,8.31082065661933,6.47544875391759e-05,0.086637258529663,0,0,0
826,27806.508141001937,2010-08-19 22:04:40,1770.898555216463,2,3,0.5501165986061096,3.877986192703247,2.54443447411354,2.268441456222386,10.067373704448864,8.31082065661933,3.237724376958795e-05,0.086637258529663,0,0,0
827,27836.523407311044,2010-08-19 22:05:10,1800.913821530584,2,3,0.5501165986061096,3.878957509994507,2.549021352277281,2.268441456222386,10.085163940775,8.31082065661933,0.0,0.086637258529663,0,0,0
828,27866.538613269742,2010-08-19 22:05:40,1830.9290274942937,2,3,0.5501165986061096,3.879928827285767,2.553608250040245,2.268441456222386,10.10295859098435,8.31082065661933,6.47544875391759e-05,0.086637258529663,0,0,0
829,27896.55370633207,2010-08-19 22:06:10,1860.9441205516057,2,3,0.5501165986061096,3.8809001445770255,2.558195015813973,2.268441456222386,10.120757016248533,8.31082065661933,3.237724376958795e-05,0.086637258529663,0,0,0
830,27926.568980941865,2010-08-19 22:06:40,1890.9593952115272,2,3,0.5501165986061096,3.881709575653076,2.56278181923414,2.268441456222386,10.138559695178458,8.31082065661933,3.237724376958795e-05,0.086637258529663,0,0,0
831,27956.584489690205,2010-08-19 22:07:10,1920.974903904732,2,3,0.5501165986061096,3.882357120513916,2.567368744226975,2.268441456222386,10.156366705379977,8.31082065661933,0.0,0.086637258529663,0,0,0
832,27986.599408247617,2010-08-19 22:07:40,1950.989822467149,2,3,0.5501165986061096,3.883328437805176,2.571955532986723,2.268441456222386,10.174176999553254,8.31082065661933,3.237724376958795e-05,0.086637258529663,0,0,0
833,28016.61464467725,2010-08-19 22:08:10,1981.0050588917768,2,3,0.550297200679779,3.884299755096436,2.576542427713624,2.268441456222386,10.191991478246896,8.31082065661933,3.237724376958795e-05,0.086637258529663,0,0,0
834,28046.630004684885,2010-08-19 22:08:40,2011.0204189044232,2,3,0.5501165986061096,3.8847854137420654,2.58112934385357,2.268441456222386,10.209809495308042,8.31082065661933,0.0,0.086637258529663,0,0,0
835,28076.645274853618,2010-08-19 22:09:10,2041.035689078164,2,3,0.5499359965324402,3.885756731033325,2.585716211705329,2.268441456222386,10.2276309274973,8.31082065661933,3.237724376958795e-05,0.086637258529663,0,0,0
836,28106.66035014665,2010-08-19 22:09:40,2071.050764361177,2,3,0.5499359965324402,3.886404275894165,2.590303073725564,2.268441456222386,10.245455884909742,8.31082065661933,-3.237724376958795e-05,0.086637258529663,0,0,0
837,28136.675735036297,2010-08-19 22:10:10,2101.066149275888,2,3,0.5499359965324402,3.887213706970215,2.594889928928349,2.268441456222386,10.26328428552031,8.31082065661933,3.237724376958795e-05,0.086637258529663,0,0,0
838,28166.6908280485,2010-08-19 22:10:40,2131.0812422630247,2,3,0.550297200679779,3.8880231380462646,2.59947678777916,2.268441456222386,10.281116158212896,8.31082065661933,3.237724376958795e-05,0.086637258529663,0,0,0
839,28196.70606252828,2010-08-19 22:11:10,2161.0964767478176,2,3,0.5501165986061096,3.8885087966918954,2.604063616983574,2.268441456222386,10.298951337561329,8.31082065661933,-3.237724376958795e-05,0.086637258529663,0,0,0
840,28226.721287930435,2010-08-19 22:11:40,2191.1117021499736,2,3,0.5499359965324402,3.889318227767944,2.608650552942613,2.268441456222386,10.31679043924124,8.31082065661933,3.237724376958795e-05,0.086637258529663,0,0,0
841,28256.73651616465,2010-08-19 22:12:10,2221.126930384188,2,3,0.5501165986061096,3.890289545059204,2.613237415493713,2.268441456222386,10.334632623159855,8.31082065661933,3.237724376958795e-05,0.086637258529663,0,0,0
842,28286.752023288947,2010-08-19 22:12:40,2251.14243762377,2,3,0.5499359965324402,3.890937089920044,2.617824380929098,2.268441456222386,10.35247871743025,8.31082065661933,0.0,0.086637258529663,0,0,0
843,28316.767135859893,2010-08-19 22:13:10,2281.1575500994786,2,3,0.5501165986061096,3.8917465209960938,2.622411284942479,2.268441456222386,10.37032807116966,8.31082065661933,3.237724376958795e-05,0.086637258529663,0,0,0
844,28346.78236623444,2010-08-19 22:13:40,2311.172780448965,2,3,0.5501165986061096,3.892555952072144,2.626998148818823,2.268441456222386,10.388180750599386,8.31082065661933,3.237724376958795e-05,0.086637258529663,0,0,0
845,28376.7974695824,2010-08-19 22:14:10,2341.187883796925,2,3,0.550297200679779,3.8935272693634033,2.631585045772454,2.268441456222386,10.406037105776813,8.31082065661933,6.47544875391759e-05,0.086637258529663,0,0,0
846,28406.81269621261,2010-08-19 22:14:40,2371.2031104371663,2,3,0.5501165986061096,3.894012928009033,2.636171862931362,2.268441456222386,10.423896732680449,8.31082065661933,3.237724376958795e-05,0.086637258529663,0,0,0
847,28436.82794026125,2010-08-19 22:15:10,2401.2183544857958,2,3,0.5499359965324402,3.894660472869873,2.640758840044743,2.268441456222386,10.441760656501868,8.31082065661933,-3.237724376958795e-05,0.086637258529663,0,0,0
848,28466.84317044532,2010-08-19 22:15:40,2431.233584659845,2,3,0.550297200679779,3.895793676376343,2.645345753584817,2.268441456222386,10.459627385416248,8.31082065661933,6.47544875391759e-05,0.086637258529663,0,0,0
849,28496.858422990124,2010-08-19 22:16:10,2461.2488372046487,2,3,0.5501165986061096,3.8962793350219727,2.649932580170368,2.268441456222386,10.477497756849251,8.31082065661933,0.0,0.086637258529663,0,0,0
850,28526.87376801542,2010-08-19 22:16:40,2491.264182255005,2,3,0.550297200679779,3.8974125385284415,2.654519509833798,2.268441456222386,10.495372399400347,8.31082065661933,3.237724376958795e-05,0.086637258529663,0,0,0
851,28556.88901670561,2010-08-19 22:17:10,2521.2794309301644,2,3,0.550297200679779,3.898221969604492,2.659106363016009,2.268441456222386,10.513250509632146,8.31082065661933,6.47544875391759e-05,0.086637258529663,0,0,0
852,28586.904225897368,2010-08-19 22:17:40,2551.294640121919,2,3,0.5501165986061096,3.899031400680542,2.663693227199424,2.268441456222386,10.531132669503023,8.31082065661933,6.47544875391759e-05,0.086637258529663,0,0,0
853,28616.919335240276,2010-08-19 22:18:10,2581.309749459808,2,3,0.550297200679779,3.899840831756592,2.668280099893314,2.268441456222386,10.549018905443456,8.31082065661933,3.237724376958795e-05,0.086637258529663,0,0,0
854,28646.934571745096,2010-08-19 22:18:40,2611.3249859596226,2,3,0.550297200679779,3.900812149047852,2.672866969244395,2.268441456222386,10.566909136242668,8.31082065661933,0.0,0.086637258529663,0,0,0
855,28676.949828625708,2010-08-19 22:19:10,2641.340242845245,2,3,0.5499359965324402,3.901621580123901,2.677453803557408,2.268441456222386,10.58480343714472,8.31082065661933,0.0,0.086637258529663,0,0,0
856,28706.965174748737,2010-08-19 22:19:40,2671.3555889732875,2,3,0.5501165986061096,3.902592897415161,2.682040667237446,2.268441456222386,10.602702125995735,8.31082065661933,0.0,0.086637258529663,0,0,0
857,28736.980280116728,2010-08-19 22:20:10,2701.3706943312563,2,3,0.5501165986061096,3.903564214706421,2.686627572771148,2.268441456222386,10.620605277024763,8.31082065661933,3.237724376958795e-05,0.086637258529663,0,0,0
858,28766.995666139203,2010-08-19 22:20:40,2731.3860803637526,2,3,0.5501165986061096,3.90469741821289,2.691214480700934,2.268441456222386,10.638512891511494,8.31082065661933,3.237724376958795e-05,0.086637258529663,0,0,0
859,28797.01079057472,2010-08-19 22:21:10,2761.4012047892443,2,3,0.5501165986061096,3.9053449630737305,2.695801366159168,2.268441456222386,10.656424826337746,8.31082065661933,0.0,0.086637258529663,0,0,0
860,28827.02600197698,2010-08-19 22:21:40,2791.416416191508,2,3,0.5499359965324402,3.9064781665802,2.700388264057362,2.268441456222386,10.674341385250685,8.31082065661933,0.0,0.086637258529663,0,0,0
861,28857.04135147843,2010-08-19 22:22:10,2821.431765702983,2,3,0.5501165986061096,3.90744948387146,2.704975130250715,2.268441456222386,10.692262508494228,8.31082065661933,0.0,0.086637258529663,0,0,0
862,28887.05646196418,2010-08-19 22:22:40,2851.4468761837197,2,3,0.550297200679779,3.9085826873779297,2.709561927561126,2.268441456222386,10.71018806218192,8.31082065661933,0.0,0.086637258529663,0,0,0
863,28917.071906858386,2010-08-19 22:23:10,2881.462321072905,2,3,0.550297200679779,3.90987777709961,2.714148793776891,2.268441456222386,10.72811878761804,8.31082065661933,6.47544875391759e-05,0.086637258529663,0,0,0
864,28947.086939575303,2010-08-19 22:23:40,2911.4773537848178,2,3,0.5501165986061096,3.910687208175659,2.718735604381263,2.268441456222386,10.746054215948709,8.31082065661933,0.0,0.086637258529663,0,0,0
865,28977.102191588787,2010-08-19 22:24:10,2941.4926058033097,2,3,0.5501165986061096,3.911820411682129,2.723322457199474,2.268441456222386,10.763994816476645,8.31082065661933,3.237724376958795e-05,0.086637258529663,0,0,0
866,29007.1174357928,2010-08-19 22:24:40,2971.5078500123386,2,3,0.5501165986061096,3.912953615188599,2.727909333924842,2.268441456222386,10.781940642900102,8.31082065661933,3.237724376958795e-05,0.086637258529663,0,0,0
867,29037.13382012837,2010-08-19 22:25:10,3001.524234337888,2,3,0.5501165986061096,3.914248466491699,2.732496364182407,2.268441456222386,10.799892260388274,8.31082065661933,6.47544875391759e-05,0.086637258529663,0,0,0
868,29067.147913589382,2010-08-19 22:25:40,3031.538327803911,2,3,0.5497553944587708,3.915219783782959,2.737083015394243,2.268441456222386,10.8178477964688,8.31082065661933,3.237724376958795e-05,0.086637258529663,0,0,0
869,29097.163125703424,2010-08-19 22:26:10,3061.553539917949,2,3,0.550297200679779,3.9166767597198486,2.741669949051127,2.268441456222386,10.835809653443212,8.31082065661933,6.47544875391759e-05,0.086637258529663,0,0,0
870,29127.17839096492,2010-08-19 22:26:40,3091.5688051794477,2,3,0.550297200679779,3.9178099632263184,2.746256825869554,2.268441456222386,10.853776868756665,8.31082065661933,3.237724376958795e-05,0.086637258529663,0,0,0
871,29157.193606382192,2010-08-19 22:27:10,3121.584020596718,2,3,0.550297200679779,3.918943166732788,2.750843614718715,2.268441456222386,10.871749330645349,8.31082065661933,3.237724376958795e-05,0.086637258529663,0,0,0
872,29187.208848496,2010-08-19 22:27:40,3151.599262735587,2,3,0.5501165986061096,3.920238256454468,2.75543046210836,2.268441456222386,10.8897277868562,8.31082065661933,3.237724376958795e-05,0.086637258529663,0,0,0
873,29217.22406658493,2010-08-19 22:28:10,3181.6144808044664,2,3,0.5501165986061096,3.9213714599609375,2.76001725657536,2.268441456222386,10.907711769918397,8.31082065661933,3.237724376958795e-05,0.086637258529663,0,0,0
874,29247.239461965724,2010-08-19 22:28:40,3211.629876220349,2,3,0.550297200679779,3.922828435897827,2.764604138592957,2.268441456222386,10.925702012674543,8.31082065661933,3.237724376958795e-05,0.086637258529663,0,0,0
875,29277.25455651676,2010-08-19 22:29:10,3241.6449707362967,2,3,0.5499359965324402,3.923961639404297,2.769190983936627,2.268441456222386,10.943698139132549,8.31082065661933,0.0,0.086637258529663,0,0,0
876,29307.27075833244,2010-08-19 22:29:40,3271.661172551976,2,3,0.550297200679779,3.9254186153411865,2.773777945382365,2.268441456222386,10.961700869293884,8.31082065661933,0.0,0.086637258529663,0,0,0
877,29337.285152192133,2010-08-19 22:30:10,3301.6755664166844,2,3,0.5501165986061096,3.926875591278076,2.778364645845775,2.268441456222386,10.979708716552704,8.31082065661933,6.47544875391759e-05,0.086637258529663,0,0,0
878,29367.300253971185,2010-08-19 22:30:41,3331.690668185709,2,3,0.550297200679779,3.928170680999756,2.78295144882059,2.268441456222386,10.997723333127052,8.31082065661933,6.47544875391759e-05,0.086637258529663,0,0,0
879,29397.315796844578,2010-08-19 22:31:11,3361.7062110691263,2,3,0.5501165986061096,3.9296276569366455,2.787538336482198,2.268441456222386,11.015744715684242,8.31082065661933,3.237724376958795e-05,0.086637258529663,0,0,0
880,29427.330917881623,2010-08-19 22:31:41,3391.721332186372,2,3,0.5501165986061096,3.930922746658325,2.792125170865937,2.268441456222386,11.033772478675337,8.31082065661933,3.237724376958795e-05,0.086637258529663,0,0,0
881,29457.346206105347,2010-08-19 22:32:11,3421.7366204401737,2,3,0.5501165986061096,3.932541608810425,2.796712025741257,2.268441456222386,11.051806921791558,8.31082065661933,6.47544875391759e-05,0.086637258529663,0,0,0
882,29487.361231378723,2010-08-19 22:32:41,3451.751645593248,2,3,0.5501165986061096,3.9339985847473145,2.801298859635508,2.268441456222386,11.069848041116328,8.31082065661933,3.237724376958795e-05,0.086637258529663,0,0,0
883,29517.376459181865,2010-08-19 22:33:11,3481.766873396388,2,3,0.550297200679779,3.935617446899414,2.805885710836853,2.268441456222386,11.08789608121828,8.31082065661933,6.47544875391759e-05,0.086637258529663,0,0,0
884,29547.39180134001,2010-08-19 22:33:41,3511.782215559548,2,3,0.5501165986061096,3.9369125366210938,2.810472607879097,2.268441456222386,11.105951173454727,8.31082065661933,3.237724376958795e-05,0.086637258529663,0,0,0
885,29577.40691952996,2010-08-19 22:34:11,3541.7973337444864,2,3,0.5501165986061096,3.9386932849884033,2.815059403621189,2.268441456222386,11.124013006259103,8.31082065661933,6.47544875391759e-05,0.086637258529663,0,0,0
886,29607.422173518364,2010-08-19 22:34:41,3571.8125877579505,2,3,0.550297200679779,3.940150260925293,2.819646257976045,2.268441456222386,11.142082212076811,8.31082065661933,3.237724376958795e-05,0.086637258529663,0,0,0
887,29637.43739492055,2010-08-19 22:35:11,3601.8278091400875,2,3,0.5499359965324402,3.941607236862183,2.824233143321083,2.268441456222386,11.160158785033891,8.31082065661933,3.237724376958795e-05,0.086637258529663,0,0,0
888,29667.452748973345,2010-08-19 22:35:41,3631.843163197894,2,3,0.5501165986061096,3.943387985229492,2.82882001230556,2.268441456222386,11.178242599932444,8.31082065661933,6.47544875391759e-05,0.086637258529663,0,0,0
889,29697.46787654167,2010-08-19 22:36:11,3661.858290761205,2,3,0.5501165986061096,3.944844961166382,2.833406843805065,2.268441456222386,11.196333671364398,8.31082065661933,0.0,0.086637258529663,0,0,0
890,29727.483104520248,2010-08-19 22:36:41,3691.8735187347697,2,3,0.5501165986061096,3.9466257095336914,2.837993646748774,2.268441456222386,11.214432155321006,8.31082065661933,3.237724376958795e-05,0.086637258529663,0,0,0
891,29757.49848660791,2010-08-19 22:37:11,3721.888900832459,2,3,0.5501165986061096,3.948244571685791,2.842580543911097,2.268441456222386,11.232538489319476,8.31082065661933,0.0,0.086637258529663,0,0,0
892,29787.51370478205,2010-08-19 22:37:41,3751.9041190066014,2,3,0.5501165986061096,3.94986343383789,2.847167363649385,2.268441456222386,11.250652236039087,8.31082065661933,6.47544875391759e-05,0.086637258529663,0,0,0
893,29817.52899160228,2010-08-19 22:38:11,3781.9194058218177,2,3,0.5501165986061096,3.9516441822052,2.851754237923768,2.268441456222386,11.268774031212574,8.31082065661933,3.237724376958795e-05,0.086637258529663,0,0,0
894,29847.544056569583,2010-08-19 22:38:41,3811.934470784108,2,3,0.5501165986061096,3.9534249305725098,2.856341035342848,2.268441456222386,11.286903371263246,8.31082065661933,6.47544875391759e-05,0.086637258529663,0,0,0
895,29877.559502852244,2010-08-19 22:39:11,3841.9499170667664,2,3,0.5499359965324402,3.95504379272461,2.860927949557673,2.268441456222386,11.305041187257489,8.31082065661933,3.237724376958795e-05,0.086637258529663,0,0,0
896,29907.57453323836,2010-08-19 22:39:41,3871.964947457895,2,3,0.5501165986061096,3.956824541091919,2.865514803632756,2.268441456222386,11.323186918405712,8.31082065661933,3.237724376958795e-05,0.086637258529663,0,0,0
897,29937.58977367297,2010-08-19 22:40:11,3901.980187887504,2,3,0.550297200679779,3.9587671756744394,2.870101640888608,2.268441456222386,11.341340666499349,8.31082065661933,3.237724376958795e-05,0.086637258529663,0,0,0
898,29967.6050172755,2010-08-19 22:40:41,3931.9954314900215,2,3,0.550297200679779,3.960709810256958,2.874688532164994,2.268441456222386,11.359503054914024,8.31082065661933,9.713172767078504e-05,0.086637258529663,0,0,0
899,29997.62045222491,2010-08-19 22:41:11,3962.010866449458,2,3,0.550297200679779,3.9623286724090576,2.879275397092208,2.268441456222386,11.377673825446292,8.31082065661933,3.237724376958795e-05,0.086637258529663,0,0,0
900,30027.63564259476,2010-08-19 22:41:41,3992.026056819303,2,3,0.5501165986061096,3.964271306991577,2.883862295372694,2.268441456222386,11.395853283728304,8.31082065661933,6.47544875391759e-05,0.086637258529663,0,0,0
901,30057.650736098178,2010-08-19 22:42:11,4022.041150317715,2,3,0.5499359965324402,3.966052055358887,2.88844918903357,2.268441456222386,11.414041350043048,8.31082065661933,3.237724376958795e-05,0.086637258529663,0,0,0
902,30087.665974272164,2010-08-19 22:42:41,4052.0563884917024,2,3,0.5501165986061096,3.968156576156616,2.893036161011487,2.268441456222386,11.432238478578048,8.31082065661933,9.713172767078504e-05,0.086637258529663,0,0,0
903,30117.681221303228,2010-08-19 22:43:11,4082.071635517752,2,3,0.550297200679779,3.970099210739136,2.89762308522142,2.268441456222386,11.450444221712717,8.31082065661933,9.713172767078504e-05,0.086637258529663,0,0,0
904,30147.696445301888,2010-08-19 22:43:41,4112.08685951641,2,3,0.550297200679779,3.9720418453216553,2.902210031051936,2.268441456222386,11.46865889365041,8.31082065661933,6.47544875391759e-05,0.086637258529663,0,0,0
905,30177.711697335413,2010-08-19 22:44:11,4142.10211154994,2,3,0.5501165986061096,3.973822593688965,2.906796940932325,2.268441456222386,11.486882290142209,8.31082065661933,6.47544875391759e-05,0.086637258529663,0,0,0
906,30207.727050716538,2010-08-19 22:44:41,4172.117464956122,2,3,0.5501165986061096,3.975765228271485,2.911383927243072,2.268441456222386,11.505114895063478,8.31082065661933,3.237724376958795e-05,0.086637258529663,0,0,0
907,30237.74219447521,2010-08-19 22:45:11,4202.132608689734,2,3,0.5501165986061096,3.977545976638794,2.915970856817844,2.268441456222386,11.523356172633084,8.31082065661933,0.0,0.086637258529663,0,0,0
908,30267.75743086976,2010-08-19 22:45:41,4232.147845084287,2,3,0.550297200679779,3.979650497436523,2.920557789688397,2.268441456222386,11.541605992713594,8.31082065661933,3.237724376958795e-05,0.086637258529663,0,0,0
909,30297.7726810186,2010-08-19 22:46:11,4262.163095233119,2,3,0.5501165986061096,3.981755018234253,2.925144634737503,2.268441456222386,11.55986476077036,8.31082065661933,6.47544875391759e-05,0.086637258529663,0,0,0
910,30327.78788484197,2010-08-19 22:46:41,4292.17829906652,2,3,0.5501165986061096,3.983697652816773,2.929731550273901,2.268441456222386,11.578132622894554,8.31082065661933,6.47544875391759e-05,0.086637258529663,0,0,0
911,30357.803134830403,2010-08-19 22:47:11,4322.193549054952,2,3,0.5501165986061096,3.985478401184082,2.93431834825717,2.268441456222386,11.596408839130833,8.31082065661933,6.47544875391759e-05,0.086637258529663,0,0,0
912,30387.8183593654,2010-08-19 22:47:41,4352.208773589948,2,3,0.5501165986061096,3.9874210357666016,2.938905215539331,2.268441456222386,11.614694126576222,8.31082065661933,6.47544875391759e-05,0.086637258529663,0,0,0
913,30417.83359563464,2010-08-19 22:48:11,4382.224009849163,2,3,0.550297200679779,3.989363670349121,2.943492069816739,2.268441456222386,11.632988050219438,8.31082065661933,6.47544875391759e-05,0.086637258529663,0,0,0
914,30447.848971181,2010-08-19 22:48:41,4412.239385450662,2,3,0.5501165986061096,3.991144418716431,2.948078880020775,2.268441456222386,11.651290594784616,8.31082065661933,3.237724376958795e-05,0.086637258529663,0,0,0
915,30477.86411602237,2010-08-19 22:49:11,4442.2545302469225,2,3,0.5501165986061096,3.99308705329895,2.952665621521904,2.268441456222386,11.669601705723515,8.31082065661933,3.237724376958795e-05,0.086637258529663,0,0,0
916,30507.879324587564,2010-08-19 22:49:41,4472.269738807104,2,3,0.5501165986061096,3.9948675632476807,2.957252380554076,2.268441456222386,11.687921670860105,8.31082065661933,3.237724376958795e-05,0.086637258529663,0,0,0
917,30537.894557613723,2010-08-19 22:50:11,4502.284971818223,2,3,0.5501165986061096,3.99713397026062,2.961839190957146,2.268441456222386,11.706250837369693,8.31082065661933,6.47544875391759e-05,0.086637258529663,0,0,0
918,30567.90981601312,2010-08-19 22:50:41,4532.300230257719,2,3,0.550297200679779,3.99907660484314,2.966426112090279,2.268441456222386,11.724589390553538,8.31082065661933,0.0001295089750783,0.086637258529663,0,0,0
919,30597.925050828737,2010-08-19 22:51:11,4562.315465048274,2,3,0.5501165986061096,4.000857353210449,2.971012949010714,2.268441456222386,11.742936673033965,8.31082065661933,0.0,0.086637258529663,0,0,0
920,30627.940399122173,2010-08-19 22:51:41,4592.330813336701,2,3,0.5501165986061096,4.002962112426758,2.975599780728699,2.268441456222386,11.761293033888489,8.31082065661933,6.47544875391759e-05,0.086637258529663,0,0,0
921,30657.95554076057,2010-08-19 22:52:11,4622.345954980105,2,3,0.5501165986061096,4.005066394805908,2.980186547111395,2.268441456222386,11.779658311387626,8.31082065661933,9.70840483205393e-05,0.086637258529663,0,0,0
922,30687.970881710706,2010-08-19 22:52:41,4652.361295930241,2,3,0.5501165986061096,4.007009029388428,2.984773416202532,2.268441456222386,11.798033297191104,8.31082065661933,6.47544875391759e-05,0.086637258529663,0,0,0
923,30717.986010522127,2010-08-19 22:53:11,4682.376424736652,2,3,0.5499359965324402,4.008951663970947,2.989360206639762,2.268441456222386,11.8164173823114,8.31082065661933,3.23295607813634e-05,0.086637258529663,0,0,0
924,30748.001358309302,2010-08-19 22:53:41,4712.391772523829,2,3,0.550297200679779,4.011218070983887,2.993947040198936,2.268441456222386,11.834811078182328,8.31082065661933,6.47544875391759e-05,0.086637258529663,0,0,0
925,30778.016474258668,2010-08-19 22:54:11,4742.406888503269,2,3,0.5501165986061096,4.013322830200195,2.998533760537756,2.268441456222386,11.85321386344788,8.31082065661933,6.47544875391759e-05,0.086637258529663,0,0,0
926,30808.03171541008,2010-08-19 22:54:41,4772.422129634628,2,3,0.5499359965324402,4.015265464782715,3.003120588678487,2.268441456222386,11.871626786134255,8.31082065661933,3.24249267578125e-05,0.086637258529663,0,0,0
927,30838.047176750264,2010-08-19 22:55:11,4802.437590994864,2,3,0.5501165986061096,4.017369747161865,3.007707491508723,2.268441456222386,11.890049787184635,8.31082065661933,0.0,0.086637258529663,0,0,0
928,30868.06221873529,2010-08-19 22:55:41,4832.452632974876,2,3,0.550297200679779,4.019474506378174,3.012294275429744,2.268441456222386,11.908482079079588,8.31082065661933,3.24249267578125e-05,0.086637258529663,0,0,0
929,30898.077441315418,2010-08-19 22:56:11,4862.467855534948,2,3,0.5501165986061096,4.021740913391113,3.01688110603426,2.268441456222386,11.926924618122213,8.31082065661933,3.24249267578125e-05,0.086637258529663,0,0,0
930,30928.09280424533,2010-08-19 22:56:41,4892.483218469879,2,3,0.550297200679779,4.024007320404053,3.021467933602452,2.268441456222386,11.945377277946609,8.31082065661933,3.24249267578125e-05,0.086637258529663,0,0,0
931,30958.11056374323,2010-08-19 22:57:11,4922.500977962769,2,3,0.550297200679779,4.026435375213623,3.026055121618335,2.268441456222386,11.963841503743453,8.31082065661933,9.70840483205393e-05,0.086637258529663,0,0,0
932,30988.123292237324,2010-08-19 22:57:41,4952.513706461874,2,3,0.550297200679779,4.0287017822265625,3.030641542895259,2.268441456222386,11.982312967426964,8.31082065661933,6.47544875391759e-05,0.086637258529663,0,0,0
933,31018.13840327946,2010-08-19 22:58:11,4982.528817493985,2,3,0.5504778623580933,4.030968189239502,3.035228367171964,2.268441456222386,12.000796407052713,8.31082065661933,9.70840483205393e-05,0.086637258529663,0,0,0
934,31048.153642034897,2010-08-19 22:58:41,5012.544056249422,2,3,0.5499359965324402,4.0330729484558105,3.039815256420724,2.268441456222386,12.019290597640005,8.31082065661933,3.24249267578125e-05,0.086637258529663,0,0,0
935,31078.168922318837,2010-08-19 22:59:11,5042.55933653336,2,3,0.5501165986061096,4.035501003265381,3.044402140482637,2.268441456222386,12.037795389946808,8.31082065661933,3.24249267578125e-05,0.086637258529663,0,0,0
936,31108.18412607204,2010-08-19 22:59:41,5072.574540291573,2,3,0.550297200679779,4.037929058074951,3.048988993401508,2.268441456222386,12.056310742949565,8.31082065661933,9.70840483205393e-05,0.086637258529663,0,0,0
937,31138.19933570489,2010-08-19 23:00:11,5102.58974992944,2,3,0.5501165986061096,4.04003381729126,3.05357591369554,2.268441456222386,12.074837186149333,8.31082065661933,3.24249267578125e-05,0.086637258529663,0,0,0
938,31168.214623918597,2010-08-19 23:00:41,5132.605038188253,2,3,0.5501165986061096,4.04246187210083,3.058162745356938,2.268441456222386,12.093374133308052,8.31082065661933,3.23295607813634e-05,0.086637258529663,0,0,0
939,31198.22984299498,2010-08-19 23:01:11,5162.620257199482,2,3,0.550297200679779,4.0450520515441895,3.062749555871255,2.268441456222386,12.111922038947622,8.31082065661933,9.70840483205393e-05,0.086637258529663,0,0,0
940,31228.24530717725,2010-08-19 23:01:41,5192.6357213967885,2,3,0.5501165986061096,4.047480583190918,3.067336349660089,2.268441456222386,12.130480964357508,8.31082065661933,6.47544875391759e-05,0.086637258529663,0,0,0
941,31258.2604715473,2010-08-19 23:02:11,5222.650885791897,2,3,0.5499359965324402,4.049908638000488,3.071923237106901,2.268441456222386,12.149051573262764,8.31082065661933,6.47544875391759e-05,0.086637258529663,0,0,0
942,31288.275586439027,2010-08-19 23:02:42,5252.666000678615,2,3,0.5501165986061096,4.052337169647217,3.076510116353211,2.268441456222386,12.167633396252748,8.31082065661933,3.24249267578125e-05,0.086637258529663,0,0,0
943,31318.29107661608,2010-08-19 23:03:12,5282.681490840633,2,3,0.550297200679779,4.054927349090576,3.081097001801197,2.268441456222386,12.186226771679904,8.31082065661933,6.47544875391759e-05,0.086637258529663,0,0,0
944,31348.306189798557,2010-08-19 23:03:42,5312.696604038141,2,3,0.5501165986061096,4.0573554039001465,3.08568387206209,2.268441456222386,12.204831648241802,8.31082065661933,6.47544875391759e-05,0.086637258529663,0,0,0
945,31378.321274144157,2010-08-19 23:04:12,5342.711688358679,2,3,0.5499359965324402,4.059945583343506,3.090270794489101,2.268441456222386,12.22344851657769,8.31082065661933,6.47544875391759e-05,0.086637258529663,0,0,0
946,31408.33663783096,2010-08-19 23:04:42,5372.727052055508,2,3,0.5501165986061096,4.062374114990234,3.094857718359216,2.268441456222386,12.242076817996344,8.31082065661933,3.24249267578125e-05,0.086637258529663,0,0,0
947,31438.351782932983,2010-08-19 23:05:12,5402.742197147506,2,3,0.5504778623580933,4.065288066864014,3.099444559214789,2.268441456222386,12.260716725380547,8.31082065661933,9.71794142969884e-05,0.086637258529663,0,0,0
948,31468.36714328648,2010-08-19 23:05:42,5432.757557501002,2,3,0.550297200679779,4.067716121673584,3.104031437516787,2.268441456222386,12.279368856485068,8.31082065661933,6.47544875391759e-05,0.086637258529663,0,0,0
949,31498.382262158124,2010-08-19 23:06:12,5462.772676372652,2,3,0.5501165986061096,4.070468425750732,3.108618289362885,2.268441456222386,12.298033084815131,8.31082065661933,6.47544875391759e-05,0.086637258529663,0,0,0
950,31528.39747115941,2010-08-19 23:06:42,5492.78788538897,2,3,0.5501165986061096,4.073058605194092,3.11320517268482,2.268441456222386,12.316709662649162,8.31082065661933,3.24249267578125e-05,0.086637258529663,0,0,0
951,31558.412750435837,2010-08-19 23:07:12,5522.803164640334,2,3,0.5501165986061096,4.075810432434082,3.117792060248039,2.268441456222386,12.335398659844811,8.31082065661933,9.70840483205393e-05,0.086637258529663,0,0,0
952,31588.428228953835,2010-08-19 23:07:42,5552.818643288658,2,3,0.5501165986061096,4.078562736511231,3.12237895341616,2.268441456222386,12.354100167063534,8.31082065661933,6.47544875391759e-05,0.086637258529663,0,0,0
953,31618.4431976111,2010-08-19 23:08:12,5582.83361183064,2,3,0.5501165986061096,4.081314563751221,3.126965802100902,2.268441456222386,12.372814157702162,8.31082065661933,9.70840483205393e-05,0.086637258529663,0,0,0
954,31648.45844464717,2010-08-19 23:08:42,5612.848858871726,2,3,0.5501165986061096,4.084066867828369,3.131552674611104,2.268441456222386,12.391540916609207,8.31082065661933,9.71794142969884e-05,0.086637258529663,0,0,0
955,31678.473854814823,2010-08-19 23:09:12,5642.864269039374,2,3,0.5501165986061096,4.086980819702148,3.136139559808703,2.268441456222386,12.41028068907548,8.31082065661933,9.71794142969884e-05,0.086637258529663,0,0,0
956,31708.489074417528,2010-08-19 23:09:42,5672.87948864709,2,3,0.5501165986061096,4.089732646942139,3.140726435051882,2.268441456222386,12.42903345143462,8.31082065661933,6.47544875391759e-05,0.086637258529663,0,0,0
957,31738.504165189144,2010-08-19 23:10:12,5702.894579398655,2,3,0.5501165986061096,4.092646598815918,3.145313318102696,2.268441456222386,12.447799427660222,8.31082065661933,6.47544875391759e-05,0.086637258529663,0,0,0
958,31768.51940497214,2010-08-19 23:10:42,5732.909819186665,2,3,0.5501165986061096,4.095398902893066,3.149900200238567,2.268441456222386,12.466578653866806,8.31082065661933,6.47544875391759e-05,0.086637258529663,0,0,0
959,31798.53465354204,2010-08-19 23:11:12,5762.925067766587,2,3,0.550297200679779,4.098474502563477,3.154487110468114,2.268441456222386,12.485371394297282,8.31082065661933,3.23295607813634e-05,0.086637258529663,0,0,0
960,31828.5499006934,2010-08-19 23:11:42,5792.940314912937,2,3,0.5499359965324402,4.101388454437256,3.15907398572359,2.268441456222386,12.504177583924042,8.31082065661933,3.23295607813634e-05,0.086637258529663,0,0,0
961,31858.56513146895,2010-08-19 23:12:12,5822.955545708535,2,3,0.5501165986061096,4.104302406311035,3.163660876558802,2.268441456222386,12.522997430180055,8.31082065661933,3.23295607813634e-05,0.086637258529663,0,0,0
962,31888.58037288101,2010-08-19 23:12:42,5852.97078709553,2,3,0.5501165986061096,4.107378482818604,3.168247730768032,2.268441456222386,12.541831013016555,8.31082065661933,6.47544875391759e-05,0.086637258529663,0,0,0
963,31918.595649290284,2010-08-19 23:13:12,5882.986063529875,2,3,0.550297200679779,4.110616207122803,3.172834594620305,2.268441456222386,12.560678570758665,8.31082065661933,9.71794142969884e-05,0.086637258529663,0,0,0
964,31948.61097770417,2010-08-19 23:13:42,5913.001391918705,2,3,0.5501165986061096,4.113691806793213,3.177421391024094,2.268441456222386,12.579539909974756,8.31082065661933,6.47544875391759e-05,0.086637258529663,0,0,0
965,31978.626098806388,2010-08-19 23:14:12,5943.016513045976,2,3,0.5501165986061096,4.116605758666992,3.182008225204797,2.268441456222386,12.598415620462328,8.31082065661933,3.24249267578125e-05,0.086637258529663,0,0,0
966,32008.6413405192,2010-08-19 23:14:42,5973.031754723696,2,3,0.5501165986061096,4.119843482971191,3.186595048422323,2.268441456222386,12.617305667422778,8.31082065661933,6.47544875391759e-05,0.086637258529663,0,0,0
967,32038.65672506298,2010-08-19 23:15:12,6003.047139292545,2,3,0.5501165986061096,4.122919082641602,3.191181944395368,2.268441456222386,12.636210554413193,8.31082065661933,3.23295607813634e-05,0.086637258529663,0,0,0
968,32068.67183762892,2010-08-19 23:15:42,6033.062251833416,2,3,0.5501165986061096,4.12631893157959,3.195768806739198,2.268441456222386,12.655129888338188,8.31082065661933,6.47544875391759e-05,0.086637258529663,0,0,0
969,32098.687072564837,2010-08-19 23:16:12,6063.077486779358,2,3,0.550297200679779,4.129556655883789,3.200355633029813,2.268441456222386,12.674063817183734,8.31082065661933,0.0001295089750783,0.086637258529663,0,0,0
970,32128.702455138708,2010-08-19 23:16:42,6093.092869383309,2,3,0.5501165986061096,4.132794380187988,3.204942548337779,2.268441456222386,12.693013083213446,8.31082065661933,9.71794142969884e-05,0.086637258529663,0,0,0
971,32158.717567779837,2010-08-19 23:17:12,6123.107981989343,2,3,0.550297200679779,4.136355876922607,3.209529388528474,2.268441456222386,12.711976988746567,8.31082065661933,0.0001295089750783,0.086637258529663,0,0,0
972,32188.73301291463,2010-08-19 23:17:42,6153.123427179278,2,3,0.5501165986061096,4.139431476593018,3.214116349104324,2.268441456222386,12.730956642204688,8.31082065661933,9.70840483205393e-05,0.086637258529663,0,0,0
973,32218.74804776688,2010-08-19 23:18:12,6183.138461971375,2,3,0.5501165986061096,4.142669200897217,3.218703196438292,2.268441456222386,12.749951138792788,8.31082065661933,6.47544875391759e-05,0.086637258529663,0,0,0
974,32248.763277319376,2010-08-19 23:18:42,6213.153691538912,2,3,0.5501165986061096,4.146069049835205,3.223289997353306,2.268441456222386,12.768960992449228,8.31082065661933,3.24249267578125e-05,0.086637258529663,0,0,0
975,32278.77854020495,2010-08-19 23:19:12,6243.1689544345145,2,3,0.5501165986061096,4.149630546569824,3.227876865402179,2.268441456222386,12.787986959777577,8.31082065661933,6.47544875391759e-05,0.086637258529663,0,0,0
976,32308.793757261305,2010-08-19 23:19:42,6273.184171500894,2,3,0.5501165986061096,4.153029918670654,3.232463715770472,2.268441456222386,12.807028596421024,8.31082065661933,9.70840483205393e-05,0.086637258529663,0,0,0
977,32338.809019650645,2010-08-19 23:20:12,6303.1994338751965,2,3,0.550297200679779,4.156429767608643,3.237050358883862,2.268441456222386,12.8260851600662,8.31082065661933,6.47544875391759e-05,0.086637258529663,0,0,0
978,32368.824371497944,2010-08-19 23:20:42,6333.214785727506,2,3,0.5499359965324402,4.159829139709473,3.241637036523787,2.268441456222386,12.84515785772794,8.31082065661933,6.47544875391759e-05,0.086637258529663,0,0,0
979,32398.839503141426,2010-08-19 23:21:12,6363.229917345923,2,3,0.550297200679779,4.163714408874512,3.246223622886743,2.268441456222386,12.8642463194529,8.31082065661933,0.0001618385285837,0.086637258529663,0,0,0
980,32428.85484864792,2010-08-19 23:21:42,6393.245262862442,2,3,0.5499359965324402,4.1671142578125,3.250810261609781,2.268441456222386,12.88335120760931,8.31082065661933,6.47544875391759e-05,0.086637258529663,0,0,0
981,32458.869997925343,2010-08-19 23:22:12,6423.260412154909,2,3,0.5501165986061096,4.170675754547119,3.255396817515471,2.268441456222386,12.902472180380238,8.31082065661933,9.71794142969884e-05,0.086637258529663,0,0,0
982,32488.88522070096,2010-08-19 23:22:42,6453.275634910469,2,3,0.5501165986061096,4.174237251281738,3.259983484820655,2.268441456222386,12.92161016484525,8.31082065661933,3.24249267578125e-05,0.086637258529663,0,0,0
983,32518.900490027587,2010-08-19 23:23:12,6483.290904272186,2,3,0.5501165986061096,4.177960395812988,3.264570252731375,2.268441456222386,12.940765170595936,8.31082065661933,9.70840483205393e-05,0.086637258529663,0,0,0
984,32548.915886902105,2010-08-19 23:23:42,6513.306301126654,2,3,0.5499359965324402,4.181521892547607,3.269157030817421,2.268441456222386,12.959937044581356,8.31082065661933,9.70840483205393e-05,0.086637258529663,0,0,0
985,32578.93109254,2010-08-19 23:24:12,6543.321506764552,2,3,0.5501165986061096,4.185245513916016,3.27374375279362,2.268441456222386,12.979125601212123,8.31082065661933,9.71794142969884e-05,0.086637258529663,0,0,0
986,32608.94633566132,2010-08-19 23:24:42,6573.336749875844,2,3,0.550297200679779,4.189130783081055,3.278330562871695,2.268441456222386,12.998331648899889,8.31082065661933,0.0001295089750783,0.086637258529663,0,0,0
987,32638.961594045675,2010-08-19 23:25:12,6603.352008265215,2,3,0.5501165986061096,4.192853927612305,3.282917356297197,2.268441456222386,13.017554847466206,8.31082065661933,0.0001295089750783,0.086637258529663,0,0,0
988,32668.97681584385,2010-08-19 23:25:42,6633.367230058377,2,3,0.5501165986061096,4.196739196777344,3.287504175101828,2.268441456222386,13.036795525090524,8.31082065661933,9.71794142969884e-05,0.086637258529663,0,0,0
989,32694.835748766287,2010-08-19 23:26:08,6659.226162985826,2,3,0.5501165986061096,4.200138568878174,3.291455842436536,2.268441456222386,13.053385889564195,8.31082065661933,0.0001618385285837,0.086637258529663,0,0,0
990,32724.851182748997,2010-08-19 23:26:38,30.015227823190106,3,3,0.0,4.12437629699707,3.291455842436536,2.268441456222386,13.053385889564195,8.31082065661933,-0.0004208564641885,0.086637258529663,0,0,0
991,32754.866423875337,2010-08-19 23:27:08,60.03046895454826,3,3,0.0,4.114824771881104,3.291455842436536,2.268441456222386,13.053385889564195,8.31082065661933,-0.0001942634553415,0.086637258529663,0,0,0
992,32784.88166956305,2010-08-19 23:27:38,90.04571462722478,3,3,0.0,4.109321117401123,3.291455842436536,2.268441456222386,13.053385889564195,8.31082065661933,-9.70840483205393e-05,0.086637258529663,0,0,0
993,32814.85003508597,2010-08-19 23:28:08,120.01408016518091,3,3,0.0,4.105759620666504,3.291455842436536,2.268441456222386,13.053385889564195,8.31082065661933,-6.47544875391759e-05,0.086637258529663,0,0,0
994,32814.86543013312,2010-08-19 23:28:08,0.015601338335544,4,3,0.9927899241447448,4.199653148651123,3.291460144895139,2.268441456222386,13.053403958398016,8.31082065661933,0.0,0.086637258529663,0,0,0
995,32815.89664313822,2010-08-19 23:28:09,1.046814348453068,4,3,0.9427611827850342,4.199653148651123,3.291735546287227,2.268441456222386,13.054560554798194,8.31082065661933,0.0,0.086637258529663,0,0,0
996,32818.240593187955,2010-08-19 23:28:12,3.390764393179925,4,3,0.8923711776733398,4.199653148651123,3.29233179576032,2.268441456222386,13.057064591744515,8.31082065661933,0.0,0.086637258529663,0,0,0
997,32821.63108580379,2010-08-19 23:28:15,6.781257019032049,4,3,0.8419812321662903,4.199814796447754,3.293147319897007,2.268441456222386,13.060489518327676,8.31082065661933,6.47544875391759e-05,0.086637258529663,0,0,0
998,32826.06838855757,2010-08-19 23:28:20,11.218559762793424,4,3,0.791591227054596,4.199653148651123,3.294153107092507,2.268441456222386,13.064713512818628,8.31082065661933,-3.23295607813634e-05,0.086637258529663,0,0,0
999,32831.74020035274,2010-08-19 23:28:25,16.89037155795984,4,3,0.7415624260902405,4.199653148651123,3.295359564823943,2.268441456222386,13.069780258900474,8.31082065661933,3.24249267578125e-05,0.086637258529663,0,0,0
1000,32838.94325840473,2010-08-19 23:28:32,24.09342960493846,4,3,0.6913530826568604,4.199653148651123,3.29679103369485,2.268441456222386,13.075791999017524,8.31082065661933,0.0,0.086637258529663,0,0,0
1001,32848.41185893066,2010-08-19 23:28:42,33.56203013587711,4,3,0.6413242816925049,4.199653148651123,3.298540659358531,2.268441456222386,13.083139901821433,8.31082065661933,0.0,0.086637258529663,0,0,0
1002,32861.3335867924,2010-08-19 23:28:55,46.48375800263734,4,3,0.5912955403327942,4.199814796447754,3.300748714581875,2.268441456222386,13.092413089492004,8.31082065661933,3.23295607813634e-05,0.086637258529663,0,0,0
1003,32880.53645472286,2010-08-19 23:29:14,65.6866259280823,4,3,0.5412667393684387,4.199653148651123,3.303760851977718,2.268441456222386,13.105063165938152,8.31082065661933,0.0,0.086637258529663,0,0,0
1004,32910.91106823577,2010-08-19 23:29:44,96.06123944600392,4,3,0.491237998008728,4.199653148651123,3.308099829454244,2.268441456222386,13.123285595694457,8.31082065661933,0.0,0.086637258529663,0,0,0
1005,32962.332406181886,2010-08-19 23:30:36,147.4825773971282,4,3,0.4412092268466949,4.199653148651123,3.314731035735492,2.268441456222386,13.151134683342091,8.31082065661933,0.0,0.086637258529663,0,0,0
1006,33042.784431267864,2010-08-19 23:31:56,227.93460250316173,4,3,0.3911804556846618,4.199653148651123,3.324002942138258,2.268441456222386,13.190073982825172,8.31082065661933,-3.23295607813634e-05,0.086637258529663,0,0,0
1007,33149.564286021254,2010-08-19 23:33:43,334.71445723649714,4,3,0.3411516845226288,4.199653148651123,3.334843292135374,2.268441456222386,13.23560025726148,8.31082065661933,-3.23295607813634e-05,0.086637258529663,0,0,0
1008,33279.70325407741,2010-08-19 23:35:53,464.85342528764,4,3,0.2911229133605957,4.199653148651123,3.346256458897976,2.268441456222386,13.283532129746076,8.31082065661933,-3.23295607813634e-05,0.086637258529663,0,0,0
1009,33439.216849122364,2010-08-19 23:38:33,624.3670203275856,4,3,0.2410941421985626,4.199814796447754,3.358026033943725,2.268441456222386,13.332960872937512,8.31082065661933,0.0,0.086637258529663,0,0,0
1010,33639.15191394238,2010-08-19 23:41:53,824.3020851776736,4,3,0.1908847689628601,4.199491024017334,3.369978312432427,2.268441456222386,13.383156885597112,8.31082065661933,-6.47544875391759e-05,0.086637258529663,0,0,0
1011,33905.054727399765,2010-08-19 23:46:19,1090.2048986350596,4,3,0.140855997800827,4.199653148651123,3.382145339667279,2.268441456222386,13.434254469949378,8.31082065661933,0.0,0.086637258529663,0,0,0
1012,34306.4558978596,2010-08-19 23:53:00,1491.6060690698357,4,3,0.0908272266387939,4.199491024017334,3.394869058526208,2.268441456222386,13.487690078538924,8.31082065661933,-3.24249267578125e-05,0.086637258529663,0,0,0
1013,34892.557823422154,2010-08-20 00:02:46,2077.707994637404,4,3,0.0498289167881011,4.199653148651123,3.40601003788209,2.268441456222386,13.534478924250958,8.31082065661933,0.0,0.086637258529663,0,0,0
1014,34922.57186558043,2010-08-20 00:03:16,30.01525915126932,5,3,0.0,4.192692279815674,3.40601003788209,2.268441456222386,13.534478924250958,8.31082065661933,-3.23295607813634e-05,0.086637258529663,0,0,0
1015,34952.57147602531,2010-08-20 00:03:46,60.01486959614732,5,3,0.0,4.191558837890625,3.40601003788209,2.268441456222386,13.534478924250958,8.31082065661933,-6.47544875391759e-05,0.086637258529663,0,0,0
1016,34952.75853925701,2010-08-20 00:03:47,0.187521501280114,6,3,-1.9243103452026844e-05,4.191720962524414,3.40601003788209,2.268441457224746,13.534478924250958,8.310820660820943,0.0,0.0914128422737121,0,0,0
1017,34957.5867123299,2010-08-20 00:03:51,5.015694569156977,6,3,0.0005225847125984,4.191558837890625,3.406011023691516,2.268441457309339,13.53448305644286,8.310820661175534,-3.24249267578125e-05,0.0914128422737121,0,0,0
1018,34987.601375716324,2010-08-20 00:04:21,30.01519273072889,7,3,-1.0997490882873535,4.035177230834961,3.406011023691516,2.277610578107428,13.53448305644286,8.34799341288118,-0.0008093834039755,0.0914128422737121,0,0,0
1019,35017.616723859384,2010-08-20 00:04:52,60.03054084371819,7,3,-1.0997490882873535,4.011865615844727,3.406011023691516,2.286779699445853,13.53448305644286,8.384876623941256,-0.0005180359003134,0.0914128422737121,0,0,0
1020,35047.63212726518,2010-08-20 00:05:22,90.04594424450167,7,3,-1.0997490882873535,3.9960007667541504,3.406011023691516,2.295948827863404,13.53448305644286,8.421585097350334,-0.0003561496851034,0.0914128422737121,0,0,0
1021,35077.64721524484,2010-08-20 00:05:52,120.06103222415868,7,3,-1.0997490882873535,3.983697652816773,3.406011023691516,2.305117817948647,13.53448305644286,8.458165599480473,-0.0002913951757363,0.0914128422737121,0,0,0
1022,35107.66245844134,2010-08-20 00:06:22,150.07627543068878,7,3,-1.099568486213684,3.973175048828125,3.406011023691516,2.314286768035126,13.53448305644286,8.494641609672593,-0.0002266406954731,0.0914128422737121,0,0,0
1023,35137.6776914274,2010-08-20 00:06:52,180.09150840672137,7,3,-1.0997490882873535,3.963623762130737,3.406011023691516,2.323455767137493,13.53448305644286,8.531026219188098,-0.0002590179501567,0.0914128422737121,0,0,0
1024,35167.69282826883,2010-08-20 00:07:22,210.10664524815692,7,3,-1.099568486213684,3.95455813407898,3.406011023691516,2.332624623298047,13.53448305644286,8.567326085836504,-0.0002590179501567,0.0914128422737121,0,0,0
1025,35197.708027997,2010-08-20 00:07:52,240.12184500138807,7,3,-1.0997490882873535,3.9461400508880615,3.406011023691516,2.34179354385034,13.53448305644286,8.603546931338025,-0.0002266406954731,0.0914128422737121,0,0,0
1026,35227.72333099756,2010-08-20 00:08:22,270.13714797688084,7,3,-1.099568486213684,3.938207626342773,3.406011023691516,2.350962577108382,13.53448305644286,8.639692517607738,-0.0002266406954731,0.0914128422737121,0,0,0
1027,35257.73863053949,2010-08-20 00:08:52,300.1524475188161,7,3,-1.0997490882873535,3.930275201797485,3.406011023691516,2.360131646614128,13.53448305644286,8.675764863843693,-0.0001942634553415,0.0914128422737121,0,0,0
1028,35287.75384967604,2010-08-20 00:09:22,330.1676666553564,7,3,-1.0997490882873535,3.9225046634674072,3.406011023691516,2.369300700950457,13.53448305644286,8.711765816306306,-0.0001942634553415,0.0914128422737121,0,0,0
1029,35317.76922210964,2010-08-20 00:09:52,360.1830390839477,7,3,-1.0997490882873535,3.915057897567749,3.406011023691516,2.378469753428782,13.53448305644286,8.747697043084242,-0.0001942634553415,0.0914128422737121,0,0,0
1030,35347.78434160284,2010-08-20 00:10:22,390.1981585871711,7,3,-1.1001102924346924,3.90761137008667,3.406011023691516,2.387638741513528,13.53448305644286,8.78355972098934,-0.0001942634553415,0.0914128422737121,0,0,0
1031,35377.79960017767,2010-08-20 00:10:52,420.2134171820538,7,3,-1.099568486213684,3.900488376617432,3.406011023691516,2.396807756950911,13.53448305644286,8.819355455445217,-0.0001618862152099,0.0914128422737121,0,0,0
1032,35407.814843554625,2010-08-20 00:11:22,450.22866053895854,7,3,-1.0997490882873535,3.893203496932984,3.406011023691516,2.405976820195547,13.53448305644286,8.855085260692919,-0.0002266406954731,0.0914128422737121,0,0,0
1033,35437.83005862102,2010-08-20 00:11:52,480.2438756053549,7,3,-1.0997490882873535,3.886242389678955,3.406011023691516,2.415145888443756,13.53448305644286,8.890750247974957,-0.0001618862152099,0.0914128422737121,0,0,0
1034,35467.845342534005,2010-08-20 00:12:22,510.259159518338,7,3,-1.0997490882873535,3.879281282424927,3.406011023691516,2.424314964409309,13.53448305644286,8.926351059512843,-0.0001295089750783,0.0914128422737121,0,0,0
1035,35497.860560898625,2010-08-20 00:12:52,540.2743778829545,7,3,-1.099568486213684,3.8723201751708975,3.406011023691516,2.433484088942317,13.53448305644286,8.961888720676441,-0.0001942634553415,0.0914128422737121,0,0,0
1036,35527.87610710532,2010-08-20 00:13:22,570.2899241397791,7,3,-1.0997490882873535,3.86552095413208,3.406011023691516,2.442653252964279,13.53448305644286,8.997364034050696,-0.0001942634553415,0.0914128422737121,0,0,0
1037,35557.89102716146,2010-08-20 00:13:52,600.3048441608316,7,3,-1.0997490882873535,3.858883619308472,3.406011023691516,2.451822265876386,13.53448305644286,9.032777183134986,-0.0001618862152099,0.0914128422737121,0,0,0
1038,35587.906291661064,2010-08-20 00:14:22,630.3201086504057,7,3,-1.0997490882873535,3.8522462844848633,3.406011023691516,2.460991396205758,13.53448305644286,9.068129996792733,-0.0001942634553415,0.0914128422737121,0,0,0
1039,35617.92151783514,2010-08-20 00:14:52,660.3353348395231,7,3,-1.0997490882873535,3.845932722091675,3.406011023691516,2.470160510098796,13.53448305644286,9.103422826130496,-0.0001295089750783,0.0914128422737121,0,0,0
1040,35647.936783803394,2010-08-20 00:15:22,690.350600792745,7,3,-1.0997490882873535,3.839457273483277,3.406011023691516,2.479329527480385,13.53448305644286,9.138656124006967,-0.0001942634553415,0.0914128422737121,0,0,0
1041,35677.95201775186,2010-08-20 00:15:52,720.3658347361886,7,3,-1.099568486213684,3.833143949508667,3.406011023691516,2.488498614444422,13.53448305644286,9.173831407548018,-0.0001618385285837,0.0914128422737121,0,0,0
1042,35707.96726253231,2010-08-20 00:16:22,750.3810795216539,7,3,-1.099568486213684,3.826992273330689,3.406011023691516,2.497667699771803,13.53448305644286,9.208949350769505,-0.0001618862152099,0.0914128422737121,0,0,0
1043,35737.98263619398,2010-08-20 00:16:52,780.3964531933434,7,3,-1.0997490882873535,3.82084059715271,3.406011023691516,2.506836810345477,13.53448305644286,9.244010871906283,-0.0001295089750783,0.0914128422737121,0,0,0
1044,35767.99789457833,2010-08-20 00:17:22,810.4117115626639,7,3,-1.099568486213684,3.814850807189941,3.406011023691516,2.516005851073644,13.53448305644286,9.279016392871258,-9.713172767078504e-05,0.0914128422737121,0,0,0
1045,35798.013149438906,2010-08-20 00:17:52,840.426966428252,7,3,-1.0997490882873535,3.808699131011963,3.406011023691516,2.525174933100528,13.53448305644286,9.313966719621533,-0.0001618862152099,0.0914128422737121,0,0,0
1046,35828.028249348296,2010-08-20 00:18:22,870.4420663326291,7,3,-1.099929690361023,3.802871227264404,3.406011023691516,2.534344012657988,13.53448305644286,9.348862760974152,-0.0001618862152099,0.0914128422737121,0,0,0
1047,35858.04349940691,2010-08-20 00:18:52,900.4573163912366,7,3,-1.099568486213684,3.797205209732056,3.406011023691516,2.543513151964961,13.53448305644286,9.383705847187237,-0.0001618862152099,0.0914128422737121,0,0,0
1048,35888.05876891399,2010-08-20 00:19:22,930.4725858983156,7,3,-1.0997490882873535,3.791377305984497,3.406011023691516,2.552682240165613,13.53448305644286,9.418496487507008,-0.0001618862152099,0.0914128422737121,0,0,0
1049,35918.073996135674,2010-08-20 00:19:52,960.4878131200068,7,3,-1.0997490882873535,3.7858731746673584,3.406011023691516,2.561851334632914,13.53448305644286,9.453235716427733,-0.0001618862152099,0.0914128422737121,0,0,0
1050,35948.089256615254,2010-08-20 00:20:22,990.5030736045992,7,3,-1.099568486213684,3.7805309295654297,3.406011023691516,2.571020450055128,13.53448305644286,9.487924406971333,-0.0001295089750783,0.0914128422737121,0,0,0
1051,35978.104512132464,2010-08-20 00:20:52,1020.5183291117864,7,3,-1.0997490882873535,3.775188684463501,3.406011023691516,2.580189558804905,13.53448305644286,9.522563564944182,-0.0001295089750783,0.0914128422737121,0,0,0
1052,36008.11989325773,2010-08-20 00:21:22,1050.5337102470774,7,3,-1.099568486213684,3.7700083255767822,3.406011023691516,2.589358756267943,13.53448305644286,9.5571542599478,-9.713172767078504e-05,0.0914128422737121,0,0,0
1053,36038.13499898662,2010-08-20 00:21:52,1080.5488159659458,7,3,-1.1001102924346924,3.764504194259644,3.406011023691516,2.598527872289909,13.53448305644286,9.59169685929674,-0.0001618862152099,0.0914128422737121,0,0,0
1054,36068.15023986736,2010-08-20 00:22:22,1110.5640568516917,7,3,-1.099929690361023,3.759485721588135,3.406011023691516,2.607696995041035,13.53448305644286,9.626192303967214,-0.0001618862152099,0.0914128422737121,0,0,0
1055,36098.165487695405,2010-08-20 00:22:52,1140.5793046797403,7,3,-1.0997490882873535,3.754629135131836,3.406011023691516,2.616866135057501,13.53448305644286,9.66064157056859,-0.0001295089750783,0.0914128422737121,0,0,0
1056,36128.18075071632,2010-08-20 00:23:22,1170.5945676956414,7,3,-1.0997490882873535,3.749610900878906,3.406011023691516,2.626035256233438,13.53448305644286,9.695045207080629,-0.0001295089750783,0.0914128422737121,0,0,0
1057,36158.19599958195,2010-08-20 00:23:52,1200.609816561276,7,3,-1.099929690361023,3.7445924282073975,3.406011023691516,2.635204427937741,13.53448305644286,9.729404226195422,-0.0001618862152099,0.0914128422737121,0,0,0
1058,36188.21123748527,2010-08-20 00:24:22,1230.6250544645886,7,3,-1.0997490882873535,3.740059614181519,3.406011023691516,2.644373624244748,13.53448305644286,9.763719298132616,-0.0001295089750783,0.0914128422737121,0,0,0
1059,36218.22650969408,2010-08-20 00:24:52,1260.640326678414,7,3,-1.099568486213684,3.73552680015564,3.406011023691516,2.653542735829767,13.53448305644286,9.797990876752976,-9.713172767078504e-05,0.0914128422737121,0,0,0
1060,36248.241741647566,2010-08-20 00:25:22,1290.6555586268855,7,3,-1.0997490882873535,3.730832099914551,3.406011023691516,2.662711930267268,13.53448305644286,9.832220298661133,-0.0001295089750783,0.0914128422737121,0,0,0
1061,36278.25724825056,2010-08-20 00:25:52,1320.6710652399056,7,3,-1.099568486213684,3.726461172103882,3.406011023691516,2.67188111773019,13.53448305644286,9.866408194852578,-6.47544875391759e-05,0.0914128422737121,0,0,0
1062,36308.27224519332,2010-08-20 00:26:22,1350.6860621776582,7,3,-1.0997490882873535,3.721928358078003,3.406011023691516,2.681050151610871,13.53448305644286,9.900554795968851,-9.713172767078504e-05,0.0914128422737121,0,0,0
1063,36338.28750767289,2010-08-20 00:26:52,1380.7013246572228,7,3,-1.099568486213684,3.717719316482544,3.406011023691516,2.690219302182004,13.53448305644286,9.934661417174926,-6.47544875391759e-05,0.0914128422737121,0,0,0
1064,36368.30275160624,2010-08-20 00:27:22,1410.7165685905643,7,3,-1.099568486213684,3.713348388671875,3.406011023691516,2.699388423581985,13.53448305644286,9.968728383540146,-9.713172767078504e-05,0.0914128422737121,0,0,0
1065,36398.31798293316,2010-08-20 00:27:52,1440.731799922499,7,3,-1.099929690361023,3.708977460861206,3.406011023691516,2.708557611327626,13.53448305644286,10.002756624412877,-9.713172767078504e-05,0.0914128422737121,0,0,0
1066,36428.33327245512,2010-08-20 00:28:22,1470.7470894544865,7,3,-1.0997490882873535,3.704930305480957,3.406011023691516,2.717726800056812,13.53448305644286,10.036746529069026,-9.713172767078504e-05,0.0914128422737121,0,0,0
1067,36458.34860365596,2010-08-20 00:28:52,1500.7624206453006,7,3,-1.099929690361023,3.700721263885498,3.406011023691516,2.726896032229205,13.53448305644286,10.070699004491583,-0.0001295089750783,0.0914128422737121,0,0,0
1068,36488.36395295189,2010-08-20 00:29:22,1530.7777699312132,7,3,-1.0997490882873535,3.696997880935669,3.406011023691516,2.736065255501433,13.53448305644286,10.104614393304164,-9.713172767078504e-05,0.0914128422737121,0,0,0
1069,36518.37913273535,2010-08-20 00:29:52,1560.7929497246985,7,3,-1.0997490882873535,3.69295072555542,3.406011023691516,2.74523445831605,13.53448305644286,10.138493476624433,-9.713172767078504e-05,0.0914128422737121,0,0,0
1070,36548.39424661456,2010-08-20 00:30:22,1590.80806359388,7,3,-1.099568486213684,3.689065456390381,3.406011023691516,2.754403585429072,13.53448305644286,10.172336734537064,-0.0001295089750783,0.0914128422737121,0,0,0
1071,36578.40948451787,2010-08-20 00:30:52,1620.823301507218,7,3,-1.099568486213684,3.6855039596557617,3.406011023691516,2.763572853696009,13.53448305644286,10.206145342136484,-6.47544875391759e-05,0.0914128422737121,0,0,0
1072,36608.42732046631,2010-08-20 00:31:22,1650.841137445634,7,3,-1.0997490882873535,3.681618690490722,3.406011023691516,2.772742814367605,13.53448305644286,10.239922342557197,-9.713172767078504e-05,0.0914128422737121,0,0,0
1073,36638.440050363904,2010-08-20 00:31:52,1680.8538673632745,7,3,-1.0997490882873535,3.6778953075408936,3.406011023691516,2.781911234698927,13.53448305644286,10.273659808983174,-9.713172767078504e-05,0.0914128422737121,0,0,0
1074,36668.4552357363,2010-08-20 00:32:22,1710.869052735664,7,3,-1.0997490882873535,3.6743338108062735,3.406011023691516,2.79108039776589,13.53448305644286,10.307366915733388,-9.713172767078504e-05,0.0914128422737121,0,0,0
1075,36698.47047694785,2010-08-20 00:32:52,1740.8842939321848,7,3,-1.099568486213684,3.670934438705444,3.406011023691516,2.800249547501574,13.53448305644286,10.341041471775103,-9.713172767078504e-05,0.0914128422737121,0,0,0
1076,36728.48586550664,2010-08-20 00:33:22,1770.8996824859653,7,3,-1.099929690361023,3.6672110557556152,3.406011023691516,2.809418788910401,13.53448305644286,10.374684443419222,-0.0001295089750783,0.0914128422737121,0,0,0
1077,36758.50097432824,2010-08-20 00:33:52,1800.9147913075665,7,3,-1.0997490882873535,3.664135217666626,3.406011023691516,2.818587890394899,13.53448305644286,10.408295803863671,-3.237724376958795e-05,0.0914128422737121,0,0,0
1078,36788.51622293324,2010-08-20 00:34:22,1830.9300399225765,7,3,-1.099929690361023,3.660735607147217,3.406011023691516,2.827757074130868,13.53448305644286,10.441876886276148,-9.713172767078504e-05,0.0914128422737121,0,0,0
1079,36818.53147139285,2010-08-20 00:34:52,1860.945288382199,7,3,-1.0997490882873535,3.6574978828430176,3.406011023691516,2.836926274315505,13.53448305644286,10.475428256199248,-9.713172767078504e-05,0.0914128422737121,0,0,0
1080,36848.54674787732,2010-08-20 00:35:22,1890.9605648817053,7,3,-1.0997490882873535,3.654422044754028,3.406011023691516,2.846095475756041,13.53448305644286,10.508950607204987,-9.713172767078504e-05,0.0914128422737121,0,0,0
1081,36878.56225843016,2010-08-20 00:35:52,1920.9760754345448,7,3,-1.099929690361023,3.651346206665039,3.406011023691516,2.855264712567124,13.53448305644286,10.542444667616667,-6.47544875391759e-05,0.0914128422737121,0,0,0
1082,36908.57735621927,2010-08-20 00:36:22,1950.9911732286623,7,3,-1.0997490882873535,3.64827036857605,3.406011023691516,2.864433868645708,13.53448305644286,10.57591074265973,-9.713172767078504e-05,0.0914128422737121,0,0,0
1083,36938.59247348692,2010-08-20 00:36:53,1981.006290476264,7,3,-1.099929690361023,3.6453564167022714,3.406011023691516,2.873602978281865,13.53448305644286,10.609349212490544,-9.713172767078504e-05,0.0914128422737121,0,0,0
1084,36968.60801694677,2010-08-20 00:37:23,2011.0218339260928,7,3,-1.0997490882873535,3.642442464828491,3.406011023691516,2.882772200310771,13.53448305644286,10.642761873162003,-9.713172767078504e-05,0.0914128422737121,0,0,0
1085,36998.62310416452,2010-08-20 00:37:53,2041.036921153876,7,3,-1.0997490882873535,3.639852285385132,3.406011023691516,2.891941258327564,13.53448305644286,10.676148293683877,-6.47544875391759e-05,0.0914128422737121,0,0,0
1086,37028.63822490584,2010-08-20 00:38:23,2071.052041895185,7,3,-1.0997490882873535,3.6371002197265625,3.406011023691516,2.90111042985051,13.53448305644286,10.709510115904592,-9.713172767078504e-05,0.0914128422737121,0,0,0
1087,37058.65368276234,2010-08-20 00:38:53,2101.067499751689,7,3,-1.0997490882873535,3.634510040283203,3.406011023691516,2.910279716348381,13.53448305644286,10.742847989944533,-6.47544875391759e-05,0.0914128422737121,0,0,0
1088,37088.66875353412,2010-08-20 00:39:23,2131.0825705334832,7,3,-1.099929690361023,3.631757974624634,3.406011023691516,2.919448874339536,13.53448305644286,10.776161466098149,-9.713172767078504e-05,0.0914128422737121,0,0,0
1089,37118.68397474081,2010-08-20 00:39:53,2161.0977917251457,7,3,-1.0997490882873535,3.629329681396485,3.406011023691516,2.928618003971775,13.53448305644286,10.809451612590957,-9.713172767078504e-05,0.0914128422737121,0,0,0
1090,37148.69922494479,2010-08-20 00:40:23,2191.113041929116,7,3,-1.0997490882873535,3.626901388168335,3.406011023691516,2.937787192652933,13.53448305644286,10.842719058249338,-6.47544875391759e-05,0.0914128422737121,0,0,0
1091,37178.71446980042,2010-08-20 00:40:53,2221.1282867897685,7,3,-1.0997490882873535,3.624634981155396,3.406011023691516,2.946956335936334,13.53448305644286,10.875963702428912,-3.237724376958795e-05,0.0914128422737121,0,0,0
1092,37208.72971292174,2010-08-20 00:41:23,2251.1435299060736,7,3,-1.0997490882873535,3.622044801712036,3.406011023691516,2.956125468064613,13.53448305644286,10.909186028603168,-6.47544875391759e-05,0.0914128422737121,0,0,0
1093,37238.74507115495,2010-08-20 00:41:53,2281.158888144298,7,3,-1.0997490882873535,3.619616508483887,3.406011023691516,2.965294676055674,13.53448305644286,10.942386407963488,-6.47544875391759e-05,0.0914128422737121,0,0,0
1094,37268.76034214072,2010-08-20 00:42:23,2311.174159150112,7,3,-1.0997490882873535,3.6173501014709473,3.406011023691516,2.974463913837492,13.53448305644286,10.975564770829216,-3.237724376958795e-05,0.0914128422737121,0,0,0
1095,37298.77545638583,2010-08-20 00:42:53,2341.1892733902187,7,3,-1.0997490882873535,3.614759922027588,3.406011023691516,2.983633080639409,13.53448305644286,11.008720693118578,-9.713172767078504e-05,0.0914128422737121,0,0,0
1096,37328.79086241817,2010-08-20 00:43:23,2371.204679402511,7,3,-1.0997490882873535,3.612493515014648,3.406011023691516,2.992802286299853,13.53448305644286,11.041854706823806,-3.237724376958795e-05,0.0914128422737121,0,0,0
1097,37358.80595090911,2010-08-20 00:43:53,2401.219767898455,7,3,-1.099568486213684,3.610065221786499,3.406011023691516,3.001971337701964,13.53448305644286,11.074966006229651,-6.47544875391759e-05,0.0914128422737121,0,0,0
1098,37388.82116491286,2010-08-20 00:44:23,2431.23498191724,7,3,-1.099568486213684,3.60747504234314,3.406011023691516,3.011140488185642,13.53448305644286,11.108055267681356,-9.713172767078504e-05,0.0914128422737121,0,0,0
1099,37418.83660862911,2010-08-20 00:44:53,2461.250425613452,7,3,-1.0997490882873535,3.60488486289978,3.406011023691516,3.020309792749733,13.53448305644286,11.14112217980574,-9.713172767078504e-05,0.0914128422737121,0,0,0
1100,37448.8519454239,2010-08-20 00:45:23,2491.2657632753944,7,3,-1.0997490882873535,3.602618455886841,3.406011023691516,3.02947898920101,13.53448305644286,11.174165757433878,-6.47544875391759e-05,0.0914128422737121,0,0,0
1101,37478.86709859102,2010-08-20 00:45:53,2521.280915575357,7,3,-1.0997490882873535,3.5998663902282715,3.406011023691516,3.038648192535976,13.53448305644286,11.207185994326345,-9.713172767078504e-05,0.0914128422737121,0,0,0
1102,37508.88214439557,2010-08-20 00:46:23,2551.2959613799007,7,3,-1.0997490882873535,3.597276210784912,3.406011023691516,3.047817340552344,13.53448305644286,11.240182319594416,-6.47544875391759e-05,0.0914128422737121,0,0,0
1103,37538.8974583384,2010-08-20 00:46:53,2581.311275317715,7,3,-1.099568486213684,3.5946860313415527,3.406011023691516,3.056986564232914,13.53448305644286,11.273154596442003,-9.713172767078504e-05,0.0914128422737121,0,0,0
1104,37568.912754321456,2010-08-20 00:47:23,2611.3265713007804,7,3,-1.099929690361023,3.5919342041015625,3.406011023691516,3.066155771136806,13.53448305644286,11.30610221416247,-9.70840483205393e-05,0.0914128422737121,0,0,0
1105,37598.92795855586,2010-08-20 00:47:53,2641.34177553518,7,3,-1.0997490882873535,3.589020252227783,3.406011023691516,3.075324949106707,13.53448305644286,11.339024555605215,-9.713172767078504e-05,0.0914128422737121,0,0,0
1106,37628.94321355178,2010-08-20 00:48:23,2671.357030531093,7,3,-1.0997490882873535,3.586430072784424,3.406011023691516,3.084494153641509,13.53448305644286,11.371921123577794,-3.237724376958795e-05,0.0914128422737121,0,0,0
1107,37658.9584629738,2010-08-20 00:48:53,2701.372279953114,7,3,-1.099929690361023,3.5833542346954346,3.406011023691516,3.093663402599728,13.53448305644286,11.404791548080285,-9.713172767078504e-05,0.0914128422737121,0,0,0
1108,37688.97373788934,2010-08-20 00:49:23,2731.387554893736,7,3,-1.0997490882873535,3.5802783966064453,3.406011023691516,3.102832622659388,13.53448305644286,11.437635051840482,-9.713172767078504e-05,0.0914128422737121,0,0,0
1109,37718.98909217272,2010-08-20 00:49:53,2761.402909162065,7,3,-1.0997490882873535,3.577364444732666,3.406011023691516,3.112001858230584,13.53448305644286,11.470450854560324,-9.713172767078504e-05,0.0914128422737121,0,0,0
1110,37749.00421297919,2010-08-20 00:50:23,2791.4180299635245,7,3,-1.0997490882873535,3.5742886066436768,3.406011023691516,3.121171038689222,13.53448305644286,11.503238052178247,-6.47544875391759e-05,0.0914128422737121,0,0,0
1111,37779.01947811538,2010-08-20 00:50:53,2821.4332950946978,7,3,-1.0997490882873535,3.571050882339477,3.406011023691516,3.130340258987563,13.53448305644286,11.535996137060316,-6.47544875391759e-05,0.0914128422737121,0,0,0
1112,37809.03476772255,2010-08-20 00:51:23,2851.4485847018723,7,3,-1.0997490882873535,3.5678131580352783,3.406011023691516,3.139509455526945,13.53448305644286,11.568723961688026,-3.237724376958795e-05,0.0914128422737121,0,0,0
1113,37839.04999788157,2010-08-20 00:51:53,2881.463814860884,7,3,-1.0997490882873535,3.564089775085449,3.406011023691516,3.1486787126749,13.53448305644286,11.60142048209384,-0.0001295089750783,0.0914128422737121,0,0,0
1114,37869.065231539294,2010-08-20 00:52:23,2911.479048523628,7,3,-1.0997490882873535,3.56052827835083,3.406011023691516,3.157847826283533,13.53448305644286,11.634084066575388,-9.713172767078504e-05,0.0914128422737121,0,0,0
1115,37899.08051515654,2010-08-20 00:52:53,2941.494332140874,7,3,-1.0997490882873535,3.556643009185791,3.406011023691516,3.167017064602198,13.53448305644286,11.666713935662829,-0.0001295089750783,0.0914128422737121,0,0,0
1116,37929.0957377517,2010-08-20 00:53:23,2971.5095547360343,7,3,-1.099929690361023,3.552595853805542,3.406011023691516,3.176186242327414,13.53448305644286,11.69930739225396,-9.713172767078504e-05,0.0914128422737121,0,0,0
1117,37959.11098254218,2010-08-20 00:53:53,3001.5247995215,7,3,-1.0997490882873535,3.548548698425293,3.406011023691516,3.185355450212902,13.53448305644286,11.731863199965709,-9.713172767078504e-05,0.0914128422737121,0,0,0
1118,37989.12635101591,2010-08-20 00:54:23,3031.540168010272,7,3,-1.0997490882873535,3.544015884399414,3.406011023691516,3.194524707811332,13.53448305644286,11.764379580969132,-0.0001295089750783,0.0914128422737121,0,0,0
1119,38019.14147311059,2010-08-20 00:54:53,3061.555290099941,7,3,-1.0997490882873535,3.539483070373535,3.406011023691516,3.203693900165872,13.53448305644286,11.796854470584076,-9.713172767078504e-05,0.0914128422737121,0,0,0
1120,38049.156874681816,2010-08-20 00:55:23,3091.570691651116,7,3,-1.099929690361023,3.5347883701324463,3.406011023691516,3.212863184357397,13.53448305644286,11.829287291626082,-0.0001295089750783,0.0914128422737121,0,0,0
1121,38079.17197340826,2010-08-20 00:55:53,3121.5857903875817,7,3,-1.099929690361023,3.5299317836761475,3.406011023691516,3.222032350708436,13.53448305644286,11.861676749579564,-0.0001618862152099,0.0914128422737121,0,0,0
1122,38109.18724745165,2010-08-20 00:56:23,3151.601064456029,7,3,-1.0997490882873535,3.525398969650269,3.406011023691516,3.231201532291312,13.53448305644286,11.894023093811484,-9.713172767078504e-05,0.0914128422737121,0,0,0
1123,38139.20249956538,2010-08-20 00:56:53,3181.6163165497087,7,3,-1.099929690361023,3.5205423831939697,3.406011023691516,3.240370724546905,13.53448305644286,11.92632586597066,-0.0001295089750783,0.0914128422737121,0,0,0
1124,38169.21775758382,2010-08-20 00:57:23,3211.6315745631414,7,3,-1.0997490882873535,3.515685796737671,3.406011023691516,3.249540020614098,13.53448305644286,11.958584369136728,-0.0001295089750783,0.0914128422737121,0,0,0
1125,38199.23311007272,2010-08-20 00:57:53,3241.6469270520374,7,3,-1.0997490882873535,3.5101819038391118,3.406011023691516,3.258709284214257,13.53448305644286,11.990795716289414,-0.0001942634553415,0.0914128422737121,0,0,0
1126,38229.24821609735,2010-08-20 00:58:23,3271.662033076668,7,3,-1.0997490882873535,3.5046777725219727,3.406011023691516,3.267878443621766,13.53448305644286,12.022956480888316,-0.0001618862152099,0.0914128422737121,0,0,0
1127,38259.263467058205,2010-08-20 00:58:53,3301.677284042537,7,3,-1.0997490882873535,3.498364210128784,3.406011023691516,3.27704759880121,13.53448305644286,12.055062983015231,-0.0001942634553415,0.0914128422737121,0,0,0
1128,38289.27874366798,2010-08-20 00:59:23,3331.692560647305,7,3,-1.0997490882873535,3.491726875305176,3.406011023691516,3.286216762159438,13.53448305644286,12.087110654459543,-0.0001942634553415,0.0914128422737121,0,0,0
1129,38319.29401208735,2010-08-20 00:59:53,3361.7078290666736,7,3,-1.0997490882873535,3.4844419956207275,3.406011023691516,3.295385968359573,13.53448305644286,12.119093727762936,-0.0001942634553415,0.0914128422737121,0,0,0
1130,38349.30922479287,2010-08-20 01:00:23,3391.723041777199,7,3,-1.0997490882873535,3.4757001399993896,3.406011023691516,3.304555079963392,13.53448305644286,12.151003443606076,-0.0002913951757363,0.0914128422737121,0,0,0
1131,38379.32447589909,2010-08-20 01:00:53,3421.7382928784045,7,3,-1.099929690361023,3.465825080871582,3.406011023691516,3.313724164898658,13.53448305644286,12.182829255426896,-0.0002913951757363,0.0914128422737121,0,0,0
1132,38409.33994086832,2010-08-20 01:01:23,3451.753757847636,7,3,-1.0997490882873535,3.453845500946045,3.406011023691516,3.322893345967416,13.53448305644286,12.21455589202814,-0.0003561496851034,0.0914128422737121,0,0,0
1133,38439.355101764704,2010-08-20 01:01:53,3481.7689187440237,7,3,-1.0997490882873535,3.438466310501098,3.406011023691516,3.332062495192051,13.53448305644286,12.246158168125808,-0.0004856586456298,0.0914128422737121,0,0,0
1134,38469.37023495203,2010-08-20 01:02:23,3511.784051931352,7,3,-1.0997490882873535,3.417259454727173,3.406011023691516,3.341231570746126,13.53448305644286,12.27759463528867,-0.0006799221155233,0.0914128422737121,0,0,0
1135,38499.3854876021,2010-08-20 01:02:53,3541.799304586431,7,3,-1.0997490882873535,3.3868248462677,3.406011023691516,3.350400711468944,13.53448305644286,12.308797015656843,-0.0009065627818927,0.0914128422737121,0,0,0
1136,38529.40348190019,2010-08-20 01:03:23,3571.8172989998147,7,3,-1.099929690361023,3.34311580657959,3.406011023691516,3.359570666084676,13.53448305644286,12.339664494668993,-0.0012950897216796,0.0914128422737121,0,0,0
1137,38559.41599761899,2010-08-20 01:03:53,3601.8298145983067,7,3,-1.0997490882873535,3.2827322483062744,3.406011023691516,3.368738933952879,13.53448305644286,12.370051892923096,-0.0018455028766766,0.0914128422737121,0,0,0
1138,38589.43126450954,2010-08-20 01:04:23,3631.8450814888647,7,3,-1.0997490882873535,3.199037313461304,3.406011023691516,3.377908039025419,13.53448305644286,12.39978896368148,-0.0025901794433593,0.0914128422737121,0,0,0
1139,38619.446491636,2010-08-20 01:04:53,3661.86030862033,7,3,-1.0997490882873535,3.074385404586792,3.406011023691516,3.387077171162513,13.53448305644286,12.428593009586807,-0.004047155380249,0.0914128422737121,0,0,0
1140,38644.75868802276,2010-08-20 01:05:19,3687.1725050020814,7,3,-1.099568486213684,2.8742945194244385,3.406011023691516,3.39480961011874,13.53448305644286,12.451714621441592,-0.0096484180539846,0.0914128422737121,0,0,0
1141,38654.57107057428,2010-08-20 01:05:29,3696.9848875736448,7,3,-1.0997490882873535,2.699620008468628,3.406011023691516,3.397807112552477,13.53448305644286,12.46008804791747,-0.0160266868770122,0.0914128422737121,0,0,0
1142,38714.58494186106,2010-08-20 01:06:29,60.014860974659925,8,3,0.0,3.250193357467652,3.406011023691516,3.397807112552477,13.53448305644286,12.46008804791747,0.0012303352123126,0.0914128422737121,0,0,0
1143,38714.772141876405,2010-08-20 01:06:29,0.187426469431506,9,3,-0.0003804616571869,3.251164674758911,3.406011023691516,3.397807132360417,13.53448305644286,12.460088112316344,0.0,0.0867155864834785,0,0,0
1144,38719.60039581584,2010-08-20 01:06:34,5.015680403852679,9,3,0.0007031940040178,3.2582876682281494,3.406011953491648,3.397807132360417,13.534486082836144,12.460088112316344,0.0011655807029455,0.0867155864834785,0,0,0
