Data_Point,Test_Time(s),Date_Time,Step_Time(s),Step_Index,Cycle_Index,Current(A),Voltage(V),Charge_Capacity(Ah),Discharge_Capacity(Ah),Charge_Energy(Wh),Discharge_Energy(Wh),dV/dt(V/s),Internal_Resistance(Ohm),Is_FC_Data,AC_Impedance(Ohm),ACI_Phase_Angle(Deg)
9743,325167.39881662914,2010-08-23 08:41:09,30.01520453013665,1,27,0.0,3.43263840675354,28.78304771389064,28.73511716381354,114.21581684714968,105.61303800871649,0.000679874443449,0.086481012403965,0,0,0
9744,325197.41660903406,2010-08-23 08:41:39,60.03299693004102,1,27,0.0,3.452550411224365,28.78304771389064,28.73511716381354,114.21581684714968,105.61303800871649,0.0004856586456298,0.086481012403965,0,0,0
9745,325227.42921558925,2010-08-23 08:42:09,90.04560348522472,1,27,0.0,3.4671201705932617,28.78304771389064,28.73511716381354,114.21581684714968,105.61303800871649,0.0003885269106831,0.086481012403965,0,0,0
9746,325257.3975140951,2010-08-23 08:42:39,120.0139020011413,1,27,0.0,3.478614091873169,28.78304771389064,28.73511716381354,114.21581684714968,105.61303800871649,0.0002590179501567,0.086481012403965,0,0,0
9747,325287.4016107706,2010-08-23 08:43:09,30.01518968814584,2,27,0.5501165986061096,3.6079607009887695,28.78763459143024,28.73511716381354,114.23223400458784,105.61303800871649,0.0012950897216796,0.086481012403965,0,0,0
9748,325317.4167992507,2010-08-23 08:43:40,60.03037816828095,2,27,0.5501165986061096,3.64762282371521,28.792221486282266,28.73511716381354,114.24887941128247,105.61303800871649,0.0009065627818927,0.086481012403965,0,0,0
9749,325347.4322724655,2010-08-23 08:44:10,90.0458513830624,2,27,0.550297200679779,3.677085876464844,28.79680838525461,28.73511716381354,114.2656809842642,105.61303800871649,0.0006799221155233,0.086481012403965,0,0,0
9750,325377.44744679035,2010-08-23 08:44:40,120.06102571794318,2,27,0.550297200679779,3.701206922531128,28.80139526173973,28.73511716381354,114.28260432073898,105.61303800871649,0.0006151676061563,0.086481012403965,0,0,0
9751,325407.46238243533,2010-08-23 08:45:10,150.0759613579228,2,27,0.550297200679779,3.720471382141113,28.80598204095453,28.73511716381354,114.2996265529112,105.61303800871649,0.0004209041653666,0.086481012403965,0,0,0
9752,325437.47757758707,2010-08-23 08:45:40,180.09115652973566,2,27,0.5501165986061096,3.73585057258606,28.810568896491425,28.73511716381354,114.31672869013823,105.61303800871649,0.0003885269106831,0.086481012403965,0,0,0
9753,325467.4927645836,2010-08-23 08:46:10,210.10634350612293,2,27,0.5501165986061096,3.746535062789917,28.8151556566008,28.73511716381354,114.33389019610172,105.61303800871649,0.0002266406954731,0.086481012403965,0,0,0
9754,325497.5079362718,2010-08-23 08:46:40,240.1215151994201,2,27,0.5499359965324402,3.7528486251831055,28.81974248756972,28.73511716381354,114.35109091225058,105.61303800871649,0.0001295089750783,0.086481012403965,0,0,0
9755,325527.5232501595,2010-08-23 08:47:10,270.13682908710945,2,27,0.5501165986061096,3.756895542144776,28.8243292654053,28.73511716381354,114.3683142955638,105.61303800871649,0.0001295089750783,0.086481012403965,0,0,0
9756,325557.5384519177,2010-08-23 08:47:40,300.15203083531264,2,27,0.550297200679779,3.7599713802337646,28.828915998879715,28.73511716381354,114.38555310371486,105.61303800871649,9.713172767078504e-05,0.086481012403965,0,0,0
9757,325587.55365053815,2010-08-23 08:48:10,330.1672294557204,2,27,0.550297200679779,3.762723445892334,28.833502725115384,28.73511716381354,114.40280496304702,105.61303800871649,6.47544875391759e-05,0.086481012403965,0,0,0
9758,325617.5688582211,2010-08-23 08:48:40,360.18243714873995,2,27,0.5499359965324402,3.765313625335693,28.838089499681843,28.73511716381354,114.42006950398692,105.61303800871649,6.47544875391759e-05,0.086481012403965,0,0,0
9759,325647.5839079856,2010-08-23 08:49:10,390.1974869281903,2,27,0.5501165986061096,3.768065690994263,28.84267630873737,28.73511716381354,114.43734639578112,105.61303800871649,9.713172767078504e-05,0.086481012403965,0,0,0
9760,325677.59907563374,2010-08-23 08:49:40,420.21265455134335,2,27,0.5501165986061096,3.770493984222412,28.847263168820227,28.73511716381354,114.4546358467534,105.61303800871649,3.237724376958795e-05,0.086481012403965,0,0,0
9761,325707.61428761744,2010-08-23 08:50:10,450.2278665350565,2,27,0.5501165986061096,3.773246049880981,28.85185058398424,28.73511716381354,114.47193964294166,105.61303800871649,3.237724376958795e-05,0.086481012403965,0,0,0
9762,325737.6294747994,2010-08-23 08:50:40,480.24305372196864,2,27,0.5501165986061096,3.775998115539551,28.85643819016073,28.73511716381354,114.48925654017336,105.61303800871649,6.47544875391759e-05,0.086481012403965,0,0,0
9763,325767.6446460716,2010-08-23 08:51:10,510.2582249892038,2,27,0.550297200679779,3.77858829498291,28.86102578168722,28.73511716381354,114.50658567858244,105.61303800871649,6.47544875391759e-05,0.086481012403965,0,0,0
9764,325797.6599605308,2010-08-23 08:51:40,540.2735394533298,2,27,0.550297200679779,3.7815022468566895,28.865613468018868,28.73511716381354,114.52392752753832,105.61303800871649,6.47544875391759e-05,0.086481012403965,0,0,0
9765,325827.6752498973,2010-08-23 08:52:10,570.2888288449674,2,27,0.5501165986061096,3.783930540084839,28.870200504202707,28.73511716381354,114.5412792401888,105.61303800871649,6.47544875391759e-05,0.086481012403965,0,0,0
9766,325857.690239156,2010-08-23 08:52:40,600.3038180785187,2,27,0.550297200679779,3.786844491958618,28.874787239509164,28.73511716381354,114.558642260008,105.61303800871649,6.47544875391759e-05,0.086481012403965,0,0,0
9767,325887.70540152094,2010-08-23 08:53:10,630.318980463617,2,27,0.5501165986061096,3.789596557617188,28.87937318424361,28.73511716381354,114.57601461001067,105.61303800871649,9.713172767078504e-05,0.086481012403965,0,0,0
9768,325917.72058756504,2010-08-23 08:53:40,660.3341665026682,2,27,0.5499359965324402,3.792348623275757,28.8839591176815,28.73511716381354,114.59339959886648,105.61303800871649,9.713172767078504e-05,0.086481012403965,0,0,0
9769,325947.7358492426,2010-08-23 08:54:10,690.3494281651963,2,27,0.5499359965324402,3.795262575149536,28.88854575817333,28.73511716381354,114.61080036171246,105.61303800871649,9.713172767078504e-05,0.086481012403965,0,0,0
9770,325977.7510088207,2010-08-23 08:54:40,720.3645877382862,2,27,0.5501165986061096,3.798176527023315,28.89313245409581,28.73511716381354,114.62821479529566,105.61303800871649,6.47544875391759e-05,0.086481012403965,0,0,0
9771,326007.7663089491,2010-08-23 08:55:10,750.3798878817206,2,27,0.5501165986061096,3.801090478897095,28.897719197497217,28.73511716381354,114.64564314995158,105.61303800871649,3.237724376958795e-05,0.086481012403965,0,0,0
9772,326037.7814953842,2010-08-23 08:55:40,780.3950743167586,2,27,0.550297200679779,3.804328203201294,28.902305908937485,28.73511716381354,114.66308559272592,105.61303800871649,6.47544875391759e-05,0.086481012403965,0,0,0
9773,326067.7967276835,2010-08-23 08:56:10,810.4103067464296,2,27,0.5501165986061096,3.807565927505493,28.906892628301684,28.73511716381354,114.68054280415876,105.61303800871649,6.47544875391759e-05,0.086481012403965,0,0,0
9774,326097.8117548266,2010-08-23 08:56:40,840.4253337491131,2,27,0.5499359965324402,3.8109655380249023,28.911479397243312,28.73511716381354,114.69801540857712,105.61303800871649,6.47544875391759e-05,0.086481012403965,0,0,0
9775,326127.8269125049,2010-08-23 08:57:10,870.4404914324933,2,27,0.5501165986061096,3.814365148544312,28.916066190906843,28.73511716381354,114.71550371483076,105.61303800871649,9.713172767078504e-05,0.086481012403965,0,0,0
9776,326157.84217944555,2010-08-23 08:57:40,900.4557584182886,2,27,0.5499359965324402,3.8177647590637207,28.92065305941081,28.73511716381354,114.73300815405084,105.61303800871649,6.47544875391759e-05,0.086481012403965,0,0,0
9777,326187.8573081116,2010-08-23 08:58:10,930.470887034224,2,27,0.5501165986061096,3.82132625579834,28.92523988518287,28.73511716381354,114.75052818485544,105.61303800871649,6.47544875391759e-05,0.086481012403965,0,0,0
9778,326217.8725338096,2010-08-23 08:58:40,960.486112742142,2,27,0.5501165986061096,3.824725866317749,28.92982664826697,28.73511716381354,114.76806356041337,105.61303800871649,6.47544875391759e-05,0.086481012403965,0,0,0
9779,326247.8878079882,2010-08-23 08:59:10,990.5013869058268,2,27,0.5501165986061096,3.828125476837158,28.934413427958223,28.73511716381354,114.785614462357,105.61303800871649,9.713172767078504e-05,0.086481012403965,0,0,0
9780,326277.9030208441,2010-08-23 08:59:40,1020.5165997767511,2,27,0.5501165986061096,3.831363201141357,28.939000222625783,28.73511716381354,114.80318065960144,105.61303800871649,9.713172767078504e-05,0.086481012403965,0,0,0
9781,326307.91807081405,2010-08-23 09:00:10,1050.5316497366514,2,27,0.550297200679779,3.834762573242188,28.943587019238077,28.73511716381354,114.82076172305136,105.61303800871649,9.713172767078504e-05,0.086481012403965,0,0,0
9782,326337.93331983505,2010-08-23 09:00:40,1080.5468988077978,2,27,0.550297200679779,3.8378384113311768,28.94817375665381,28.73511716381354,114.83835719136196,105.61303800871649,9.713172767078504e-05,0.086481012403965,0,0,0
9783,326367.94843923807,2010-08-23 09:01:10,1110.562018145609,2,27,0.5499359965324402,3.840752363204956,28.95276058771695,28.73511716381354,114.85596742793824,105.61303800871649,9.713172767078504e-05,0.086481012403965,0,0,0
9784,326397.9636239688,2010-08-23 09:01:40,1140.5772029164998,2,27,0.550297200679779,3.8439900875091553,28.95734734461544,28.73511716381354,114.87359159681012,105.61303800871649,9.713172767078504e-05,0.086481012403965,0,0,0
9785,326427.9788188399,2010-08-23 09:02:10,1170.5923977875627,2,27,0.5501165986061096,3.847065925598145,28.9619340205732,28.73511716381354,114.89122941385187,105.61303800871649,9.713172767078504e-05,0.086481012403965,0,0,0
9786,326457.9939948139,2010-08-23 09:02:40,1200.607573751504,2,27,0.5501165986061096,3.849656105041504,28.966520769197395,28.73511716381354,114.9088812767617,105.61303800871649,6.47544875391759e-05,0.086481012403965,0,0,0
9787,326488.0093330823,2010-08-23 09:03:10,1230.62291200492,2,27,0.5504778623580933,3.852893829345703,28.971107511710937,28.73511716381354,114.92654645816968,105.61303800871649,9.713172767078504e-05,0.086481012403965,0,0,0
9788,326518.02450519666,2010-08-23 09:03:40,1260.638084114254,2,27,0.5501165986061096,3.8554840087890634,28.975694195314222,28.73511716381354,114.94422416875298,105.61303800871649,6.47544875391759e-05,0.086481012403965,0,0,0
9789,326548.0395662392,2010-08-23 09:04:10,1290.653145191863,2,27,0.5501165986061096,3.858236074447632,28.98028091458162,28.73511716381354,114.9619143638712,105.61303800871649,6.47544875391759e-05,0.086481012403965,0,0,0
9790,326578.0549784069,2010-08-23 09:04:40,1320.668557339446,2,27,0.5501165986061096,3.8605024814605713,28.984867618998447,28.73511716381354,114.97961605047692,105.61303800871649,6.47544875391759e-05,0.086481012403965,0,0,0
9791,326608.0699786227,2010-08-23 09:05:10,1350.6835575653938,2,27,0.5501165986061096,3.862768888473511,28.989454328508018,28.73511716381354,114.99732866725584,105.61303800871649,6.47544875391759e-05,0.086481012403965,0,0,0
9792,326638.0851646217,2010-08-23 09:05:40,1380.698743564345,2,27,0.5499359965324402,3.86487340927124,28.99404114753284,28.73511716381354,115.01505170917576,105.61303800871649,0.0,0.086481012403965,0,0,0
9793,326668.1003670616,2010-08-23 09:06:10,1410.7139459842222,2,27,0.550297200679779,3.8669779300689697,28.998627942377524,28.73511716381354,115.03278386536566,105.61303800871649,9.713172767078504e-05,0.086481012403965,0,0,0
9794,326698.11556877475,2010-08-23 09:06:40,1440.7291477173878,2,27,0.550297200679779,3.8687586784362793,29.00321470524444,28.73511716381354,115.05052436160535,105.61303800871649,6.47544875391759e-05,0.086481012403965,0,0,0
9795,326728.1307579065,2010-08-23 09:07:10,1470.7443368541597,2,27,0.550297200679779,3.870215654373169,29.00780153084708,28.73511716381354,115.0682727343006,105.61303800871649,6.47544875391759e-05,0.086481012403965,0,0,0
9796,326758.1460504911,2010-08-23 09:07:40,1500.7596294086802,2,27,0.5501165986061096,3.8716726303100586,29.012388303383265,28.73511716381354,115.08602793209468,105.61303800871649,6.47544875391759e-05,0.086481012403965,0,0,0
9797,326788.1613312863,2010-08-23 09:08:10,1530.774910203893,2,27,0.550297200679779,3.873129606246948,29.01697516301797,28.73511716381354,115.10378986411888,105.61303800871649,6.47544875391759e-05,0.086481012403965,0,0,0
9798,326818.17630489595,2010-08-23 09:08:40,1560.789883818517,2,27,0.550297200679779,3.874262809753418,29.02156195346816,28.73511716381354,115.12155741702784,105.61303800871649,3.237724376958795e-05,0.086481012403965,0,0,0
9799,326848.19149382715,2010-08-23 09:09:10,1590.8050727547889,2,27,0.550297200679779,3.8755578994750977,29.02614874330743,28.73511716381354,115.1393302937829,105.61303800871649,6.47544875391759e-05,0.086481012403965,0,0,0
9800,326878.2066771093,2010-08-23 09:09:40,1620.8202560520065,2,27,0.5501165986061096,3.876529216766357,29.030735517471523,28.73511716381354,115.15710833725925,105.61303800871649,3.237724376958795e-05,0.086481012403965,0,0,0
9801,326908.2230087085,2010-08-23 09:10:10,1650.836587651146,2,27,0.5501165986061096,3.8773386478424072,29.035322491711867,28.73511716381354,115.1748919835506,105.61303800871649,0.0,0.086481012403965,0,0,0
9802,326938.2370991671,2010-08-23 09:10:40,1680.8506782099232,2,27,0.5499359965324402,3.878471851348877,29.03990902778657,28.73511716381354,115.1926786008922,105.61303800871649,3.237724376958795e-05,0.086481012403965,0,0,0
9803,326968.25224733166,2010-08-23 09:11:10,1710.8658262492677,2,27,0.5501165986061096,3.8794431686401367,29.04449590322424,28.73511716381354,115.2104710886848,105.61303800871649,0.0,0.086481012403965,0,0,0
9804,326998.26743568154,2010-08-23 09:11:40,1740.8810146040903,2,27,0.5499359965324402,3.8802525997161865,29.049082666883077,28.73511716381354,115.22826748445397,105.61303800871649,0.0,0.086481012403965,0,0,0
9805,327028.28263981064,2010-08-23 09:12:10,1770.8962187532773,2,27,0.550297200679779,3.881547689437866,29.053669506783763,28.73511716381354,115.24606859073565,105.61303800871649,3.237724376958795e-05,0.086481012403965,0,0,0
9806,327058.2978992225,2010-08-23 09:12:40,1800.9114781501587,2,27,0.550297200679779,3.882357120513916,29.05825629401723,28.73511716381354,115.26387378150866,105.61303800871649,3.237724376958795e-05,0.086481012403965,0,0,0
9807,327088.31300110184,2010-08-23 09:13:10,1830.926580029458,2,27,0.5501165986061096,3.883166551589966,29.06284303293751,28.73511716381354,115.2816830578872,105.61303800871649,3.237724376958795e-05,0.086481012403965,0,0,0
9808,327118.32822106045,2010-08-23 09:13:40,1860.9418000030848,2,27,0.5501165986061096,3.8841378688812256,29.06742985179262,28.73511716381354,115.29949690871084,105.61303800871649,0.0,0.086481012403965,0,0,0
9809,327148.3433839217,2010-08-23 09:14:10,1890.95696284432,2,27,0.550297200679779,3.885109186172485,29.072016664506183,28.73511716381354,115.3173147602291,105.61303800871649,3.237724376958795e-05,0.086481012403965,0,0,0
9810,327178.35856087314,2010-08-23 09:14:40,1920.9721397907088,2,27,0.5501165986061096,3.885918617248535,29.07660344057372,28.73511716381354,115.33513669918229,105.61303800871649,3.237724376958795e-05,0.086481012403965,0,0,0
9811,327208.3737570224,2010-08-23 09:15:10,1950.987335939958,2,27,0.5501165986061096,3.886889934539795,29.08119030081228,28.73511716381354,115.35296319584566,105.61303800871649,0.0,0.086481012403965,0,0,0
9812,327238.38909558154,2010-08-23 09:15:41,1981.0026745141736,2,27,0.550297200679779,3.887861251831055,29.085777122190187,28.73511716381354,115.37079360411148,105.61303800871649,3.237724376958795e-05,0.086481012403965,0,0,0
9813,327268.4044259804,2010-08-23 09:16:11,2011.0180048979764,2,27,0.5499359965324402,3.888670682907105,29.09036385770651,28.73511716381354,115.38862793430668,105.61303800871649,6.47544875391759e-05,0.086481012403965,0,0,0
9814,327298.4195730172,2010-08-23 09:16:41,2041.033151954872,2,27,0.5501165986061096,3.889642000198364,29.094950712892867,28.73511716381354,115.40646704481124,105.61303800871649,3.237724376958795e-05,0.086481012403965,0,0,0
9815,327328.43478656485,2010-08-23 09:17:11,2071.048365522533,2,27,0.5501165986061096,3.890613317489624,29.09953756262868,28.73511716381354,115.4243102979971,105.61303800871649,0.0,0.086481012403965,0,0,0
9816,327358.44970587915,2010-08-23 09:17:41,2101.0632848067494,2,27,0.5501165986061096,3.8917465209960938,29.10412431984628,28.73511716381354,115.44215751605708,105.61303800871649,9.713172767078504e-05,0.086481012403965,0,0,0
9817,327388.4649021136,2010-08-23 09:18:11,2131.07848104121,2,27,0.550297200679779,3.8923940658569336,29.10871106321717,28.73511716381354,115.46000901514824,105.61303800871649,0.0,0.086481012403965,0,0,0
9818,327418.4800794309,2010-08-23 09:18:41,2161.0936583585244,2,27,0.5501165986061096,3.8935272693634033,29.1132978888838,28.73511716381354,115.4778652419465,105.61303800871649,3.237724376958795e-05,0.086481012403965,0,0,0
9819,327448.49526834214,2010-08-23 09:19:11,2191.1088472597085,2,27,0.5501165986061096,3.894336700439453,29.11788481998128,28.73511716381354,115.49572636715658,105.61303800871649,3.237724376958795e-05,0.086481012403965,0,0,0
9820,327478.5097976695,2010-08-23 09:19:41,2221.12337658202,2,27,0.550297200679779,3.895308017730713,29.122469304098782,28.73511716381354,115.51358202807864,105.61303800871649,3.237724376958795e-05,0.086481012403965,0,0,0
9821,327508.5100317035,2010-08-23 09:20:11,2251.123610641136,2,27,0.5501165986061096,3.8962793350219727,29.12705610710048,28.73511716381354,115.53145123934452,105.61303800871649,3.237724376958795e-05,0.086481012403965,0,0,0
9822,327538.5252231811,2010-08-23 09:20:41,2281.138802123755,2,27,0.5501165986061096,3.897250652313232,29.131642927607537,28.73511716381354,115.54932521405934,105.61303800871649,3.237724376958795e-05,0.086481012403965,0,0,0
9823,327568.540522698,2010-08-23 09:21:11,2311.1541016506526,2,27,0.5501165986061096,3.898383855819702,29.136229788173377,28.73511716381354,115.5672039669011,105.61303800871649,3.237724376958795e-05,0.086481012403965,0,0,0
9824,327598.5555867179,2010-08-23 09:21:41,2341.169165635507,2,27,0.550297200679779,3.899355173110962,29.14081652993697,28.73511716381354,115.58508705063568,105.61303800871649,3.237724376958795e-05,0.086481012403965,0,0,0
9825,327628.57077739853,2010-08-23 09:22:11,2371.1843563261514,2,27,0.550297200679779,3.900488376617432,29.145403325283898,28.73511716381354,115.60297509210798,105.61303800871649,0.0,0.086481012403965,0,0,0
9826,327658.5859889061,2010-08-23 09:22:41,2401.1995678286653,2,27,0.5501165986061096,3.9014596939086914,29.1499901359186,28.73511716381354,115.62086808849314,105.61303800871649,3.237724376958795e-05,0.086481012403965,0,0,0
9827,327688.6013445378,2010-08-23 09:23:11,2431.214923465406,2,27,0.550297200679779,3.902592897415161,29.15457698039357,28.73511716381354,115.63876619971543,105.61303800871649,3.237724376958795e-05,0.086481012403965,0,0,0
9828,327718.6163539065,2010-08-23 09:23:41,2461.2299328341405,2,27,0.5501165986061096,3.903564214706421,29.15916380094162,28.73511716381354,115.65666926596472,105.61303800871649,0.0,0.086481012403965,0,0,0
9829,327748.6315512387,2010-08-23 09:24:11,2491.24513021145,2,27,0.5501165986061096,3.905021190643311,29.163750633571173,28.73511716381354,115.67457751036768,105.61303800871649,6.47544875391759e-05,0.086481012403965,0,0,0
9830,327778.6469486646,2010-08-23 09:24:41,2521.2605275822048,2,27,0.5501165986061096,3.9059925079345694,29.168337531674453,28.73511716381354,115.69249105697328,105.61303800871649,0.0,0.086481012403965,0,0,0
9831,327808.66192840954,2010-08-23 09:25:11,2551.2755073371327,2,27,0.550297200679779,3.90712571144104,29.172924250380223,28.73511716381354,115.71040914553129,105.61303800871649,3.237724376958795e-05,0.086481012403965,0,0,0
9832,327838.6771157568,2010-08-23 09:25:41,2581.2906947044944,2,27,0.5501165986061096,3.9082589149475098,29.17751094381877,28.73511716381354,115.72833242220274,105.61303800871649,0.0,0.086481012403965,0,0,0
9833,327868.6923005528,2010-08-23 09:26:11,2611.3058794803974,2,27,0.5501165986061096,3.90939211845398,29.18209775918387,28.73511716381354,115.74626163169602,105.61303800871649,3.237724376958795e-05,0.086481012403965,0,0,0
9834,327898.7075856687,2010-08-23 09:26:41,2641.321164611416,2,27,0.5501165986061096,3.910525321960449,29.18668459048786,28.73511716381354,115.7641963698876,105.61303800871649,3.237724376958795e-05,0.086481012403965,0,0,0
9835,327928.7226789867,2010-08-23 09:27:11,2671.3362579043155,2,27,0.550297200679779,3.911820411682129,29.19127136882298,28.73511716381354,115.7821363611468,105.61303800871649,6.47544875391759e-05,0.086481012403965,0,0,0
9836,327958.73834354343,2010-08-23 09:27:41,2701.351922486042,2,27,0.550297200679779,3.9131155014038086,29.195858205810005,28.73511716381354,115.80008219107836,105.61303800871649,3.237724376958795e-05,0.086481012403965,0,0,0
9837,327988.7530663479,2010-08-23 09:28:11,2731.366645265508,2,27,0.5501165986061096,3.914248466491699,29.20044496884969,28.73511716381354,115.81803339545075,105.61303800871649,0.0,0.086481012403965,0,0,0
9838,328018.7682639357,2010-08-23 09:28:41,2761.3818428583545,2,27,0.550297200679779,3.915543556213379,29.20503176425712,28.73511716381354,115.83599049867824,105.61303800871649,3.237724376958795e-05,0.086481012403965,0,0,0
9839,328048.7834421804,2010-08-23 09:29:11,2791.3970210929547,2,27,0.5497553944587708,3.9168386459350586,29.209618602949757,28.73511716381354,115.8539534180848,105.61303800871649,6.47544875391759e-05,0.086481012403965,0,0,0
9840,328078.7986227708,2010-08-23 09:29:41,2821.4122016884385,2,27,0.5501165986061096,3.9181337356567374,29.21420536393346,28.73511716381354,115.87192204996418,105.61303800871649,0.0,0.086481012403965,0,0,0
9841,328108.81385813287,2010-08-23 09:30:11,2851.427437170718,2,27,0.5499359965324402,3.919428825378418,29.218792008919458,28.73511716381354,115.88989615922024,105.61303800871649,0.0,0.086481012403965,0,0,0
9842,328138.82903149526,2010-08-23 09:30:41,2881.4426104229,2,27,0.5501165986061096,3.920885801315308,29.223378759494747,28.73511716381354,115.90787684032787,105.61303800871649,3.237724376958795e-05,0.086481012403965,0,0,0
9843,328168.844192948,2010-08-23 09:31:11,2911.4577718706623,2,27,0.5501165986061096,3.922019004821777,29.227965533362365,28.73511716381354,115.92586365994217,105.61303800871649,3.237724376958795e-05,0.086481012403965,0,0,0
9844,328198.85938946827,2010-08-23 09:31:41,2941.4729683808105,2,27,0.5501165986061096,3.923475980758667,29.2325522836108,28.73511716381354,115.94385665135438,105.61303800871649,0.0,0.086481012403965,0,0,0
9845,328228.8745818431,2010-08-23 09:32:11,2971.488160760665,2,27,0.5501165986061096,3.9249329566955566,29.23713906422845,28.73511716381354,115.9618560197068,105.61303800871649,6.47544875391759e-05,0.086481012403965,0,0,0
9846,328258.88994170533,2010-08-23 09:32:41,3001.50352062795,2,27,0.5501165986061096,3.926228046417236,29.2417258787029,28.73511716381354,115.97986184234372,105.61303800871649,3.237724376958795e-05,0.086481012403965,0,0,0
9847,328288.90497093863,2010-08-23 09:33:11,3031.5185498611927,2,27,0.5501165986061096,3.927685022354126,29.24631263792721,28.73511716381354,115.99787384157308,105.61303800871649,6.47544875391759e-05,0.086481012403965,0,0,0
9848,328318.9201572283,2010-08-23 09:33:41,3061.533736170918,2,27,0.550297200679779,3.9293038845062256,29.25089939072119,28.73511716381354,116.01589225582244,105.61303800871649,6.47544875391759e-05,0.086481012403965,0,0,0
9849,328348.9353235582,2010-08-23 09:34:11,3091.548902490823,2,27,0.550297200679779,3.9304370880126953,29.255486172249984,28.73511716381354,116.03391732713828,105.61303800871649,3.237724376958795e-05,0.086481012403965,0,0,0
9850,328378.9505276523,2010-08-23 09:34:41,3121.5641065698355,2,27,0.5501165986061096,3.931894063949585,29.26007302637943,28.73511716381354,116.05194923829784,105.61303800871649,3.237724376958795e-05,0.086481012403965,0,0,0
9851,328408.9656416568,2010-08-23 09:35:11,3151.5792205743546,2,27,0.5501165986061096,3.933512926101685,29.264659821252472,28.73511716381354,116.06998751435133,105.61303800871649,6.47544875391759e-05,0.086481012403965,0,0,0
9852,328438.9809924865,2010-08-23 09:35:41,3181.5945714191525,2,27,0.5501165986061096,3.934808015823364,29.26924668071357,28.73511716381354,116.08803270279525,105.61303800871649,6.47544875391759e-05,0.086481012403965,0,0,0
9853,328468.99605877214,2010-08-23 09:36:11,3211.6096376897035,2,27,0.550297200679779,3.936264991760254,29.273834311699627,28.73511716381354,116.106087744084,105.61303800871649,3.237724376958795e-05,0.086481012403965,0,0,0
9854,328499.0112548312,2010-08-23 09:36:41,3241.624833748728,2,27,0.550297200679779,3.937721967697144,29.2784220256138,28.73511716381354,116.12414978923194,105.61303800871649,3.237724376958795e-05,0.086481012403965,0,0,0
9855,328529.0266029241,2010-08-23 09:37:11,3271.640181856704,2,27,0.5501165986061096,3.939340829849243,29.28300880721945,28.73511716381354,116.14221505729196,105.61303800871649,3.237724376958795e-05,0.086481012403965,0,0,0
9856,328559.04166839767,2010-08-23 09:37:41,3301.655247325257,2,27,0.5501165986061096,3.940959692001343,29.28759559418933,28.73511716381354,116.16028742091582,105.61303800871649,6.47544875391759e-05,0.086481012403965,0,0,0
9857,328589.0569742954,2010-08-23 09:38:11,3331.670553213008,2,27,0.5499359965324402,3.9422547817230233,29.292182401527544,28.73511716381354,116.1783668404465,105.61303800871649,0.0,0.086481012403965,0,0,0
9858,328619.0723098371,2010-08-23 09:38:41,3361.685888854915,2,27,0.5499359965324402,3.943873643875122,29.29676917480669,28.73511716381354,116.19645329457845,105.61303800871649,0.0,0.086481012403965,0,0,0
9859,328649.08734231343,2010-08-23 09:39:11,3391.700921230991,2,27,0.5501165986061096,3.9454925060272217,29.301355895907538,28.73511716381354,116.21454672745796,105.61303800871649,6.47544875391759e-05,0.086481012403965,0,0,0
9860,328679.102535771,2010-08-23 09:39:41,3421.716114688531,2,27,0.550297200679779,3.9472732543945312,29.30594272962,28.73511716381354,116.23264791696742,105.61303800871649,6.47544875391759e-05,0.086481012403965,0,0,0
9861,328709.11771954934,2010-08-23 09:40:11,3451.7312984769737,2,27,0.550297200679779,3.948730230331421,29.31052954993473,28.73511716381354,116.25075648167748,105.61303800871649,6.47544875391759e-05,0.086481012403965,0,0,0
9862,328739.1330153069,2010-08-23 09:40:41,3481.7465942495146,2,27,0.5499359965324402,3.950187206268311,29.315116314272498,28.73511716381354,116.268872289328,105.61303800871649,0.0,0.086481012403965,0,0,0
9863,328769.1479802098,2010-08-23 09:41:11,3511.7615591273634,2,27,0.5501165986061096,3.95212984085083,29.319703101411218,28.73511716381354,116.28699578600126,105.61303800871649,6.47544875391759e-05,0.086481012403965,0,0,0
9864,328799.16315763234,2010-08-23 09:41:41,3541.77673654994,2,27,0.550297200679779,3.9537487030029297,29.324289924470172,28.73511716381354,116.3051271559104,105.61303800871649,0.0,0.086481012403965,0,0,0
9865,328829.178359145,2010-08-23 09:42:11,3571.7919380625563,2,27,0.5501165986061096,3.9555294513702393,29.328876701949685,28.73511716381354,116.3232661829898,105.61303800871649,6.47544875391759e-05,0.086481012403965,0,0,0
9866,328859.196198136,2010-08-23 09:42:41,3601.80977705358,2,27,0.550297200679779,3.957310199737549,29.33346396200864,28.73511716381354,116.34141507198572,105.61303800871649,6.47544875391759e-05,0.086481012403965,0,0,0
9867,328889.20878651086,2010-08-23 09:43:11,3631.822365428453,2,27,0.5501165986061096,3.958929061889648,29.3380504013774,28.73511716381354,116.35956877484604,105.61303800871649,0.0,0.086481012403965,0,0,0
9868,328919.22393070563,2010-08-23 09:43:41,3661.8375096232144,2,27,0.550297200679779,3.960871696472168,29.342637170984062,28.73511716381354,116.37773195750869,105.61303800871649,6.47544875391759e-05,0.086481012403965,0,0,0
9869,328949.2391401229,2010-08-23 09:44:11,3691.8527190655946,2,27,0.5497553944587708,3.962490558624268,29.347223925534887,28.73511716381354,116.39590335707334,105.61303800871649,6.47544875391759e-05,0.086481012403965,0,0,0
9870,328979.25431109447,2010-08-23 09:44:41,3721.8678900421046,2,27,0.5501165986061096,3.964595079421997,29.351810714345504,28.73511716381354,116.4140832845498,105.61303800871649,9.713172767078504e-05,0.086481012403965,0,0,0
9871,329009.26963003475,2010-08-23 09:45:11,3751.883208962337,2,27,0.5501165986061096,3.966375827789306,29.35639754901345,28.73511716381354,116.4322718737712,105.61303800871649,6.47544875391759e-05,0.086481012403965,0,0,0
9872,329039.28467286186,2010-08-23 09:45:41,3781.8982518044977,2,27,0.550297200679779,3.968156576156616,29.36098437376969,28.73511716381354,116.45046893518789,105.61303800871649,6.47544875391759e-05,0.086481012403965,0,0,0
9873,329069.29986742215,2010-08-23 09:46:11,3811.9134463647865,2,27,0.5501165986061096,3.970099210739136,29.36557114276113,28.73511716381354,116.4686743665236,105.61303800871649,6.47544875391759e-05,0.086481012403965,0,0,0
9874,329099.31507527555,2010-08-23 09:46:41,3841.928654198155,2,27,0.5501165986061096,3.9720418453216553,29.37015801253304,28.73511716381354,116.48688889530048,105.61303800871649,6.47544875391759e-05,0.086481012403965,0,0,0
9875,329129.33023893886,2010-08-23 09:47:11,3871.9438178564274,2,27,0.5501165986061096,3.973822593688965,29.37474491730396,28.73511716381354,116.50511227371275,105.61303800871649,6.47544875391759e-05,0.086481012403965,0,0,0
9876,329159.34545551403,2010-08-23 09:47:41,3901.959034456645,2,27,0.5501165986061096,3.975765228271485,29.37933180364099,28.73511716381354,116.52334437654196,105.61303800871649,3.237724376958795e-05,0.086481012403965,0,0,0
9877,329189.3606216184,2010-08-23 09:48:12,3931.974200540963,2,27,0.5501165986061096,3.977707862854004,29.38391871943425,28.73511716381354,116.54158544947056,105.61303800871649,3.237724376958795e-05,0.086481012403965,0,0,0
9878,329219.37611002097,2010-08-23 09:48:42,3961.989688943599,2,27,0.550297200679779,3.979812383651733,29.388505567894526,28.73511716381354,116.55983471631993,105.61303800871649,9.713172767078504e-05,0.086481012403965,0,0,0
9879,329249.3911434396,2010-08-23 09:49:12,3992.00472235726,2,27,0.550297200679779,3.981593132019043,29.39309235580995,28.73511716381354,116.57809313470844,105.61303800871649,3.237724376958795e-05,0.086481012403965,0,0,0
9880,329279.40632382466,2010-08-23 09:49:42,4022.019902747232,2,27,0.5501165986061096,3.983697652816773,29.39767918924037,28.73511716381354,116.59636066195768,105.61303800871649,6.47544875391759e-05,0.086481012403965,0,0,0
9881,329309.42139381444,2010-08-23 09:50:12,4052.0349727370526,2,27,0.550297200679779,3.985640287399292,29.402265884187823,28.73511716381354,116.61463667822058,105.61303800871649,9.713172767078504e-05,0.086481012403965,0,0,0
9882,329339.4365873321,2010-08-23 09:50:42,4082.05016624973,2,27,0.5501165986061096,3.9874210357666016,29.406852662304647,28.73511716381354,116.6329220896943,105.61303800871649,0.0,0.086481012403965,0,0,0
9883,329369.4517842834,2010-08-23 09:51:12,4112.06536322604,2,27,0.5501165986061096,3.989525556564331,29.41143942197565,28.73511716381354,116.65121640885212,105.61303800871649,6.47544875391759e-05,0.086481012403965,0,0,0
9884,329399.4669603626,2010-08-23 09:51:42,4142.080539285218,2,27,0.5499359965324402,3.9914681911468506,29.41602610345392,28.73511716381354,116.66951955803754,105.61303800871649,3.237724376958795e-05,0.086481012403965,0,0,0
9885,329429.48213671753,2010-08-23 09:52:12,4172.095715640134,2,27,0.5504778623580933,3.99357271194458,29.420612861887847,28.73511716381354,116.68783222801018,105.61303800871649,6.47544875391759e-05,0.086481012403965,0,0,0
9886,329459.4974538283,2010-08-23 09:52:42,4202.111032770906,2,27,0.5501165986061096,3.995515108108521,29.425199660706905,28.73511716381354,116.70615438545312,105.61303800871649,3.237724376958795e-05,0.086481012403965,0,0,0
9887,329489.5126507093,2010-08-23 09:53:12,4232.126229636941,2,27,0.5501165986061096,3.99761962890625,29.42978639176122,28.73511716381354,116.7244856337948,105.61303800871649,6.47544875391759e-05,0.086481012403965,0,0,0
9888,329519.52772107004,2010-08-23 09:53:42,4262.141299987662,2,27,0.5501165986061096,3.99972414970398,29.43437313440453,28.73511716381354,116.7428262852522,105.61303800871649,3.237724376958795e-05,0.086481012403965,0,0,0
9889,329549.54301777494,2010-08-23 09:54:12,4292.156596722601,2,27,0.5501165986061096,4.001828670501709,29.438959855508745,28.73511716381354,116.76117652763436,105.61303800871649,3.23295607813634e-05,0.086481012403965,0,0,0
9890,329579.55808712315,2010-08-23 09:54:42,4322.171666060798,2,27,0.550297200679779,4.003933429718018,29.443546517770283,28.73511716381354,116.77953626211756,105.61303800871649,6.47544875391759e-05,0.086481012403965,0,0,0
9891,329609.5732435685,2010-08-23 09:55:12,4352.186822491054,2,27,0.5501165986061096,4.006199836730957,29.44813321219616,28.73511716381354,116.7979059846235,105.61303800871649,0.0001295089750783,0.086481012403965,0,0,0
9892,329639.5884323243,2010-08-23 09:55:42,4382.202011256902,2,27,0.5501165986061096,4.008142471313477,29.452719910499493,28.73511716381354,116.81628561144856,105.61303800871649,0.0,0.086481012403965,0,0,0
9893,329669.60362338583,2010-08-23 09:56:12,4412.217202303433,2,27,0.5499359965324402,4.010246753692627,29.457306597010355,28.73511716381354,116.83467512170525,105.61303800871649,3.23295607813634e-05,0.086481012403965,0,0,0
9894,329699.6190240398,2010-08-23 09:56:42,4442.232602957371,2,27,0.550297200679779,4.012675285339356,29.461893323094458,28.73511716381354,116.8530749161266,105.61303800871649,6.47544875391759e-05,0.086481012403965,0,0,0
9895,329729.6341380844,2010-08-23 09:57:12,4472.2477170070015,2,27,0.5501165986061096,4.014941692352295,29.46648011012415,28.73511716381354,116.87148514971796,105.61303800871649,6.47544875391759e-05,0.086481012403965,0,0,0
9896,329759.64920057554,2010-08-23 09:57:42,4502.262779518183,2,27,0.550297200679779,4.017045974731445,29.47106688762005,28.73511716381354,116.88990563452236,105.61303800871649,3.23295607813634e-05,0.086481012403965,0,0,0
9897,329789.6644037322,2010-08-23 09:58:12,4532.277982674897,2,27,0.550297200679779,4.019150733947754,29.47565367408436,28.73511716381354,116.90833655289562,105.61303800871649,3.24249267578125e-05,0.086481012403965,0,0,0
9898,329819.67958942044,2010-08-23 09:58:42,4562.293168338012,2,27,0.5499359965324402,4.021740913391113,29.48024041746812,28.73511716381354,116.92677777502897,105.61303800871649,6.47544875391759e-05,0.086481012403965,0,0,0
9899,329849.6947806775,2010-08-23 09:59:12,4592.308359625143,2,27,0.550297200679779,4.024168968200684,29.484827216697084,28.73511716381354,116.9452299036044,105.61303800871649,9.70840483205393e-05,0.086481012403965,0,0,0
9900,329879.70994894224,2010-08-23 09:59:42,4622.323527869845,2,27,0.5501165986061096,4.026273727416992,29.489413999076408,28.73511716381354,116.96369267251218,105.61303800871649,3.24249267578125e-05,0.086481012403965,0,0,0
9901,329909.7251424348,2010-08-23 10:00:12,4652.338721352448,2,27,0.5501165986061096,4.028863906860352,29.49400074234524,28.73511716381354,116.98216611001062,105.61303800871649,6.47544875391759e-05,0.086481012403965,0,0,0
9902,329939.7403450001,2010-08-23 10:00:42,4682.3539239277125,2,27,0.550297200679779,4.031130313873291,29.498587527314083,28.73511716381354,117.00065049558934,105.61303800871649,6.47544875391759e-05,0.086481012403965,0,0,0
9903,329969.75551949535,2010-08-23 10:01:12,4712.369098412967,2,27,0.5501165986061096,4.033558368682861,29.503174285336183,28.73511716381354,117.01914570518144,105.61303800871649,6.47544875391759e-05,0.086481012403965,0,0,0
9904,329999.77071752935,2010-08-23 10:01:42,4742.384296476989,2,27,0.5501165986061096,4.035986423492432,29.5077609994956,28.73511716381354,117.03765181079716,105.61303800871649,6.47544875391759e-05,0.086481012403965,0,0,0
9905,330029.78605167754,2010-08-23 10:02:12,4772.399630605124,2,27,0.5501165986061096,4.038252830505371,29.512347783904904,28.73511716381354,117.05616938606416,105.61303800871649,3.23295607813634e-05,0.086481012403965,0,0,0
9906,330059.80121973675,2010-08-23 10:02:42,4802.4147986543385,2,27,0.5501165986061096,4.0408430099487305,29.516934541190132,28.73511716381354,117.07469810599872,105.61303800871649,6.47544875391759e-05,0.086481012403965,0,0,0
9907,330089.81627583696,2010-08-23 10:03:12,4832.42985474953,2,27,0.5501165986061096,4.04343318939209,29.52152124651316,28.73511716381354,117.09323808871471,105.61303800871649,6.47544875391759e-05,0.086481012403965,0,0,0
9908,330119.83147542475,2010-08-23 10:03:42,4862.445054347373,2,27,0.5501165986061096,4.046023368835449,29.526108016785926,28.73511716381354,117.11178987263762,105.61303800871649,9.70840483205393e-05,0.086481012403965,0,0,0
9909,330149.8466633385,2010-08-23 10:04:12,4892.4602422510725,2,27,0.5499359965324402,4.048451900482178,29.530694789470232,28.73511716381354,117.13035337546272,105.61303800871649,6.47544875391759e-05,0.086481012403965,0,0,0
9910,330179.86185479607,2010-08-23 10:04:42,4922.475433718652,2,27,0.5501165986061096,4.050879955291748,29.535281595116658,28.73511716381354,117.1489287364398,105.61303800871649,3.23295607813634e-05,0.086481012403965,0,0,0
9911,330209.877048424,2010-08-23 10:05:12,4952.490627366668,2,27,0.5501165986061096,4.0536322593688965,29.539868334283888,28.73511716381354,117.16751568482626,105.61303800871649,6.47544875391759e-05,0.086481012403965,0,0,0
9912,330239.892224022,2010-08-23 10:05:42,4982.505802944646,2,27,0.5501165986061096,4.056222438812256,29.54445515896222,28.73511716381354,117.1861149396076,105.61303800871649,6.47544875391759e-05,0.086481012403965,0,0,0
9913,330269.9074275196,2010-08-23 10:06:12,5012.521006437198,2,27,0.5501165986061096,4.058974266052246,29.54904196393253,28.73511716381354,117.2047261939114,105.61303800871649,9.70840483205393e-05,0.086481012403965,0,0,0
9914,330299.9226182303,2010-08-23 10:06:42,5042.536197147892,2,27,0.5501165986061096,4.061402797698975,29.553628781785303,28.73511716381354,117.22334950968708,105.61303800871649,6.47544875391759e-05,0.086481012403965,0,0,0
9915,330329.93790794275,2010-08-23 10:07:12,5072.551486855316,2,27,0.5501165986061096,4.064316749572754,29.55821557255122,28.73511716381354,117.24198490768808,105.61303800871649,9.71794142969884e-05,0.086481012403965,0,0,0
9916,330359.95298116567,2010-08-23 10:07:42,5102.566560073182,2,27,0.550297200679779,4.067068576812744,29.56280234597209,28.73511716381354,117.26063271510915,105.61303800871649,9.70840483205393e-05,0.086481012403965,0,0,0
9917,330389.96816645283,2010-08-23 10:08:12,5132.581745375397,2,27,0.5499359965324402,4.069658756256104,29.56738912748162,28.73511716381354,117.2792931082924,105.61303800871649,6.47544875391759e-05,0.086481012403965,0,0,0
9918,330419.98338745395,2010-08-23 10:08:42,5162.596966361547,2,27,0.550297200679779,4.072411060333252,29.571975912153697,28.73511716381354,117.29796619217429,105.61303800871649,6.47544875391759e-05,0.086481012403965,0,0,0
9919,330449.99867918645,2010-08-23 10:09:12,5192.612258099031,2,27,0.5501165986061096,4.075325012207031,29.576562752226277,28.73511716381354,117.31665234956311,105.61303800871649,6.47544875391759e-05,0.086481012403965,0,0,0
9920,330480.01373348216,2010-08-23 10:09:42,5222.627312404763,2,27,0.5501165986061096,4.0780768394470215,29.58114954407655,28.73511716381354,117.335351216014,105.61303800871649,6.47544875391759e-05,0.086481012403965,0,0,0
9921,330510.0290467634,2010-08-23 10:10:12,5252.642625695965,2,27,0.5501165986061096,4.080990791320801,29.58573628536152,28.73511716381354,117.35406289209376,105.61303800871649,6.47544875391759e-05,0.086481012403965,0,0,0
9922,330540.0442449176,2010-08-23 10:10:42,5282.657823860236,2,27,0.550297200679779,4.08390474319458,29.590322997531366,28.73511716381354,117.37278745002132,105.61303800871649,9.70840483205393e-05,0.086481012403965,0,0,0
9923,330570.0593166668,2010-08-23 10:11:12,5312.672895579367,2,27,0.5501165986061096,4.0866570472717285,29.59490970212076,28.73511716381354,117.39152525470362,105.61303800871649,6.47544875391759e-05,0.086481012403965,0,0,0
9924,330600.074491924,2010-08-23 10:11:42,5342.688070831534,2,27,0.5501165986061096,4.089570999145508,29.59949650861041,28.73511716381354,117.41027682993844,105.61303800871649,3.24249267578125e-05,0.086481012403965,0,0,0
9925,330630.08969842904,2010-08-23 10:12:12,5372.703277346617,2,27,0.5501165986061096,4.092484951019287,29.60408326585241,28.73511716381354,117.42904165850771,105.61303800871649,9.71794142969884e-05,0.086481012403965,0,0,0
9926,330660.1048620472,2010-08-23 10:12:42,5402.718440964789,2,27,0.5499359965324402,4.095560550689697,29.60866997588067,28.73511716381354,117.44781987700172,105.61303800871649,6.47544875391759e-05,0.086481012403965,0,0,0
9927,330690.12008057727,2010-08-23 10:13:12,5432.733659494818,2,27,0.5501165986061096,4.098474502563477,29.61325674844624,28.73511716381354,117.46661209664975,105.61303800871649,6.47544875391759e-05,0.086481012403965,0,0,0
9928,330720.13524170924,2010-08-23 10:13:42,5462.748820626793,2,27,0.5501165986061096,4.101712226867676,29.61784351876644,28.73511716381354,117.48541820506628,105.61303800871649,9.70840483205393e-05,0.086481012403965,0,0,0
9929,330750.15044747747,2010-08-23 10:14:12,5492.764026400027,2,27,0.5501165986061096,4.104788303375244,29.62243032713569,28.73511716381354,117.5042383904126,105.61303800871649,0.0001295089750783,0.086481012403965,0,0,0
9930,330780.165633336,2010-08-23 10:14:42,5522.779212243591,2,27,0.5501165986061096,4.107863903045654,29.62701709871289,28.73511716381354,117.52307261381787,105.61303800871649,0.0001295089750783,0.086481012403965,0,0,0
9931,330810.1808335504,2010-08-23 10:15:12,5552.794412462984,2,27,0.5501165986061096,4.110939979553223,29.631603918439083,28.73511716381354,117.54192131495832,105.61303800871649,9.71794142969884e-05,0.086481012403965,0,0,0
9932,330840.1962230215,2010-08-23 10:15:42,5582.809801939064,2,27,0.550297200679779,4.114177703857422,29.636190730457237,28.73511716381354,117.56078426365735,105.61303800871649,0.0001619339018361,0.086481012403965,0,0,0
9933,330870.21120304207,2010-08-23 10:16:12,5612.824781959653,2,27,0.5501165986061096,4.117253303527832,29.64077755374173,28.73511716381354,117.5796617181986,105.61303800871649,9.71794142969884e-05,0.086481012403965,0,0,0
9934,330900.226397457,2010-08-23 10:16:42,5642.839976404654,2,27,0.5501165986061096,4.120328903198242,29.6453643840938,28.73511716381354,117.59855373588444,105.61303800871649,6.47544875391759e-05,0.086481012403965,0,0,0
9935,330930.2419492777,2010-08-23 10:17:12,5672.855528210308,2,27,0.5501165986061096,4.123566627502441,29.649951248145587,28.73511716381354,117.61746059210545,105.61303800871649,9.70840483205393e-05,0.086481012403965,0,0,0
9936,330960.2567812193,2010-08-23 10:17:42,5702.870360136802,2,27,0.550297200679779,4.12696647644043,29.65453795119513,28.73511716381354,117.636381634616,105.61303800871649,6.47544875391759e-05,0.086481012403965,0,0,0
9937,330990.2721019941,2010-08-23 10:18:12,5732.885680906644,2,27,0.550297200679779,4.130204200744629,29.65912480338837,28.73511716381354,117.65531829057232,105.61303800871649,6.47544875391759e-05,0.086481012403965,0,0,0
9938,331020.2872919228,2010-08-23 10:18:42,5762.900870840403,2,27,0.5499359965324402,4.133279800415039,29.66371165729057,28.73511716381354,117.67427002489964,105.61303800871649,6.47544875391759e-05,0.086481012403965,0,0,0
9939,331050.30239199265,2010-08-23 10:19:12,5792.915970910191,2,27,0.550297200679779,4.136841297149658,29.66829848561814,28.73511716381354,117.69323678789554,105.61303800871649,0.0001295089750783,0.086481012403965,0,0,0
9940,331080.3175763625,2010-08-23 10:19:42,5822.931155270057,2,27,0.5501165986061096,4.140079021453857,29.672885307518342,28.73511716381354,117.71221885966088,105.61303800871649,9.70840483205393e-05,0.086481012403965,0,0,0
9941,331110.3327478653,2010-08-23 10:20:13,5852.946326767868,2,27,0.5501165986061096,4.143478870391846,29.67747220357456,28.73511716381354,117.73121677154128,105.61303800871649,9.71794142969884e-05,0.086481012403965,0,0,0
9942,331140.3482154661,2010-08-23 10:20:43,5882.96179439372,2,27,0.5499359965324402,4.146878242492676,29.68205904382654,28.73511716381354,117.75023022781562,105.61303800871649,3.23295607813634e-05,0.086481012403965,0,0,0
9943,331170.3632708746,2010-08-23 10:21:13,5912.97684978215,2,27,0.5501165986061096,4.150439739227295,29.686645821104676,28.73511716381354,117.7692593898446,105.61303800871649,0.0001295089750783,0.086481012403965,0,0,0
9944,331200.3784428035,2010-08-23 10:21:43,5942.992021721058,2,27,0.5501165986061096,4.153839588165283,29.691232658421235,28.73511716381354,117.78830480285536,105.61303800871649,6.47544875391759e-05,0.086481012403965,0,0,0
9945,331230.3936641856,2010-08-23 10:22:13,5973.007243098184,2,27,0.5501165986061096,4.157562732696533,29.695819467325624,28.73511716381354,117.80736607342342,105.61303800871649,9.70840483205393e-05,0.086481012403965,0,0,0
9946,331260.4089020338,2010-08-23 10:22:43,6003.022480976433,2,27,0.5499359965324402,4.1609625816345215,29.700406282151185,28.73511716381354,117.82644363594544,105.61303800871649,9.71794142969884e-05,0.086481012403965,0,0,0
9947,331290.4239506102,2010-08-23 10:23:13,6033.037529527824,2,27,0.5501165986061096,4.164685726165772,29.70499308154042,28.73511716381354,117.84553747635658,105.61303800871649,0.0001295089750783,0.086481012403965,0,0,0
9948,331320.4391182685,2010-08-23 10:23:43,6063.052697191077,2,27,0.5499359965324402,4.16808557510376,29.70957985212338,28.73511716381354,117.86464765154552,105.61303800871649,6.47544875391759e-05,0.086481012403965,0,0,0
9949,331350.45430811704,2010-08-23 10:24:13,6093.067887024584,2,27,0.5501165986061096,4.17180871963501,29.71416668029729,28.73511716381354,117.88377474710224,105.61303800871649,9.70840483205393e-05,0.086481012403965,0,0,0
9950,331380.4694996548,2010-08-23 10:24:43,6123.083078587402,2,27,0.5501165986061096,4.175532341003418,29.71875344526044,28.73511716381354,117.90291835590892,105.61303800871649,9.71794142969884e-05,0.086481012403965,0,0,0
9951,331410.484845046,2010-08-23 10:25:13,6153.098423963571,2,27,0.5501165986061096,4.179255485534668,29.72334025207112,28.73511716381354,117.92207913102337,105.61303800871649,0.0001295089750783,0.086481012403965,0,0,0
9952,331440.49989030417,2010-08-23 10:25:43,6183.113469221753,2,27,0.5499359965324402,4.182979106903076,29.727926975092327,28.73511716381354,117.941256583321,105.61303800871649,9.71794142969884e-05,0.086481012403965,0,0,0
9953,331470.5151164983,2010-08-23 10:26:13,6213.128695435933,2,27,0.5501165986061096,4.186864376068115,29.732513731938795,28.73511716381354,117.96045139093862,105.61303800871649,0.0001619339018361,0.086481012403965,0,0,0
9954,331500.530283941,2010-08-23 10:26:43,6243.143862848561,2,27,0.5501165986061096,4.190425872802734,29.737100549640257,28.73511716381354,117.97966389483116,105.61303800871649,6.47544875391759e-05,0.086481012403965,0,0,0
9955,331530.5455078143,2010-08-23 10:27:13,6273.159086731932,2,27,0.550297200679779,4.194472789764404,29.741687322159837,28.73511716381354,117.99889376632788,105.61303800871649,0.0001295089750783,0.086481012403965,0,0,0
9956,331560.5608099127,2010-08-23 10:27:43,6303.174388825226,2,27,0.5501165986061096,4.198195934295654,29.746274090783377,28.73511716381354,118.0181413045275,105.61303800871649,9.70840483205393e-05,0.086481012403965,0,0,0
9957,331573.5136007629,2010-08-23 10:27:56,6316.127179685524,2,27,0.5501165986061096,4.200138568878174,29.748253477190733,28.73511716381354,118.02645294564036,105.61303800871649,0.0001295089750783,0.086481012403965,0,0,0
9958,331603.5155582282,2010-08-23 10:28:26,30.015209216817297,3,27,0.0,4.1232428550720215,29.748253477190733,28.73511716381354,118.02645294564036,105.61303800871649,-0.0004209518374409,0.086481012403965,0,0,0
9959,331633.53080378054,2010-08-23 10:28:56,60.03045479425645,3,27,0.0,4.113530158996582,29.748253477190733,28.73511716381354,118.02645294564036,105.61303800871649,-0.0002265930233988,0.086481012403965,0,0,0
9960,331663.54594007565,2010-08-23 10:29:26,90.04559106426787,3,27,0.0,4.107863903045654,29.748253477190733,28.73511716381354,118.02645294564036,105.61303800871649,-0.0001295089750783,0.086481012403965,0,0,0
9961,331693.51423277706,2010-08-23 10:29:56,120.01388376569297,3,27,0.0,4.104464530944824,29.748253477190733,28.73511716381354,118.02645294564036,105.61303800871649,-6.47544875391759e-05,0.086481012403965,0,0,0
9962,331693.5183317793,2010-08-23 10:29:56,2.686696073e-06,4,27,1.0066968202590942,4.199814796447754,29.74825347794204,28.73511716381354,118.02645294879568,105.61303800871649,0.0,0.086481012403965,0,0,0
9963,331694.37769407453,2010-08-23 10:29:57,0.859364966917548,4,27,0.956487476825714,4.199814796447754,29.748486138793933,28.73511716381354,118.02743006999738,105.61303800871649,0.0,0.086481012403965,0,0,0
9964,331696.4246570361,2010-08-23 10:29:59,2.906327948502421,4,27,0.9060974717140198,4.199814796447754,29.749014499345595,28.73511716381354,118.02964904601572,105.61303800871649,0.0,0.086481012403965,0,0,0
9965,331699.4871325624,2010-08-23 10:30:02,5.96880344975169,4,27,0.8557075262069702,4.199653148651123,29.749763060179905,28.73511716381354,118.03279282430611,105.61303800871649,0.0,0.086481012403965,0,0,0
9966,331703.6433014942,2010-08-23 10:30:06,10.124972401600914,4,27,0.8054981231689453,4.199814796447754,29.75072117394536,28.73511716381354,118.03681667480927,105.61303800871649,0.0,0.086481012403965,0,0,0
9967,331708.86198382126,2010-08-23 10:30:11,15.343654718683489,4,27,0.7554693818092346,4.199814796447754,29.751851697187178,28.73511716381354,118.04156460118932,105.61303800871649,0.0,0.086481012403965,0,0,0
9968,331715.58062255126,2010-08-23 10:30:18,22.062293443659584,4,27,0.7054405808448792,4.199653148651123,29.75321349737571,28.73511716381354,118.04728387406747,105.61303800871649,-3.23295607813634e-05,0.086481012403965,0,0,0
9969,331724.2209996847,2010-08-23 10:30:27,30.70267056702859,4,27,0.6554118394851685,4.199814796447754,29.75484421390401,28.73511716381354,118.0541325319518,105.61303800871649,0.0,0.086481012403965,0,0,0
9970,331735.97083137056,2010-08-23 10:30:38,42.452502257935166,4,27,0.605383038520813,4.199814796447754,29.756897974288016,28.73511716381354,118.06275789371172,105.61303800871649,0.0,0.086481012403965,0,0,0
9971,331752.8299627434,2010-08-23 10:30:55,59.31163364076622,4,27,0.5553542971611023,4.199814796447754,29.759608833467663,28.73511716381354,118.07414294442448,105.61303800871649,0.0,0.086481012403965,0,0,0
9972,331779.204608135,2010-08-23 10:31:22,85.68627905240754,4,27,0.5051448941230774,4.199653148651123,29.76347941206036,28.73511716381354,118.09039851442851,105.61303800871649,-3.23295607813634e-05,0.086481012403965,0,0,0
9973,331823.39159807994,2010-08-23 10:32:06,129.87326896225977,4,27,0.4551161229610443,4.199814796447754,29.769348838428417,28.73511716381354,118.11504881658388,105.61303800871649,-3.24249267578125e-05,0.086481012403965,0,0,0
9974,331895.5155429224,2010-08-23 10:33:18,201.9972138248404,4,27,0.4050873517990112,4.199814796447754,29.77793838314897,28.73511716381354,118.1511230427558,105.61303800871649,3.23295607813634e-05,0.086481012403965,0,0,0
9975,331994.467105077,2010-08-23 10:34:57,300.94877597435146,4,27,0.3548779785633087,4.199491024017334,29.788367634488903,28.73511716381354,118.19492368487806,105.61303800871649,-3.24249267578125e-05,0.086481012403965,0,0,0
9976,332117.21531260875,2010-08-23 10:37:00,423.6969834911626,4,27,0.3048492074012756,4.199653148651123,29.799605866553645,28.73511716381354,118.24212189125136,105.61303800871649,0.0,0.086481012403965,0,0,0
9977,332264.9945606053,2010-08-23 10:39:27,571.4762315077578,4,27,0.2548204362392425,4.199491024017334,29.81107492099611,28.73511716381354,118.29028950097292,105.61303800871649,0.0,0.086481012403965,0,0,0
9978,332446.9449368828,2010-08-23 10:42:29,753.4266077801599,4,27,0.2047916799783706,4.199814796447754,29.82265715732831,28.73511716381354,118.33893238824804,105.61303800871649,0.0,0.086481012403965,0,0,0
9979,332684.3164878352,2010-08-23 10:46:27,990.7981587275208,4,27,0.1547629088163375,4.199814796447754,29.834445997802632,28.73511716381354,118.38844291180388,105.61303800871649,0.0,0.086481012403965,0,0,0
9980,333026.1396203026,2010-08-23 10:52:09,1332.6212911999908,4,27,0.1047341376543045,4.199653148651123,29.846620383238744,28.73511716381354,118.43957263827416,105.61303800871649,-3.23295607813634e-05,0.086481012403965,0,0,0
9981,333631.4589415031,2010-08-23 11:02:14,1937.940612400521,4,27,0.0547053664922714,4.199814796447754,29.859558815468205,28.73511716381354,118.49391103984534,105.61303800871649,0.0,0.086481012403965,0,0,0
9982,333722.4109625248,2010-08-23 11:03:45,2028.892633417132,4,27,0.0498289167881011,4.199653148651123,29.86088937253336,28.73511716381354,118.49949908726109,105.61303800871649,-3.23295607813634e-05,0.086481012403965,0,0,0
9983,333752.412652724,2010-08-23 11:04:15,30.01523435948055,5,27,0.0,4.192692279815674,29.86088937253336,28.73511716381354,118.49949908726109,105.61303800871649,-3.23295607813634e-05,0.086481012403965,0,0,0
9984,333782.4122099864,2010-08-23 11:04:45,60.0147916167988,5,27,0.0,4.191397190093994,29.86088937253336,28.73511716381354,118.49949908726109,105.61303800871649,-3.23295607813634e-05,0.086481012403965,0,0,0
9985,333782.602854433,2010-08-23 11:04:45,0.187502664332644,6,27,-1.9243103452026844e-05,4.191558837890625,29.86088937253336,28.7351171648158,118.49949908726109,105.6130380129175,0.0,0.0897949114441871,0,0,0
9986,333787.43115576054,2010-08-23 11:04:50,5.015803996884543,6,27,0.0008838032954372,4.191558837890625,29.860890320806565,28.73511716490055,118.49950306197124,105.61303801327271,-3.24249267578125e-05,0.0897949114441871,0,0,0
9987,333817.4336740718,2010-08-23 11:05:20,30.01513822989605,7,27,-1.0997490882873535,4.031130313873291,29.860890320806565,28.744285501991943,118.49950306197124,105.65017984411324,-0.000841712928377,0.0897949114441871,0,0,0
9988,333847.44886299304,2010-08-23 11:05:50,60.03032713108053,7,27,-1.099568486213684,4.006361484527588,29.860890320806565,28.753453863080797,118.49950306197124,105.68701680077622,-0.0005504608270712,0.0897949114441871,0,0,0
9989,333877.4640627863,2010-08-23 11:06:20,90.0455269244116,7,27,-1.099568486213684,3.989687442779541,29.860890320806565,28.76262221302856,118.49950306197124,105.72366878008944,-0.0003885269106831,0.0897949114441871,0,0,0
9990,333907.4792383994,2010-08-23 11:06:50,120.060702557528,7,27,-1.099568486213684,3.976736545562744,29.860890320806565,28.771790499151297,118.49950306197124,105.76018535063268,-0.0002266406954731,0.0897949114441871,0,0,0
9991,333937.4944307994,2010-08-23 11:07:20,150.0758949373824,7,27,-1.0993878841400146,3.965566396713257,29.860890320806565,28.7809587151252,118.49950306197124,105.79659167821214,-0.0002913951757363,0.0897949114441871,0,0,0
9992,333967.5096149537,2010-08-23 11:07:50,180.09107908672382,7,27,-1.0997490882873535,3.9555294513702393,29.860890320806565,28.79012694472753,118.49950306197124,105.83290194732926,-0.0002590179501567,0.0897949114441871,0,0,0
9993,333997.5248277594,2010-08-23 11:08:20,210.10629191754836,7,27,-1.099568486213684,3.946301937103272,29.860890320806565,28.799295195521317,118.49950306197124,105.86912463254964,-0.0002590179501567,0.0897949114441871,0,0,0
9994,334027.52491608536,2010-08-23 11:08:50,240.10638022340297,7,27,-1.0997490882873535,3.9375600814819336,29.860890320806565,28.808458800451827,118.49950306197124,105.9052466937607,-0.0002266406954731,0.0897949114441871,0,0,0
9995,334057.539622895,2010-08-23 11:09:20,270.121087033067,7,27,-1.099568486213684,3.9289801120758057,29.860890320806565,28.81762689946869,118.49950306197124,105.94130754069307,-0.0002590179501567,0.0897949114441871,0,0,0
9996,334087.5549946119,2010-08-23 11:09:50,300.1364588651717,7,27,-1.099568486213684,3.9210476875305176,29.860890320806565,28.82679523964885,118.49950306197124,105.97729310127391,-0.0001942634553415,0.0897949114441871,0,0,0
9997,334117.5700470729,2010-08-23 11:10:20,330.1515112160308,7,27,-1.0997490882873535,3.9127917289733887,29.860890320806565,28.8359634166835,118.49950306197124,106.013203997956,-0.0002265930233988,0.0897949114441871,0,0,0
9998,334147.585329793,2010-08-23 11:10:50,360.1667939260156,7,27,-1.0997490882873535,3.905183076858521,29.860890320806565,28.84513168256514,118.49950306197124,106.04904295240549,-0.0001942634553415,0.0897949114441871,0,0,0
9999,334177.6002944102,2010-08-23 11:11:20,390.181758548228,7,27,-1.0997490882873535,3.8974125385284415,29.860890320806565,28.854299833917786,118.49950306197124,106.084810929098,-0.0002266406954731,0.0897949114441871,0,0,0
10000,334207.61547700566,2010-08-23 11:11:50,420.1969411436966,7,27,-1.099568486213684,3.889965772628784,29.860890320806565,28.86346807946237,118.49950306197124,106.12051008496232,-0.0002266406954731,0.0897949114441871,0,0,0
10001,334237.6306639169,2010-08-23 11:12:20,450.2121280549215,7,27,-1.099568486213684,3.882842779159546,29.860890320806565,28.872636306810683,118.49950306197124,106.15614060047216,-0.0001618862152099,0.0897949114441871,0,0,0
10002,334267.64586251223,2010-08-23 11:12:50,480.2273266452543,7,27,-1.099568486213684,3.875396013259888,29.860890320806565,28.881804601240297,118.49950306197124,106.19170355562312,-0.0001618862152099,0.0897949114441871,0,0,0
10003,334297.66105075175,2010-08-23 11:13:20,510.24251488980224,7,27,-1.099568486213684,3.86811113357544,29.860890320806565,28.89097287593045,118.49950306197124,106.22719945183982,-0.0001618862152099,0.0897949114441871,0,0,0
10004,334327.6763571558,2010-08-23 11:13:51,540.2578212988526,7,27,-1.0993878841400146,3.860988140106201,29.860890320806565,28.90014120483019,118.49950306197124,106.26262993743988,-0.0001618862152099,0.0897949114441871,0,0,0
10005,334357.69185728766,2010-08-23 11:14:21,570.2733214307196,7,27,-1.0997490882873535,3.853703260421753,29.860890320806565,28.909309534910275,118.49950306197124,106.29799527171,-0.0002266406954731,0.0897949114441871,0,0,0
10006,334387.7067533139,2010-08-23 11:14:51,600.2882174720072,7,27,-1.0997490882873535,3.8467421531677246,29.860890320806565,28.91847770939785,118.49950306197124,106.33329571725356,-0.0002266406954731,0.0897949114441871,0,0,0
10007,334417.7217965621,2010-08-23 11:15:21,630.3032607051421,7,27,-1.0993878841400146,3.840104818344116,29.860890320806565,28.92764594844385,118.49950306197124,106.36853342824588,-0.0001618862152099,0.0897949114441871,0,0,0
10008,334447.73699383915,2010-08-23 11:15:51,660.3184580022518,7,27,-1.099568486213684,3.833305597305298,29.860890320806565,28.93681419783297,118.49950306197124,106.40370918001042,-0.0001618862152099,0.0897949114441871,0,0,0
10009,334477.7521655475,2010-08-23 11:16:21,690.3336296805114,7,27,-1.099568486213684,3.8268303871154794,29.860890320806565,28.94598246368389,118.49950306197124,106.43882388691492,-0.0001618862152099,0.0897949114441871,0,0,0
10010,334507.7674922872,2010-08-23 11:16:51,720.3489564252444,7,27,-1.099568486213684,3.82035493850708,29.860890320806565,28.95515075502132,118.49950306197124,106.4738785679011,-0.0001295089750783,0.0897949114441871,0,0,0
10011,334537.78264683275,2010-08-23 11:17:21,750.3641109958666,7,27,-1.099568486213684,3.8138794898986816,29.860890320806565,28.964319036013578,118.49950306197124,106.50887435310402,-0.0001942634553415,0.0897949114441871,0,0,0
10012,334567.79775492253,2010-08-23 11:17:51,780.3792190555693,7,27,-1.0997490882873535,3.807565927505493,29.860890320806565,28.97348720576437,118.49950306197124,106.54381075372956,-0.0001618862152099,0.0897949114441871,0,0,0
10013,334597.8129005108,2010-08-23 11:18:21,810.3943646438047,7,27,-1.099568486213684,3.8012523651123047,29.860890320806565,28.982655355348683,118.49950306197124,106.57868971730616,-0.0001942634553415,0.0897949114441871,0,0,0
10014,334627.8282238119,2010-08-23 11:18:51,840.4096879599924,7,27,-1.0997490882873535,3.794938802719116,29.860890320806565,28.991823658835163,118.49950306197124,106.61351284819632,-0.0001942634553415,0.0897949114441871,0,0,0
10015,334657.8432649899,2010-08-23 11:19:21,870.424729122968,7,27,-1.0997490882873535,3.789272785186768,29.860890320806565,29.000991928444584,118.49950306197124,106.64828060641598,-0.0001618862152099,0.0897949114441871,0,0,0
10016,334687.85845726955,2010-08-23 11:19:51,900.4399214025725,7,27,-1.0997490882873535,3.783444881439209,29.860890320806565,29.010160206731516,118.49950306197124,106.68299425237124,-0.0001295089750783,0.0897949114441871,0,0,0
10017,334717.8736355994,2010-08-23 11:20:21,930.45509973241,7,27,-1.099568486213684,3.7776169776916495,29.860890320806565,29.01932844310841,118.49950306197124,106.71765465281656,-0.0001295089750783,0.0897949114441871,0,0,0
10018,334747.88896063983,2010-08-23 11:20:51,960.4704247728956,7,27,-1.0997490882873535,3.7719509601593018,29.860890320806565,29.028496776466262,118.49950306197124,106.75226356526592,-0.0001618862152099,0.0897949114441871,0,0,0
10019,334777.9040339981,2010-08-23 11:21:21,990.485498156174,7,27,-1.099568486213684,3.766608715057373,29.860890320806565,29.037664998261967,118.49950306197124,106.78682086326272,-9.713172767078504e-05,0.0897949114441871,0,0,0
10020,334807.9193188634,2010-08-23 11:21:51,1020.5007830064932,7,27,-1.099568486213684,3.7611045837402335,29.860890320806565,29.046833360538063,118.49950306197124,106.82132850586622,-0.0001618862152099,0.0897949114441871,0,0,0
10021,334837.9343818157,2010-08-23 11:22:21,1050.5158459387242,7,27,-1.099568486213684,3.755924224853516,29.860890320806565,29.0560015767252,118.49950306197124,106.85578642427116,-9.713172767078504e-05,0.0897949114441871,0,0,0
10022,334867.94962881174,2010-08-23 11:22:51,1080.5310929747989,7,27,-1.0997490882873535,3.750420331954956,29.860890320806565,29.06516995226114,118.49950306197124,106.89019669188704,-0.0001618862152099,0.0897949114441871,0,0,0
10023,334897.96476068575,2010-08-23 11:23:21,1110.5462248187791,7,27,-1.099568486213684,3.745563745498657,29.860890320806565,29.074338212770517,118.49950306197124,106.92455908777043,-9.713172767078504e-05,0.0897949114441871,0,0,0
10024,334927.97994667466,2010-08-23 11:23:51,1140.561410812718,7,27,-1.099568486213684,3.7403833866119385,29.860890320806565,29.083506509676003,118.49950306197124,106.9588746172604,-0.0001295089750783,0.0897949114441871,0,0,0
10025,334957.99512982153,2010-08-23 11:24:21,1170.5765939595608,7,27,-1.0997490882873535,3.73552680015564,29.860890320806565,29.092674822914343,118.49950306197124,106.99314467057262,-9.713172767078504e-05,0.0897949114441871,0,0,0
10026,334988.010462075,2010-08-23 11:24:51,1200.5919262130233,7,27,-1.099568486213684,3.730670213699341,29.860890320806565,29.101843219360656,118.49950306197124,107.02737013490876,-9.713172767078504e-05,0.0897949114441871,0,0,0
10027,335018.02550812013,2010-08-23 11:25:21,1230.606972253154,7,27,-1.0997490882873535,3.725813627243042,29.860890320806565,29.111011420695977,118.49950306197124,107.06155096002806,-0.0001618862152099,0.0897949114441871,0,0,0
10028,335048.0408319827,2010-08-23 11:25:51,1260.6222961257286,7,27,-1.099568486213684,3.721280813217163,29.860890320806565,29.120179729563077,118.49950306197124,107.09568938347611,-9.713172767078504e-05,0.0897949114441871,0,0,0
10029,335078.0558774965,2010-08-23 11:26:21,1290.6373416245103,7,27,-1.099568486213684,3.716424226760864,29.860890320806565,29.12934789666007,118.49950306197124,107.12978494066132,-0.0001295089750783,0.0897949114441871,0,0,0
10030,335108.07127510285,2010-08-23 11:26:51,1320.6527392408773,7,27,-1.0997490882873535,3.712215185165405,29.860890320806565,29.13851618826354,118.49950306197124,107.16383921540005,-9.713172767078504e-05,0.0897949114441871,0,0,0
10031,335138.08625202574,2010-08-23 11:27:21,1350.6677161637465,7,27,-1.099568486213684,3.7076823711395264,29.860890320806565,29.14768437122475,118.49950306197124,107.19785208161596,-0.0001295089750783,0.0897949114441871,0,0,0
10032,335168.1014230373,2010-08-23 11:27:51,1380.6828871753446,7,27,-1.099568486213684,3.7033114433288574,29.860890320806565,29.156852656501425,118.49950306197124,107.23182505187314,-0.0001295089750783,0.0897949114441871,0,0,0
10033,335198.1166419433,2010-08-23 11:28:21,1410.6981060662729,7,27,-1.0997490882873535,3.698940515518189,29.860890320806565,29.1660210074114,118.49950306197124,107.26575848586178,-0.0001618862152099,0.0897949114441871,0,0,0
10034,335228.1318205488,2010-08-23 11:28:51,1440.7132846968598,7,27,-1.0997490882873535,3.69489336013794,29.860890320806565,29.17518925611796,118.49950306197124,107.29965218698813,-6.47544875391759e-05,0.0897949114441871,0,0,0
10035,335258.14699829713,2010-08-23 11:29:21,1470.728462420186,7,27,-1.099568486213684,3.690684318542481,29.860890320806565,29.184357546363216,118.49950306197124,107.33350772694556,-9.713172767078504e-05,0.0897949114441871,0,0,0
10036,335288.1621705068,2010-08-23 11:29:51,1500.7436346448071,7,27,-1.099568486213684,3.686637163162232,29.860890320806565,29.19352581994277,118.49950306197124,107.36732510964022,-6.47544875391759e-05,0.0897949114441871,0,0,0
10037,335318.1773561147,2010-08-23 11:30:21,1530.7588202427587,7,27,-1.099568486213684,3.6822662353515625,29.860890320806565,29.20269408655837,118.49950306197124,107.40110524926212,-0.0001618862152099,0.0897949114441871,0,0,0
10038,335348.1925576173,2010-08-23 11:30:51,1560.7740217553749,7,27,-1.0997490882873535,3.678380966186523,29.860890320806565,29.211862427895056,118.49950306197124,107.43484904745978,-0.0001295089750783,0.0897949114441871,0,0,0
10039,335378.20773261884,2010-08-23 11:31:21,1590.7891967418798,7,27,-1.099929690361023,3.674495697021485,29.860890320806565,29.221030679492912,118.49950306197124,107.46855674696694,-0.0001295089750783,0.0897949114441871,0,0,0
10040,335408.2229312142,2010-08-23 11:31:51,1620.8043953673002,7,27,-1.0997490882873535,3.6707725524902335,29.860890320806565,29.23019896557077,118.49950306197124,107.50222951977987,-0.0001295089750783,0.0897949114441871,0,0,0
10041,335438.2381017747,2010-08-23 11:32:21,1650.8195658926863,7,27,-1.099568486213684,3.6672110557556152,29.860890320806565,29.23936727237232,118.49950306197124,107.53586820613285,-0.0001295089750783,0.0897949114441871,0,0,0
10042,335468.25330477604,2010-08-23 11:32:51,1680.8347689140628,7,27,-1.099568486213684,3.663811445236206,29.860890320806565,29.24853551975356,118.49950306197124,107.56947357789512,-6.47544875391759e-05,0.0897949114441871,0,0,0
10043,335498.26873448235,2010-08-23 11:33:21,1710.8501986254205,7,27,-1.099568486213684,3.659926176071167,29.860890320806565,29.257703896393103,118.49950306197124,107.60304628347332,-9.713172767078504e-05,0.0897949114441871,0,0,0
10044,335528.283672002,2010-08-23 11:33:51,1740.8651361350596,7,27,-1.099568486213684,3.656526565551758,29.860890320806565,29.266872097946795,118.49950306197124,107.63658587031556,-9.713172767078504e-05,0.0897949114441871,0,0,0
10045,335558.29885398096,2010-08-23 11:34:21,1770.8803181139915,7,27,-1.099568486213684,3.6531269550323486,29.860890320806565,29.276040347772856,118.49950306197124,107.67009369875976,-6.47544875391759e-05,0.0897949114441871,0,0,0
10046,335588.31417927204,2010-08-23 11:34:51,1800.8956434151269,7,27,-1.0997490882873535,3.64972734451294,29.860890320806565,29.28520874491961,118.49950306197124,107.70357062651183,-6.47544875391759e-05,0.0897949114441871,0,0,0
10047,335618.3292353522,2010-08-23 11:35:21,1830.910699510318,7,27,-1.0993878841400146,3.64616584777832,29.860890320806565,29.294377010735527,118.49950306197124,107.73701626947896,-0.0001295089750783,0.0897949114441871,0,0,0
10048,335648.34452506964,2010-08-23 11:35:51,1860.9259892127304,7,27,-1.099568486213684,3.643090009689331,29.860890320806565,29.30354520408425,118.49950306197124,107.7704316669161,-6.47544875391759e-05,0.0897949114441871,0,0,0
10049,335678.3595750797,2010-08-23 11:36:21,1890.941039237793,7,27,-1.099568486213684,3.640014171600342,29.860890320806565,29.312713368000946,118.49950306197124,107.80381812860318,-9.713172767078504e-05,0.0897949114441871,0,0,0
10050,335708.3748120507,2010-08-23 11:36:51,1920.956276178707,7,27,-1.0997490882873535,3.636938333511353,29.860890320806565,29.32188172476909,118.49950306197124,107.83717737681772,-0.0001295089750783,0.0897949114441871,0,0,0
10051,335738.39010634954,2010-08-23 11:37:21,1950.9715704876,7,27,-1.099568486213684,3.634186267852783,29.860890320806565,29.331050055770064,118.49950306197124,107.8705093874836,-3.237724376958795e-05,0.0897949114441871,0,0,0
10052,335768.4051749309,2010-08-23 11:37:51,1980.9866390939728,7,27,-1.0997490882873535,3.631272315979004,29.860890320806565,29.340218389932005,118.49950306197124,107.90381492818688,-6.47544875391759e-05,0.0897949114441871,0,0,0
10053,335798.4204807033,2010-08-23 11:38:21,2011.001944861424,7,27,-1.099568486213684,3.6285202503204346,29.860890320806565,29.349386751567707,118.49950306197124,107.93709477192655,-3.237724376958795e-05,0.0897949114441871,0,0,0
10054,335828.4355656554,2010-08-23 11:38:51,2041.0170297984976,7,27,-1.0993878841400146,3.6256062984466553,29.860890320806565,29.35855505448466,118.49950306197124,107.97034890552304,-9.713172767078504e-05,0.0897949114441871,0,0,0
10055,335858.4508331525,2010-08-23 11:39:21,2071.0322972855424,7,27,-1.099568486213684,3.622854232788086,29.860890320806565,29.367723362667142,118.49950306197124,108.00357791264793,-9.713172767078504e-05,0.0897949114441871,0,0,0
10056,335888.4658423709,2010-08-23 11:39:51,2101.0473065089145,7,27,-1.0997490882873535,3.620264053344727,29.860890320806565,29.376891045590497,118.49950306197124,108.03678003615669,-6.47544875391759e-05,0.0897949114441871,0,0,0
10057,335918.4810265603,2010-08-23 11:40:21,2131.0624906933435,7,27,-1.099568486213684,3.617673873901367,29.860890320806565,29.386058497692492,118.49950306197124,108.06995705657307,-6.47544875391759e-05,0.0897949114441871,0,0,0
10058,335948.4990103823,2010-08-23 11:40:51,2161.080474570468,7,27,-1.0997490882873535,3.614921808242798,29.860890320806565,29.39522698604994,118.49950306197124,108.10311327541878,-9.713172767078504e-05,0.0897949114441871,0,0,0
10059,335978.5114990086,2010-08-23 11:41:21,2191.0929631466115,7,27,-1.0997490882873535,3.6123316287994394,29.860890320806565,29.404393528615568,118.49950306197124,108.13623874864253,-3.237724376958795e-05,0.0897949114441871,0,0,0
10060,336008.526626998,2010-08-23 11:41:51,2221.1080911309723,7,27,-1.099568486213684,3.609741449356079,29.860890320806565,29.413561015120283,118.49950306197124,108.1693435284662,-6.47544875391759e-05,0.0897949114441871,0,0,0
10061,336038.54184933746,2010-08-23 11:42:21,2251.123313470496,7,27,-1.0993878841400146,3.6073131561279297,29.860890320806565,29.42272854823048,118.49950306197124,108.20242448123471,-3.237724376958795e-05,0.0897949114441871,0,0,0
10062,336068.5571854205,2010-08-23 11:42:51,2281.138649578565,7,27,-1.0997490882873535,3.6043992042541504,29.860890320806565,29.431896469940583,118.49950306197124,108.23548244498843,-9.713172767078504e-05,0.0897949114441871,0,0,0
10063,336098.5721610752,2010-08-23 11:43:21,2311.153625213224,7,27,-1.099568486213684,3.601809024810791,29.860890320806565,29.44106465281616,118.49950306197124,108.26851681698952,-6.47544875391759e-05,0.0897949114441871,0,0,0
10064,336128.5873471293,2010-08-23 11:43:51,2341.1688112673123,7,27,-1.099568486213684,3.5990569591522217,29.860890320806565,29.45023286726511,118.49950306197124,108.30152662345029,-6.47544875391759e-05,0.0897949114441871,0,0,0
10065,336158.6025327723,2010-08-23 11:44:21,2371.1839969103767,7,27,-1.0993878841400146,3.5964667797088623,29.860890320806565,29.459401123911142,118.49950306197124,108.3345117723804,-6.47544875391759e-05,0.0897949114441871,0,0,0
10066,336188.61773190903,2010-08-23 11:44:51,2401.1991960470714,7,27,-1.099568486213684,3.593552827835083,29.860890320806565,29.46856931843172,118.49950306197124,108.3674715573154,-9.713172767078504e-05,0.0897949114441871,0,0,0
10067,336218.6329050609,2010-08-23 11:45:21,2431.2143691939914,7,27,-1.099568486213684,3.5909628868103027,29.860890320806565,29.47773752352,118.49950306197124,108.40040589740718,-6.47544875391759e-05,0.0897949114441871,0,0,0
10068,336248.64823880314,2010-08-23 11:45:52,2461.2297029712518,7,27,-1.0997490882873535,3.5880489349365234,29.860890320806565,29.48690583880904,118.49950306197124,108.4333144150746,-6.47544875391759e-05,0.0897949114441871,0,0,0
10069,336278.66366716113,2010-08-23 11:46:22,2491.2451312991607,7,27,-1.099929690361023,3.584811210632324,29.860890320806565,29.4960741395485,118.49950306197124,108.46619632362888,-0.0001295089750783,0.0897949114441871,0,0,0
10070,336308.67859831994,2010-08-23 11:46:52,2521.26006245296,7,27,-1.0997490882873535,3.582059144973755,29.860890320806565,29.505242281276235,118.49950306197124,108.49905026198716,-9.713172767078504e-05,0.0897949114441871,0,0,0
10071,336338.69365531736,2010-08-23 11:47:22,2551.2751194504,7,27,-1.099568486213684,3.578821420669556,29.860890320806565,29.514410508556487,118.49950306197124,108.53187628947518,-9.713172767078504e-05,0.0897949114441871,0,0,0
10072,336368.70882365736,2010-08-23 11:47:52,2581.290287790339,7,27,-1.099568486213684,3.5757455825805664,29.860890320806565,29.52357876812924,118.49950306197124,108.56467368064948,-6.47544875391759e-05,0.0897949114441871,0,0,0
10073,336398.72404171113,2010-08-23 11:48:22,2611.3055058692435,7,27,-1.099568486213684,3.572507858276367,29.860890320806565,29.53274699595139,118.49950306197124,108.59744173617226,-6.47544875391759e-05,0.0897949114441871,0,0,0
10074,336428.7391981063,2010-08-23 11:48:52,2641.3206622393504,7,27,-1.099568486213684,3.569270133972168,29.860890320806565,29.541915243221283,118.49950306197124,108.63017998359176,-6.47544875391759e-05,0.0897949114441871,0,0,0
10075,336458.75438765413,2010-08-23 11:49:22,2671.335851812209,7,27,-1.099568486213684,3.565870523452759,29.860890320806565,29.55108347340757,118.49950306197124,108.66288730611352,-6.47544875391759e-05,0.0897949114441871,0,0,0
10076,336488.76967794297,2010-08-23 11:49:52,2701.35114207602,7,27,-1.099568486213684,3.5621471405029297,29.860890320806565,29.560251683298542,118.49950306197124,108.69556271989302,-9.713172767078504e-05,0.0897949114441871,0,0,0
10077,336518.784862784,2010-08-23 11:50:22,2731.3663269271105,7,27,-1.099568486213684,3.5587475299835205,29.860890320806565,29.56941984158964,118.49950306197124,108.7282056626804,-6.47544875391759e-05,0.0897949114441871,0,0,0
10078,336548.8000642315,2010-08-23 11:50:52,2761.381528364539,7,27,-1.099568486213684,3.554862260818481,29.860890320806565,29.578588090983487,118.49950306197124,108.76081496847634,-9.713172767078504e-05,0.0897949114441871,0,0,0
10079,336578.81510807615,2010-08-23 11:51:22,2791.3965722091984,7,27,-1.0997490882873535,3.5509769916534424,29.860890320806565,29.587756264443843,118.49950306197124,108.79338893263645,-0.0001295089750783,0.0897949114441871,0,0,0
10080,336608.830291629,2010-08-23 11:51:52,2821.4117557670656,7,27,-1.0993878841400146,3.5474154949188232,29.860890320806565,29.59692450070092,118.49950306197124,108.8259274545188,-3.237724376958795e-05,0.0897949114441871,0,0,0
10081,336638.84547511174,2010-08-23 11:52:22,2851.426939244733,7,27,-1.099568486213684,3.5427207946777344,29.860890320806565,29.606092751746232,118.49950306197124,108.85842880845183,-0.0001295089750783,0.0897949114441871,0,0,0
10082,336668.8606938222,2010-08-23 11:52:52,2881.4421579752616,7,27,-1.0997490882873535,3.5385117530822754,29.860890320806565,29.615260993501906,118.49950306197124,108.89089116163404,-0.0001295089750783,0.0897949114441871,0,0,0
10083,336698.87584131514,2010-08-23 11:53:22,2911.4573054532066,7,27,-1.0997490882873535,3.5341408252716064,29.860890320806565,29.62442931929299,118.49950306197124,108.92331371652428,-9.713172767078504e-05,0.0897949114441871,0,0,0
10084,336728.89114629565,2010-08-23 11:53:52,2941.472610428684,7,27,-1.099929690361023,3.5294461250305176,29.860890320806565,29.633597653401683,118.49950306197124,108.95569510387662,-0.0001618862152099,0.0897949114441871,0,0,0
10085,336758.90558213496,2010-08-23 11:54:22,2971.4870462629938,7,27,-1.0993878841400146,3.5249133110046387,29.860890320806565,29.642761111977176,118.49950306197124,108.98801681227395,-0.0001295089750783,0.0897949114441871,0,0,0
10086,336788.9059035969,2010-08-23 11:54:52,3001.487367739983,7,27,-1.0997490882873535,3.51989483833313,29.860890320806565,29.65192937990736,118.49950306197124,109.02031108743698,-0.0001295089750783,0.0897949114441871,0,0,0
10087,336818.92109825247,2010-08-23 11:55:22,3031.5025623854835,7,27,-1.099568486213684,3.514714479446411,29.860890320806565,29.661097657932096,118.49950306197124,109.05255943869504,-0.0001618862152099,0.0897949114441871,0,0,0
10088,336848.9361346235,2010-08-23 11:55:52,3061.517598761529,7,27,-1.099568486213684,3.5095343589782715,29.860890320806565,29.67026587234105,118.49950306197124,109.08475943779212,-0.0001295089750783,0.0897949114441871,0,0,0
10089,336878.951318046,2010-08-23 11:56:22,3091.5327821790465,7,27,-1.099568486213684,3.503544569015503,29.860890320806565,29.679434133157763,118.49950306197124,109.11690846040143,-0.0001942634553415,0.0897949114441871,0,0,0
10090,336908.9666066306,2010-08-23 11:56:52,3121.548070768685,7,27,-1.099568486213684,3.4973928928375244,29.860890320806565,29.688602478847784,118.49950306197124,109.14900263837092,-0.0001618862152099,0.0897949114441871,0,0,0
10091,336938.9816985952,2010-08-23 11:57:22,3151.563162758336,7,27,-1.099929690361023,3.490431785583496,29.860890320806565,29.697770746312973,118.49950306197124,109.18103698438632,-0.0002266406954731,0.0897949114441871,0,0,0
10092,336968.9969631149,2010-08-23 11:57:52,3181.578427277985,7,27,-1.0997490882873535,3.482823133468628,29.860890320806565,29.70693905572709,118.49950306197124,109.21300517431858,-0.0002266406954731,0.0897949114441871,0,0,0
10093,336999.0120677962,2010-08-23 11:58:22,3211.5935319342057,7,27,-1.099568486213684,3.47408127784729,29.860890320806565,29.716107244664517,118.49950306197124,109.24489766826682,-0.0002266406954731,0.0897949114441871,0,0,0
10094,337029.0272784415,2010-08-23 11:58:52,3241.608742574571,7,27,-1.0997490882873535,3.4638824462890625,29.860890320806565,29.7252755189735,118.49950306197124,109.27670379269708,-0.0003237724304199,0.0897949114441871,0,0,0
10095,337059.0426559077,2010-08-23 11:59:22,3271.624120040717,7,27,-1.099568486213684,3.451579093933105,29.860890320806565,29.73444380294293,118.49950306197124,109.30840759352262,-0.0003561496851034,0.0897949114441871,0,0,0
10096,337089.0577422432,2010-08-23 11:59:52,3301.6392063863013,7,27,-1.0997490882873535,3.436361789703369,29.860890320806565,29.74361209607552,118.49950306197124,109.33998628557848,-0.0004532813909463,0.0897949114441871,0,0,0
10097,337119.072791737,2010-08-23 12:00:22,3331.6542558700144,7,27,-1.0997490882873535,3.416611909866333,29.860890320806565,29.752780338841248,118.49950306197124,109.3714053937428,-0.0005827903514727,0.0897949114441871,0,0,0
10098,337149.0879952847,2010-08-23 12:00:52,3361.6694594377527,7,27,-1.0993878841400146,3.3897387981414795,29.860890320806565,29.76194863020253,118.49950306197124,109.4026130928373,-0.0007770538213662,0.0897949114441871,0,0,0
10099,337179.1031747724,2010-08-23 12:01:22,3391.6846389104385,7,27,-1.0997490882873535,3.3513717651367188,29.860890320806565,29.771116879671983,118.49950306197124,109.43352586492544,-0.0011655807029455,0.0897949114441871,0,0,0
10100,337209.11834961857,2010-08-23 12:01:52,3421.6998137515807,7,27,-1.0997490882873535,3.296492576599121,29.860890320806565,29.780285131578182,118.49950306197124,109.46401693868616,-0.0016836166614666,0.0897949114441871,0,0,0
10101,337239.1335589958,2010-08-23 12:02:22,3451.7150231338105,7,27,-1.0997490882873535,3.21490216255188,29.860890320806565,29.78945338245664,118.49950306197124,109.49389069160289,-0.0025901794433593,0.0897949114441871,0,0,0
10102,337269.14883680857,2010-08-23 12:02:52,3481.7303009415778,7,27,-1.099568486213684,3.0855555534362797,29.860890320806565,29.798621681991182,118.49950306197124,109.52282257163176,-0.0042414190247654,0.0897949114441871,0,0,0
10103,337293.8203793538,2010-08-23 12:03:17,3506.4018434968693,7,27,-1.0997490882873535,2.885302782058716,29.860890320806565,29.8061577010456,118.49950306197124,109.54542146559838,-0.0090008731931447,0.0897949114441871,0,0,0
10104,337306.3826627995,2010-08-23 12:03:29,3518.964126937521,7,27,-1.0997490882873535,2.699296236038208,29.860890320806565,29.809994908932637,118.49950306197124,109.5561559459554,-0.013145113363862,0.0897949114441871,0,0,0
10105,337366.4052023891,2010-08-23 12:04:29,60.014696118788365,8,27,0.0,3.4054417610168457,29.860890320806565,29.809994908932637,118.49950306197124,109.5561559459554,0.0011332035064697,0.0897949114441871,0,0,0
10106,337366.60139635485,2010-08-23 12:04:30,0.187351161741571,9,27,-1.9243103452026844e-05,3.405603647232056,29.860890320806565,29.809994909934083,118.49950306197124,109.55615594936594,0.0,0.0858275592327117,0,0,0
10107,337371.42945777945,2010-08-23 12:04:35,5.015412576344119,9,27,0.0007031940040178,3.412726640701294,29.86089125304247,29.809994910017256,118.49950624067982,109.5561559496492,0.0010036944877356,0.0858275592327117,0,0,0
