Data_Point,Test_Time(s),Date_Time,Step_Time(s),Step_Index,Cycle_Index,Current(A),Voltage(V),Charge_Capacity(Ah),Discharge_Capacity(Ah),Charge_Energy(Wh),Discharge_Energy(Wh),dV/dt(V/s),Internal_Resistance(Ohm),Is_FC_Data,AC_Impedance(Ohm),ACI_Phase_Angle(Deg)
2021,69324.99968469993,2010-09-08 05:59:19,30.015345525176304,1,7,0.0,3.4551405906677246,5.884226958939597,6.175462988073991,23.48787621480339,22.598888511016103,0.0007122993702068,0.0890663415193557,0,0,0
2022,69355.0148284715,2010-09-08 05:59:49,60.03048930676959,1,7,0.0,3.4758620262146,5.884226958939597,6.175462988073991,23.48787621480339,22.598888511016103,0.0004856586456298,0.0890663415193557,0,0,0
2023,69385.0301065032,2010-09-08 06:00:19,90.04576731842177,1,7,0.0,3.490755558013916,5.884226958939597,6.175462988073991,23.48787621480339,22.598888511016103,0.0002913951757363,0.0890663415193557,0,0,0
2024,69414.99859683058,2010-09-08 06:00:49,120.0142576508284,1,7,0.0,3.502735137939453,5.884226958939597,6.175462988073991,23.48787621480339,22.598888511016103,0.0003237724304199,0.0890663415193557,0,0,0
2025,69445.01683623016,2010-09-08 06:01:19,30.015255169634973,2,7,0.5501165986061096,3.633214950561523,5.888813634527621,6.175462988073991,23.504411791940083,22.598888511016103,0.0012627125252038,0.0890663415193557,0,0,0
2026,69475.03210982078,2010-09-08 06:01:49,60.030528735188994,2,7,0.550297200679779,3.671743869781494,5.893400266268005,6.175462988073991,23.521169942534105,22.598888511016103,0.0009065627818927,0.0890663415193557,0,0,0
2027,69505.04750104001,2010-09-08 06:02:19,90.04591995442469,2,7,0.5501165986061096,3.699911832809448,5.897986836144559,6.175462988073991,23.538077845190497,22.598888511016103,0.0006475448608398,0.0890663415193557,0,0,0
2028,69535.06289113643,2010-09-08 06:02:49,120.06131005085771,2,7,0.5499359965324402,3.722090244293213,5.902573456841571,6.175462988073991,23.55510078459403,22.598888511016103,0.0005180359003134,0.0890663415193557,0,0,0
2029,69565.07791835708,2010-09-08 06:03:19,150.07633727149693,2,7,0.550297200679779,3.7398977279663086,5.907159939684065,6.175462988073991,23.572214712690144,22.598888511016103,0.0003885269106831,0.0890663415193557,0,0,0
2030,69595.09320016822,2010-09-08 06:03:49,180.09161910268324,2,7,0.5501165986061096,3.7531721591949454,5.911746512386352,6.175462988073991,23.589400500827256,22.598888511016103,0.0002913475036621,0.0890663415193557,0,0,0
2031,69625.10861769311,2010-09-08 06:04:19,210.10703660753188,2,7,0.550297200679779,3.761752128601074,5.916333076700916,6.175462988073991,23.60663592879398,22.598888511016103,0.0002266406954731,0.0890663415193557,0,0,0
2032,69655.12373436704,2010-09-08 06:04:49,240.12215328146024,2,7,0.5499359965324402,3.766446828842163,5.920919606891722,6.175462988073991,23.62390082053916,22.598888511016103,6.47544875391759e-05,0.0890663415193557,0,0,0
2033,69685.13913175167,2010-09-08 06:05:19,270.13755066608576,2,7,0.550297200679779,3.770170211791992,5.925506252798702,6.175462988073991,23.641185232765288,22.598888511016103,9.713172767078504e-05,0.0890663415193557,0,0,0
2034,69715.15426010475,2010-09-08 06:05:49,300.15267901916707,2,7,0.5501165986061096,3.773407936096192,5.93009279042379,6.175462988073991,23.65848456341816,22.598888511016103,6.47544875391759e-05,0.0890663415193557,0,0,0
2035,69745.16966453697,2010-09-08 06:06:19,330.1680834614094,2,7,0.550297200679779,3.7764837741851807,5.934679322681527,6.175462988073991,23.67579852809252,22.598888511016103,6.47544875391759e-05,0.0890663415193557,0,0,0
2036,69775.18482727086,2010-09-08 06:06:49,360.18324618528555,2,7,0.5501165986061096,3.77972149848938,5.939265810829357,6.175462988073991,23.6931267912374,22.598888511016103,9.713172767078504e-05,0.0890663415193557,0,0,0
2037,69805.20009442543,2010-09-08 06:07:19,390.1985133398367,2,7,0.5501165986061096,3.782797336578369,5.943852391537641,6.175462988073991,23.710469859409866,22.598888511016103,3.237724376958795e-05,0.0890663415193557,0,0,0
2038,69835.21546301317,2010-09-08 06:07:49,420.2138819275808,2,7,0.5501165986061096,3.7858731746673584,5.948438924124686,6.175462988073991,23.727827167690176,22.598888511016103,3.237724376958795e-05,0.0890663415193557,0,0,0
2039,69865.23061583734,2010-09-08 06:08:19,450.2290347517457,2,7,0.5501165986061096,3.788949012756348,5.953025482251674,6.175462988073991,23.7451989360598,22.598888511016103,3.237724376958795e-05,0.0890663415193557,0,0,0
2040,69895.24853618465,2010-09-08 06:08:49,480.2469550990742,2,7,0.5501165986061096,3.792186737060547,5.957612430356432,6.175462988073991,23.762586457903204,22.598888511016103,6.47544875391759e-05,0.0890663415193557,0,0,0
2041,69925.26117875785,2010-09-08 06:09:20,510.25959776750426,2,7,0.5501165986061096,3.795262575149536,5.962198521609444,6.175462988073991,23.779984910997005,22.598888511016103,3.237724376958795e-05,0.0890663415193557,0,0,0
2042,69955.27642124583,2010-09-08 06:09:50,540.2748401602461,2,7,0.550297200679779,3.798338413238525,5.966785066666088,6.175462988073991,23.79739912720078,22.598888511016103,9.713172767078504e-05,0.0890663415193557,0,0,0
2043,69985.29168318235,2010-09-08 06:10:20,570.2901020967723,2,7,0.5501165986061096,3.801414251327514,5.971371595598017,6.175462988073991,23.81482728788048,22.598888511016103,6.47544875391759e-05,0.0890663415193557,0,0,0
2044,70015.3070119507,2010-09-08 06:10:50,600.3054309854213,2,7,0.5501165986061096,3.804490089416504,5.975958157162468,6.175462988073991,23.832269393367305,22.598888511016103,9.713172767078504e-05,0.0890663415193557,0,0,0
2045,70045.32222412802,2010-09-08 06:11:20,630.3206430424406,2,7,0.5501165986061096,3.807404041290283,5.980544701193087,6.175462988073991,23.84972549646666,22.598888511016103,9.713172767078504e-05,0.0890663415193557,0,0,0
2046,70075.33752455564,2010-09-08 06:11:50,660.3359434700463,2,7,0.5501165986061096,3.8106417655944815,5.985131212274722,6.175462988073991,23.86719557592566,22.598888511016103,0.0001295089750783,0.0890663415193557,0,0,0
2047,70105.35276693334,2010-09-08 06:12:20,690.3511858477508,2,7,0.550297200679779,3.8138794898986816,5.989717756241481,6.175462988073991,23.8846802174902,22.598888511016103,9.713172767078504e-05,0.0890663415193557,0,0,0
2048,70135.37041253987,2010-09-08 06:12:50,720.3688315495217,2,7,0.5501165986061096,3.817117214202881,5.994304609874056,6.175462988073991,23.902180956693723,22.598888511016103,9.713172767078504e-05,0.0890663415193557,0,0,0
2049,70165.38331217975,2010-09-08 06:13:20,750.3817311893919,2,7,0.5501165986061096,3.82051682472229,5.998890737742032,6.175462988073991,23.91969393647385,22.598888511016103,0.0001295089750783,0.0890663415193557,0,0,0
2050,70195.39858026663,2010-09-08 06:13:50,780.3969991860452,2,7,0.5499359965324402,3.8235926628112793,6.003477256752367,6.175462988073991,23.937223772843552,22.598888511016103,6.47544875391759e-05,0.0890663415193557,0,0,0
2051,70225.41385963667,2010-09-08 06:14:20,810.4122785510755,2,7,0.5501165986061096,3.827316045761109,6.00806375862415,6.175462988073991,23.95476931876143,22.598888511016103,9.713172767078504e-05,0.0890663415193557,0,0,0
2052,70255.42911734764,2010-09-08 06:14:50,840.4275362670666,2,7,0.5499359965324402,3.830553770065308,6.012650263057069,6.175462988073991,23.972330748149545,22.598888511016103,9.713172767078504e-05,0.0890663415193557,0,0,0
2053,70285.44461536346,2010-09-08 06:15:20,870.4430343680958,2,7,0.5499359965324402,3.8339531421661377,6.017236818449241,6.175462988073991,23.989908341379905,22.598888511016103,6.47544875391759e-05,0.0890663415193557,0,0,0
2054,70315.45965983716,2010-09-08 06:15:50,900.458078751576,2,7,0.5499359965324402,3.837514638900757,6.02182323227264,6.175462988073991,24.00750120309621,22.598888511016103,6.47544875391759e-05,0.0890663415193557,0,0,0
2055,70345.47487769868,2010-09-08 06:16:20,930.473296613084,2,7,0.5501165986061096,3.841076135635376,6.026409706637325,6.175462988073991,24.025109955384345,22.598888511016103,0.0001295089750783,0.0890663415193557,0,0,0
2056,70375.49016290328,2010-09-08 06:16:50,960.4885818126786,2,7,0.5499359965324402,3.844313859939575,6.030996129528662,6.175462988073991,24.04273389159004,22.598888511016103,9.713172767078504e-05,0.0890663415193557,0,0,0
2057,70405.5054280077,2010-09-08 06:17:20,990.5038469221248,2,7,0.5501165986061096,3.847713470458984,6.035582601144441,6.175462988073991,24.06037304964597,22.598888511016103,0.0001295089750783,0.0890663415193557,0,0,0
2058,70435.52071239529,2010-09-08 06:17:50,1020.5191313297422,2,7,0.5499359965324402,3.850627422332764,6.040169102713615,6.175462988073991,24.078027123832108,22.598888511016103,3.237724376958795e-05,0.0890663415193557,0,0,0
2059,70465.53595624166,2010-09-08 06:18:20,1050.5343751560629,2,7,0.5501165986061096,3.853865146636963,6.044755639677843,6.175462988073991,24.095695761070328,22.598888511016103,9.713172767078504e-05,0.0890663415193557,0,0,0
2060,70495.55146200181,2010-09-08 06:18:50,1080.5498809162102,2,7,0.5501165986061096,3.857102870941162,6.049342163847644,6.175462988073991,24.11337850628196,22.598888511016103,0.0001295089750783,0.0890663415193557,0,0,0
2061,70525.56650674116,2010-09-08 06:19:20,1110.5649256555787,2,7,0.5501165986061096,3.8596930503845215,6.053928632023792,6.175462988073991,24.131074868402973,22.598888511016103,3.237724376958795e-05,0.0890663415193557,0,0,0
2062,70555.58177200098,2010-09-08 06:19:50,1140.5801909154004,2,7,0.5501165986061096,3.862607002258301,6.058515091879175,6.175462988073991,24.14878452022673,22.598888511016103,6.47544875391759e-05,0.0890663415193557,0,0,0
2063,70585.59704191743,2010-09-08 06:20:20,1170.5954608318457,2,7,0.5501165986061096,3.86535906791687,6.063101607784663,6.175462988073991,24.16650720600384,22.598888511016103,6.47544875391759e-05,0.0890663415193557,0,0,0
2064,70615.61231620981,2010-09-08 06:20:50,1200.6107351242138,2,7,0.5499359965324402,3.8679492473602295,6.067688043709812,6.175462988073991,24.184241794573293,22.598888511016103,6.47544875391759e-05,0.0890663415193557,0,0,0
2065,70645.62764200573,2010-09-08 06:21:20,1230.6260609201431,2,7,0.5501165986061096,3.870377540588379,6.072274592447784,6.175462988073991,24.201988364205597,22.598888511016103,3.237724376958795e-05,0.0890663415193557,0,0,0
2066,70675.64283868436,2010-09-08 06:21:50,1260.6412575987754,2,7,0.5501165986061096,3.872805833816528,6.076861056523238,6.175462988073991,24.219745537750487,22.598888511016103,6.47544875391759e-05,0.0890663415193557,0,0,0
2067,70705.65823131714,2010-09-08 06:22:20,1290.6566502315395,2,7,0.5501165986061096,3.874910354614258,6.081447662957167,6.175462988073991,24.23751346131809,22.598888511016103,3.237724376958795e-05,0.0890663415193557,0,0,0
2068,70735.67338924904,2010-09-08 06:22:50,1320.671808163454,2,7,0.5501165986061096,3.876852989196777,6.086034102887609,6.175462988073991,24.255290182322,22.598888511016103,3.237724376958795e-05,0.0890663415193557,0,0,0
2069,70765.68877676403,2010-09-08 06:23:20,1350.6871957736812,2,7,0.5501165986061096,3.878795623779297,6.090620703924039,6.175462988073991,24.273076405037912,22.598888511016103,6.47544875391759e-05,0.0890663415193557,0,0,0
2070,70795.70390667098,2010-09-08 06:23:50,1380.7023255854035,2,7,0.5501165986061096,3.8805763721466064,6.095207198775614,6.175462988073991,24.29087023474291,22.598888511016103,6.47544875391759e-05,0.0890663415193557,0,0,0
2071,70825.71918240195,2010-09-08 06:24:20,1410.7176013163628,2,7,0.5499359965324402,3.882033348083496,6.099793693966084,6.175462988073991,24.308671594471463,22.598888511016103,3.237724376958795e-05,0.0890663415193557,0,0,0
2072,70855.73446812786,2010-09-08 06:24:50,1440.732887062321,2,7,0.5501165986061096,3.8834903240203857,6.104380204721902,6.175462988073991,24.3264799539308,22.598888511016103,3.237724376958795e-05,0.0890663415193557,0,0,0
2073,70885.74984552259,2010-09-08 06:25:20,1470.7482644470235,2,7,0.5499359965324402,3.8847854137420654,6.108966722813396,6.175462988073991,24.344294736035906,22.598888511016103,3.237724376958795e-05,0.0890663415193557,0,0,0
2074,70915.76499801592,2010-09-08 06:25:50,1500.7634169303376,2,7,0.550297200679779,3.886242389678955,6.113553229936789,6.175462988073991,24.36211547851292,22.598888511016103,6.47544875391759e-05,0.0890663415193557,0,0,0
2075,70945.78037684924,2010-09-08 06:26:20,1530.7787957636565,2,7,0.5501165986061096,3.887375593185425,6.118139796556095,6.175462988073991,24.379942172411532,22.598888511016103,3.237724376958795e-05,0.0890663415193557,0,0,0
2076,70975.79552367343,2010-09-08 06:26:50,1560.7939425878444,2,7,0.5501165986061096,3.8885087966918954,6.12272631307724,6.175462988073991,24.39777415662157,22.598888511016103,3.237724376958795e-05,0.0890663415193557,0,0,0
2077,71005.81117126762,2010-09-08 06:27:20,1590.8095903023316,2,7,0.5501165986061096,3.889803886413574,6.127312983344752,6.175462988073991,24.41561210743737,22.598888511016103,6.47544875391759e-05,0.0890663415193557,0,0,0
2078,71035.82606651382,2010-09-08 06:27:50,1620.824485518467,2,7,0.5501165986061096,3.890775203704834,6.131899569567465,6.175462988073991,24.433454812345698,22.598888511016103,3.237724376958795e-05,0.0890663415193557,0,0,0
2079,71065.84133393905,2010-09-08 06:28:20,1650.8397528534688,2,7,0.5501165986061096,3.891908407211304,6.136486154172866,6.175462988073991,24.45130260729925,22.598888511016103,3.237724376958795e-05,0.0890663415193557,0,0,0
2080,71095.85659521393,2010-09-08 06:28:50,1680.855014128343,2,7,0.5501165986061096,3.893041610717773,6.141072783910632,6.175462988073991,24.46915560872964,22.598888511016103,3.237724376958795e-05,0.0890663415193557,0,0,0
2081,71125.87185239358,2010-09-08 06:29:20,1710.8702713079958,2,7,0.5501165986061096,3.894012928009033,6.145659361472721,6.175462988073991,24.48701346034852,22.598888511016103,3.237724376958795e-05,0.0890663415193557,0,0,0
2082,71155.88711797421,2010-09-08 06:29:50,1740.885536888618,2,7,0.5501165986061096,3.894822359085083,6.150245964054521,6.175462988073991,24.504876265033165,22.598888511016103,0.0,0.0890663415193557,0,0,0
2083,71185.90238472274,2010-09-08 06:30:20,1770.9008036622183,2,7,0.5501165986061096,3.8961174488067623,6.154832515575959,6.175462988073991,24.52274341948154,22.598888511016103,3.237724376958795e-05,0.0890663415193557,0,0,0
2084,71215.91765900007,2010-09-08 06:30:50,1800.9160779144866,2,7,0.550297200679779,3.897250652313232,6.159419115563549,6.175462988073991,24.540615967927444,22.598888511016103,3.237724376958795e-05,0.0890663415193557,0,0,0
2085,71245.93304475567,2010-09-08 06:31:20,1830.9314636951467,2,7,0.5501165986061096,3.898383855819702,6.164005721657335,6.175462988073991,24.558493516401967,22.598888511016103,3.237724376958795e-05,0.0890663415193557,0,0,0
2086,71275.94821228654,2010-09-08 06:31:50,1860.9466312009592,2,7,0.5501165986061096,3.899517059326172,6.168592254911981,6.175462988073991,24.576375852768702,22.598888511016103,3.237724376958795e-05,0.0890663415193557,0,0,0
2087,71305.96344796753,2010-09-08 06:32:20,1890.961866881948,2,7,0.550297200679779,3.900488376617432,6.173178769620376,6.175462988073991,24.59426315000987,22.598888511016103,3.237724376958795e-05,0.0890663415193557,0,0,0
2088,71335.9787211421,2010-09-08 06:32:50,1920.9771400565253,2,7,0.5501165986061096,3.901621580123901,6.177765250561897,6.175462988073991,24.61215540361773,22.598888511016103,0.0,0.0890663415193557,0,0,0
2089,71365.99397709871,2010-09-08 06:33:20,1950.992396013125,2,7,0.5501165986061096,3.902754783630371,6.182351801686312,6.175462988073991,24.63005305653516,22.598888511016103,3.237724376958795e-05,0.0890663415193557,0,0,0
2090,71396.00924195252,2010-09-08 06:33:50,1981.0076608669333,2,7,0.5501165986061096,3.903887987136841,6.186938401840703,6.175462988073991,24.6479559933711,22.598888511016103,3.237724376958795e-05,0.0890663415193557,0,0,0
2091,71426.02463427451,2010-09-08 06:34:20,2011.0230531889213,2,7,0.5501165986061096,3.905021190643311,6.191525010946729,6.175462988073991,24.665864149631208,22.598888511016103,3.237724376958795e-05,0.0890663415193557,0,0,0
2092,71456.04000695747,2010-09-08 06:34:50,2041.038425871888,2,7,0.5501165986061096,3.9059925079345694,6.196111621925923,6.175462988073991,24.683777397164796,22.598888511016103,0.0,0.0890663415193557,0,0,0
2093,71486.05520205214,2010-09-08 06:35:20,2071.0536209966417,2,7,0.5501165986061096,3.90728759765625,6.200698140372148,6.175462988073991,24.7016955865763,22.598888511016103,6.47544875391759e-05,0.0890663415193557,0,0,0
2094,71516.07030983889,2010-09-08 06:35:50,2101.068728753311,2,7,0.5501165986061096,3.9085826873779297,6.205284626518535,6.175462988073991,24.71961894214964,22.598888511016103,9.713172767078504e-05,0.0890663415193557,0,0,0
2095,71546.08570196539,2010-09-08 06:36:20,2131.084120884824,2,7,0.5501165986061096,3.9097158908844,6.209871186429269,6.175462988073991,24.73754799758532,22.598888511016103,6.47544875391759e-05,0.0890663415193557,0,0,0
2096,71576.1008574512,2010-09-08 06:36:50,2161.0992763656204,2,7,0.5501165986061096,3.910849094390869,6.214457732928447,6.175462988073991,24.75548240415491,22.598888511016103,3.237724376958795e-05,0.0890663415193557,0,0,0
2097,71606.11623456523,2010-09-08 06:37:20,2191.114653489672,2,7,0.5501165986061096,3.912144184112549,6.219044284044399,6.175462988073991,24.77342229809328,22.598888511016103,6.47544875391759e-05,0.0890663415193557,0,0,0
2098,71636.13136919399,2010-09-08 06:37:50,2221.1297881083938,2,7,0.5499359965324402,3.9132773876190186,6.223629965405917,6.175462988073991,24.79136425035165,22.598888511016103,6.47544875391759e-05,0.0890663415193557,0,0,0
2099,71666.14665012292,2010-09-08 06:38:20,2251.145069057378,2,7,0.5501165986061096,3.914572238922119,6.228215570464464,6.175462988073991,24.80931152435159,22.598888511016103,6.47544875391759e-05,0.0890663415193557,0,0,0
2100,71696.16195140265,2010-09-08 06:38:50,2281.1603703421238,2,7,0.5501165986061096,3.915705442428589,6.232802052591365,6.175462988073991,24.827268037591946,22.598888511016103,3.237724376958795e-05,0.0890663415193557,0,0,0
2101,71726.17720164498,2010-09-08 06:39:20,2311.175620559396,2,7,0.5501165986061096,3.917000532150269,6.237388584409031,6.175462988073991,24.845230402709745,22.598888511016103,0.0,0.0890663415193557,0,0,0
2102,71756.19246337099,2010-09-08 06:39:50,2341.190882305447,2,7,0.5501165986061096,3.918295621871948,6.241975111675392,6.175462988073991,24.86319867307536,22.598888511016103,3.237724376958795e-05,0.0890663415193557,0,0,0
2103,71786.20774527737,2010-09-08 06:40:20,2371.2061641917708,2,7,0.5499359965324402,3.919428825378418,6.246561623293285,6.175462988073991,24.881172789160583,22.598888511016103,3.237724376958795e-05,0.0890663415193557,0,0,0
2104,71816.2255025777,2010-09-08 06:40:50,2401.223921587347,2,7,0.5499359965324402,3.9207239151000977,6.251148533990138,6.175462988073991,24.89915449004697,22.598888511016103,0.0,0.0890663415193557,0,0,0
2105,71846.23827304514,2010-09-08 06:41:21,2431.236692054783,2,7,0.5501165986061096,3.9221808910369873,6.255734678261483,6.175462988073991,24.91713915623544,22.598888511016103,3.237724376958795e-05,0.0890663415193557,0,0,0
2106,71876.25354327235,2010-09-08 06:41:51,2461.2519621867664,2,7,0.5501165986061096,3.923475980758667,6.260321222591538,6.175462988073991,24.9351315093146,22.598888511016103,0.0,0.0890663415193557,0,0,0
2107,71906.2689732734,2010-09-08 06:42:21,2491.267392187807,2,7,0.550297200679779,3.9247710704803462,6.264907772514532,6.175462988073991,24.95312997949164,22.598888511016103,0.0,0.0890663415193557,0,0,0
2108,71936.28412616272,2010-09-08 06:42:51,2521.2825459593373,2,7,0.5499359965324402,3.926228046417236,6.269494341471796,6.175462988073991,24.97113469527541,22.598888511016103,6.47544875391759e-05,0.0890663415193557,0,0,0
2109,71966.29933971347,2010-09-08 06:43:21,2551.2977586579577,2,7,0.5499359965324402,3.927523136138916,6.274080910785401,6.175462988073991,24.989145602519866,22.598888511016103,0.0,0.0890663415193557,0,0,0
2110,71996.31462449202,2010-09-08 06:43:51,2581.313043501664,2,7,0.550297200679779,3.9289801120758057,6.278668112624867,6.175462988073991,25.007165341787264,22.598888511016103,6.47544875391759e-05,0.0890663415193557,0,0,0
2111,72026.32986172187,2010-09-08 06:44:21,2611.328280636281,2,7,0.5501165986061096,3.930275201797485,6.283255402598847,6.175462988073991,25.02519179799264,22.598888511016103,0.0,0.0890663415193557,0,0,0
2112,72056.34774034003,2010-09-08 06:44:51,2641.346159254447,2,7,0.5504778623580933,3.931732177734375,6.287843176791645,6.175462988073991,25.04322656005177,22.598888511016103,3.237724376958795e-05,0.0890663415193557,0,0,0
2113,72086.36052848159,2010-09-08 06:45:21,2671.358947491238,2,7,0.5501165986061096,3.9331891536712646,6.292430113293666,6.175462988073991,25.061264498889763,22.598888511016103,0.0,0.0890663415193557,0,0,0
2114,72116.37569688463,2010-09-08 06:45:51,2701.374115824115,2,7,0.5501165986061096,3.9346461296081534,6.297016864829368,6.175462988073991,25.07930822759437,22.598888511016103,3.237724376958795e-05,0.0890663415193557,0,0,0
2115,72146.3909316734,2010-09-08 06:46:21,2731.3893505878136,2,7,0.5501165986061096,3.936103105545044,6.301603430380404,6.175462988073991,25.097357852831475,22.598888511016103,6.47544875391759e-05,0.0890663415193557,0,0,0
2116,72176.4062161512,2010-09-08 06:46:51,2761.404635065606,2,7,0.5501165986061096,3.937398195266724,6.306189957737682,6.175462988073991,25.115413796012184,22.598888511016103,3.237724376958795e-05,0.0890663415193557,0,0,0
2117,72206.421594378,2010-09-08 06:47:21,2791.420013377623,2,7,0.550297200679779,3.938855171203613,6.31077647399593,6.175462988073991,25.13347647595281,22.598888511016103,0.0,0.0890663415193557,0,0,0
2118,72236.43753457758,2010-09-08 06:47:51,2821.435953502011,2,7,0.550297200679779,3.940474033355713,6.315363116928138,6.175462988073991,25.151546424357416,22.598888511016103,6.47544875391759e-05,0.0890663415193557,0,0,0
2119,72266.43754858794,2010-09-08 06:48:21,2851.435967512368,2,7,0.5499359965324402,3.9417691230773926,6.319947302461634,6.175462988073991,25.16961352003592,22.598888511016103,3.237724376958795e-05,0.0890663415193557,0,0,0
2120,72296.45165126075,2010-09-08 06:48:51,2881.450070175168,2,7,0.5499359965324402,3.943549871444702,6.32453362215454,6.175462988073991,25.187695972289745,22.598888511016103,3.237724376958795e-05,0.0890663415193557,0,0,0
2121,72326.46692648545,2010-09-08 06:49:21,2911.4653454299387,2,7,0.5501165986061096,3.945006847381592,6.329120170630876,6.175462988073991,25.20578633508931,22.598888511016103,3.237724376958795e-05,0.0890663415193557,0,0,0
2122,72356.48218948462,2010-09-08 06:49:51,2941.48060849428,2,7,0.5501165986061096,3.9464638233184814,6.333706637369962,6.175462988073991,25.223883420351235,22.598888511016103,0.0,0.0890663415193557,0,0,0
2123,72386.49754296467,2010-09-08 06:50:21,2971.495961974313,2,7,0.5501165986061096,3.948082685470581,6.338293137592729,6.175462988073991,25.24198764903437,22.598888511016103,3.237724376958795e-05,0.0890663415193557,0,0,0
2124,72416.5127202148,2010-09-08 06:50:51,3001.511139129211,2,7,0.5501165986061096,3.949539661407471,6.342879637628542,6.175462988073991,25.260099110137865,22.598888511016103,3.237724376958795e-05,0.0890663415193557,0,0,0
2125,72446.52824557888,2010-09-08 06:51:21,3031.526664493293,2,7,0.550297200679779,3.95132040977478,6.347466165612688,6.175462988073991,25.278218007253063,22.598888511016103,6.47544875391759e-05,0.0890663415193557,0,0,0
2126,72476.54339757598,2010-09-08 06:51:51,3061.5418165856318,2,7,0.5501165986061096,3.95293927192688,6.352052713023217,6.175462988073991,25.29634428498694,22.598888511016103,3.237724376958795e-05,0.0890663415193557,0,0,0
2127,72506.55848395429,2010-09-08 06:52:21,3091.5569028937616,2,7,0.550297200679779,3.95455813407898,6.356639137739022,6.175462988073991,25.314477529515344,22.598888511016103,6.47544875391759e-05,0.0890663415193557,0,0,0
2128,72536.57388019103,2010-09-08 06:52:51,3121.5722991154844,2,7,0.5501165986061096,3.956176996231079,6.361225638687337,6.175462988073991,25.33261853466161,22.598888511016103,6.47544875391759e-05,0.0890663415193557,0,0,0
2129,72566.5890366142,2010-09-08 06:53:21,3151.58745555367,2,7,0.5499359965324402,3.9576339721679688,6.365812134335019,6.175462988073991,25.35076704532831,22.598888511016103,0.0,0.0890663415193557,0,0,0
2130,72596.60429515726,2010-09-08 06:53:51,3181.602714071664,2,7,0.5501165986061096,3.9594147205352783,6.370398594684751,6.175462988073991,25.368923047954183,22.598888511016103,3.237724376958795e-05,0.0890663415193557,0,0,0
2131,72626.61956154488,2010-09-08 06:54:21,3211.6179804593003,2,7,0.5501165986061096,3.961195468902588,6.374985044078882,6.175462988073991,25.38708674211635,22.598888511016103,6.47544875391759e-05,0.0890663415193557,0,0,0
2132,72656.63482747138,2010-09-08 06:54:51,3241.6332463857866,2,7,0.550297200679779,3.962814331054688,6.379571568782955,6.175462988073991,25.405258569811263,22.598888511016103,6.47544875391759e-05,0.0890663415193557,0,0,0
2133,72686.65014280619,2010-09-08 06:55:21,3271.648561745665,2,7,0.550297200679779,3.964595079421997,6.38415802477938,6.175462988073991,25.42343802783153,22.598888511016103,6.47544875391759e-05,0.0890663415193557,0,0,0
2134,72716.66536053737,2010-09-08 06:55:51,3301.6637794517856,2,7,0.550297200679779,3.9665377140045166,6.38874450562433,6.175462988073991,25.44162560240645,22.598888511016103,6.47544875391759e-05,0.0890663415193557,0,0,0
2135,72746.68062541123,2010-09-08 06:56:21,3331.679044325644,2,7,0.550297200679779,3.968156576156616,6.393331066867774,6.175462988073991,25.45982158589581,22.598888511016103,6.47544875391759e-05,0.0890663415193557,0,0,0
2136,72776.69603413416,2010-09-08 06:56:51,3361.694453053584,2,7,0.5501165986061096,3.970099210739136,6.397917543571293,6.175462988073991,25.478025374079323,22.598888511016103,9.713172767078504e-05,0.0890663415193557,0,0,0
2137,72806.71118230671,2010-09-08 06:57:21,3391.7096012361626,2,7,0.5499359965324402,3.9715561866760254,6.402504003848299,6.175462988073991,25.496237389098717,22.598888511016103,3.237724376958795e-05,0.0890663415193557,0,0,0
2138,72836.72656130043,2010-09-08 06:57:51,3421.7249802298816,2,7,0.550297200679779,3.973660707473755,6.407090522227378,6.175462988073991,25.514458056078,22.598888511016103,3.237724376958795e-05,0.0890663415193557,0,0,0
2139,72866.7417003502,2010-09-08 06:58:21,3451.740119259613,2,7,0.5501165986061096,3.975441455841065,6.411677042809554,6.175462988073991,25.532687227909516,22.598888511016103,6.47544875391759e-05,0.0890663415193557,0,0,0
2140,72896.75713490763,2010-09-08 06:58:51,3481.755553827053,2,7,0.5501165986061096,3.977222204208374,6.416263667499497,6.175462988073991,25.5509254871213,22.598888511016103,3.237724376958795e-05,0.0890663415193557,0,0,0
2141,72926.772375551,2010-09-08 06:59:21,3511.770794655891,2,7,0.5499359965324402,3.9791648387908936,6.420850179064231,6.175462988073991,25.569171513286804,22.598888511016103,0.0,0.0890663415193557,0,0,0
2142,72956.7878951557,2010-09-08 06:59:51,3541.786314080146,2,7,0.5501165986061096,3.981269359588623,6.42543662652426,6.175462988073991,25.58742659358113,22.598888511016103,6.47544875391759e-05,0.0890663415193557,0,0,0
2143,72986.8027718456,2010-09-08 07:00:21,3571.801190760013,2,7,0.5499359965324402,3.9830501079559326,6.430022953950257,6.175462988073991,25.60569010879995,22.598888511016103,3.237724376958795e-05,0.0890663415193557,0,0,0
2144,73016.81806244368,2010-09-08 07:00:51,3601.816481443295,2,7,0.5501165986061096,3.985316514968872,6.434609369921691,6.175462988073991,25.623962980395323,22.598888511016103,6.47544875391759e-05,0.0890663415193557,0,0,0
2145,73046.83332106694,2010-09-08 07:01:21,3631.8317399813377,2,7,0.5501165986061096,3.986935377120972,6.439195823420665,6.175462988073991,25.64224515314709,22.598888511016103,0.0,0.0890663415193557,0,0,0
2146,73076.84870236639,2010-09-08 07:01:51,3661.8471212808126,2,7,0.5501165986061096,3.989201784133911,6.443782309841959,6.175462988073991,25.660536570852816,22.598888511016103,3.237724376958795e-05,0.0890663415193557,0,0,0
2147,73106.86385661914,2010-09-08 07:02:21,3691.8622755586057,2,7,0.5501165986061096,3.9909825325012207,6.448368697659602,6.175462988073991,25.678836876081736,22.598888511016103,3.237724376958795e-05,0.0890663415193557,0,0,0
2148,73136.87910378378,2010-09-08 07:02:51,3721.877522698197,2,7,0.5501165986061096,3.99324893951416,6.452955114793582,6.175462988073991,25.69714664401945,22.598888511016103,9.713172767078504e-05,0.0890663415193557,0,0,0
2149,73166.89438806608,2010-09-08 07:03:21,3751.8928070105767,2,7,0.5501165986061096,3.995353221893311,6.457541570715983,6.175462988073991,25.715465953159136,22.598888511016103,3.237724376958795e-05,0.0890663415193557,0,0,0
2150,73196.90988633755,2010-09-08 07:03:51,3781.908305261981,2,7,0.5499359965324402,3.99729585647583,6.462128013540825,6.175462988073991,25.733794724545056,22.598888511016103,6.47544875391759e-05,0.0890663415193557,0,0,0
2151,73226.92490219482,2010-09-08 07:04:21,3811.923321109231,2,7,0.5501165986061096,3.99940037727356,6.466714396671424,6.175462988073991,25.75213277049562,22.598888511016103,3.237724376958795e-05,0.0890663415193557,0,0,0
2152,73256.94017386565,2010-09-08 07:04:51,3841.938592780056,2,7,0.5501165986061096,4.001504898071289,6.471300814919175,6.175462988073991,25.770480614309967,22.598888511016103,9.70840483205393e-05,0.0890663415193557,0,0,0
2153,73286.95545635848,2010-09-08 07:05:21,3871.953875302968,2,7,0.5499359965324402,4.003609657287598,6.475887241571994,6.175462988073991,25.788838232621792,22.598888511016103,3.24249267578125e-05,0.0890663415193557,0,0,0
2154,73316.9707197386,2010-09-08 07:05:51,3901.9691386780846,2,7,0.5501165986061096,4.005713939666748,6.480473669626205,6.175462988073991,25.807205562479485,22.598888511016103,3.23295607813634e-05,0.0890663415193557,0,0,0
2155,73346.9859688782,2010-09-08 07:06:21,3931.9843877926055,2,7,0.5499359965324402,4.007818698883057,6.485060149332688,6.175462988073991,25.825582984454066,22.598888511016103,3.24249267578125e-05,0.0890663415193557,0,0,0
2156,73377.00123153652,2010-09-08 07:06:51,3961.9996504509327,2,7,0.5501165986061096,4.010085105895996,6.489646593001068,6.175462988073991,25.843970124266868,22.598888511016103,3.24249267578125e-05,0.0890663415193557,0,0,0
2157,73407.0167097479,2010-09-08 07:07:21,3992.0151286623145,2,7,0.5499359965324402,4.0121893882751465,6.494233079383537,6.175462988073991,25.86236744862713,22.598888511016103,6.47544875391759e-05,0.0890663415193557,0,0,0
2158,73437.0319134641,2010-09-08 07:07:51,4022.030332388538,2,7,0.5501165986061096,4.014617919921875,6.498819500496154,6.175462988073991,25.880774525010818,22.598888511016103,6.47544875391759e-05,0.0890663415193557,0,0,0
2159,73467.04705693493,2010-09-08 07:08:21,4052.045475849332,2,7,0.5499359965324402,4.016722202301025,6.50340586884052,6.175462988073991,25.899191588915563,22.598888511016103,3.23295607813634e-05,0.0890663415193557,0,0,0
2160,73497.06243097126,2010-09-08 07:08:51,4082.0608498957017,2,7,0.5501165986061096,4.018988609313965,6.5079922849265,6.175462988073991,25.91761908139837,22.598888511016103,6.47544875391759e-05,0.0890663415193557,0,0,0
2161,73527.07759215128,2010-09-08 07:09:21,4112.076011090761,2,7,0.5501165986061096,4.021255016326904,6.512578694077592,6.175462988073991,25.936056764980485,22.598888511016103,9.70840483205393e-05,0.0890663415193557,0,0,0
2162,73557.09297996703,2010-09-08 07:09:51,4142.091398906501,2,7,0.5501165986061096,4.023521423339844,6.517165149651877,6.175462988073991,25.95450517656429,22.598888511016103,9.70840483205393e-05,0.0890663415193557,0,0,0
2163,73587.1081011873,2010-09-08 07:10:21,4172.106520101715,2,7,0.5501165986061096,4.025787830352783,6.521751595457219,6.175462988073991,25.97296403597469,22.598888511016103,6.47544875391759e-05,0.0890663415193557,0,0,0
2164,73617.12337558492,2010-09-08 07:10:51,4202.121794499346,2,7,0.5501165986061096,4.028216361999512,6.526338026866354,6.175462988073991,25.991433441679728,22.598888511016103,6.47544875391759e-05,0.0890663415193557,0,0,0
2165,73647.13865297001,2010-09-08 07:11:21,4232.137071884435,2,7,0.5499359965324402,4.030482769012451,6.530924470520809,6.175462988073991,26.0099135493984,22.598888511016103,6.47544875391759e-05,0.0890663415193557,0,0,0
2166,73677.15391278124,2010-09-08 07:11:51,4262.152331695655,2,7,0.5501165986061096,4.0329108238220215,6.535510833749325,6.175462988073991,26.028404203387417,22.598888511016103,6.47544875391759e-05,0.0890663415193557,0,0,0
2167,73707.1691719609,2010-09-08 07:12:21,4292.167590880313,2,7,0.5501165986061096,4.035177230834961,6.540097277715136,6.175462988073991,26.046906087904397,22.598888511016103,9.71794142969884e-05,0.0890663415193557,0,0,0
2168,73737.1844599725,2010-09-08 07:12:51,4322.182878886914,2,7,0.5501165986061096,4.03776741027832,6.544683733704067,6.175462988073991,26.065419011548343,22.598888511016103,9.71794142969884e-05,0.0890663415193557,0,0,0
2169,73767.20200988016,2010-09-08 07:13:21,4352.200428914868,2,7,0.5499359965324402,4.039871692657471,6.549270544698976,6.175462988073991,26.083944489940716,22.598888511016103,3.23295607813634e-05,0.0890663415193557,0,0,0
2170,73797.21497796087,2010-09-08 07:13:52,4382.213396995577,2,7,0.5501165986061096,4.04246187210083,6.55385665451756,6.175462988073991,26.102478233950063,22.598888511016103,6.47544875391759e-05,0.0890663415193557,0,0,0
2171,73827.23024145127,2010-09-08 07:14:22,4412.228660365682,2,7,0.5501165986061096,4.044890403747559,6.558443097207766,6.175462988073991,26.121024700133944,22.598888511016103,3.24249267578125e-05,0.0890663415193557,0,0,0
2172,73857.24550423992,2010-09-08 07:14:52,4442.243923159348,2,7,0.550297200679779,4.047480583190918,6.563029501787061,6.175462988073991,26.139582413153253,22.598888511016103,6.47544875391759e-05,0.0890663415193557,0,0,0
2173,73887.26079146456,2010-09-08 07:15:22,4472.259210474222,2,7,0.5501165986061096,4.049908638000488,6.567615964080876,6.175462988073991,26.15815192367416,22.598888511016103,3.23295607813634e-05,0.0890663415193557,0,0,0
2174,73917.2760515164,2010-09-08 07:15:52,4502.274470430806,2,7,0.5501165986061096,4.052498817443848,6.572202399545323,6.175462988073991,26.176732834076013,22.598888511016103,3.23295607813634e-05,0.0890663415193557,0,0,0
2175,73947.29135338761,2010-09-08 07:16:22,4532.289772327078,2,7,0.5499359965324402,4.055088996887207,6.576788879834334,6.175462988073991,26.195325716738378,22.598888511016103,3.23295607813634e-05,0.0890663415193557,0,0,0
2176,73977.30660113873,2010-09-08 07:16:52,4562.3050200531325,2,7,0.5499359965324402,4.057679176330566,6.581375310613076,6.175462988073991,26.2139302001506,22.598888511016103,6.47544875391759e-05,0.0890663415193557,0,0,0
2177,74007.32428127143,2010-09-08 07:17:22,4592.322700306149,2,7,0.5501165986061096,4.060431480407715,6.585962123254365,6.175462988073991,26.2325482045895,22.598888511016103,6.47544875391759e-05,0.0890663415193557,0,0,0
2178,74037.33712448548,2010-09-08 07:17:52,4622.335543505134,2,7,0.5501165986061096,4.062859535217285,6.590548181519863,6.175462988073991,26.25117474792584,22.598888511016103,9.70840483205393e-05,0.0890663415193557,0,0,0
2179,74067.35237900847,2010-09-08 07:18:22,4652.350797952967,2,7,0.5497553944587708,4.065611839294434,6.595134577159094,6.175462988073991,26.269814902200405,22.598888511016103,3.24249267578125e-05,0.0890663415193557,0,0,0
2180,74097.3676414663,2010-09-08 07:18:52,4682.3660604107945,2,7,0.5501165986061096,4.068363666534424,6.599720976264353,6.175462988073991,26.28846735680108,22.598888511016103,6.47544875391759e-05,0.0890663415193557,0,0,0
2181,74127.38292303184,2010-09-08 07:19:22,4712.381341946242,2,7,0.5501165986061096,4.070953845977783,6.604307420161423,6.175462988073991,26.30713242123935,22.598888511016103,6.47544875391759e-05,0.0890663415193557,0,0,0
2182,74157.39836091254,2010-09-08 07:19:52,4742.396779836978,2,7,0.5501165986061096,4.073706150054932,6.608893886244062,6.175462988073991,26.325810003496507,22.598888511016103,6.47544875391759e-05,0.0890663415193557,0,0,0
2183,74187.41343850893,2010-09-08 07:20:22,4772.411857423337,2,7,0.5501165986061096,4.076457977294922,6.613480316992318,6.175462988073991,26.3445000771123,22.598888511016103,6.47544875391759e-05,0.0890663415193557,0,0,0
2184,74217.42882868054,2010-09-08 07:20:52,4802.427247620021,2,7,0.5499359965324402,4.07921028137207,6.618066793468426,6.175462988073991,26.36320309099525,22.598888511016103,9.71794142969884e-05,0.0890663415193557,0,0,0
2185,74247.44398726408,2010-09-08 07:21:22,4832.442406178499,2,7,0.5501165986061096,4.0819621086120605,6.622653232689371,6.175462988073991,26.381918793730037,22.598888511016103,9.70840483205393e-05,0.0890663415193557,0,0,0
2186,74277.45923995753,2010-09-08 07:21:52,4862.457658967192,2,7,0.550297200679779,4.085038185119629,6.627239693681648,6.175462988073991,26.400647507139585,22.598888511016103,0.0001295089750783,0.0890663415193557,0,0,0
2187,74307.47450141788,2010-09-08 07:22:22,4892.472920332291,2,7,0.5501165986061096,4.087790012359619,6.631826095881731,6.175462988073991,26.419389076305364,22.598888511016103,6.47544875391759e-05,0.0890663415193557,0,0,0
2188,74337.48977563005,2010-09-08 07:22:52,4922.488194544459,2,7,0.5501165986061096,4.090542316436768,6.636412490170678,6.175462988073991,26.43814383765571,22.598888511016103,3.24249267578125e-05,0.0890663415193557,0,0,0
2189,74367.50525175122,2010-09-08 07:23:22,4952.503670690686,2,7,0.5501165986061096,4.093617916107178,6.64099897941084,6.175462988073991,26.456912295805584,22.598888511016103,6.47544875391759e-05,0.0890663415193557,0,0,0
2190,74397.52031077624,2010-09-08 07:23:52,4982.518729780876,2,7,0.5499359965324402,4.096531867980957,6.645585345364804,6.175462988073991,26.475693729834337,22.598888511016103,6.47544875391759e-05,0.0890663415193557,0,0,0
2191,74427.53558522399,2010-09-08 07:24:22,5012.534004143419,2,7,0.5501165986061096,4.099607944488525,6.650171759117106,6.175462988073991,26.49448900844049,22.598888511016103,0.0001295089750783,0.0890663415193557,0,0,0
2192,74457.55086375194,2010-09-08 07:24:52,5042.549282696423,2,7,0.5499359965324402,4.102198123931885,6.654758275900601,6.175462988073991,26.513298428156965,22.598888511016103,3.24249267578125e-05,0.0890663415193557,0,0,0
2193,74487.56611645542,2010-09-08 07:25:22,5072.564535369827,2,7,0.5499359965324402,4.105597496032715,6.659344729278833,6.175462988073991,26.532121514240195,22.598888511016103,9.70840483205393e-05,0.0890663415193557,0,0,0
2194,74517.58137514383,2010-09-08 07:25:52,5102.579794063258,2,7,0.5501165986061096,4.108511447906494,6.663931148228073,6.175462988073991,26.55095845046787,22.598888511016103,3.23295607813634e-05,0.0890663415193557,0,0,0
2195,74547.59663367686,2010-09-08 07:26:22,5132.595052591277,2,7,0.5499359965324402,4.111587524414063,6.668517591364335,6.175462988073991,26.56980957527197,22.598888511016103,6.47544875391759e-05,0.0890663415193557,0,0,0
2196,74577.61191544289,2010-09-08 07:26:52,5162.6103343573,2,7,0.5499359965324402,4.114824771881104,6.673103947722368,6.175462988073991,26.58867447195992,22.598888511016103,9.70840483205393e-05,0.0890663415193557,0,0,0
2197,74607.62718053228,2010-09-08 07:27:22,5192.6255994466965,2,7,0.5501165986061096,4.118062496185303,6.677690331815877,6.175462988073991,26.60755385445303,22.598888511016103,9.70840483205393e-05,0.0890663415193557,0,0,0
2198,74637.64243490994,2010-09-08 07:27:52,5222.640853849417,2,7,0.5501165986061096,4.121300220489502,6.682276783328653,6.175462988073991,26.62644802870916,22.598888511016103,0.0001295089750783,0.0890663415193557,0,0,0
2199,74667.6577142048,2010-09-08 07:28:22,5252.656133119209,2,7,0.5501165986061096,4.12437629699707,6.686863271214983,6.175462988073991,26.645356901340435,22.598888511016103,0.0001295089750783,0.0890663415193557,0,0,0
2200,74697.67297387567,2010-09-08 07:28:52,5282.671392820155,2,7,0.5499359965324402,4.1274518966674805,6.691449736454626,6.175462988073991,26.664280406981156,22.598888511016103,6.47544875391759e-05,0.0890663415193557,0,0,0
2201,74727.68828401252,2010-09-08 07:29:22,5312.686703022158,2,7,0.5501165986061096,4.130851745605469,6.69603616785108,6.175462988073991,26.68321860961365,22.598888511016103,9.71794142969884e-05,0.0890663415193557,0,0,0
2202,74757.70350750306,2010-09-08 07:29:52,5342.701926422494,2,7,0.550297200679779,4.134089469909668,6.700622672390118,6.175462988073991,26.7021721301714,22.598888511016103,6.47544875391759e-05,0.0890663415193557,0,0,0
2203,74787.7187837052,2010-09-08 07:30:22,5372.7172026396665,2,7,0.5497553944587708,4.137327194213867,6.705209128211771,6.175462988073991,26.72114053449136,22.598888511016103,9.71794142969884e-05,0.0890663415193557,0,0,0
2204,74817.73403803274,2010-09-08 07:30:52,5402.732456947148,2,7,0.5499359965324402,4.140564918518066,6.709795520069159,6.175462988073991,26.740123947192945,22.598888511016103,6.47544875391759e-05,0.0890663415193557,0,0,0
2205,74847.74931910702,2010-09-08 07:31:22,5432.747738056533,2,7,0.550297200679779,4.144288063049316,6.714382870829048,6.175462988073991,26.75912674855315,22.598888511016103,0.0001295089750783,0.0890663415193557,0,0,0
2206,74877.7649665709,2010-09-08 07:31:52,5462.763385485308,2,7,0.5499359965324402,4.147525787353516,6.718970198271625,6.175462988073991,26.778145335982355,22.598888511016103,6.47544875391759e-05,0.0890663415193557,0,0,0
2207,74907.77998848328,2010-09-08 07:32:22,5492.778407407722,2,7,0.5499359965324402,4.151087284088135,6.723556570202881,6.175462988073991,26.797175542902032,22.598888511016103,0.0001295089750783,0.0890663415193557,0,0,0
2208,74937.79512451052,2010-09-08 07:32:52,5522.793543434959,2,7,0.5501165986061096,4.154487133026123,6.728142999023342,6.175462988073991,26.816221775505724,22.598888511016103,9.71794142969884e-05,0.0890663415193557,0,0,0
2209,74967.8104333842,2010-09-08 07:33:22,5552.80885229361,2,7,0.5501165986061096,4.158048629760742,6.7327294643703,6.175462988073991,26.8352841248321,22.598888511016103,9.71794142969884e-05,0.0890663415193557,0,0,0
2210,74997.82568973179,2010-09-08 07:33:52,5582.82410867126,2,7,0.5501165986061096,4.161610126495361,6.737315919583307,6.175462988073991,26.854362491043528,22.598888511016103,0.0001295089750783,0.0890663415193557,0,0,0
2211,75027.84093272603,2010-09-08 07:34:22,5612.83935164044,2,7,0.5501165986061096,4.1648478507995605,6.741902371456103,6.175462988073991,26.873456977354667,22.598888511016103,6.47544875391759e-05,0.0890663415193557,0,0,0
2212,75057.8562077402,2010-09-08 07:34:52,5642.854626654611,2,7,0.5501165986061096,4.1687331199646,6.746488733056387,6.175462988073991,26.89256736369452,22.598888511016103,0.0001295089750783,0.0890663415193557,0,0,0
2213,75087.87148395737,2010-09-08 07:35:22,5672.869902901859,2,7,0.550297200679779,4.172294616699219,6.751075146931981,6.175462988073991,26.9116943874734,22.598888511016103,0.0001619339018361,0.0890663415193557,0,0,0
2214,75117.88692308118,2010-09-08 07:35:52,5702.885342005622,2,7,0.5501165986061096,4.175856113433838,6.755661592165228,6.175462988073991,26.930838102979493,22.598888511016103,9.71794142969884e-05,0.0890663415193557,0,0,0
2215,75147.90199279289,2010-09-08 07:36:22,5732.9004117073,2,7,0.550297200679779,4.179579257965088,6.760247999093529,6.175462988073991,26.94999839302094,22.598888511016103,9.70840483205393e-05,0.0890663415193557,0,0,0
2216,75177.91725884468,2010-09-08 07:36:52,5762.915677784162,2,7,0.5501165986061096,4.183140754699707,6.764834450649981,6.175462988073991,26.969175682640024,22.598888511016103,0.0001295089750783,0.0890663415193557,0,0,0
2217,75207.93257009932,2010-09-08 07:37:22,5792.930989139043,2,7,0.5501165986061096,4.186864376068115,6.769420933360097,6.175462988073991,26.98837010664304,22.598888511016103,0.0001295089750783,0.0890663415193557,0,0,0
2218,75237.94778996582,2010-09-08 07:37:52,5822.946208975481,2,7,0.550297200679779,4.190587520599365,6.77400730047756,6.175462988073991,27.007581239774257,22.598888511016103,0.0001295089750783,0.0890663415193557,0,0,0
2219,75267.96306396247,2010-09-08 07:38:22,5852.961482876874,2,7,0.5499359965324402,4.194311141967773,6.778593683544839,6.175462988073991,27.026809756282844,22.598888511016103,9.71794142969884e-05,0.0890663415193557,0,0,0
2220,75297.97832235013,2010-09-08 07:38:52,5882.976741274566,2,7,0.5501165986061096,4.198195934295654,6.783180053896712,6.175462988073991,27.046055594730163,22.598888511016103,9.70840483205393e-05,0.0890663415193557,0,0,0
2221,75311.32192821322,2010-09-08 07:39:06,5896.320347127637,2,7,0.550297200679779,4.200138568878174,6.785218988510442,6.175462988073991,27.054617225006524,22.598888511016103,0.0001618385285837,0.0890663415193557,0,0,0
2222,75341.34021588307,2010-09-08 07:39:36,30.01522324494604,3,7,0.0,4.117900848388672,6.785218988510442,6.175462988073991,27.054617225006524,22.598888511016103,-0.0003885269106831,0.0890663415193557,0,0,0
2223,75371.35546483219,2010-09-08 07:40:06,60.030472194053615,3,7,0.0,4.107702255249023,6.785218988510442,6.175462988073991,27.054617225006524,22.598888511016103,-0.0002265930233988,0.0890663415193557,0,0,0
2224,75401.37108984501,2010-09-08 07:40:36,90.04609720186157,3,7,0.0,4.101712226867676,6.785218988510442,6.175462988073991,27.054617225006524,22.598888511016103,-6.47544875391759e-05,0.0890663415193557,0,0,0
2225,75431.33924338673,2010-09-08 07:41:06,120.01425076363692,3,7,0.0,4.097665309906006,6.785218988510442,6.175462988073991,27.054617225006524,22.598888511016103,-0.0001295089750783,0.0890663415193557,0,0,0
2226,75431.34365838247,2010-09-08 07:41:06,2.716781505e-06,4,7,1.0099477767944336,4.199814796447754,6.785218989272611,6.175462988073991,27.05461722820749,22.598888511016103,0.0,0.0890663415193557,0,0,0
2227,75431.9999276064,2010-09-08 07:41:07,0.656272066041774,4,7,0.9599190354347228,4.199653148651123,6.785396955655777,6.175462988073991,27.055364642101463,22.598888511016103,-3.23295607813634e-05,0.0890663415193557,0,0,0
2228,75433.95313633588,2010-09-08 07:41:09,2.609480680236437,4,7,0.909348487854004,4.199814796447754,6.785902833189262,6.175462988073991,27.05748917678481,22.598888511016103,0.0,0.0890663415193557,0,0,0
2229,75436.89292566232,2010-09-08 07:41:11,5.549270187120929,4,7,0.859139084815979,4.199653148651123,6.786623879371859,6.175462988073991,27.060517372445176,22.598888511016103,0.0,0.0890663415193557,0,0,0
2230,75440.95306532053,2010-09-08 07:41:16,9.609409674919318,4,7,0.8089296817779541,4.199814796447754,6.787563492367197,6.175462988073991,27.064463503659077,22.598888511016103,0.0,0.0890663415193557,0,0,0
2231,75446.14049272741,2010-09-08 07:41:21,14.796837076780117,4,7,0.7589009404182434,4.199653148651123,6.788691870973132,6.175462988073991,27.069202399707684,22.598888511016103,-3.23295607813634e-05,0.0890663415193557,0,0,0
2232,75452.85915984417,2010-09-08 07:41:27,21.515504188532145,4,7,0.7086915373802185,4.199653148651123,6.790059701137334,6.175462988073991,27.07494694656496,22.598888511016103,-3.23295607813634e-05,0.0890663415193557,0,0,0
2233,75461.59341456268,2010-09-08 07:41:36,30.24975890202853,4,7,0.6586627960205078,4.199653148651123,6.791715854148866,6.175462988073991,27.081902378928863,22.598888511016103,-3.23295607813634e-05,0.0890663415193557,0,0,0
2234,75473.499395578,2010-09-08 07:41:48,42.15573994239468,4,7,0.6086339950561523,4.199653148651123,6.79380723428875,6.175462988073991,27.09068566171136,22.598888511016103,-3.23295607813634e-05,0.0890663415193557,0,0,0
2235,75490.749350374,2010-09-08 07:42:05,59.40569473840471,4,7,0.5586052536964417,4.199814796447754,6.796596014003326,6.175462988073991,27.10239785268389,22.598888511016103,0.0,0.0890663415193557,0,0,0
2236,75518.23324046697,2010-09-08 07:42:33,86.88958483638005,4,7,0.5085764527320862,4.199814796447754,6.800655318202674,6.175462988073991,27.119445963824585,22.598888511016103,3.23295607813634e-05,0.0890663415193557,0,0,0
2237,75567.02954339118,2010-09-08 07:43:22,135.68588785082764,4,7,0.4585477113723755,4.199653148651123,6.807180119189145,6.175462988073991,27.146848562507053,22.598888511016103,-3.23295607813634e-05,0.0890663415193557,0,0,0
2238,75646.74745697278,2010-09-08 07:44:41,215.4038013171339,4,7,0.4085189402103424,4.199653148651123,6.816745217857224,6.175462988073991,27.1870196532172,22.598888511016103,0.0,0.0890663415193557,0,0,0
2239,75753.65244887951,2010-09-08 07:46:28,322.3087932188424,4,7,0.3584901690483093,4.199653148651123,6.828116377453943,6.175462988073991,27.23477580093259,22.598888511016103,0.0,0.0890663415193557,0,0,0
2240,75884.85386449272,2010-09-08 07:48:39,453.5102088571087,4,7,0.3084613978862762,4.199653148651123,6.840255768556832,6.175462988073991,27.28575832087763,22.598888511016103,-3.23295607813634e-05,0.0890663415193557,0,0,0
2241,76041.91449165126,2010-09-08 07:51:17,610.5708359906073,4,7,0.2584326267242431,4.199814796447754,6.85259680664176,6.175462988073991,27.33758766657736,22.598888511016103,3.23295607813634e-05,0.0890663415193557,0,0,0
2242,76235.5215683454,2010-09-08 07:54:30,804.1779126797276,4,7,0.20840385556221,4.199814796447754,6.865109916346795,6.175462988073991,27.390139559255232,22.598888511016103,6.47544875391759e-05,0.0890663415193557,0,0,0
2243,76490.11227198949,2010-09-08 07:58:45,1058.768616414049,4,7,0.1583750993013382,4.199653148651123,6.878011189984298,6.175462988073991,27.444321667928143,22.598888511016103,0.0,0.0890663415193557,0,0,0
2244,76852.10797352217,2010-09-08 08:04:47,1420.7643178564958,4,7,0.1083463206887245,4.199814796447754,6.8912826503206,6.175462988073991,27.50005859403717,22.598888511016103,3.23295607813634e-05,0.0890663415193557,0,0,0
2245,77484.3035751497,2010-09-08 08:15:19,2052.95991948402,4,7,0.0583175532519817,4.199653148651123,6.905481702458777,6.175462988073991,27.55969113785072,22.598888511016103,-3.23295607813634e-05,0.0890663415193557,0,0,0
2246,77655.91103442419,2010-09-08 08:18:11,2224.567378763529,4,7,0.0498289167881011,4.199653148651123,6.90808111023712,6.175462988073991,27.570608008597617,22.598888511016103,0.0,0.0890663415193557,0,0,0
2247,77685.92606092288,2010-09-08 08:18:41,30.01537321930511,5,7,0.0,4.192206382751465,6.90808111023712,6.175462988073991,27.570608008597617,22.598888511016103,0.0,0.0890663415193557,0,0,0
2248,77715.92577268378,2010-09-08 08:19:11,60.01508498020058,5,7,0.0,4.190749645233154,6.90808111023712,6.175462988073991,27.570608008597617,22.598888511016103,-6.47544875391759e-05,0.0890663415193557,0,0,0
2249,77716.1133500008,2010-09-08 08:19:11,0.187270957119888,6,7,-1.9243103452026844e-05,4.190911293029785,6.90808111023712,6.175462989075012,27.570608008597617,22.598888515211296,0.0,0.0923051163554191,0,0,0
2250,77720.9414029337,2010-09-08 08:19:16,5.015323890017775,6,7,0.0007031940040178,4.190911293029785,6.908082012446193,6.175462989241982,27.57061178973783,22.598888515911057,-3.24249267578125e-05,0.0923051163554191,0,0,0
2251,77750.95713389048,2010-09-08 08:19:46,30.015161966986824,7,7,-1.0997490882873535,4.020122051239014,6.908082012446193,6.18463062727273,27.57061178973783,22.6359387407424,-0.0009388923645019,0.0923051163554191,0,0,0
2252,77780.97240118538,2010-09-08 08:20:16,60.03042926188833,7,7,-1.099568486213684,3.99324893951416,6.908082012446193,6.193798237712048,27.57061178973783,22.672661469321152,-0.0005827426793985,0.0923051163554191,0,0,0
2253,77810.9878074121,2010-09-08 08:20:46,90.04583549359748,7,7,-1.0997490882873535,3.9747939109802246,6.908082012446193,6.202965822182661,27.57061178973783,22.709181914111607,-0.0004532813909463,0.0923051163554191,0,0,0
2254,77841.00292878776,2010-09-08 08:21:16,120.0609568642496,7,7,-1.099568486213684,3.960871696472168,6.908082012446193,6.212133189975317,27.57061178973783,22.74555449270384,-0.0003237724304199,0.0923051163554191,0,0,0
2255,77871.01819877938,2010-09-08 08:21:46,150.07622685588257,7,7,-1.099568486213684,3.949054002761841,6.908082012446193,6.221300712020804,27.57061178973783,22.781809791723195,-0.0002590179501567,0.0923051163554191,0,0,0
2256,77901.0334741344,2010-09-08 08:22:16,180.09150221090337,7,7,-1.099568486213684,3.938531398773194,6.908082012446193,6.230468228747034,27.57061178973783,22.81796354669808,-0.0002266406954731,0.0923051163554191,0,0,0
2257,77931.048749319,2010-09-08 08:22:46,210.1067774205613,7,7,-1.0993878841400146,3.9289801120758057,6.908082012446193,6.239635705252753,27.57061178973783,22.854025544817944,-0.0002266406954731,0.0923051163554191,0,0,0
2258,77961.06399977187,2010-09-08 08:23:16,240.12202784835995,7,7,-1.0993878841400146,3.919914484024048,6.908082012446193,6.24880312460762,27.57061178973783,22.89000216331363,-0.0002266406954731,0.0923051163554191,0,0,0
2259,77991.0792820642,2010-09-08 08:23:46,270.1373101457099,7,7,-1.099568486213684,3.911334753036499,6.908082012446193,6.257970635686661,27.57061178973783,22.925897743047106,-0.0001942634553415,0.0923051163554191,0,0,0
2260,78021.09455611598,2010-09-08 08:24:16,300.15258419246504,7,7,-1.0993878841400146,3.902754783630371,6.908082012446193,6.267138103144779,27.57061178973783,22.96171494623437,-0.0002266406954731,0.0923051163554191,0,0,0
2261,78051.11019091822,2010-09-08 08:24:46,330.16821901978403,7,7,-1.099568486213684,3.894660472869873,6.908082012446193,6.276305746440058,27.57061178973783,22.997456550670503,-0.0001618862152099,0.0923051163554191,0,0,0
2262,78081.12507470082,2010-09-08 08:25:16,360.18310280237984,7,7,-1.099568486213684,3.886728048324585,6.908082012446193,6.285473186300881,27.57061178973783,23.03312357887281,-0.0001942634553415,0.0923051163554191,0,0,0
2263,78111.14033928394,2010-09-08 08:25:46,390.1983674556875,7,7,-1.099568486213684,3.878795623779297,6.908082012446193,6.294640633392096,27.57061178973783,23.06871781853213,-0.0001942634553415,0.0923051163554191,0,0,0
2264,78141.15563659878,2010-09-08 08:26:16,420.21366468029805,7,7,-1.099568486213684,3.870863199234009,6.908082012446193,6.303808013431298,27.57061178973783,23.1042404189014,-0.0002590179501567,0.0923051163554191,0,0,0
2265,78171.17087535244,2010-09-08 08:26:46,450.228903529194,7,7,-1.0993878841400146,3.863416433334351,6.908082012446193,6.31297530948916,27.57061178973783,23.139692154963505,-0.0001942634553415,0.0923051163554191,0,0,0
2266,78201.18616669237,2010-09-08 08:27:16,480.2441947738778,7,7,-1.099568486213684,3.8558077812194815,6.908082012446193,6.322142523967325,27.57061178973783,23.175074578204285,-0.0002266406954731,0.0923051163554191,0,0,0
2267,78231.20141729561,2010-09-08 08:27:46,510.2594453921519,7,7,-1.099568486213684,3.848684787750244,6.908082012446193,6.331309783554121,27.57061178973783,23.21038903921516,-0.0001618862152099,0.0923051163554191,0,0,0
2268,78261.21669726213,2010-09-08 08:28:16,540.2747253386337,7,7,-1.099568486213684,3.841238021850586,6.908082012446193,6.340477191123187,27.57061178973783,23.24563711851885,-0.0001942634553415,0.0923051163554191,0,0,0
2269,78291.23207756413,2010-09-08 08:28:46,570.2901056406183,7,7,-1.099568486213684,3.834115028381348,6.908082012446193,6.349644794186539,27.57061178973783,23.28082001059496,-0.0001942634553415,0.0923051163554191,0,0,0
2270,78321.24722057379,2010-09-08 08:29:16,600.3052486502847,7,7,-1.0993878841400146,3.827316045761109,6.908082012446193,6.358812304713705,27.57061178973783,23.31593793011659,-0.0001618862152099,0.0923051163554191,0,0,0
2271,78351.26250952274,2010-09-08 08:29:46,630.3205375992382,7,7,-1.099568486213684,3.82035493850708,6.908082012446193,6.367979835019705,27.57061178973783,23.3509922482404,-0.0001618862152099,0.0923051163554191,0,0,0
2272,78381.27776461719,2010-09-08 08:30:16,660.3357926986979,7,7,-1.099568486213684,3.813717603683472,6.908082012446193,6.377147347142063,27.57061178973783,23.38598365400016,-0.0001295089750783,0.0923051163554191,0,0,0
2273,78411.29303598724,2010-09-08 08:30:46,690.3510640637592,7,7,-1.0997490882873535,3.8067564964294434,6.908082012446193,6.386314867020542,27.57061178973783,23.4209128054141,-0.0001618862152099,0.0923051163554191,0,0,0
2274,78441.30836824933,2010-09-08 08:31:16,720.3663964210665,7,7,-1.099568486213684,3.800119161605835,6.908082012446193,6.395482327106925,27.57061178973783,23.455781268152226,-0.0002266406954731,0.0923051163554191,0,0,0
2275,78471.32355782021,2010-09-08 08:31:46,750.381585896719,7,7,-1.0997490882873535,3.7938055992126474,6.908082012446193,6.404649783912877,27.57061178973783,23.49059027259244,-0.0001942634553415,0.0923051163554191,0,0,0
2276,78501.33908634218,2010-09-08 08:32:16,780.3971144287086,7,7,-1.099568486213684,3.787653923034668,6.908082012446193,6.413817384263921,27.57061178973783,23.52534138762657,-0.0001295089750783,0.0923051163554191,0,0,0
2277,78531.35425579787,2010-09-08 08:32:46,810.4122839746135,7,7,-1.099568486213684,3.78134036064148,6.908082012446193,6.422984912463845,27.57061178973783,23.560034696069536,-0.0001295089750783,0.0923051163554191,0,0,0
2278,78561.36937818104,2010-09-08 08:33:16,840.4274062625553,7,7,-1.099568486213684,3.775188684463501,6.908082012446193,6.432152413188883,27.57061178973783,23.59467175698005,-0.0001618862152099,0.0923051163554191,0,0,0
2279,78591.38467359112,2010-09-08 08:33:46,870.4427016726366,7,7,-1.099568486213684,3.7690370082855225,6.908082012446193,6.44131995916768,27.57061178973783,23.629253591407227,-0.0001942634553415,0.0923051163554191,0,0,0
2280,78621.39991272072,2010-09-08 08:34:16,900.4579408022332,7,7,-1.0993878841400146,3.763370990753174,6.908082012446193,6.450487502833163,27.57061178973783,23.663780935221023,-0.0001295089750783,0.0923051163554191,0,0,0
2281,78651.41516780012,2010-09-08 08:34:46,930.4731959768808,7,7,-1.099568486213684,3.757381200790405,6.908082012446193,6.45965509323652,27.57061178973783,23.698254957748407,-0.0001942634553415,0.0923051163554191,0,0,0
2282,78681.4304279973,2010-09-08 08:35:16,960.48845608384,7,7,-1.099568486213684,3.7518773078918457,6.908082012446193,6.468822707809292,27.57061178973783,23.732676503220837,-9.713172767078504e-05,0.0923051163554191,0,0,0
2283,78711.44582503106,2010-09-08 08:35:46,990.5038531125772,7,7,-1.099568486213684,3.746049404144287,6.908082012446193,6.477990313554665,27.57061178973783,23.76704663525589,-0.0001942634553415,0.0923051163554191,0,0,0
2284,78741.46100404058,2010-09-08 08:36:16,1020.5190321170924,7,7,-1.0997490882873535,3.740869045257568,6.908082012446193,6.487157905177792,27.57061178973783,23.801366391649985,-0.0001618862152099,0.0923051163554191,0,0,0
2285,78771.47622658378,2010-09-08 08:36:46,1050.5342546602867,7,7,-1.0997490882873535,3.7353649139404297,6.908082012446193,6.496325355033436,27.57061178973783,23.835635838481483,-0.0001942634553415,0.0923051163554191,0,0,0
2286,78801.49135820502,2010-09-08 08:37:16,1080.5493862815258,7,7,-1.099568486213684,3.730184555053711,6.908082012446193,6.505492789601849,27.57061178973783,23.86985681517996,-0.0001618862152099,0.0923051163554191,0,0,0
2287,78831.50680009574,2010-09-08 08:37:46,1110.5648281772578,7,7,-1.099568486213684,3.725004196166992,6.908082012446193,6.514660424253778,27.57061178973783,23.904031094659977,-0.0001295089750783,0.0923051163554191,0,0,0
2288,78861.52432089574,2010-09-08 08:38:16,1140.5823489722422,7,7,-1.0997490882873535,3.7199857234954834,6.908082012446193,6.523829029329992,27.57061178973783,23.938161697830648,-0.0001618862152099,0.0923051163554191,0,0,0
2289,78891.53729554785,2010-09-08 08:38:47,1170.5953236544296,7,7,-1.0997490882873535,3.715129137039185,6.908082012446193,6.532996704863707,27.57061178973783,23.972242277602486,-9.713172767078504e-05,0.0923051163554191,0,0,0
2290,78921.5525766823,2010-09-08 08:39:17,1200.610604798902,7,7,-1.0993878841400146,3.710110664367676,6.908082012446193,6.542164976482421,27.57061178973783,24.00627988060286,-0.0001295089750783,0.0923051163554191,0,0,0
2291,78951.5679784629,2010-09-08 08:39:47,1230.6260065394,7,7,-1.099929690361023,3.705254077911377,6.908082012446193,6.551333379077187,27.57061178973783,24.04027360556237,-0.0001295089750783,0.0923051163554191,0,0,0
2292,78981.58314205393,2010-09-08 08:40:17,1260.6411702557537,7,7,-1.0997490882873535,3.700397491455078,6.908082012446193,6.560501745865218,27.57061178973783,24.07422341338937,-0.0001618862152099,0.0923051163554191,0,0,0
2293,79011.59838560458,2010-09-08 08:40:47,1290.6564137111484,7,7,-1.0997490882873535,3.695864677429199,6.908082012446193,6.569670169184628,27.57061178973783,24.10813008013522,-9.713172767078504e-05,0.0923051163554191,0,0,0
2294,79041.61365574658,2010-09-08 08:41:17,1320.6716838230814,7,7,-1.099568486213684,3.69133186340332,6.908082012446193,6.578838491519269,27.57061178973783,24.141994155592062,-9.713172767078504e-05,0.0923051163554191,0,0,0
2295,79071.62894758776,2010-09-08 08:41:47,1350.6869756692668,7,7,-1.0997490882873535,3.6867990493774414,6.908082012446193,6.588006076585733,27.57061178973783,24.17581421332206,-0.0001618862152099,0.0923051163554191,0,0,0
2296,79101.6466129085,2010-09-08 08:42:17,1380.7046410752223,7,7,-1.099568486213684,3.682428121566773,6.908082012446193,6.597174358574573,27.57061178973783,24.209595844858523,-9.713172767078504e-05,0.0923051163554191,0,0,0
2297,79131.65959209693,2010-09-08 08:42:47,1410.7176202937333,7,7,-1.099568486213684,3.6778953075408936,6.908082012446193,6.606341281502791,27.57061178973783,24.24333176424451,-0.0001295089750783,0.0923051163554191,0,0,0
2298,79161.67474005894,2010-09-08 08:43:17,1440.732768230699,7,7,-1.099568486213684,3.6736862659454346,6.908082012446193,6.615508817473552,27.57061178973783,24.277030156466388,-9.713172767078504e-05,0.0923051163554191,0,0,0
2299,79191.69002300793,2010-09-08 08:43:47,1470.7480511095002,7,7,-1.0997490882873535,3.6693155765533447,6.908082012446193,6.624676372744339,27.57061178973783,24.310689234769807,-0.0001295089750783,0.0923051163554191,0,0,0
2300,79221.70527123525,2010-09-08 08:44:17,1500.763299316756,7,7,-1.099568486213684,3.665268421173096,6.908082012446193,6.633843965074481,27.57061178973783,24.34431001360784,-0.0001942634553415,0.0923051163554191,0,0,0
2301,79251.7206465598,2010-09-08 08:44:47,1530.7786746363038,7,7,-1.099568486213684,3.661221265792847,6.908082012446193,6.643011499993393,27.57061178973783,24.37789285848476,-0.0001295089750783,0.0923051163554191,0,0,0
2302,79281.73588921821,2010-09-08 08:45:17,1560.793917309746,7,7,-1.0997490882873535,3.6571741104125977,6.908082012446193,6.652179105067043,27.57061178973783,24.41143876234049,-9.713172767078504e-05,0.0923051163554191,0,0,0
2303,79311.75113341544,2010-09-08 08:45:47,1590.8091614969676,7,7,-1.0993878841400146,3.653288841247559,6.908082012446193,6.661346644007379,27.57061178973783,24.444948195493,-9.713172767078504e-05,0.0923051163554191,0,0,0
2304,79341.766366119,2010-09-08 08:46:17,1620.8243942305985,7,7,-1.0993878841400146,3.64940357208252,6.908082012446193,6.670514193182367,27.57061178973783,24.478421877409563,-9.713172767078504e-05,0.0923051163554191,0,0,0
2305,79371.78158667726,2010-09-08 08:46:47,1650.8396147788133,7,7,-1.0993878841400146,3.645518302917481,6.908082012446193,6.679681725360487,27.57061178973783,24.511859722452737,-9.713172767078504e-05,0.0923051163554191,0,0,0
2306,79401.79687463373,2010-09-08 08:47:17,1680.8549027302768,7,7,-1.099568486213684,3.6417949199676514,6.908082012446193,6.688849216032803,27.57061178973783,24.54526218343729,-6.47544875391759e-05,0.0923051163554191,0,0,0
2307,79431.81212265551,2010-09-08 08:47:47,1710.8701507420446,7,7,-1.099568486213684,3.6380715370178223,6.908082012446193,6.698016698635736,27.57061178973783,24.57863036816005,-9.713172767078504e-05,0.0923051163554191,0,0,0
2308,79461.8272120664,2010-09-08 08:48:17,1740.8852401529202,7,7,-1.0993878841400146,3.634510040283203,6.908082012446193,6.707179502718973,27.57061178973783,24.61194860624757,-0.0001295089750783,0.0923051163554191,0,0,0
2309,79491.82723705417,2010-09-08 08:48:47,1770.8852651356656,7,7,-1.0993878841400146,3.630786657333374,6.908082012446193,6.716347029864543,27.57061178973783,24.645251740692085,-0.0001618862152099,0.0923051163554191,0,0,0
2310,79521.84243006865,2010-09-08 08:49:17,1800.900458250402,7,7,-1.099568486213684,3.6277108192443848,6.908082012446193,6.725514582536899,27.57061178973783,24.678523278403528,-3.237724376958795e-05,0.0923051163554191,0,0,0
2311,79551.85764444144,2010-09-08 08:49:47,1830.9156727284644,7,7,-1.0993878841400146,3.624311208724976,6.908082012446193,6.734682125923028,27.57061178973783,24.71176376157203,-6.47544875391759e-05,0.0923051163554191,0,0,0
2312,79581.87281401742,2010-09-08 08:50:17,1860.930842098932,7,7,-1.099568486213684,3.621073484420776,6.908082012446193,6.743849637904591,27.57061178973783,24.7449740107816,-9.713172767078504e-05,0.0923051163554191,0,0,0
2313,79611.88813706649,2010-09-08 08:50:47,1890.9461651429915,7,7,-1.099568486213684,3.617673873901367,6.908082012446193,6.753017205426309,27.57061178973783,24.778154863803188,-9.713172767078504e-05,0.0923051163554191,0,0,0
2314,79641.90338991032,2010-09-08 08:51:17,1920.9614179918333,7,7,-1.099568486213684,3.614598035812378,6.908082012446193,6.762184755515079,27.57061178973783,24.81130684195432,-9.713172767078504e-05,0.0923051163554191,0,0,0
2315,79671.91865803729,2010-09-08 08:51:47,1950.976686118812,7,7,-1.0993878841400146,3.611684083938599,6.908082012446193,6.771352269248037,27.57061178973783,24.8444304347134,-6.47544875391759e-05,0.0923051163554191,0,0,0
2316,79701.93393623442,2010-09-08 08:52:17,1980.9919644362271,7,7,-1.0997490882873535,3.6084463596344,6.908082012446193,6.780519821198637,27.57061178973783,24.877525966781707,-0.0001295089750783,0.0923051163554191,0,0,0
2317,79731.94920633131,2010-09-08 08:52:47,2011.007234412823,7,7,-1.0993878841400146,3.60553240776062,6.908082012446193,6.789687360642501,27.57061178973783,24.910593453003106,-6.47544875391759e-05,0.0923051163554191,0,0,0
2318,79761.96447622268,2010-09-08 08:53:17,2041.0225043042053,7,7,-1.099568486213684,3.602456569671631,6.908082012446193,6.79885484209664,27.57061178973783,24.94363308879804,-9.713172767078504e-05,0.0923051163554191,0,0,0
2319,79791.97972722694,2010-09-08 08:53:47,2071.037755308443,7,7,-1.0993878841400146,3.599704504013061,6.908082012446193,6.808022347894586,27.57061178973783,24.976645624925837,-3.237724376958795e-05,0.0923051163554191,0,0,0
2320,79821.99500203057,2010-09-08 08:54:17,2101.0530301421622,7,7,-1.0997490882873535,3.5966286659240723,6.908082012446193,6.817189865446298,27.57061178973783,25.00963136585878,-6.47544875391759e-05,0.0923051163554191,0,0,0
2321,79852.0102713004,2010-09-08 08:54:47,2131.068299391944,7,7,-1.099568486213684,3.593876600265503,6.908082012446193,6.82635738702276,27.57061178973783,25.04259021783952,-6.47544875391759e-05,0.0923051163554191,0,0,0
2322,79882.02552832969,2010-09-08 08:55:17,2161.083556411196,7,7,-1.099568486213684,3.5908010005950928,6.908082012446193,6.83552489072068,27.57061178973783,25.075521974041635,-9.713172767078504e-05,0.0923051163554191,0,0,0
2323,79912.04079869224,2010-09-08 08:55:47,2191.098826778767,7,7,-1.099568486213684,3.587887048721313,6.908082012446193,6.844692439167319,27.57061178973783,25.10842632382896,-3.237724376958795e-05,0.0923051163554191,0,0,0
2324,79942.05606153102,2010-09-08 08:56:17,2221.114089612533,7,7,-1.099568486213684,3.584811210632324,6.908082012446193,6.853859976149395,27.57061178973783,25.141303474370247,-9.713172767078504e-05,0.0923051163554191,0,0,0
2325,79972.07134898624,2010-09-08 08:56:47,2251.12937709282,7,7,-1.099568486213684,3.581735372543335,6.908082012446193,6.863027500074853,27.57061178973783,25.174153397929487,-9.713172767078504e-05,0.0923051163554191,0,0,0
2326,80002.08699056543,2010-09-08 08:57:17,2281.1450186770053,7,7,-1.0993878841400146,3.578821420669556,6.908082012446193,6.872195168442071,27.57061178973783,25.20697605659075,-6.47544875391759e-05,0.0923051163554191,0,0,0
2327,80032.10185977162,2010-09-08 08:57:47,2311.159887853141,7,7,-1.099568486213684,3.5759074687957764,6.908082012446193,6.881362648583292,27.57061178973783,25.239770476087287,0.0,0.0923051163554191,0,0,0
2328,80062.11714047499,2010-09-08 08:58:17,2341.1751685615245,7,7,-1.0997490882873535,3.572507858276367,6.908082012446193,6.890530248253738,27.57061178973783,25.272537531235383,-0.0001295089750783,0.0923051163554191,0,0,0
2329,80092.13243812067,2010-09-08 08:58:47,2371.190466222224,7,7,-1.099568486213684,3.569593906402588,6.908082012446193,6.899697823678613,27.57061178973783,25.30527654323308,-9.713172767078504e-05,0.0923051163554191,0,0,0
2330,80122.14766548088,2010-09-08 08:59:17,2401.2056935623923,7,7,-1.099568486213684,3.566518068313598,6.908082012446193,6.908865361868475,27.57061178973783,25.3379869983835,-6.47544875391759e-05,0.0923051163554191,0,0,0
2331,80152.1629727656,2010-09-08 08:59:47,2431.22100085714,7,7,-1.099568486213684,3.5632803440093994,6.908082012446193,6.918032940052483,27.57061178973783,25.370668201752625,-3.237724376958795e-05,0.0923051163554191,0,0,0
2332,80182.17822238638,2010-09-08 09:00:17,2461.236250492961,7,7,-1.0993878841400146,3.56020450592041,6.908082012446193,6.927200448213581,27.57061178973783,25.403320698725445,-9.713172767078504e-05,0.0923051163554191,0,0,0
2333,80212.19345276915,2010-09-08 09:00:47,2491.2514808506617,7,7,-1.0997490882873535,3.556643009185791,6.908082012446193,6.936367948227026,27.57061178973783,25.43594321381485,-0.0001618862152099,0.0923051163554191,0,0,0
2334,80242.20894241409,2010-09-08 09:01:17,2521.266970505608,7,7,-1.0993878841400146,3.553405284881592,6.908082012446193,6.945535657128593,27.57061178973783,25.468535699405848,-9.713172767078504e-05,0.0923051163554191,0,0,0
2335,80272.2239764417,2010-09-08 09:01:47,2551.2820045232133,7,7,-1.099568486213684,3.5500056743621826,6.908082012446193,6.954703177367798,27.57061178973783,25.501096476619903,-9.713172767078504e-05,0.0923051163554191,0,0,0
2336,80302.23924748095,2010-09-08 09:02:17,2581.297275562461,7,7,-1.099568486213684,3.5464441776275635,6.908082012446193,6.963870813712739,27.57061178973783,25.533625310348825,-0.0001295089750783,0.0923051163554191,0,0,0
2337,80332.25451437985,2010-09-08 09:02:47,2611.312542486437,7,7,-1.099568486213684,3.5427207946777344,6.908082012446193,6.973038486719539,27.57061178973783,25.56612113402477,-9.713172767078504e-05,0.0923051163554191,0,0,0
2338,80362.26990761913,2010-09-08 09:03:17,2641.3279357006527,7,7,-1.099568486213684,3.5391592979431152,6.908082012446193,6.98220614745302,27.57061178973783,25.59858335347394,-9.713172767078504e-05,0.0923051163554191,0,0,0
2339,80392.2850609997,2010-09-08 09:03:47,2671.3430891012567,7,7,-1.099568486213684,3.535112142562866,6.908082012446193,6.9913738323399,27.57061178973783,25.631010819746752,-9.713172767078504e-05,0.0923051163554191,0,0,0
2340,80422.30043450471,2010-09-08 09:04:17,2701.358462586225,7,7,-1.0993878841400146,3.531226873397827,6.908082012446193,7.000541508760239,27.57061178973783,25.663402013661784,-9.713172767078504e-05,0.0923051163554191,0,0,0
2341,80452.31579751853,2010-09-08 09:04:47,2731.373825600056,7,7,-1.0997490882873535,3.526855945587158,6.908082012446193,7.009709226691103,27.57061178973783,25.695755892763447,-0.0001295089750783,0.0923051163554191,0,0,0
2342,80482.33100103424,2010-09-08 09:05:17,2761.389029115754,7,7,-1.0997490882873535,3.5224850177764893,6.908082012446193,7.018876871737953,27.57061178973783,25.72807040853938,-9.713172767078504e-05,0.0923051163554191,0,0,0
2343,80512.34610851522,2010-09-08 09:05:47,2791.4041365967355,7,7,-1.099568486213684,3.5181140899658203,6.908082012446193,7.028044411090921,27.57061178973783,25.760343534898315,-9.713172767078504e-05,0.0923051163554191,0,0,0
2344,80542.36150505273,2010-09-08 09:06:17,2821.419533134246,7,7,-1.099568486213684,3.5130956172943115,6.908082012446193,7.037212174213489,27.57061178973783,25.79257432429862,-0.0001618862152099,0.0923051163554191,0,0,0
2345,80572.37678625736,2010-09-08 09:06:47,2851.4348143338566,7,7,-1.0993878841400146,3.508239269256592,6.908082012446193,7.046379847324314,27.57061178973783,25.82475903344047,-9.713172767078504e-05,0.0923051163554191,0,0,0
2346,80602.39192813922,2010-09-08 09:07:17,2881.449956250796,7,7,-1.099568486213684,3.502897024154663,6.908082012446193,7.055547451848786,27.57061178973783,25.856895636670227,-0.0001295089750783,0.0923051163554191,0,0,0
2347,80632.40730757904,2010-09-08 09:07:47,2911.46533565554,7,7,-1.0993878841400146,3.4970691204071045,6.908082012446193,7.064715125577435,27.57061178973783,25.888982042573,-0.0001295089750783,0.0923051163554191,0,0,0
2348,80662.42244957117,2010-09-08 09:08:17,2941.4804776526794,7,7,-1.099568486213684,3.490755558013916,6.908082012446193,7.073882778282684,27.57061178973783,25.921014220196984,-0.0001942634553415,0.0923051163554191,0,0,0
2349,80692.43758596432,2010-09-08 09:08:47,2971.4956140759045,7,7,-1.099568486213684,3.484118223190308,6.908082012446193,7.083050419109896,27.57061178973783,25.952987795829483,-0.0002266406954731,0.0923051163554191,0,0,0
2350,80722.45249584706,2010-09-08 09:09:17,3001.5105239586505,7,7,-1.099568486213684,3.4766714572906494,6.908082012446193,7.092217948634501,27.57061178973783,25.984895297195337,-0.0001942634553415,0.0923051163554191,0,0,0
