Data_Point,Test_Time(s),Date_Time,Step_Time(s),Step_Index,Cycle_Index,Current(A),Voltage(V),Charge_Capacity(Ah),Discharge_Capacity(Ah),Charge_Energy(Wh),Discharge_Energy(Wh),dV/dt(V/s),Internal_Resistance(Ohm),Is_FC_Data,AC_Impedance(Ohm),ACI_Phase_Angle(Deg)
282,9972.991694944876,2010-09-07 13:30:01,30.015275234720512,1,2,0.0,3.4263250827789307,0.730865520866677,1.029194039936994,2.959801985339275,3.762693664674647,0.0007770538213662,0.0889859497547149,0,0,0
283,10003.006943503007,2010-09-07 13:30:31,60.03052385801482,1,2,0.0,3.448827028274536,0.730865520866677,1.029194039936994,2.959801985339275,3.762693664674647,0.0005180359003134,0.0889859497547149,0,0,0
284,10033.022743612895,2010-09-07 13:31:01,90.04632399296706,1,2,0.0,3.465015649795532,0.730865520866677,1.029194039936994,2.959801985339275,3.762693664674647,0.0003561496851034,0.0889859497547149,0,0,0
285,10062.990574674664,2010-09-07 13:31:31,120.01415493443248,1,2,0.0,3.477642774581909,0.730865520866677,1.029194039936994,2.959801985339275,3.762693664674647,0.0002913951757363,0.0889859497547149,0,0,0
286,10093.006710811003,2010-09-07 13:32:01,30.015370698011576,2,2,0.5499359965324402,3.613950490951538,0.735451904996468,1.029194039936994,2.97623682467008,3.762693664674647,0.0013598442310467,0.0889859497547149,0,0,0
287,10123.021860061248,2010-09-07 13:32:31,60.03051994825545,2,2,0.5501165986061096,3.656364679336548,0.740038260203196,1.029194039936994,2.992914665368804,3.762693664674647,0.0009713172912597,0.0889859497547149,0,0,0
288,10153.037100689586,2010-09-07 13:33:01,90.04576055153055,2,2,0.5499359965324402,3.6872847080230713,0.74462452893269,1.029194039936994,3.009757711142019,3.762693664674647,0.0007122993702068,0.0889859497547149,0,0,0
289,10183.052385763867,2010-09-07 13:33:31,120.06104564084966,2,2,0.5499359965324402,3.7120532989501953,0.749210815223748,1.029194039936994,3.026727458734223,3.762693664674647,0.0006151676061563,0.0889859497547149,0,0,0
290,10213.067751083454,2010-09-07 13:34:01,150.07641094539832,2,2,0.5501165986061096,3.731965303421021,0.753797065628443,1.029194039936994,3.043798911806423,3.762693664674647,0.0004856586456298,0.0889859497547149,0,0,0
291,10243.082897807391,2010-09-07 13:34:31,180.09155766933614,2,2,0.5501165986061096,3.7481539249420166,0.758383338004292,1.029194039936994,3.06095293971528,3.762693664674647,0.0004209041653666,0.0889859497547149,0,0,0
292,10273.098134676346,2010-09-07 13:35:01,210.1067945382898,2,2,0.5501165986061096,3.759485721588135,0.762969615335284,1.029194039936994,3.078170301014185,3.762693664674647,0.0002590179501567,0.0889859497547149,0,0,0
293,10303.113646722182,2010-09-07 13:35:31,240.1223067044276,2,2,0.5501165986061096,3.766123056411743,0.767555870887976,1.029194039936994,3.09542871951771,3.762693664674647,0.0001618862152099,0.0889859497547149,0,0,0
294,10333.128678784908,2010-09-07 13:36:01,270.1373386468531,2,2,0.5501165986061096,3.770332098007202,0.772142046331984,1.029194039936994,3.112710689521602,3.762693664674647,0.0001295089750783,0.0889859497547149,0,0,0
295,10363.143912671418,2010-09-07 13:36:31,300.15257255842465,2,2,0.5501165986061096,3.773407936096192,0.776728276230911,1.029194039936994,3.130009203150659,3.762693664674647,6.47544875391759e-05,0.0889859497547149,0,0,0
296,10393.159172201937,2010-09-07 13:37:01,330.1678320889451,2,2,0.5501165986061096,3.7764837741851807,0.781314566622289,1.029194039936994,3.147322222487658,3.762693664674647,9.713172767078504e-05,0.0889859497547149,0,0,0
297,10423.174452734884,2010-09-07 13:37:31,360.18311259682827,2,2,0.5499359965324402,3.77939772605896,0.785900862603628,1.029194039936994,3.16464899903053,3.762693664674647,6.47544875391759e-05,0.0889859497547149,0,0,0
298,10453.189820901576,2010-09-07 13:38:01,390.1984807635213,2,2,0.5501165986061096,3.782473564147949,0.790487199323081,1.029194039936994,3.181989765558663,3.762693664674647,6.47544875391759e-05,0.0889859497547149,0,0,0
299,10483.20494951531,2010-09-07 13:38:31,420.2136093772532,2,2,0.5501165986061096,3.7855494022369385,0.795073500089263,1.029194039936994,3.199344412894765,3.762693664674647,6.47544875391759e-05,0.0889859497547149,0,0,0
300,10513.220211597196,2010-09-07 13:39:01,450.2288714591422,2,2,0.5499359965324402,3.7884633541107178,0.799659793489362,1.029194039936994,3.216713161370378,3.762693664674647,6.47544875391759e-05,0.0889859497547149,0,0,0
301,10543.235529718972,2010-09-07 13:39:31,480.2441896009655,2,2,0.5501165986061096,3.791701078414917,0.804246183530367,1.029194039936994,3.234096292476019,3.762693664674647,9.713172767078504e-05,0.0889859497547149,0,0,0
302,10573.25091112872,2010-09-07 13:40:01,510.2595710006902,2,2,0.5501165986061096,3.794615030288696,0.808832482750222,1.029194039936994,3.251492894104548,3.762693664674647,9.713172767078504e-05,0.0889859497547149,0,0,0
303,10603.26598329154,2010-09-07 13:40:31,540.274643153487,2,2,0.5501165986061096,3.7976908683776855,0.813418753787443,1.029194039936994,3.268903202885897,3.762693664674647,9.713172767078504e-05,0.0889859497547149,0,0,0
304,10633.281383397962,2010-09-07 13:41:01,570.2900432599065,2,2,0.5501165986061096,3.800604820251465,0.818005096647941,1.029194039936994,3.286327536075756,3.762693664674647,6.47544875391759e-05,0.0889859497547149,0,0,0
305,10663.298890754402,2010-09-07 13:41:31,600.3075506163461,2,2,0.5501165986061096,3.803518772125244,0.822591803297403,1.029194039936994,3.303766914156039,3.762693664674647,6.47544875391759e-05,0.0889859497547149,0,0,0
306,10693.311902098105,2010-09-07 13:42:02,630.3205620753342,2,2,0.550297200679779,3.8067564964294434,0.827177785793606,1.029194039936994,3.321217256479978,3.762693664674647,9.713172767078504e-05,0.0889859497547149,0,0,0
307,10723.327027944926,2010-09-07 13:42:32,660.3356878068718,2,2,0.5499359965324402,3.8095085620880127,0.831764122128689,1.029194039936994,3.338682809265977,3.762693664674647,6.47544875391759e-05,0.0889859497547149,0,0,0
308,10753.342320628202,2010-09-07 13:43:02,690.3509806154594,2,2,0.5501165986061096,3.812908172607422,0.836350551062641,1.029194039936994,3.35616277575748,3.762693664674647,9.713172767078504e-05,0.0889859497547149,0,0,0
309,10783.357565802888,2010-09-07 13:43:32,720.3662256648327,2,2,0.5501165986061096,3.815822124481201,0.840936843960322,1.029194039936994,3.373656727706723,3.762693664674647,3.237724376958795e-05,0.0889859497547149,0,0,0
310,10813.372855082667,2010-09-07 13:44:02,750.3815149446117,2,2,0.5501165986061096,3.8192217350006095,0.845523178982848,1.029194039936994,3.391165349291389,3.762693664674647,9.713172767078504e-05,0.0889859497547149,0,0,0
311,10843.388087701009,2010-09-07 13:44:32,780.3967476581929,2,2,0.5501165986061096,3.8222975730896,0.850109489402851,1.029194039936994,3.408688698514653,3.762693664674647,6.47544875391759e-05,0.0889859497547149,0,0,0
312,10873.403332249132,2010-09-07 13:45:02,810.4119921110773,2,2,0.5499359965324402,3.825535297393799,0.854695805916239,1.029194039936994,3.426227263911212,3.762693664674647,3.237724376958795e-05,0.0889859497547149,0,0,0
313,10903.419148193549,2010-09-07 13:45:32,840.4278080755424,2,2,0.5499359965324402,3.829096794128418,0.859282224107166,1.029194039936994,3.443781794297802,3.762693664674647,6.47544875391759e-05,0.0889859497547149,0,0,0
314,10933.420610759722,2010-09-07 13:46:02,870.4292707169049,2,2,0.5501165986061096,3.832658290863037,0.863866382575018,1.029194039936994,3.461343327851254,3.762693664674647,9.713172767078504e-05,0.0889859497547149,0,0,0
315,10963.433570629935,2010-09-07 13:46:32,900.4422307074196,2,2,0.5499359965324402,3.836057662963867,0.868452278600319,1.029194039936994,3.478927005271421,3.762693664674647,9.713172767078504e-05,0.0889859497547149,0,0,0
316,10993.44873717836,2010-09-07 13:47:02,930.4573970703796,2,2,0.5499359965324402,3.8392953872680655,0.873038457455647,1.029194039936994,3.496527458520675,3.762693664674647,6.47544875391759e-05,0.0889859497547149,0,0,0
317,11023.464000277789,2010-09-07 13:47:32,960.4726601597836,2,2,0.5499359965324402,3.842694997787476,0.877624712135327,1.029194039936994,3.514143682022908,3.762693664674647,6.47544875391759e-05,0.0889859497547149,0,0,0
318,11053.4792616078,2010-09-07 13:48:02,990.4879214697456,2,2,0.5501165986061096,3.845932722091675,0.882210995401831,1.029194039936994,3.531775006490312,3.762693664674647,6.47544875391759e-05,0.0889859497547149,0,0,0
319,11083.4947428317,2010-09-07 13:48:32,1020.5034027938972,2,2,0.5501165986061096,3.849170446395874,0.886797443218831,1.029194039936994,3.549421787939163,3.762693664674647,9.713172767078504e-05,0.0889859497547149,0,0,0
320,11113.509782859308,2010-09-07 13:49:02,1050.5184427513293,2,2,0.5501165986061096,3.8522462844848633,0.891383757445068,1.029194039936994,3.567082478121668,3.762693664674647,6.47544875391759e-05,0.0889859497547149,0,0,0
321,11143.525152359332,2010-09-07 13:49:32,1080.533812246338,2,2,0.5499359965324402,3.8551602363586426,0.895970167579091,1.029194039936994,3.584757622373072,3.762693664674647,3.237724376958795e-05,0.0889859497547149,0,0,0
322,11173.540304140894,2010-09-07 13:50:02,1110.548964002838,2,2,0.5499359965324402,3.858236074447632,0.900556443368723,1.029194039936994,3.602446153691226,3.762693664674647,9.713172767078504e-05,0.0889859497547149,0,0,0
323,11203.55554885944,2010-09-07 13:50:32,1140.5642087213853,2,2,0.5501165986061096,3.861150026321411,0.90514275861982,1.029194039936994,3.620148287320077,3.762693664674647,6.47544875391759e-05,0.0889859497547149,0,0,0
324,11233.570800575451,2010-09-07 13:51:02,1170.5794604373996,2,2,0.5501165986061096,3.8640639781951904,0.909729060503383,1.029194039936994,3.637863431974474,3.762693664674647,6.47544875391759e-05,0.0889859497547149,0,0,0
325,11263.586065654825,2010-09-07 13:51:32,1200.5947255167707,2,2,0.5501165986061096,3.86665415763855,0.914315367372977,1.029194039936994,3.655591123807917,3.762693664674647,6.47544875391759e-05,0.0889859497547149,0,0,0
326,11293.601612703034,2010-09-07 13:52:02,1230.610272660217,2,2,0.5501165986061096,3.869244337081909,0.918901740613702,1.029194039936994,3.673331141309223,3.762693664674647,6.47544875391759e-05,0.0889859497547149,0,0,0
327,11323.61659952784,2010-09-07 13:52:32,1260.6252593897843,2,2,0.5501165986061096,3.871834516525269,0.923488069087029,1.029194039936994,3.691082465261715,3.762693664674647,9.713172767078504e-05,0.0889859497547149,0,0,0
328,11353.631841073466,2010-09-07 13:53:02,1290.640500935412,2,2,0.5501165986061096,3.873939037322998,0.928074353867016,1.029194039936994,3.708844444899093,3.762693664674647,6.47544875391759e-05,0.0889859497547149,0,0,0
329,11383.647097245605,2010-09-07 13:53:32,1320.655757107549,2,2,0.5499359965324402,3.876043558120728,0.932660677863632,1.029194039936994,3.72661659258597,3.762693664674647,3.237724376958795e-05,0.0889859497547149,0,0,0
330,11413.662395227104,2010-09-07 13:54:02,1350.671055089049,2,2,0.5501165986061096,3.878148078918457,0.937246975822587,1.029194039936994,3.74439818733345,3.762693664674647,3.237724376958795e-05,0.0889859497547149,0,0,0
331,11443.677627243947,2010-09-07 13:54:32,1380.686287105891,2,2,0.5501165986061096,3.880090713500977,0.941833266024191,1.029194039936994,3.762188575267584,3.762693664674647,6.47544875391759e-05,0.0889859497547149,0,0,0
332,11473.692876428642,2010-09-07 13:55:02,1410.701536290587,2,2,0.550297200679779,3.881871461868286,0.946419546768394,1.029194039936994,3.779987172588009,3.762693664674647,6.47544875391759e-05,0.0889859497547149,0,0,0
333,11503.708132495516,2010-09-07 13:55:32,1440.7167923574616,2,2,0.5499359965324402,3.883328437805176,0.951005775695039,1.029194039936994,3.797793130774003,3.762693664674647,3.237724376958795e-05,0.0889859497547149,0,0,0
334,11533.723411900646,2010-09-07 13:56:02,1470.7320717876546,2,2,0.5501165986061096,3.8847854137420654,0.955592102673551,1.029194039936994,3.815606475481606,3.762693664674647,6.47544875391759e-05,0.0889859497547149,0,0,0
335,11563.738648834764,2010-09-07 13:56:32,1500.7473086967084,2,2,0.5501165986061096,3.886242389678955,0.960178441152553,1.029194039936994,3.833426308282967,3.762693664674647,6.47544875391759e-05,0.0889859497547149,0,0,0
336,11593.753902350269,2010-09-07 13:57:02,1530.7625622372768,2,2,0.5501165986061096,3.887375593185425,0.964764775597238,1.029194039936994,3.851252251000885,3.762693664674647,3.237724376958795e-05,0.0889859497547149,0,0,0
337,11623.769179003531,2010-09-07 13:57:32,1560.7778388654758,2,2,0.5499359965324402,3.888346910476685,0.969351096071422,1.029194039936994,3.869083874840448,3.762693664674647,-3.237724376958795e-05,0.0889859497547149,0,0,0
338,11653.784430032832,2010-09-07 13:58:02,1590.7930898997884,2,2,0.5499359965324402,3.889803886413574,0.973937458364491,1.029194039936994,3.886921182867606,3.762693664674647,3.237724376958795e-05,0.0889859497547149,0,0,0
339,11683.799687182409,2010-09-07 13:58:32,1620.8083471646532,2,2,0.5499359965324402,3.890937089920044,0.978523833811046,1.029194039936994,3.90476374696605,3.762693664674647,3.237724376958795e-05,0.0889859497547149,0,0,0
340,11713.81493196612,2010-09-07 13:59:02,1650.8235918280632,2,2,0.5501165986061096,3.892232179641724,0.98311015042806,1.029194039936994,3.922611266526896,3.762693664674647,6.47544875391759e-05,0.0889859497547149,0,0,0
341,11743.830208328653,2010-09-07 13:59:32,1680.8388682106488,2,2,0.5501165986061096,3.893041610717773,0.987696516421551,1.029194039936994,3.94046396141633,3.762693664674647,0.0,0.0889859497547149,0,0,0
342,11773.845473227577,2010-09-07 14:00:02,1710.8541331195947,2,2,0.5499359965324402,3.894174814224243,0.992282841778971,1.029194039936994,3.958321471939669,3.762693664674647,3.237724376958795e-05,0.0889859497547149,0,0,0
343,11803.861214039449,2010-09-07 14:00:32,1740.869873906405,2,2,0.5501165986061096,3.894984245300293,0.996869323093828,1.029194039936994,3.97618421801231,3.762693664674647,0.0,0.0889859497547149,0,0,0
344,11833.875972073154,2010-09-07 14:01:02,1770.8846319350996,2,2,0.5501165986061096,3.8961174488067623,1.001455627719835,1.029194039936994,3.994050812802373,3.762693664674647,3.237724376958795e-05,0.0889859497547149,0,0,0
345,11863.891223217744,2010-09-07 14:01:32,1800.8998830796877,2,2,0.5501165986061096,3.8970887660980233,1.006041941558417,1.029194039936994,4.011922385476622,3.762693664674647,0.0,0.0889859497547149,0,0,0
346,11893.9064983472,2010-09-07 14:02:02,1830.9151582091447,2,2,0.5501165986061096,3.898383855819702,1.010628274827138,1.029194039936994,4.029798825630474,3.762693664674647,6.47544875391759e-05,0.0889859497547149,0,0,0
347,11923.921869486314,2010-09-07 14:02:32,1860.9305293482576,2,2,0.5501165986061096,3.899355173110962,1.015214611869319,1.029194039936994,4.047680135726107,3.762693664674647,3.237724376958795e-05,0.0889859497547149,0,0,0
348,11953.937022450827,2010-09-07 14:03:02,1890.945682337836,2,2,0.5499359965324402,3.900164604187012,1.019800926820032,1.029194039936994,4.065566098234744,3.762693664674647,0.0,0.0889859497547149,0,0,0
349,11983.952266222012,2010-09-07 14:03:32,1920.960926083956,2,2,0.5499359965324402,3.9014596939086914,1.024387192911699,1.029194039936994,4.083456670580335,3.762693664674647,3.237724376958795e-05,0.0889859497547149,0,0,0
350,12013.967545015614,2010-09-07 14:04:02,1950.9762049026224,2,2,0.5501165986061096,3.902592897415161,1.028973477425885,1.029194039936994,4.101352236159077,3.762693664674647,6.47544875391759e-05,0.0889859497547149,0,0,0
351,12043.982927838892,2010-09-07 14:04:32,1980.991587710863,2,2,0.5501165986061096,3.903564214706421,1.033559823434846,1.029194039936994,4.119252913928785,3.762693664674647,0.0,0.0889859497547149,0,0,0
352,12073.998193304227,2010-09-07 14:05:02,2011.0068532664227,2,2,0.5499359965324402,3.90469741821289,1.038146126786611,1.029194039936994,4.13715840230021,3.762693664674647,3.237724376958795e-05,0.0889859497547149,0,0,0
353,12104.013303627304,2010-09-07 14:05:32,2041.0219634992727,2,2,0.5501165986061096,3.90583062171936,1.042732367654473,1.029194039936994,4.155068477578187,3.762693664674647,3.237724376958795e-05,0.0889859497547149,0,0,0
354,12134.028577237968,2010-09-07 14:06:02,2071.037237099915,2,2,0.550297200679779,3.90696382522583,1.047318598091888,1.029194039936994,4.172983587293292,3.762693664674647,6.47544875391759e-05,0.0889859497547149,0,0,0
355,12164.043975459686,2010-09-07 14:06:32,2101.0526353266423,2,2,0.5499359965324402,3.90793514251709,1.051904837452458,1.029194039936994,4.190903840338872,3.762693664674647,3.237724376958795e-05,0.0889859497547149,0,0,0
356,12194.059082299063,2010-09-07 14:07:02,2131.0677421610094,2,2,0.5499359965324402,3.90906834602356,1.056491048131313,1.029194039936994,4.208829162414506,3.762693664674647,3.237724376958795e-05,0.0889859497547149,0,0,0
357,12224.074476430573,2010-09-07 14:07:32,2161.083136392765,2,2,0.5501165986061096,3.910201549530029,1.061077357756579,1.029194039936994,4.226760221473414,3.762693664674647,0.0,0.0889859497547149,0,0,0
358,12254.090055859606,2010-09-07 14:08:02,2191.0987158167886,2,2,0.5501165986061096,3.911334753036499,1.065663740640028,1.029194039936994,4.244696813353725,3.762693664674647,0.0,0.0889859497547149,0,0,0
359,12284.104874359246,2010-09-07 14:08:32,2221.1135342211905,2,2,0.5501165986061096,3.9126298427581783,1.070250020068891,1.029194039936994,4.262638421303098,3.762693664674647,3.237724376958795e-05,0.0889859497547149,0,0,0
360,12314.12013118301,2010-09-07 14:09:02,2251.1287910449546,2,2,0.5501165986061096,3.9139246940612793,1.074836328640167,1.029194039936994,4.280585639929755,3.762693664674647,3.237724376958795e-05,0.0889859497547149,0,0,0
361,12344.135398743574,2010-09-07 14:09:32,2281.144058605519,2,2,0.5501165986061096,3.915057897567749,1.079422635052761,1.029194039936994,4.298538417075122,3.762693664674647,3.237724376958795e-05,0.0889859497547149,0,0,0
362,12374.150688925603,2010-09-07 14:10:02,2311.159348812613,2,2,0.5501165986061096,3.9163529872894287,1.08400893129845,1.029194039936994,4.316496584863007,3.762693664674647,6.47544875391759e-05,0.0889859497547149,0,0,0
363,12404.165926285785,2010-09-07 14:10:32,2341.174586172793,2,2,0.5501165986061096,3.9174861907958975,1.088595259009673,1.029194039936994,4.334460644198795,3.762693664674647,3.237724376958795e-05,0.0889859497547149,0,0,0
364,12434.181183791252,2010-09-07 14:11:02,2371.189843653196,2,2,0.5499359965324402,3.918619394302368,1.093181568604604,1.029194039936994,4.35243030984269,3.762693664674647,3.237724376958795e-05,0.0889859497547149,0,0,0
365,12464.196457356806,2010-09-07 14:11:32,2401.2051172388,2,2,0.5499359965324402,3.919914484024048,1.097767885912116,1.029194039936994,4.370405838005749,3.762693664674647,3.237724376958795e-05,0.0889859497547149,0,0,0
366,12494.2117157946,2010-09-07 14:12:02,2431.2203756565427,2,2,0.5501165986061096,3.921209573745728,1.102354260026244,1.029194039936994,4.388387402873577,3.762693664674647,0.0,0.0889859497547149,0,0,0
367,12524.226965681044,2010-09-07 14:12:32,2461.23562554299,2,2,0.5501165986061096,3.9225046634674072,1.10694058040722,1.029194039936994,4.406374716542518,3.762693664674647,3.237724376958795e-05,0.0889859497547149,0,0,0
368,12554.24222258501,2010-09-07 14:13:02,2491.2508824469546,2,2,0.5501165986061096,3.923961639404297,1.111526822239741,1.029194039936994,4.424367670966093,3.762693664674647,6.47544875391759e-05,0.0889859497547149,0,0,0
369,12584.257516431186,2010-09-07 14:13:32,2521.266176313182,2,2,0.5501165986061096,3.9254186153411865,1.116113157560027,1.029194039936994,4.442367167629574,3.762693664674647,6.47544875391759e-05,0.0889859497547149,0,0,0
370,12614.275101436448,2010-09-07 14:14:02,2551.2837613936326,2,2,0.5501165986061096,3.926551818847656,1.120699917922873,1.029194039936994,4.460374354959803,3.762693664674647,6.47544875391759e-05,0.0889859497547149,0,0,0
371,12644.288147165982,2010-09-07 14:14:33,2581.29680713319,2,2,0.5501165986061096,3.928008794784546,1.125285887012542,1.029194039936994,4.478384696694871,3.762693664674647,3.237724376958795e-05,0.0889859497547149,0,0,0
372,12674.303290641812,2010-09-07 14:15:03,2611.3119506240578,2,2,0.5501165986061096,3.9293038845062256,1.129872256339571,1.029194039936994,4.496402839560235,3.762693664674647,0.0,0.0889859497547149,0,0,0
373,12704.31870179581,2010-09-07 14:15:33,2641.3273616677784,2,2,0.5499359965324402,3.930598974227905,1.134458572224162,1.029194039936994,4.514427094536754,3.762693664674647,0.0,0.0889859497547149,0,0,0
374,12734.333808529926,2010-09-07 14:16:03,2671.342468406908,2,2,0.5501165986061096,3.932217836380005,1.139044855219948,1.029194039936994,4.532457526711961,3.762693664674647,6.47544875391759e-05,0.0889859497547149,0,0,0
375,12764.34919529304,2010-09-07 14:16:33,2701.357855154983,2,2,0.550297200679779,3.933512926101685,1.143631187721205,1.029194039936994,4.550494613616633,3.762693664674647,0.0,0.0889859497547149,0,0,0
376,12794.364367039436,2010-09-07 14:17:03,2731.3730269214307,2,2,0.5499359965324402,3.934969902038574,1.148217504483884,1.029194039936994,4.568538101657928,3.762693664674647,3.237724376958795e-05,0.0889859497547149,0,0,0
377,12824.379577146588,2010-09-07 14:17:33,2761.3882370335955,2,2,0.5501165986061096,3.936103105545044,1.152803658149216,1.029194039936994,4.586587464494667,3.762693664674647,0.0,0.0889859497547149,0,0,0
378,12854.397229003724,2010-09-07 14:18:03,2791.405888865668,2,2,0.5499359965324402,3.937721967697144,1.157390121303772,1.029194039936994,4.604644515253725,3.762693664674647,3.237724376958795e-05,0.0889859497547149,0,0,0
379,12884.410128879184,2010-09-07 14:18:33,2821.41878888649,2,2,0.5501165986061096,3.939178943634033,1.161975946612719,1.029194039936994,4.622705830157275,3.762693664674647,3.237724376958795e-05,0.0889859497547149,0,0,0
380,12914.425360515072,2010-09-07 14:19:03,2851.434020397068,2,2,0.5499359965324402,3.940635919570923,1.166562096319856,1.029194039936994,4.640775160640708,3.762693664674647,0.0,0.0889859497547149,0,0,0
381,12944.440619208504,2010-09-07 14:19:33,2881.4492790654363,2,2,0.5501165986061096,3.9422547817230233,1.171148348887199,1.029194039936994,4.658851540504898,3.762693664674647,6.47544875391759e-05,0.0889859497547149,0,0,0
382,12974.455902423144,2010-09-07 14:20:03,2911.4645622800763,2,2,0.5497553944587708,3.943549871444702,1.175734651545383,1.029194039936994,4.67693492034419,3.762693664674647,0.0,0.0889859497547149,0,0,0
383,13004.471297677452,2010-09-07 14:20:33,2941.4799575494217,2,2,0.5499359965324402,3.9451687335968018,1.180320948927458,1.029194039936994,4.695025086250237,3.762693664674647,3.237724376958795e-05,0.0889859497547149,0,0,0
384,13034.486406602036,2010-09-07 14:21:03,2971.495066484031,2,2,0.5501165986061096,3.9466257095336914,1.184907232099558,1.029194039936994,4.713122164301566,3.762693664674647,3.237724376958795e-05,0.0889859497547149,0,0,0
385,13064.501662964649,2010-09-07 14:21:33,3001.510322826594,2,2,0.5501165986061096,3.948244571685791,1.189493557093036,1.029194039936994,4.731226216448355,3.762693664674647,3.237724376958795e-05,0.0889859497547149,0,0,0
386,13094.516935201887,2010-09-07 14:22:03,3031.525595068845,2,2,0.5501165986061096,3.9497015476226807,1.194079862572852,1.029194039936994,4.749337301256086,3.762693664674647,6.47544875391759e-05,0.0889859497547149,0,0,0
387,13124.532313849744,2010-09-07 14:22:33,3061.5409737167006,2,2,0.5499359965324402,3.95132040977478,1.198666231311033,1.029194039936994,4.767455795679615,3.762693664674647,3.237724376958795e-05,0.0889859497547149,0,0,0
388,13154.547443821866,2010-09-07 14:23:03,3091.5561036838108,2,2,0.5499359965324402,3.95277738571167,1.203252588770602,1.029194039936994,4.785581391512542,3.762693664674647,3.237724376958795e-05,0.0889859497547149,0,0,0
389,13184.562716199454,2010-09-07 14:23:33,3121.5713760613994,2,2,0.5499359965324402,3.9543962478637695,1.207838925941474,1.029194039936994,4.803714145801252,3.762693664674647,3.237724376958795e-05,0.0889859497547149,0,0,0
390,13214.57821964382,2010-09-07 14:24:03,3151.5868795258166,2,2,0.5501165986061096,3.956015110015869,1.212425319717107,1.029194039936994,4.821854450629234,3.762693664674647,3.237724376958795e-05,0.0889859497547149,0,0,0
391,13244.593245380758,2010-09-07 14:24:33,3181.6019053579894,2,2,0.5501165986061096,3.9576339721679688,1.217011682846471,1.029194039936994,4.840002004014231,3.762693664674647,3.237724376958795e-05,0.0889859497547149,0,0,0
392,13274.608497763436,2010-09-07 14:25:03,3211.6171576454303,2,2,0.5501165986061096,3.959252834320069,1.221598033784189,1.029194039936994,4.858156941494632,3.762693664674647,3.237724376958795e-05,0.0889859497547149,0,0,0
393,13304.623760712488,2010-09-07 14:25:33,3241.632420569422,2,2,0.5501165986061096,3.961033582687378,1.226184388290177,1.029194039936994,4.876319424165753,3.762693664674647,6.47544875391759e-05,0.0889859497547149,0,0,0
394,13334.63903211765,2010-09-07 14:26:03,3271.647691974583,2,2,0.5501165986061096,3.9626524448394775,1.230770779304441,1.029194039936994,4.894489672493251,3.762693664674647,3.237724376958795e-05,0.0889859497547149,0,0,0
395,13364.654283076776,2010-09-07 14:26:33,3301.6629429387203,2,2,0.5501165986061096,3.964271306991577,1.235357111319987,1.029194039936994,4.912667407580317,3.762693664674647,3.237724376958795e-05,0.0889859497547149,0,0,0
396,13394.6695541862,2010-09-07 14:27:03,3331.678214048144,2,2,0.5499359965324402,3.966052055358887,1.239943404908876,1.029194039936994,4.93085281940445,3.762693664674647,3.237724376958795e-05,0.0889859497547149,0,0,0
397,13424.684822749265,2010-09-07 14:27:33,3361.693482606198,2,2,0.5499359965324402,3.9676709175109854,1.244529818765661,1.029194039936994,4.949046654473868,3.762693664674647,3.237724376958795e-05,0.0889859497547149,0,0,0
398,13454.700083958978,2010-09-07 14:28:03,3391.7087438159097,2,2,0.5501165986061096,3.969451665878296,1.249116201191768,1.029194039936994,4.967248366545368,3.762693664674647,3.237724376958795e-05,0.0889859497547149,0,0,0
399,13484.715331825382,2010-09-07 14:28:33,3421.7239916873277,2,2,0.5501165986061096,3.9715561866760254,1.253702537486207,1.029194039936994,4.985457985867607,3.762693664674647,9.713172767078504e-05,0.0889859497547149,0,0,0
400,13514.730598147857,2010-09-07 14:29:03,3451.739258004789,2,2,0.5501165986061096,3.973175048828125,1.25828891788041,1.029194039936994,5.00367599739637,3.762693664674647,3.237724376958795e-05,0.0889859497547149,0,0,0
401,13544.74587441014,2010-09-07 14:29:33,3481.754534272087,2,2,0.5499359965324402,3.9747939109802246,1.262875281112464,1.029194039936994,5.021902208349604,3.762693664674647,3.237724376958795e-05,0.0889859497547149,0,0,0
402,13574.761133669988,2010-09-07 14:30:03,3511.769793526919,2,2,0.5501165986061096,3.976736545562744,1.267461640881165,1.029194039936994,5.040136738921549,3.762693664674647,6.47544875391759e-05,0.0889859497547149,0,0,0
403,13604.77638764163,2010-09-07 14:30:33,3541.785047498564,2,2,0.5501165986061096,3.978355407714844,1.272048095351754,1.029194039936994,5.058379657430542,3.762693664674647,6.47544875391759e-05,0.0889859497547149,0,0,0
404,13634.7916773174,2010-09-07 14:31:03,3571.800337219444,2,2,0.5499359965324402,3.9802980422973633,1.276634385895714,1.029194039936994,5.076630917187293,3.762693664674647,0.0,0.0889859497547149,0,0,0
405,13664.807045814918,2010-09-07 14:31:33,3601.8157056768623,2,2,0.5501165986061096,3.9824025630950928,1.281220718164986,1.029194039936994,5.094890994698572,3.762693664674647,6.47544875391759e-05,0.0889859497547149,0,0,0
406,13694.822175100326,2010-09-07 14:32:03,3631.8308349672834,2,2,0.5501165986061096,3.9841833114624015,1.285806959488234,1.029194039936994,5.113159375180358,3.762693664674647,3.237724376958795e-05,0.0889859497547149,0,0,0
407,13724.838068222389,2010-09-07 14:32:33,3661.846728114409,2,2,0.5501165986061096,3.986125946044922,1.290393375971473,1.029194039936994,5.131437372735472,3.762693664674647,3.237724376958795e-05,0.0889859497547149,0,0,0
408,13754.85270605606,2010-09-07 14:33:03,3691.861365912991,2,2,0.5501165986061096,3.9882304668426514,1.294979534421601,1.029194039936994,5.14972335088539,3.762693664674647,6.47544875391759e-05,0.0889859497547149,0,0,0
409,13784.867985736875,2010-09-07 14:33:33,3721.876645593809,2,2,0.5501165986061096,3.990011215209961,1.299565833285997,1.029194039936994,5.168018901920857,3.762693664674647,3.237724376958795e-05,0.0889859497547149,0,0,0
410,13814.883229954174,2010-09-07 14:34:03,3751.8918898111056,2,2,0.5499359965324402,3.992277622222901,1.304152029125091,1.029194039936994,5.186323219179908,3.762693664674647,6.47544875391759e-05,0.0889859497547149,0,0,0
411,13844.898497830529,2010-09-07 14:34:33,3781.907157712521,2,2,0.5501165986061096,3.994381904602051,1.308738330699406,1.029194039936994,5.204637256756099,3.762693664674647,9.70840483205393e-05,0.0889859497547149,0,0,0
412,13874.913747155571,2010-09-07 14:35:03,3811.922407012504,2,2,0.5501165986061096,3.9963245391845694,1.313324593933129,1.029194039936994,5.222960568553798,3.762693664674647,9.713172767078504e-05,0.0889859497547149,0,0,0
413,13904.92900692168,2010-09-07 14:35:33,3841.9376667786128,2,2,0.5499359965324402,3.99826717376709,1.317910914481267,1.029194039936994,5.24129365590299,3.762693664674647,3.237724376958795e-05,0.0889859497547149,0,0,0
414,13934.944284266669,2010-09-07 14:36:03,3871.9529441286136,2,2,0.550297200679779,4.000695705413818,1.322497193147679,1.029194039936994,5.259636007555716,3.762693664674647,0.0001295089750783,0.0889859497547149,0,0,0
415,13964.9596638268,2010-09-07 14:36:33,3901.968323693759,2,2,0.5501165986061096,4.002476215362549,1.327083407644817,1.029194039936994,5.277987856634693,3.762693664674647,0.0,0.0889859497547149,0,0,0
416,13994.974808234958,2010-09-07 14:37:03,3931.98346809189,2,2,0.5501165986061096,4.004580974578857,1.331669698270271,1.029194039936994,5.296349797426004,3.762693664674647,6.47544875391759e-05,0.0889859497547149,0,0,0
417,14024.990066592552,2010-09-07 14:37:33,3961.998726479559,2,2,0.5501165986061096,4.007009029388428,1.336255951669539,1.029194039936994,5.314721458435167,3.762693664674647,9.70840483205393e-05,0.0889859497547149,0,0,0
418,14055.005344739542,2010-09-07 14:38:03,3992.014004621536,2,2,0.5501165986061096,4.008951663970947,1.340842226997179,1.029194039936994,5.333103126849838,3.762693664674647,6.47544875391759e-05,0.0889859497547149,0,0,0
419,14085.020590961842,2010-09-07 14:38:33,4022.029250823787,2,2,0.550297200679779,4.011380195617676,1.345428458058958,1.029194039936994,5.351494571711681,3.762693664674647,9.71794142969884e-05,0.0889859497547149,0,0,0
420,14115.035850572564,2010-09-07 14:39:03,4052.044510434508,2,2,0.5501165986061096,4.013484477996826,1.350014743322237,1.029194039936994,5.369896312157506,3.762693664674647,6.47544875391759e-05,0.0889859497547149,0,0,0
421,14145.051122514064,2010-09-07 14:39:33,4082.059782370995,2,2,0.5499359965324402,4.015589237213135,1.354601054973391,1.029194039936994,5.388308243662724,3.762693664674647,6.47544875391759e-05,0.0889859497547149,0,0,0
422,14175.066634930829,2010-09-07 14:40:03,4112.075294882997,2,2,0.5501165986061096,4.018017292022705,1.359187407308185,1.029194039936994,5.406730631241601,3.762693664674647,6.47544875391759e-05,0.0889859497547149,0,0,0
423,14205.081649655272,2010-09-07 14:40:33,4142.090309512206,2,2,0.5499359965324402,4.020122051239014,1.363773655469064,1.029194039936994,5.425162885347883,3.762693664674647,3.24249267578125e-05,0.0889859497547149,0,0,0
424,14235.096861286229,2010-09-07 14:41:03,4172.105521163211,2,2,0.5499359965324402,4.022388458251953,1.368359680782734,1.029194039936994,5.443604633776924,3.762693664674647,6.47544875391759e-05,0.0889859497547149,0,0,0
425,14265.112150776533,2010-09-07 14:41:33,4202.120810633465,2,2,0.5499359965324402,4.024654865264893,1.372944948324757,1.029194039936994,5.462053677372191,3.762693664674647,3.24249267578125e-05,0.0889859497547149,0,0,0
426,14295.12741684838,2010-09-07 14:42:03,4232.136076730377,2,2,0.5501165986061096,4.026921272277832,1.377530422145627,1.029194039936994,5.480514105754379,3.762693664674647,6.47544875391759e-05,0.0889859497547149,0,0,0
427,14325.1426812661,2010-09-07 14:42:33,4262.151341148096,2,2,0.5499359965324402,4.029511451721191,1.382115796566197,1.029194039936994,5.498984809511143,3.762693664674647,6.47544875391759e-05,0.0889859497547149,0,0,0
428,14355.157944295355,2010-09-07 14:43:03,4292.166604172337,2,2,0.5501165986061096,4.031777858734131,1.386701107958568,1.029194039936994,5.517465962173151,3.762693664674647,6.47544875391759e-05,0.0889859497547149,0,0,0
429,14385.173319720168,2010-09-07 14:43:33,4322.181979587122,2,2,0.5499359965324402,4.034205913543701,1.391286420390176,1.029194039936994,5.535958041074904,3.762693664674647,6.47544875391759e-05,0.0889859497547149,0,0,0
430,14415.188464554389,2010-09-07 14:44:03,4352.197124436381,2,2,0.5501165986061096,4.036472320556641,1.395871755457542,1.029194039936994,5.554461216328442,3.762693664674647,3.24249267578125e-05,0.0889859497547149,0,0,0
431,14445.203886665731,2010-09-07 14:44:33,4382.212546532692,2,2,0.5501165986061096,4.038900375366211,1.400458100406195,1.029194039936994,5.572979749274942,3.762693664674647,3.23295607813634e-05,0.0889859497547149,0,0,0
432,14475.219034567612,2010-09-07 14:45:03,4412.227694444594,2,2,0.5501165986061096,4.04149055480957,1.405044416530249,1.029194039936994,5.591509317390782,3.762693664674647,6.47544875391759e-05,0.0889859497547149,0,0,0
433,14505.234300494098,2010-09-07 14:45:33,4442.242960376092,2,2,0.5501165986061096,4.04408073425293,1.40963067357941,1.029194039936994,5.610049990169108,3.762693664674647,9.70840483205393e-05,0.0889859497547149,0,0,0
434,14535.251845459414,2010-09-07 14:46:03,4472.260505411585,2,2,0.5501165986061096,4.046347141265869,1.414217321300835,1.029194039936994,5.628603638502769,3.762693664674647,6.47544875391759e-05,0.0889859497547149,0,0,0
435,14565.264830131538,2010-09-07 14:46:34,4502.273489988472,2,2,0.5501165986061096,4.0489373207092285,1.418803285485567,1.029194039936994,5.647165980858719,3.762693664674647,6.47544875391759e-05,0.0889859497547149,0,0,0
436,14595.280102198352,2010-09-07 14:47:04,4532.288762060297,2,2,0.5499359965324402,4.051365852355957,1.423389655355011,1.029194039936994,5.665741561480324,3.762693664674647,6.47544875391759e-05,0.0889859497547149,0,0,0
437,14625.29534129286,2010-09-07 14:47:34,4562.304001149793,2,2,0.5501165986061096,4.053956031799316,1.42797605098258,1.029194039936994,5.684328853618501,3.762693664674647,6.47544875391759e-05,0.0889859497547149,0,0,0
438,14655.310625119027,2010-09-07 14:48:04,4592.319284975959,2,2,0.5499359965324402,4.056384086608887,1.43256249749318,1.029194039936994,5.702928095458749,3.762693664674647,3.23295607813634e-05,0.0889859497547149,0,0,0
439,14685.32590017831,2010-09-07 14:48:34,4622.334560150529,2,2,0.5499359965324402,4.059136390686035,1.437148888343318,1.029194039936994,5.72153898696223,3.762693664674647,6.47544875391759e-05,0.0889859497547149,0,0,0
440,14715.34111560875,2010-09-07 14:49:04,4652.349775490744,2,2,0.5501165986061096,4.0617265701293945,1.441735288332099,1.029194039936994,5.740161762331168,3.762693664674647,3.24249267578125e-05,0.0889859497547149,0,0,0
441,14745.356385389858,2010-09-07 14:49:34,4682.365045246789,2,2,0.5501165986061096,4.064478397369385,1.446321616757537,1.029194039936994,5.758796307829055,3.762693664674647,9.70840483205393e-05,0.0889859497547149,0,0,0
442,14775.372629974225,2010-09-07 14:50:04,4712.381289836168,2,2,0.5499359965324402,4.067068576812744,1.450908128822653,1.029194039936994,5.777443925882445,3.762693664674647,6.47544875391759e-05,0.0889859497547149,0,0,0
443,14805.387154073996,2010-09-07 14:50:34,4742.395814031178,2,2,0.5499359965324402,4.069820880889893,1.455494273941883,1.029194039936994,5.796102448584348,3.762693664674647,6.47544875391759e-05,0.0889859497547149,0,0,0
444,14835.402207555184,2010-09-07 14:51:04,4772.410867417129,2,2,0.5501165986061096,4.072411060333252,1.460080549669996,1.029194039936994,5.814773863276199,3.762693664674647,3.24249267578125e-05,0.0889859497547149,0,0,0
445,14865.41759813282,2010-09-07 14:51:34,4802.426257999776,2,2,0.5501165986061096,4.075325012207031,1.464666836482474,1.029194039936994,5.833457815439395,3.762693664674647,0.0001295089750783,0.0889859497547149,0,0,0
446,14895.432797638508,2010-09-07 14:52:04,4832.441457500453,2,2,0.5501165986061096,4.0780768394470215,1.46925314111282,1.029194039936994,5.852154511458186,3.762693664674647,6.47544875391759e-05,0.0889859497547149,0,0,0
447,14925.448124968269,2010-09-07 14:52:34,4862.456784920436,2,2,0.5501165986061096,4.08082914352417,1.473839446063272,1.029194039936994,5.870863943115428,3.762693664674647,3.24249267578125e-05,0.0889859497547149,0,0,0
448,14955.463261521816,2010-09-07 14:53:04,4892.471921383762,2,2,0.5501165986061096,4.08358097076416,1.478425747542499,1.029194039936994,5.889586113075335,3.762693664674647,6.47544875391759e-05,0.0889859497547149,0,0,0
449,14985.478656304947,2010-09-07 14:53:34,4922.487316201981,2,2,0.5499359965324402,4.086333274841309,1.483012034892762,1.029194039936994,5.908321170716691,3.762693664674647,3.24249267578125e-05,0.0889859497547149,0,0,0
450,15015.493801585284,2010-09-07 14:54:04,4952.502461442216,2,2,0.5501165986061096,4.089408874511719,1.487598350164427,1.029194039936994,5.927069427065775,3.762693664674647,6.47544875391759e-05,0.0889859497547149,0,0,0
451,15045.50905694038,2010-09-07 14:54:34,4982.517716897563,2,2,0.5501165986061096,4.092322826385498,1.492184644329579,1.029194039936994,5.945830810224243,3.762693664674647,6.47544875391759e-05,0.0889859497547149,0,0,0
452,15075.5243149471,2010-09-07 14:55:04,5012.532974804029,2,2,0.5501165986061096,4.095075130462647,1.496770923830402,1.029194039936994,5.964605538231408,3.762693664674647,6.47544875391759e-05,0.0889859497547149,0,0,0
453,15105.539603444924,2010-09-07 14:55:34,5042.548263326919,2,2,0.5501165986061096,4.097989082336426,1.501357199685929,1.029194039936994,5.983393767047027,3.762693664674647,6.47544875391759e-05,0.0889859497547149,0,0,0
454,15135.555091916918,2010-09-07 14:56:04,5072.563751874101,2,2,0.5499359965324402,4.101064682006836,1.505943504960262,1.029194039936994,6.002195740521822,3.762693664674647,9.70840483205393e-05,0.0889859497547149,0,0,0
455,15165.570237187228,2010-09-07 14:56:34,5102.578897044161,2,2,0.5501165986061096,4.103978633880615,1.510529802069259,1.029194039936994,6.021011385034586,3.762693664674647,6.47544875391759e-05,0.0889859497547149,0,0,0
456,15195.585375013958,2010-09-07 14:57:04,5132.594034875901,2,2,0.550297200679779,4.107216358184815,1.515116028935224,1.029194039936994,6.039840633705668,3.762693664674647,0.0001295089750783,0.0889859497547149,0,0,0
457,15225.6006389605,2010-09-07 14:57:34,5162.60929885252,2,2,0.5501165986061096,4.110130310058594,1.519702298256389,1.029194039936994,6.05868399655521,3.762693664674647,6.47544875391759e-05,0.0889859497547149,0,0,0
458,15255.615913869407,2010-09-07 14:58:04,5192.62457372634,2,2,0.5501165986061096,4.113206386566162,1.524288506134431,1.029194039936994,6.077541183220477,3.762693664674647,9.71794142969884e-05,0.0889859497547149,0,0,0
459,15285.631164648084,2010-09-07 14:58:34,5222.639824515039,2,2,0.5501165986061096,4.116605758666992,1.52887473054982,1.029194039936994,6.096412673695592,3.762693664674647,9.71794142969884e-05,0.0889859497547149,0,0,0
460,15315.646445171002,2010-09-07 14:59:04,5252.655105032948,2,2,0.5501165986061096,4.119519710540772,1.533461107375224,1.029194039936994,6.115299237407867,3.762693664674647,6.47544875391759e-05,0.0889859497547149,0,0,0
461,15345.661693553697,2010-09-07 14:59:34,5282.670353415641,2,2,0.5499359965324402,4.122595310211182,1.538047410361986,1.029194039936994,6.134200005104912,3.762693664674647,6.47544875391759e-05,0.0889859497547149,0,0,0
462,15375.677098647564,2010-09-07 15:00:04,5312.68575850951,2,2,0.550297200679779,4.12599515914917,1.542633714807387,1.029194039936994,6.153115265667129,3.762693664674647,0.0001295089750783,0.0889859497547149,0,0,0
463,15405.692217792664,2010-09-07 15:00:34,5342.700877679669,2,2,0.5501165986061096,4.129232883453369,1.547219952879457,1.029194039936994,6.172045078329812,3.762693664674647,9.71794142969884e-05,0.0889859497547149,0,0,0
464,15435.707474857029,2010-09-07 15:01:04,5372.71613473401,2,2,0.5499359965324402,4.132470607757568,1.55180618084528,1.029194039936994,6.190989683193859,3.762693664674647,9.71794142969884e-05,0.0889859497547149,0,0,0
465,15465.722748673206,2010-09-07 15:01:34,5402.7314085501885,2,2,0.5501165986061096,4.135708332061768,1.556392436464872,1.029194039936994,6.209949391243629,3.762693664674647,9.71794142969884e-05,0.0889859497547149,0,0,0
466,15495.73801613352,2010-09-07 15:02:04,5432.746676015516,2,2,0.550297200679779,4.139107704162598,1.560978741137742,1.029194039936994,6.228924418312156,3.762693664674647,9.70840483205393e-05,0.0889859497547149,0,0,0
467,15525.75329962886,2010-09-07 15:02:34,5462.761959510856,2,2,0.5501165986061096,4.142345428466797,1.565564997904134,1.029194039936994,6.247914546317462,3.762693664674647,9.70840483205393e-05,0.0889859497547149,0,0,0
468,15555.768538106831,2010-09-07 15:03:04,5492.777197968776,2,2,0.5501165986061096,4.145906925201416,1.570151222351385,1.029194039936994,6.266920034885628,3.762693664674647,9.70840483205393e-05,0.0889859497547149,0,0,0
469,15585.783804288956,2010-09-07 15:03:34,5522.7924641509,2,2,0.5501165986061096,4.149306774139404,1.5747375057853,1.029194039936994,6.285941545601062,3.762693664674647,9.71794142969884e-05,0.0889859497547149,0,0,0
470,15615.799255698435,2010-09-07 15:04:04,5552.807915655618,2,2,0.5501165986061096,4.152544498443604,1.579323860894196,1.029194039936994,6.30497904009957,3.762693664674647,6.47544875391759e-05,0.0889859497547149,0,0,0
471,15645.814734807056,2010-09-07 15:04:34,5582.8233947893,2,2,0.5499359965324402,4.156105995178223,1.58391020079329,1.029194039936994,6.324032238801713,3.762693664674647,0.0001295089750783,0.0889859497547149,0,0,0
472,15675.814880385828,2010-09-07 15:05:04,5612.823540277847,2,2,0.5501165986061096,4.159505367279053,1.588494103123493,1.029194039936994,6.343091166495696,3.762693664674647,9.70840483205393e-05,0.0889859497547149,0,0,0
473,15705.829231694286,2010-09-07 15:05:34,5642.837891556231,2,2,0.5499359965324402,4.162905216217041,1.593080208897643,1.029194039936994,6.362175327480608,3.762693664674647,6.47544875391759e-05,0.0889859497547149,0,0,0
474,15735.844502372634,2010-09-07 15:06:04,5672.853162234578,2,2,0.5501165986061096,4.166628360748291,1.597666528781267,1.029194039936994,6.381276534237633,3.762693664674647,0.0001295089750783,0.0889859497547149,0,0,0
475,15765.859771747728,2010-09-07 15:06:34,5702.868431609672,2,2,0.5499359965324402,4.170028209686279,1.602252784733621,1.029194039936994,6.400393825308099,3.762693664674647,6.47544875391759e-05,0.0889859497547149,0,0,0
476,15795.875023864744,2010-09-07 15:07:04,5732.883683726687,2,2,0.5501165986061096,4.173913478851318,1.606839074615807,1.029194039936994,6.419527742374564,3.762693664674647,9.71794142969884e-05,0.0889859497547149,0,0,0
477,15825.890288347624,2010-09-07 15:07:34,5762.8989482095685,2,2,0.5501165986061096,4.177636623382568,1.611425274876401,1.029194039936994,6.438677818294716,3.762693664674647,0.0001295089750783,0.0889859497547149,0,0,0
478,15855.905555031,2010-09-07 15:08:04,5792.914214892944,2,2,0.5499359965324402,4.181036472320557,1.616011537504478,1.029194039936994,6.457844892465127,3.762693664674647,0.0001295089750783,0.0889859497547149,0,0,0
479,15885.920834085257,2010-09-07 15:08:34,5822.929493972261,2,2,0.5501165986061096,4.184921741485596,1.620597863555378,1.029194039936994,6.477029161322213,3.762693664674647,9.71794142969884e-05,0.0889859497547149,0,0,0
480,15915.936221389718,2010-09-07 15:09:04,5852.944881251663,2,2,0.5501165986061096,4.188483238220215,1.625184136479677,1.029194039936994,6.49623006668768,3.762693664674647,0.0001295089750783,0.0889859497547149,0,0,0
481,15945.951348143808,2010-09-07 15:09:34,5882.960008000739,2,2,0.5499359965324402,4.192206382751465,1.629770415525457,1.029194039936994,6.515448288107075,3.762693664674647,6.47544875391759e-05,0.0889859497547149,0,0,0
482,15975.966605609174,2010-09-07 15:10:04,5912.975265491168,2,2,0.5501165986061096,4.195929527282715,1.634356722366563,1.029194039936994,6.53468395933311,3.762693664674647,6.47544875391759e-05,0.0889859497547149,0,0,0
483,16005.981881881486,2010-09-07 15:10:34,5942.990541768491,2,2,0.550297200679779,4.199976921081543,1.63894301487047,1.029194039936994,6.553937129879502,3.762693664674647,0.0001295089750783,0.0889859497547149,0,0,0
484,16006.560021090894,2010-09-07 15:10:35,5943.568681048077,2,2,0.5501165986061096,4.200138568878174,1.639031353832621,1.029194039936994,6.554308149350993,3.762693664674647,0.0001295089750783,0.0889859497547149,0,0,0
485,16036.575655531764,2010-09-07 15:11:05,30.01520518987781,3,2,0.0,4.118548393249512,1.639031353832621,1.029194039936994,6.554308149350993,3.762693664674647,-0.0003237724304199,0.0889859497547149,0,0,0
486,16066.590917212652,2010-09-07 15:11:35,60.03046687076587,3,2,0.0,4.108026027679443,1.639031353832621,1.029194039936994,6.554308149350993,3.762693664674647,-0.0002265930233988,0.0889859497547149,0,0,0
487,16096.606204497451,2010-09-07 15:12:05,90.04575416559027,3,2,0.0,4.102035999298096,1.639031353832621,1.029194039936994,6.554308149350993,3.762693664674647,-0.0001619339018361,0.0889859497547149,0,0,0
488,16126.57457768244,2010-09-07 15:12:35,120.01412733554142,3,2,0.0,4.098312854766846,1.639031353832621,1.029194039936994,6.554308149350993,3.762693664674647,-3.23295607813634e-05,0.0889859497547149,0,0,0
489,16126.59016643266,2010-09-07 15:12:35,0.015638756742793,4,2,0.9991112947463988,4.199814796447754,1.639035694071307,1.029194039936994,6.554326377549644,3.762693664674647,0.0,0.0889859497547149,0,0,0
490,16127.433835365113,2010-09-07 15:12:36,0.85930766413085,4,2,0.9490824937820436,4.199814796447754,1.639262253393099,1.029194039936994,6.555277872521958,3.762693664674647,0.0,0.0889859497547149,0,0,0
491,16129.51195197889,2010-09-07 15:12:38,2.937424277909088,4,2,0.8990537524223328,4.199491024017334,1.639794504662777,1.029194039936994,6.557513182786076,3.762693664674647,-6.47544875391759e-05,0.0889859497547149,0,0,0
492,16132.652645833936,2010-09-07 15:12:41,6.078118137967466,4,2,0.8488443493843079,4.199653148651123,1.640555936104089,1.029194039936994,6.560710977463581,3.762693664674647,0.0,0.0889859497547149,0,0,0
493,16136.902520514966,2010-09-07 15:12:45,10.32799291423592,4,2,0.7984543442726135,4.199653148651123,1.641527291430629,1.029194039936994,6.564790409873521,3.762693664674647,-3.23295607813634e-05,0.0889859497547149,0,0,0
494,16142.33992329884,2010-09-07 15:12:51,15.765395698107968,4,2,0.7484256029129028,4.199814796447754,1.642694407587752,1.029194039936994,6.569691991814684,3.762693664674647,3.23295607813634e-05,0.0889859497547149,0,0,0
495,16149.386699275798,2010-09-07 15:12:58,22.8121715748156,4,2,0.6980355978012085,4.199653148651123,1.644108509047303,1.029194039936994,6.575630848194854,3.762693664674647,0.0,0.0889859497547149,0,0,0
496,16158.667828983413,2010-09-07 15:13:07,32.09330138268216,4,2,0.6480068564414978,4.199814796447754,1.645840775784856,1.029194039936994,6.5829059292511,3.762693664674647,3.23295607813634e-05,0.0889859497547149,0,0,0
497,16171.277101687972,2010-09-07 15:13:20,44.702574002028136,4,2,0.5979780554771423,4.199653148651123,1.648018297841769,1.029194039936994,6.592050974121779,3.762693664674647,-3.23295607813634e-05,0.0889859497547149,0,0,0
498,16190.151912664987,2010-09-07 15:13:39,63.57738499909389,4,2,0.5479493141174316,4.199653148651123,1.651014313716655,1.029194039936994,6.604633575967795,3.762693664674647,-3.23295607813634e-05,0.0889859497547149,0,0,0
499,16220.838910412442,2010-09-07 15:14:09,94.26438271647304,4,2,0.4979205429553985,4.199653148651123,1.655453787716487,1.029194039936994,6.623278409888764,3.762693664674647,-3.23295607813634e-05,0.0889859497547149,0,0,0
500,16274.603914007956,2010-09-07 15:15:03,148.02938631198646,4,2,0.4478917717933655,4.199814796447754,1.662485836234139,1.029194039936994,6.652811506279029,3.762693664674647,0.0,0.0889859497547149,0,0,0
501,16359.446735478086,2010-09-07 15:16:28,232.8722077921427,4,2,0.3978630006313324,4.199653148651123,1.672424754253572,1.029194039936994,6.694552823127302,3.762693664674647,-3.23295607813634e-05,0.0889859497547149,0,0,0
502,16470.507964381773,2010-09-07 15:18:19,343.93343668580417,4,2,0.3478342294692993,4.199491024017334,1.683906993081575,1.029194039936994,6.742775315601918,3.762693664674647,-3.24249267578125e-05,0.0889859497547149,0,0,0
503,16605.24057926161,2010-09-07 15:20:34,478.6660515656389,4,2,0.2978054583072662,4.199653148651123,1.695973326328156,1.029194039936994,6.793450894750836,3.762693664674647,0.0,0.0889859497547149,0,0,0
504,16766.410535126826,2010-09-07 15:23:15,639.8360074258437,4,2,0.2477766871452331,4.199491024017334,1.708169124246408,1.029194039936994,6.844670225920227,3.762693664674647,-6.47544875391759e-05,0.0889859497547149,0,0,0
505,16970.705049805387,2010-09-07 15:26:39,844.1305221094192,4,2,0.1977479159832,4.199653148651123,1.72077423424683,1.029194039936994,6.897608582776519,3.762693664674647,-3.23295607813634e-05,0.0889859497547149,0,0,0
506,17239.67043631942,2010-09-07 15:31:08,1113.0959086284608,4,2,0.147719144821167,4.199653148651123,1.733603981910002,1.029194039936994,6.951490383989835,3.762693664674647,0.0,0.0889859497547149,0,0,0
507,17640.244039975853,2010-09-07 15:37:49,1513.669512460334,4,2,0.0976903736591339,4.199653148651123,1.747087540038854,1.029194039936994,7.00811795818175,3.762693664674647,-3.23295607813634e-05,0.0889859497547149,0,0,0
508,18343.938368801268,2010-09-07 15:49:33,2217.3638412005357,4,2,0.0498289167881011,4.199653148651123,1.761004177616301,1.029194039936994,7.066564439607243,3.762693664674647,-3.23295607813634e-05,0.0889859497547149,0,0,0
509,18373.95236610444,2010-09-07 15:50:03,30.01271327467409,5,2,0.0,4.192206382751465,1.761004177616301,1.029194039936994,7.066564439607243,3.762693664674647,-3.24249267578125e-05,0.0889859497547149,0,0,0
510,18403.95203696324,2010-09-07 15:50:33,60.01238423372188,5,2,0.0,4.191073417663574,1.761004177616301,1.029194039936994,7.066564439607243,3.762693664674647,-3.23295607813634e-05,0.0889859497547149,0,0,0
511,18404.13958204153,2010-09-07 15:50:33,0.187516560182918,6,2,-1.9243103452026844e-05,4.191073417663574,1.761004177616301,1.029194040939327,7.066564439607243,3.7626936688755,0.0,0.0923051163554191,0,0,0
512,18408.967767294725,2010-09-07 15:50:38,5.015701788310051,6,2,0.0007031940040178,4.190911293029785,1.761005155510815,1.029194041106438,7.066568537982035,3.762693669575874,-3.24249267578125e-05,0.0923051163554191,0,0,0
513,18438.983117522686,2010-09-07 15:51:08,30.01535589105112,7,2,-1.099568486213684,4.0202836990356445,1.761005155510815,1.038361334166956,7.066568537982035,3.799742961909048,-0.0009389877086505,0.0923051163554191,0,0,0
514,18468.99823403621,2010-09-07 15:51:38,60.03047242462917,7,2,-1.0993878841400146,3.99373459815979,1.761005155510815,1.047528503262919,7.066568537982035,3.836467287374444,-0.0005827426793985,0.0923051163554191,0,0,0
515,18499.01352771197,2010-09-07 15:52:08,90.04576610038134,7,2,-1.0993878841400146,3.975765228271485,1.761005155510815,1.056695601462198,7.066568537982035,3.872990905956081,-0.0003885269106831,0.0923051163554191,0,0,0
516,18529.028818706025,2010-09-07 15:52:38,120.06105707438954,7,2,-1.0993878841400146,3.9616811275482178,1.761005155510815,1.065862589426394,7.066568537982035,3.90936856002693,-0.0003237724304199,0.0923051163554191,0,0,0
517,18559.044071168904,2010-09-07 15:53:08,150.07630953726803,7,2,-1.099568486213684,3.9500253200531006,1.761005155510815,1.075029710098273,7.066568537982035,3.945630173439738,-0.0002913951757363,0.0923051163554191,0,0,0
518,18589.059333055306,2010-09-07 15:53:38,180.09157142868162,7,2,-1.099568486213684,3.939664602279663,1.761005155510815,1.084196892667423,7.066568537982035,3.981792006795297,-0.0002590179501567,0.0923051163554191,0,0,0
519,18619.07460902185,2010-09-07 15:54:08,210.10684739021636,7,2,-1.099568486213684,3.9299514293670654,1.761005155510815,1.093364076050693,7.066568537982035,4.017863326892384,-0.0002590179501567,0.0923051163554191,0,0,0
520,18649.089874341826,2010-09-07 15:54:38,240.12211271018813,7,2,-1.0993878841400146,3.9213714599609375,1.761005155510815,1.102531253759579,7.066568537982035,4.053850137742522,-0.0001618862152099,0.0923051163554191,0,0,0
521,18679.105124879898,2010-09-07 15:55:08,270.13736324826203,7,2,-1.099568486213684,3.9124679565429688,1.761005155510815,1.111698455615592,7.066568537982035,4.089756494416402,-0.0002589702489785,0.0923051163554191,0,0,0
522,18709.120400691056,2010-09-07 15:55:38,300.15263908448395,7,2,-1.099568486213684,3.904373645782471,1.761005155510815,1.120865689455483,7.066568537982035,4.125585558464967,-0.0002266406954731,0.0923051163554191,0,0,0
523,18739.13566158498,2010-09-07 15:56:08,330.16789997840766,7,2,-1.099568486213684,3.8961174488067623,1.761005155510815,1.130032880742435,7.066568537982035,4.16133933085728,-0.0001942634553415,0.0923051163554191,0,0,0
524,18769.15093916556,2010-09-07 15:56:38,360.1831775339212,7,2,-1.099568486213684,3.8881850242614746,1.761005155510815,1.139199964706958,7.066568537982035,4.197019645947936,-0.0002266406954731,0.0923051163554191,0,0,0
525,18799.16663725579,2010-09-07 15:57:08,390.1988756542292,7,2,-1.0993878841400146,3.880414485931397,1.761005155510815,1.148367232399846,7.066568537982035,4.232628430577262,-0.0001942634553415,0.0923051163554191,0,0,0
526,18829.181445153965,2010-09-07 15:57:38,420.2136835223307,7,2,-1.0993878841400146,3.872805833816528,1.761005155510815,1.15753426659722,7.066568537982035,4.268165205729011,-0.0002266406954731,0.0923051163554191,0,0,0
527,18859.196717932555,2010-09-07 15:58:08,450.22895631094536,7,2,-1.099568486213684,3.86519718170166,1.761005155510815,1.166701401998348,7.066568537982035,4.303633042079379,-0.0002266406954731,0.0923051163554191,0,0,0
528,18889.212007192284,2010-09-07 15:58:38,480.2442455606495,7,2,-1.099568486213684,3.857912302017212,1.761005155510815,1.175868627568649,7.066568537982035,4.33903254357768,-0.0001618862152099,0.0923051163554191,0,0,0
529,18919.22726918896,2010-09-07 15:59:08,510.2595076726135,7,2,-1.0993878841400146,3.8504655361175537,1.761005155510815,1.18503585090864,7.066568537982035,4.374364332202163,-0.0001942634553415,0.0923051163554191,0,0,0
530,18949.24251632855,2010-09-07 15:59:38,540.2747546969166,7,2,-1.0993878841400146,3.843342542648315,1.761005155510815,1.194203090270573,7.066568537982035,4.409629540200061,-0.0001618862152099,0.0923051163554191,0,0,0
531,18979.257875953925,2010-09-07 16:00:08,570.2901143222891,7,2,-1.0993878841400146,3.836057662963867,1.761005155510815,1.203370327750344,7.066568537982035,4.444829068248551,-0.0002266406954731,0.0923051163554191,0,0,0
532,19009.273040181557,2010-09-07 16:00:38,600.3052785599439,7,2,-1.0993878841400146,3.829420566558838,1.761005155510815,1.212537633449896,7.066568537982035,4.479963935623099,-0.0001295089750783,0.0923051163554191,0,0,0
533,19039.288456092425,2010-09-07 16:01:08,630.3206944658011,7,2,-1.0993878841400146,3.8222975730896,1.761005155510815,1.221704858992571,7.066568537982035,4.515034680118967,-0.0001618862152099,0.0923051163554191,0,0,0
534,19069.303577999413,2010-09-07 16:01:38,660.3358163677797,7,2,-1.099568486213684,3.8153364658355713,1.761005155510815,1.230871961993715,7.066568537982035,4.550042189420937,-0.0002266406954731,0.0923051163554191,0,0,0
535,19099.318843966,2010-09-07 16:02:08,690.3510823443904,7,2,-1.099568486213684,3.808699131011963,1.761005155510815,1.240039155298195,7.066568537982035,4.584987845668836,-0.0001618862152099,0.0923051163554191,0,0,0
536,19129.334149230683,2010-09-07 16:02:38,720.3663876241079,7,2,-1.0993878841400146,3.802223682403565,1.761005155510815,1.249206294644906,7.066568537982035,4.619872213634974,-0.0001295089750783,0.0923051163554191,0,0,0
537,19159.34936980897,2010-09-07 16:03:08,750.381608177335,7,2,-1.099568486213684,3.795424461364746,1.761005155510815,1.258373384440906,7.066568537982035,4.654696514789117,-0.0001942634553415,0.0923051163554191,0,0,0
538,19189.364626993636,2010-09-07 16:03:38,780.3968653619996,7,2,-1.0993878841400146,3.7891108989715576,1.761005155510815,1.267540533040771,7.066568537982035,4.689462092964124,-0.0001942634553415,0.0923051163554191,0,0,0
539,19219.379894945178,2010-09-07 16:04:08,810.4121333135403,7,2,-1.0993878841400146,3.782959222793579,1.761005155510815,1.276707677316418,7.066568537982035,4.724169917298954,-0.0001942634553415,0.0923051163554191,0,0,0
540,19249.395178936757,2010-09-07 16:04:38,840.4274173051193,7,2,-1.099568486213684,3.7769694328308105,1.761005155510815,1.285874893143508,7.066568537982035,4.758821657278969,-0.0001618862152099,0.0923051163554191,0,0,0
541,19279.41042768035,2010-09-07 16:05:08,870.4426660487139,7,2,-1.0993878841400146,3.770817756652832,1.761005155510815,1.295042094084209,7.066568537982035,4.793418253090732,-0.0001618862152099,0.0923051163554191,0,0,0
542,19309.42568533117,2010-09-07 16:05:38,900.4579236995424,7,2,-1.099568486213684,3.7649898529052734,1.761005155510815,1.304209203929857,7.066568537982035,4.827960172355314,-0.0001942634553415,0.0923051163554191,0,0,0
543,19339.44098686655,2010-09-07 16:06:08,930.4732252549634,7,2,-1.099568486213684,3.759323835372925,1.761005155510815,1.313376393551338,7.066568537982035,4.862449331239206,-0.0001618862152099,0.0923051163554191,0,0,0
544,19369.456233053763,2010-09-07 16:06:38,960.4884714271392,7,2,-1.0993878841400146,3.753819704055786,1.761005155510815,1.32254360820038,7.066568537982035,4.896886575152311,-0.0001295089750783,0.0923051163554191,0,0,0
545,19399.471486799845,2010-09-07 16:07:08,990.5037251682083,7,2,-1.099568486213684,3.7483158111572266,1.761005155510815,1.331710858494619,7.066568537982035,4.931273041816818,-0.0001295089750783,0.0923051163554191,0,0,0
546,19429.486743658697,2010-09-07 16:07:38,1020.51898202706,7,2,-1.0992072820663452,3.742973566055298,1.761005155510815,1.340878128124531,7.066568537982035,4.965609932766252,-0.0001295089750783,0.0923051163554191,0,0,0
547,19459.50201017666,2010-09-07 16:08:08,1050.534248545022,7,2,-1.0993878841400146,3.737631320953369,1.761005155510815,1.350045446803461,7.066568537982035,4.999897841580054,-0.0001295089750783,0.0923051163554191,0,0,0
548,19489.51728362191,2010-09-07 16:08:38,1080.5495219902757,7,2,-1.099568486213684,3.7324509620666495,1.761005155510815,1.359212741971669,7.066568537982035,5.034137406182136,-9.713172767078504e-05,0.0923051163554191,0,0,0
549,19519.532540691285,2010-09-07 16:09:08,1110.564779059653,7,2,-1.099568486213684,3.727270603179932,1.761005155510815,1.368379979047199,7.066568537982035,5.068329534033909,-0.0001618862152099,0.0923051163554191,0,0,0
550,19549.548147142777,2010-09-07 16:09:38,1140.5803855111412,7,2,-1.099568486213684,3.722252130508423,1.761005155510815,1.37754733691231,7.066568537982035,5.102476378039884,-0.0001618862152099,0.0923051163554191,0,0,0
551,19579.56319978688,2010-09-07 16:10:08,1170.595438180304,7,2,-1.099568486213684,3.717395544052124,1.761005155510815,1.386714484773965,7.066568537982035,5.136576671465813,-0.0001295089750783,0.0923051163554191,0,0,0
552,19609.580641148583,2010-09-07 16:10:38,1200.6128796121857,7,2,-1.099568486213684,3.712538957595825,1.761005155510815,1.395882411486311,7.066568537982035,5.170634837405428,-9.713172767078504e-05,0.0923051163554191,0,0,0
553,19639.593725669947,2010-09-07 16:11:09,1230.6259640834237,7,2,-1.099568486213684,3.707844257354736,1.761005155510815,1.405048998682519,7.066568537982035,5.204644059871027,-0.0001295089750783,0.0923051163554191,0,0,0
554,19669.60885883504,2010-09-07 16:11:39,1260.641097203404,7,2,-1.0993878841400146,3.703149557113648,1.761005155510815,1.414216214067758,7.066568537982035,5.238612487050014,-9.713172767078504e-05,0.0923051163554191,0,0,0
555,19699.624121127457,2010-09-07 16:12:09,1290.6563594958184,7,2,-1.0993878841400146,3.698454856872559,1.761005155510815,1.423383531256162,7.066568537982035,5.272538516568064,-0.0001295089750783,0.0923051163554191,0,0,0
556,19729.639406903487,2010-09-07 16:12:39,1320.6716452718515,7,2,-1.099568486213684,3.6937601566314697,1.761005155510815,1.432550796831262,7.066568537982035,5.306422125982759,-0.0001618862152099,0.0923051163554191,0,0,0
557,19759.654779571418,2010-09-07 16:13:09,1350.6870179698556,7,2,-1.099568486213684,3.689227342605591,1.761005155510815,1.441718143989402,7.066568537982035,5.340264224728936,-0.0001618862152099,0.0923051163554191,0,0,0
558,19789.669919433225,2010-09-07 16:13:39,1380.7021578015897,7,2,-1.0993878841400146,3.684856414794922,1.761005155510815,1.450885323581379,7.066568537982035,5.3740643629712,-9.713172767078504e-05,0.0923051163554191,0,0,0
559,19819.68515195633,2010-09-07 16:14:09,1410.717390324695,7,2,-1.099568486213684,3.680323600769043,1.761005155510815,1.460052561165545,7.066568537982035,5.407824171960517,-0.0001618862152099,0.0923051163554191,0,0,0
560,19849.702758886324,2010-09-07 16:14:39,1440.7349973699734,7,2,-1.0993878841400146,3.676276445388794,1.761005155510815,1.469220575509081,7.066568537982035,5.441546458258504,-6.47544875391759e-05,0.0923051163554191,0,0,0
561,19879.71581957319,2010-09-07 16:15:09,1470.748058041804,7,2,-1.099568486213684,3.671743869781494,1.761005155510815,1.478387159123358,7.066568537982035,5.475223490933156,-9.713172767078504e-05,0.0923051163554191,0,0,0
562,19909.730946607982,2010-09-07 16:15:39,1500.7631849763447,7,2,-1.0993878841400146,3.667696714401245,1.761005155510815,1.487554392248487,7.066568537982035,5.508863964104315,-6.47544875391759e-05,0.0923051163554191,0,0,0
563,19939.74634220314,2010-09-07 16:16:09,1530.7785805715034,7,2,-1.0993878841400146,3.663487672805786,1.761005155510815,1.496721550958851,7.066568537982035,5.542466243141186,-9.713172767078504e-05,0.0923051163554191,0,0,0
564,19969.7615094483,2010-09-07 16:16:39,1560.7937478467406,7,2,-1.099568486213684,3.659116744995117,1.761005155510815,1.505888747313876,7.066568537982035,5.576031135578104,-0.0001618862152099,0.0923051163554191,0,0,0
565,19999.77698656695,2010-09-07 16:17:09,1590.809224940332,7,2,-1.0993878841400146,3.655393362045288,1.761005155510815,1.515055992575534,7.066568537982035,5.609558871939067,-9.713172767078504e-05,0.0923051163554191,0,0,0
566,20029.792007306416,2010-09-07 16:17:39,1620.8242456848056,7,2,-1.099568486213684,3.651346206665039,1.761005155510815,1.524223153729021,7.066568537982035,5.643049975948018,-0.0001295089750783,0.0923051163554191,0,0,0
567,20059.807403628387,2010-09-07 16:18:09,1650.8396419967537,7,2,-1.099568486213684,3.6474609375,1.761005155510815,1.533390412630319,7.066568537982035,5.676505527908894,-9.713172767078504e-05,0.0923051163554191,0,0,0
568,20089.82254731976,2010-09-07 16:18:39,1680.854785693134,7,2,-1.0993878841400146,3.643737554550171,1.761005155510815,1.542557483982081,7.066568537982035,5.709924655309543,-9.713172767078504e-05,0.0923051163554191,0,0,0
569,20119.837928373618,2010-09-07 16:19:09,1710.8701667469954,7,2,-1.0993878841400146,3.640014171600342,1.761005155510815,1.55172467034248,7.066568537982035,5.743310163538009,-9.713172767078504e-05,0.0923051163554191,0,0,0
570,20149.853071042435,2010-09-07 16:19:39,1740.8853094107983,7,2,-1.099568486213684,3.6362907886505127,1.761005155510815,1.560891804034581,7.066568537982035,5.776661795585598,-0.0001295089750783,0.0923051163554191,0,0,0
571,20179.868346612995,2010-09-07 16:20:09,1770.9005850064198,7,2,-1.0993878841400146,3.632891178131104,1.761005155510815,1.5700589974054,7.066568537982035,5.809980478320592,-6.47544875391759e-05,0.0923051163554191,0,0,0
572,20209.88383572157,2010-09-07 16:20:39,1800.91607408994,7,2,-1.099568486213684,3.629329681396485,1.761005155510815,1.579226212666955,7.066568537982035,5.843266804509426,-9.713172767078504e-05,0.0923051163554191,0,0,0
573,20239.898899297965,2010-09-07 16:21:09,1830.9311376663288,7,2,-1.0993878841400146,3.625930070877075,1.761005155510815,1.588393326588194,7.066568537982035,5.8765213600934,-9.713172767078504e-05,0.0923051163554191,0,0,0
574,20269.9141560716,2010-09-07 16:21:39,1860.9463944399672,7,2,-1.0993878841400146,3.622692346572876,1.761005155510815,1.597560495177756,7.066568537982035,5.909745801563415,-9.713172767078504e-05,0.0923051163554191,0,0,0
575,20299.9294058578,2010-09-07 16:22:09,1890.9616442462143,7,2,-1.099568486213684,3.619292736053467,1.761005155510815,1.606727783620417,7.066568537982035,5.942940553920485,-0.0001295089750783,0.0923051163554191,0,0,0
576,20329.94467200484,2010-09-07 16:22:39,1920.976910373201,7,2,-1.099568486213684,3.6162168979644775,1.761005155510815,1.615894988039619,7.066568537982035,5.97610503479511,-6.47544875391759e-05,0.0923051163554191,0,0,0
577,20359.95991568579,2010-09-07 16:23:09,1950.9921540541584,7,2,-1.099568486213684,3.612817287445069,1.761005155510815,1.625062137383921,7.066568537982035,6.009239828804783,-9.713172767078504e-05,0.0923051163554191,0,0,0
578,20389.97520332648,2010-09-07 16:23:39,1981.007441724921,7,2,-1.099568486213684,3.609903335571289,1.761005155510815,1.634229372921214,7.066568537982035,6.042346353226739,-6.47544875391759e-05,0.0923051163554191,0,0,0
579,20419.9905709017,2010-09-07 16:24:09,2011.022809280088,7,2,-1.0993878841400146,3.6068274974823,1.761005155510815,1.643396615934733,7.066568537982035,6.0754251965433,-9.713172767078504e-05,0.0923051163554191,0,0,0
580,20450.00572278351,2010-09-07 16:24:39,2041.037961156888,7,2,-1.099568486213684,3.603913545608521,1.761005155510815,1.652563713430498,7.066568537982035,6.108476096435395,-6.47544875391759e-05,0.0923051163554191,0,0,0
581,20480.020979151137,2010-09-07 16:25:09,2071.0532175195003,7,2,-1.0993878841400146,3.601161479949951,1.761005155510815,1.661730943114224,7.066568537982035,6.141500393287293,-3.237724376958795e-05,0.0923051163554191,0,0,0
582,20510.036236867127,2010-09-07 16:25:39,2101.0684752405045,7,2,-1.099568486213684,3.598085641860962,1.761005155510815,1.670898178820565,7.066568537982035,6.174498225460257,-3.237724376958795e-05,0.0923051163554191,0,0,0
583,20540.051634843232,2010-09-07 16:26:09,2131.083873216606,7,2,-1.0993878841400146,3.5953335762023926,1.761005155510815,1.680065434924791,7.066568537982035,6.20746957647086,-6.47544875391759e-05,0.0923051163554191,0,0,0
584,20570.06677602834,2010-09-07 16:26:39,2161.0990143967056,7,2,-1.0993878841400146,3.5924196243286133,1.761005155510815,1.689232580654158,7.066568537982035,6.240414058031115,-9.713172767078504e-05,0.0923051163554191,0,0,0
585,20600.082182310176,2010-09-07 16:27:09,2191.1144206885647,7,2,-1.0993878841400146,3.589505910873413,1.761005155510815,1.698399849411278,7.066568537982035,6.273332796019474,-9.713172767078504e-05,0.0923051163554191,0,0,0
586,20630.097374397345,2010-09-07 16:27:39,2221.129612956187,7,2,-1.099568486213684,3.586591958999634,1.761005155510815,1.70756710526957,7.066568537982035,6.306225268410481,-9.713172767078504e-05,0.0923051163554191,0,0,0
587,20660.11255859482,2010-09-07 16:28:09,2251.1447969631886,7,2,-1.099568486213684,3.5838398933410645,1.761005155510815,1.716734268616258,7.066568537982035,6.339091152524405,-6.47544875391759e-05,0.0923051163554191,0,0,0
588,20690.127841493675,2010-09-07 16:28:39,2281.1600798620407,7,2,-1.0993878841400146,3.580925941467285,1.761005155510815,1.725901473783543,7.066568537982035,6.371930956043197,-6.47544875391759e-05,0.0923051163554191,0,0,0
589,20720.143575267983,2010-09-07 16:29:09,2311.175813736596,7,2,-1.099568486213684,3.578011989593506,1.761005155510815,1.735068812986594,7.066568537982035,6.404744590620558,-9.713172767078504e-05,0.0923051163554191,0,0,0
590,20750.15838243433,2010-09-07 16:29:39,2341.1906208077085,7,2,-1.099568486213684,3.5749361515045166,1.761005155510815,1.744235951093554,7.066568537982035,6.43753048508296,-6.47544875391759e-05,0.0923051163554191,0,0,0
591,20780.17363944356,2010-09-07 16:30:09,2371.2058778119226,7,2,-1.099568486213684,3.5720221996307373,1.761005155510815,1.753403631970621,7.066568537982035,6.470290915209202,-6.47544875391759e-05,0.0923051163554191,0,0,0
592,20810.1889033099,2010-09-07 16:30:39,2401.2211417033286,7,2,-1.0997490882873535,3.568946361541748,1.761005155510815,1.762571728954137,7.066568537982035,6.503024880816904,-6.47544875391759e-05,0.0923051163554191,0,0,0
593,20840.204271817445,2010-09-07 16:31:09,2431.23651018581,7,2,-1.099568486213684,3.565870523452759,1.761005155510815,1.771739859399908,7.066568537982035,6.535730471918469,-6.47544875391759e-05,0.0923051163554191,0,0,0
594,20870.219410496305,2010-09-07 16:31:39,2461.251648864666,7,2,-1.099929690361023,3.56263279914856,1.761005155510815,1.780907883081699,7.066568537982035,6.568406849584396,-9.713172767078504e-05,0.0923051163554191,0,0,0
595,20900.23468119469,2010-09-07 16:32:09,2491.266919568076,7,2,-1.099568486213684,3.5593950748443604,1.761005155510815,1.790075503118444,7.066568537982035,6.601053251882339,-9.713172767078504e-05,0.0923051163554191,0,0,0
596,20930.25008386752,2010-09-07 16:32:39,2521.282322235889,7,2,-1.099568486213684,3.556157350540161,1.761005155510815,1.799242742290645,7.066568537982035,6.633668451384149,-9.713172767078504e-05,0.0923051163554191,0,0,0
597,20960.265446495392,2010-09-07 16:33:09,2551.297684873781,7,2,-1.099568486213684,3.552757740020752,1.761005155510815,1.808409970539212,7.066568537982035,6.666252797385375,-6.47544875391759e-05,0.0923051163554191,0,0,0
598,20990.28047787641,2010-09-07 16:33:39,2581.3127162447804,7,2,-1.0993878841400146,3.5493581295013428,1.761005155510815,1.817577220146593,7.066568537982035,6.698806044293567,-6.47544875391759e-05,0.0923051163554191,0,0,0
599,21020.29577133663,2010-09-07 16:34:09,2611.3280097049947,7,2,-1.099568486213684,3.5456347465515137,1.761005155510815,1.826744556846424,7.066568537982035,6.731327616891889,-0.0001295089750783,0.0923051163554191,0,0,0
600,21050.31100736348,2010-09-07 16:34:39,2641.343245731846,7,2,-1.0997490882873535,3.5422351360321045,1.761005155510815,1.835911829684565,7.066568537982035,6.76381625902274,-6.47544875391759e-05,0.0923051163554191,0,0,0
601,21080.326261515576,2010-09-07 16:35:09,2671.358499883941,7,2,-1.0993878841400146,3.5386736392974854,1.761005155510815,1.845079168908159,7.066568537982035,6.796272189766331,-6.47544875391759e-05,0.0923051163554191,0,0,0
602,21110.341527196448,2010-09-07 16:35:39,2701.3737655648138,7,2,-1.099568486213684,3.5346264839172363,1.761005155510815,1.854246451661825,7.066568537982035,6.828693409715894,-9.713172767078504e-05,0.0923051163554191,0,0,0
603,21140.356791684346,2010-09-07 16:36:09,2731.3890300527087,7,2,-1.099568486213684,3.5307412147521973,1.761005155510815,1.863413886584418,7.066568537982035,6.861078886420643,-9.713172767078504e-05,0.0923051163554191,0,0,0
604,21170.372261635108,2010-09-07 16:36:39,2761.404500033545,7,2,-1.099568486213684,3.5265321731567383,1.761005155510815,1.872581275166238,7.066568537982035,6.89342678353005,-9.713172767078504e-05,0.0923051163554191,0,0,0
605,21200.387330760343,2010-09-07 16:37:09,2791.41956912871,7,2,-1.099568486213684,3.52199935913086,1.761005155510815,1.881748596981178,7.066568537982035,6.925735418856252,-9.713172767078504e-05,0.0923051163554191,0,0,0
606,21230.40260709781,2010-09-07 16:37:39,2821.434845566433,7,2,-1.0993878841400146,3.5176284313201904,1.761005155510815,1.890915858077907,7.066568537982035,6.958002898957819,-9.713172767078504e-05,0.0923051163554191,0,0,0
607,21260.41800060276,2010-09-07 16:38:09,2851.450238981149,7,2,-1.0997490882873535,3.512771844863892,1.761005155510815,1.900083242477801,7.066568537982035,6.990227684327826,-0.0001295089750783,0.0923051163554191,0,0,0
608,21290.43313781796,2010-09-07 16:38:39,2881.465376191339,7,2,-1.0993878841400146,3.507591724395752,1.761005155510815,1.909250480727232,7.066568537982035,7.022406812560575,-0.0001618862152099,0.0923051163554191,0,0,0
609,21320.44838563925,2010-09-07 16:39:09,2911.480624007619,7,2,-1.0993878841400146,3.5022494792938232,1.761005155510815,1.91841780148474,7.066568537982035,7.054537448144171,-0.0001295089750783,0.0923051163554191,0,0,0
610,21350.463652593306,2010-09-07 16:39:39,2941.495891051895,7,2,-1.0993878841400146,3.4960978031158447,1.761005155510815,1.92758507020105,7.066568537982035,7.086615442811652,-0.0001618862152099,0.0923051163554191,0,0,0
611,21380.478920419533,2010-09-07 16:40:09,2971.5111587878973,7,2,-1.099568486213684,3.489784240722656,1.761005155510815,1.93675243969294,7.066568537982035,7.118637156501219,-0.0001942634553415,0.0923051163554191,0,0,0
612,21410.494210381017,2010-09-07 16:40:39,3001.5264487794534,7,2,-1.099568486213684,3.482499361038208,1.761005155510815,1.94591976887035,7.066568537982035,7.150596307755716,-0.0001942634553415,0.0923051163554191,0,0,0
613,21440.509484753584,2010-09-07 16:41:09,3031.5417231219467,7,2,-1.099568486213684,3.4742431640625,1.761005155510815,1.955087103278313,7.066568537982035,7.182484812427997,-0.0002266406954731,0.0923051163554191,0,0,0
614,21470.52471465514,2010-09-07 16:41:39,3061.556953023509,7,2,-1.099568486213684,3.4646918773651123,1.761005155510815,1.964254426562696,7.066568537982035,7.214291782651653,-0.0002913951757363,0.0923051163554191,0,0,0
615,21500.539992300884,2010-09-07 16:42:09,3091.572230669248,7,2,-1.099568486213684,3.453359842300415,1.761005155510815,1.97342171461416,7.066568537982035,7.246003705581779,-0.0003237724304199,0.0923051163554191,0,0,0
616,21530.557589556724,2010-09-07 16:42:39,3121.589828115565,7,2,-1.099568486213684,3.4395995140075684,1.761005155510815,1.982589750876682,7.066568537982035,7.277604002440367,-0.0003561496851034,0.0923051163554191,0,0,0
617,21560.57052250975,2010-09-07 16:43:10,3151.602760973353,7,2,-1.099568486213684,3.422116041183472,1.761005155510815,1.991756366427559,7.066568537982035,7.309057430955173,-0.0005180359003134,0.0923051163554191,0,0,0
618,21590.58580248631,2010-09-07 16:43:40,3181.618040854672,7,2,-1.099568486213684,3.399937629699707,1.761005155510815,2.000923750289753,7.066568537982035,7.340333407826195,-0.0006799221155233,0.0923051163554191,0,0,0
619,21620.60117925447,2010-09-07 16:44:10,3211.633417627848,7,2,-1.099568486213684,3.370312452316284,1.761005155510815,2.010091062329006,7.066568537982035,7.371373047424848,-0.0008741855854168,0.0923051163554191,0,0,0
620,21650.616337943276,2010-09-07 16:44:40,3241.648576336702,7,2,-1.099568486213684,3.3290317058563232,1.761005155510815,2.019258314702372,7.066568537982035,7.402090854261952,-0.0012627125252038,0.0923051163554191,0,0,0
621,21680.631701453345,2010-09-07 16:45:10,3271.663939821709,7,2,-1.099568486213684,3.271076440811157,1.761005155510815,2.028425595187489,7.066568537982035,7.432359630800165,-0.0018131255637854,0.0923051163554191,0,0,0
622,21710.646844132185,2010-09-07 16:45:40,3301.6790825055614,7,2,-1.099568486213684,3.187705516815185,1.761005155510815,2.037592806428425,7.066568537982035,7.461990272279068,-0.0026225089095532,0.0923051163554191,0,0,0
623,21740.662124479662,2010-09-07 16:46:10,3331.694362848032,7,2,-1.099568486213684,3.058196783065796,1.761005155510815,2.046760092199328,7.066568537982035,7.490670662351455,-0.0043061734177172,0.0923051163554191,0,0,0
624,21763.989965945864,2010-09-07 16:46:33,3355.0222043142303,7,2,-1.099568486213684,2.858106136322021,1.761005155510815,2.053884884089869,7.066568537982035,7.51184555365358,-0.0094864843413233,0.0923051163554191,0,0,0
625,21774.77107418065,2010-09-07 16:46:44,3365.8033125490165,7,2,-1.0997490882873535,2.699943780899048,1.761005155510815,2.057177659981053,7.066568537982035,7.521006809442067,-0.0125299450010061,0.0923051163554191,0,0,0
626,21834.78539776386,2010-09-07 16:47:44,60.014793788340896,8,2,0.0,3.3939478397369385,1.761005155510815,2.057177659981053,7.066568537982035,7.521006809442067,0.0013274669181555,0.0923051163554191,0,0,0
627,21834.972912058063,2010-09-07 16:47:44,0.187392149635051,9,2,0.0001613661734154,3.3945953845977783,1.761005163910469,2.057177659981053,7.066568566495462,7.521006809442067,0.0,0.0889859497547149,0,0,0
628,21839.800980464584,2010-09-07 16:47:49,5.015460556157485,9,2,0.0008838032954372,3.4018802642822266,1.761006163785215,2.057177659981053,7.06657196445152,7.521006809442067,0.0011332035064697,0.0889859497547149,0,0,0
