Data_Point,Test_Time(s),Date_Time,Step_Time(s),Step_Index,Cycle_Index,Current(A),Voltage(V),Charge_Capacity(Ah),Discharge_Capacity(Ah),Charge_Energy(Wh),Discharge_Energy(Wh),dV/dt(V/s),Internal_Resistance(Ohm),Is_FC_Data,AC_Impedance(Ohm),ACI_Phase_Angle(Deg)
2603,92266.16985443897,2010-10-30 11:35:30,30.01516144274962,1,9,0.0,3.362703800201416,7.782501437011804,7.795499804746217,31.147355299769057,28.35316664171319,0.0007446765666827,0.0920556336641311,0,0,0
2604,92296.18506428732,2010-10-30 11:36:00,60.0303712861285,1,9,0.0,3.3865010738372803,7.782501437011804,7.795499804746217,31.147355299769057,28.35316664171319,0.0005827903514727,0.0920556336641311,0,0,0
2605,92326.20024497804,2010-10-30 11:36:30,90.04555200692495,1,9,0.0,3.404632329940796,7.782501437011804,7.795499804746217,31.147355299769057,28.35316664171319,0.0003885269106831,0.0920556336641311,0,0,0
2606,92356.16853590505,2010-10-30 11:37:00,120.01384293392763,1,9,0.0,3.4193639755249023,7.782501437011804,7.795499804746217,31.147355299769057,28.35316664171319,0.0003561496851034,0.0920556336641311,0,0,0
2607,92386.18210085153,2010-10-30 11:37:30,30.015172540408404,2,9,0.550297200679779,3.578497648239136,7.787088063132211,7.795499804746217,31.163596605755146,28.35316664171319,0.0017159938579425,0.0920556336641311,0,0,0
2608,92416.1972784796,2010-10-30 11:38:00,60.03035016849688,2,9,0.5501165986061096,3.6294915676116943,7.791674633334503,7.795499804746217,31.180133479688973,28.35316664171319,0.0011655807029455,0.0920556336641311,0,0,0
2609,92446.21260013164,2010-10-30 11:38:30,90.04567183557482,2,9,0.550297200679779,3.666725397109986,7.796261306547559,7.795499804746217,31.19686966364784,28.35316664171319,0.0009065627818927,0.0920556336641311,0,0,0
2610,92476.22764771564,2010-10-30 11:39:00,120.06071939950336,2,9,0.550297200679779,3.695702791213989,7.800847907569143,7.795499804746217,31.213756143385027,28.35316664171319,0.0006799221155233,0.0920556336641311,0,0,0
2611,92506.2428558798,2010-10-30 11:39:30,150.0759275737222,2,9,0.5501165986061096,3.719661951065064,7.805434518233039,7.795499804746217,31.23076356880124,28.35316664171319,0.0005827903514727,0.0920556336641311,0,0,0
2612,92536.25814661982,2010-10-30 11:40:00,180.09121831372033,2,9,0.550297200679779,3.7395739555358887,7.810021175224636,7.795499804746217,31.24787098764808,28.35316664171319,0.0004856586456298,0.0920556336641311,0,0,0
2613,92566.27343385108,2010-10-30 11:40:30,210.10650564522348,2,9,0.5501165986061096,3.7554385662078857,7.814607819246541,7.795499804746217,31.26506063076712,28.35316664171319,0.0003885269106831,0.0920556336641311,0,0,0
2614,92596.2883825536,2010-10-30 11:41:00,240.1214542475092,2,9,0.5501165986061096,3.766446828842163,7.819194427337544,7.795499804746217,31.28231259578272,28.35316664171319,0.0002266406954731,0.0920556336641311,0,0,0
2615,92626.30371902256,2010-10-30 11:41:30,270.13679072650297,2,9,0.5501165986061096,3.7729222774505615,7.823781092188079,7.795499804746217,31.29960407205908,28.35316664171319,0.0001295089750783,0.0920556336641311,0,0,0
2616,92656.31875869184,2010-10-30 11:42:00,300.1518303807181,2,9,0.5501165986061096,3.77745509147644,7.828367661236284,7.795499804746217,31.31691951773808,28.35316664171319,0.0001618862152099,0.0920556336641311,0,0,0
2617,92686.33394359805,2010-10-30 11:42:30,330.16701531702086,2,9,0.5501165986061096,3.7811784744262695,7.83295430922832,7.795499804746217,31.33425402589919,28.35316664171319,9.713172767078504e-05,0.0920556336641311,0,0,0
2618,92716.34915217829,2010-10-30 11:43:00,360.1822238671767,2,9,0.5501165986061096,3.7850637435913086,7.837540914972808,7.795499804746217,31.351605630659595,28.35316664171319,0.0001618862152099,0.0920556336641311,0,0,0
2619,92746.3643179769,2010-10-30 11:43:30,390.1973896657824,2,9,0.5501165986061096,3.788625240325928,7.842127526405693,7.795499804746217,31.36897395189358,28.35316664171319,0.0001295089750783,0.0920556336641311,0,0,0
2620,92776.3795198855,2010-10-30 11:44:00,420.2125915793979,2,9,0.5501165986061096,3.792024850845337,7.846714177292532,7.795499804746217,31.38635864990345,28.35316664171319,0.0001295089750783,0.0920556336641311,0,0,0
2621,92806.39489936666,2010-10-30 11:44:30,450.2279710956538,2,9,0.5501165986061096,3.795586347579956,7.851300750363374,7.795499804746217,31.403758906828568,28.35316664171319,0.0001295089750783,0.0920556336641311,0,0,0
2622,92836.40990605872,2010-10-30 11:45:00,480.2429777726796,2,9,0.5501165986061096,3.798985958099365,7.855887356526823,7.795499804746217,31.421174934766142,28.35316664171319,9.713172767078504e-05,0.0920556336641311,0,0,0
2623,92866.42527110392,2010-10-30 11:45:30,510.2583428830315,2,9,0.5501165986061096,3.8020617961883545,7.860474033095397,7.795499804746217,31.438606464037083,28.35316664171319,6.47544875391759e-05,0.0920556336641311,0,0,0
2624,92896.44025029243,2010-10-30 11:46:00,540.2733219813227,2,9,0.5501165986061096,3.805137634277344,7.865060660261206,7.795499804746217,31.45605279640894,28.35316664171319,3.237724376958795e-05,0.0920556336641311,0,0,0
2625,92926.45557170386,2010-10-30 11:46:30,570.2886434378759,2,9,0.5499359965324402,3.808375358581543,7.869647322068844,7.795499804746217,31.47351402958859,28.35316664171319,6.47544875391759e-05,0.0920556336641311,0,0,0
2626,92956.47060390952,2010-10-30 11:47:00,600.3036755984145,2,9,0.5499359965324402,3.811613082885742,7.874233906856954,7.795499804746217,31.490989575571707,28.35316664171319,6.47544875391759e-05,0.0920556336641311,0,0,0
2627,92986.48592606783,2010-10-30 11:47:30,630.3189977617293,2,9,0.5501165986061096,3.815012693405152,7.87882054989887,7.795499804746217,31.50847997240551,28.35316664171319,9.713172767078504e-05,0.0920556336641311,0,0,0
2628,93016.5037352746,2010-10-30 11:48:00,660.3368069985966,2,9,0.5501165986061096,3.8180885314941406,7.883407577810475,7.795499804746217,31.525986447370805,28.35316664171319,6.47544875391759e-05,0.0920556336641311,0,0,0
2629,93046.5162007582,2010-10-30 11:48:30,690.3492724721614,2,9,0.5501165986061096,3.82116436958313,7.887993793831595,7.795499804746217,31.54350429497571,28.35316664171319,6.47544875391759e-05,0.0920556336641311,0,0,0
2630,93076.53148686666,2010-10-30 11:49:00,720.3645585705913,2,9,0.550297200679779,3.824563980102539,7.892580442826838,7.795499804746217,31.56103845582011,28.35316664171319,9.713172767078504e-05,0.0920556336641311,0,0,0
2631,93106.54656755817,2010-10-30 11:49:30,750.3796392470464,2,9,0.5501165986061096,3.8278017044067374,7.897166974684919,7.795499804746217,31.57858702752972,28.35316664171319,9.713172767078504e-05,0.0920556336641311,0,0,0
2632,93136.5618657417,2010-10-30 11:50:00,780.3949374456336,2,9,0.550297200679779,3.831363201141357,7.901753633010121,7.795499804746217,31.596151390345188,28.35316664171319,0.0001618862152099,0.0920556336641311,0,0,0
2633,93166.57690693976,2010-10-30 11:50:30,810.4099786336717,2,9,0.5501165986061096,3.834438800811768,7.906340252695692,7.795499804746217,31.613731165026632,28.35316664171319,6.47544875391759e-05,0.0920556336641311,0,0,0
2634,93196.5920917708,2010-10-30 11:51:00,840.425163484762,2,9,0.5501165986061096,3.8380002975463863,7.91092687295891,7.795499804746217,31.631326823300807,28.35316664171319,6.47544875391759e-05,0.0920556336641311,0,0,0
2635,93226.60737009486,2010-10-30 11:51:30,870.4404418940284,2,9,0.5499359965324402,3.841399908065796,7.915513467831426,7.795499804746217,31.64893835774313,28.35316664171319,9.713172767078504e-05,0.0920556336641311,0,0,0
2636,93256.62261172246,2010-10-30 11:52:00,900.4556834464357,2,9,0.5501165986061096,3.844961404800415,7.920100091259741,7.795499804746217,31.666565862477608,28.35316664171319,6.47544875391759e-05,0.0920556336641311,0,0,0
2637,93286.63764305093,2010-10-30 11:52:30,930.4707147648757,2,9,0.5501165986061096,3.848361015319824,7.924686661035905,7.795499804746217,31.684208932352284,28.35316664171319,9.713172767078504e-05,0.0920556336641311,0,0,0
2638,93316.65282409752,2010-10-30 11:53:00,960.485895781409,2,9,0.5501165986061096,3.8517606258392334,7.929273314899879,7.795499804746217,31.701867870200022,28.35316664171319,9.713172767078504e-05,0.0920556336641311,0,0,0
2639,93346.66803873786,2010-10-30 11:53:30,990.5011104618432,2,9,0.5501165986061096,3.8549983501434326,7.933859917310346,7.795499804746217,31.719541804794048,28.35316664171319,6.47544875391759e-05,0.0920556336641311,0,0,0
2640,93376.66803929002,2010-10-30 11:54:00,1020.5011110039636,2,9,0.5499359965324402,3.858236074447632,7.93844421829213,7.795499804746217,31.737221905247047,28.35316664171319,9.713172767078504e-05,0.0920556336641311,0,0,0
2641,93406.68275627002,2010-10-30 11:54:30,1050.5158279639254,2,9,0.550297200679779,3.861635684967041,7.943030771106747,7.795499804746217,31.754925369189024,28.35316664171319,0.0001295089750783,0.0920556336641311,0,0,0
2642,93436.69806608756,2010-10-30 11:55:00,1080.5311378115457,2,9,0.5501165986061096,3.8643877506256095,7.947617406655593,7.795499804746217,31.772643483977657,28.35316664171319,9.713172767078504e-05,0.0920556336641311,0,0,0
2643,93466.7133968473,2010-10-30 11:55:30,1110.5464685863228,2,9,0.550297200679779,3.8674635887146,7.952204055124461,7.795499804746217,31.790375549600657,28.35316664171319,6.47544875391759e-05,0.0920556336641311,0,0,0
2644,93496.72834844704,2010-10-30 11:56:00,1140.5614201459791,2,9,0.5499359965324402,3.870377540588379,7.956790654259367,7.795499804746217,31.808120860209343,28.35316664171319,9.713172767078504e-05,0.0920556336641311,0,0,0
2645,93526.7437408003,2010-10-30 11:56:30,1170.5768125042412,2,9,0.5499359965324402,3.873129606246948,7.96137728642205,7.795499804746217,31.825879221744945,28.35316664171319,9.713172767078504e-05,0.0920556336641311,0,0,0
2646,93556.758766194,2010-10-30 11:57:00,1200.5918378878896,2,9,0.5501165986061096,3.875719785690308,7.965963887237021,7.795499804746217,31.843649774138186,28.35316664171319,6.47544875391759e-05,0.0920556336641311,0,0,0
2647,93586.77398918514,2010-10-30 11:57:30,1230.607060889062,2,9,0.5501165986061096,3.878309965133667,7.970550483740793,7.795499804746217,31.86143210025269,28.35316664171319,6.47544875391759e-05,0.0920556336641311,0,0,0
2648,93616.7890649293,2010-10-30 11:58:00,1260.622136628212,2,9,0.5501165986061096,3.8805763721466064,7.97513710115719,7.795499804746217,31.87922567735905,28.35316664171319,3.237724376958795e-05,0.0920556336641311,0,0,0
2649,93646.80425101344,2010-10-30 11:58:30,1290.6373227023505,2,9,0.5497553944587708,3.882680892944336,7.979723772402455,7.795499804746217,31.897030019331925,28.35316664171319,3.237724376958795e-05,0.0920556336641311,0,0,0
2650,93676.81944355372,2010-10-30 11:59:01,1320.6525152426043,2,9,0.5501165986061096,3.8847854137420654,7.984310425322339,7.795499804746217,31.914844143787903,28.35316664171319,0.0,0.0920556336641311,0,0,0
2651,93706.83470916108,2010-10-30 11:59:31,1350.667780875027,2,9,0.5499359965324402,3.886889934539795,7.98889715590383,7.795499804746217,31.93266781191395,28.35316664171319,3.237724376958795e-05,0.0920556336641311,0,0,0
2652,93736.84982767185,2010-10-30 12:00:01,1380.6828993707395,2,9,0.550297200679779,3.888670682907105,7.993483690778078,7.795499804746217,31.95049933132564,28.35316664171319,6.47544875391759e-05,0.0920556336641311,0,0,0
2653,93766.86497533522,2010-10-30 12:00:31,1410.6980470491842,2,9,0.5504778623580933,3.890613317489624,7.998070347526777,7.795499804746217,31.968339377841676,28.35316664171319,6.47544875391759e-05,0.0920556336641311,0,0,0
2654,93796.88016024648,2010-10-30 12:01:01,1440.7132319353618,2,9,0.5501165986061096,3.8920702934265137,8.00265699432889,7.795499804746217,31.986186967153063,28.35316664171319,6.47544875391759e-05,0.0920556336641311,0,0,0
2655,93826.89535311756,2010-10-30 12:01:31,1470.7284248164658,2,9,0.5501165986061096,3.8935272693634033,8.007243614337565,7.795499804746217,32.004041581479896,28.35316664171319,3.237724376958795e-05,0.0920556336641311,0,0,0
2656,93856.91074449336,2010-10-30 12:02:01,1500.7438162123292,2,9,0.550297200679779,3.894822359085083,8.01183033379382,7.795499804746217,32.02190339066691,28.35316664171319,3.237724376958795e-05,0.0920556336641311,0,0,0
2657,93886.92578805232,2010-10-30 12:02:31,1530.7588597662634,2,9,0.5501165986061096,3.8962793350219727,8.016416986159555,7.795499804746217,32.039770942509925,28.35316664171319,3.237724376958795e-05,0.0920556336641311,0,0,0
2658,93916.94104797048,2010-10-30 12:03:01,1560.7741196744194,2,9,0.5499359965324402,3.897574424743652,8.021003659477794,7.795499804746217,32.05764515962187,28.35316664171319,3.237724376958795e-05,0.0920556336641311,0,0,0
2659,93946.95610460704,2010-10-30 12:03:31,1590.7891763009347,2,9,0.5499359965324402,3.898869514465332,8.02559019417976,7.795499804746217,32.07552506052422,28.35316664171319,0.0,0.0920556336641311,0,0,0
2660,93976.97129130774,2010-10-30 12:04:01,1620.80436299161,2,9,0.550297200679779,3.9003264904022217,8.03017686082728,7.795499804746217,32.093411655503466,28.35316664171319,3.237724376958795e-05,0.0920556336641311,0,0,0
2661,94006.98658636348,2010-10-30 12:04:31,1650.819658057389,2,9,0.5501165986061096,3.901621580123901,8.034763568173293,7.795499804746217,32.11130455836527,28.35316664171319,3.237724376958795e-05,0.0920556336641311,0,0,0
2662,94037.00163990732,2010-10-30 12:05:01,1680.8347115911963,2,9,0.5501165986061096,3.902916669845581,8.039350203971994,7.795499804746217,32.12920327490571,28.35316664171319,-3.237724376958795e-05,0.0920556336641311,0,0,0
2663,94067.01694532893,2010-10-30 12:05:31,1710.8500170328357,2,9,0.5499359965324402,3.9042117595672607,8.043936897162858,7.795499804746217,32.14710835575687,28.35316664171319,-3.237724376958795e-05,0.0920556336641311,0,0,0
2664,94097.03202017584,2010-10-30 12:06:01,1740.8650918647245,2,9,0.550297200679779,3.90583062171936,8.04852357961957,7.795499804746217,32.165019440243334,28.35316664171319,9.713172767078504e-05,0.0920556336641311,0,0,0
2665,94127.04721048052,2010-10-30 12:06:31,1770.880282174419,2,9,0.5501165986061096,3.90712571144104,8.05311018800751,7.795499804746217,32.18293636303775,28.35316664171319,3.237724376958795e-05,0.0920556336641311,0,0,0
2666,94157.06238001342,2010-10-30 12:07:01,1800.8954516973072,2,9,0.5501165986061096,3.90842080116272,8.057696786486032,7.795499804746217,32.20085940552852,28.35316664171319,3.237724376958795e-05,0.0920556336641311,0,0,0
2667,94187.07758018273,2010-10-30 12:07:31,1830.9106519066752,2,9,0.5501165986061096,3.9097158908844,8.062283339681983,7.795499804746217,32.21878842755124,28.35316664171319,3.237724376958795e-05,0.0920556336641311,0,0,0
2668,94217.0928432337,2010-10-30 12:08:01,1860.9259150579137,2,9,0.5501165986061096,3.911010980606079,8.066870016332736,7.795499804746217,32.23672410324086,28.35316664171319,0.0,0.0920556336641311,0,0,0
2669,94247.10796280707,2010-10-30 12:08:31,1890.9410346363245,2,9,0.5501165986061096,3.912306070327759,8.071456621895775,7.795499804746217,32.25466574361474,28.35316664171319,3.237724376958795e-05,0.0920556336641311,0,0,0
2670,94277.12312858064,2010-10-30 12:09:01,1920.956200304605,2,9,0.5501165986061096,3.913762807846069,8.076043289887359,7.795499804746217,32.27261386851048,28.35316664171319,0.0,0.0920556336641311,0,0,0
2671,94307.13830484531,2010-10-30 12:09:31,1950.9713765342085,2,9,0.5499359965324402,3.915219783782959,8.080629948878693,7.795499804746217,32.290568302672526,28.35316664171319,3.237724376958795e-05,0.0920556336641311,0,0,0
2672,94337.1535250044,2010-10-30 12:10:01,1980.986596693297,2,9,0.5501165986061096,3.916514873504639,8.085216657165226,7.795499804746217,32.30852913426239,28.35316664171319,3.237724376958795e-05,0.0920556336641311,0,0,0
2673,94367.16867478308,2010-10-30 12:10:31,2011.001746466964,2,9,0.5501165986061096,3.9178099632263184,8.089803212062641,7.795499804746217,32.32649577476086,28.35316664171319,3.237724376958795e-05,0.0920556336641311,0,0,0
2674,94397.18386473188,2010-10-30 12:11:01,2041.016936420772,2,9,0.5499359965324402,3.919428825378418,8.094389792874326,7.795499804746217,32.34446891511797,28.35316664171319,6.47544875391759e-05,0.0920556336641311,0,0,0
2675,94427.19904536748,2010-10-30 12:11:31,2071.032117051343,2,9,0.5501165986061096,3.920562028884888,8.098976422191848,7.795499804746217,32.36244872327612,28.35316664171319,0.0,0.0920556336641311,0,0,0
2676,94457.2142515417,2010-10-30 12:12:01,2101.0473232305903,2,9,0.5501165986061096,3.9221808910369873,8.10356302911743,7.795499804746217,32.380434885350084,28.35316664171319,3.237724376958795e-05,0.0920556336641311,0,0,0
2677,94487.22954965006,2010-10-30 12:12:31,2131.0626213389523,2,9,0.5501165986061096,3.923475980758667,8.108149646010942,7.795499804746217,32.3984276309821,28.35316664171319,3.237724376958795e-05,0.0920556336641311,0,0,0
2678,94517.2446019057,2010-10-30 12:13:01,2161.077673599587,2,9,0.5499359965324402,3.925256729125977,8.112736205470686,7.795499804746217,32.416426764462166,28.35316664171319,6.47544875391759e-05,0.0920556336641311,0,0,0
2679,94547.25988052548,2010-10-30 12:13:31,2191.092952259478,2,9,0.5501165986061096,3.9263899326324463,8.1173228629977,7.795499804746217,32.43443287639098,28.35316664171319,3.237724376958795e-05,0.0920556336641311,0,0,0
2680,94577.2905938834,2010-10-30 12:14:01,2221.12366560736,2,9,0.5501165986061096,3.927846908569336,8.121911860956015,7.795499804746217,32.452454886653086,28.35316664171319,3.237724376958795e-05,0.0920556336641311,0,0,0
2681,94607.3058006541,2010-10-30 12:14:31,2251.1388723429936,2,9,0.5501165986061096,3.929465770721436,8.126498529661498,7.795499804746217,32.47047443859648,28.35316664171319,3.237724376958795e-05,0.0920556336641311,0,0,0
2682,94637.32096154548,2010-10-30 12:15:01,2281.154033239381,2,9,0.5501165986061096,3.930922746658325,8.131085142033868,7.795499804746217,32.48850059701883,28.35316664171319,3.237724376958795e-05,0.0920556336641311,0,0,0
2683,94667.33628905712,2010-10-30 12:15:31,2311.169360776088,2,9,0.5501165986061096,3.932379722595215,8.135671798026033,7.795499804746217,32.50653371600667,28.35316664171319,3.237724376958795e-05,0.0920556336641311,0,0,0
2684,94697.35274622924,2010-10-30 12:16:01,2341.185817943181,2,9,0.550297200679779,3.9339985847473145,8.140258698269534,7.795499804746217,32.524574740747795,28.35316664171319,6.47544875391759e-05,0.0920556336641311,0,0,0
2685,94727.36789130115,2010-10-30 12:16:31,2371.2009630301677,2,9,0.5501165986061096,3.935455560684204,8.144845359139135,7.795499804746217,32.54262176573112,28.35316664171319,3.237724376958795e-05,0.0920556336641311,0,0,0
2686,94757.38183685354,2010-10-30 12:17:01,2401.214908572519,2,9,0.5501165986061096,3.937074422836304,8.149431898402556,7.795499804746217,32.56067517527864,28.35316664171319,6.47544875391759e-05,0.0920556336641311,0,0,0
2687,94787.39703421082,2010-10-30 12:17:31,2431.2301059347915,2,9,0.5501165986061096,3.938531398773194,8.154018561135524,7.795499804746217,32.57873620309554,28.35316664171319,3.237724376958795e-05,0.0920556336641311,0,0,0
2688,94817.41210850637,2010-10-30 12:18:01,2461.245180205281,2,9,0.5501165986061096,3.939988374710083,8.158605196441592,7.795499804746217,32.59680414815266,28.35316664171319,3.237724376958795e-05,0.0920556336641311,0,0,0
2689,94847.42726481133,2010-10-30 12:18:31,2491.260336495188,2,9,0.5501165986061096,3.9417691230773926,8.163191814908052,7.795499804746217,32.61487919408852,28.35316664171319,9.713172767078504e-05,0.0920556336641311,0,0,0
2690,94877.4425271405,2010-10-30 12:19:01,2521.2755989196157,2,9,0.5499359965324402,3.943064212799072,8.167778504767284,7.795499804746217,32.63296166021793,28.35316664171319,3.237724376958795e-05,0.0920556336641311,0,0,0
2691,94907.45765600204,2010-10-30 12:19:31,2551.2907276909373,2,9,0.5501165986061096,3.944683074951172,8.17236519424028,7.795499804746217,32.651051369659136,28.35316664171319,3.237724376958795e-05,0.0920556336641311,0,0,0
2692,94937.47546629656,2010-10-30 12:20:01,2581.308537985441,2,9,0.5501165986061096,3.946301937103272,8.176952267431785,7.795499804746217,32.669149932912504,28.35316664171319,3.237724376958795e-05,0.0920556336641311,0,0,0
2693,94967.48804395972,2010-10-30 12:20:31,2611.321115673679,2,9,0.5501165986061096,3.948082685470581,8.181538553116456,7.795499804746217,32.68725263931973,28.35316664171319,6.47544875391759e-05,0.0920556336641311,0,0,0
2694,94997.50319786368,2010-10-30 12:21:01,2641.336269587665,2,9,0.5501165986061096,3.9497015476226807,8.186125220590442,7.795499804746217,32.705364321626114,28.35316664171319,6.47544875391759e-05,0.0920556336641311,0,0,0
2695,95027.51841248898,2010-10-30 12:21:31,2671.3514842129616,2,9,0.5501165986061096,3.9511585235595694,8.190711865064467,7.795499804746217,32.72348343045943,28.35316664171319,3.237724376958795e-05,0.0920556336641311,0,0,0
2696,95057.53355845816,2010-10-30 12:22:01,2701.366630147059,2,9,0.5501165986061096,3.95261549949646,8.195298462203345,7.795499804746217,32.74160986708065,28.35316664171319,0.0,0.0920556336641311,0,0,0
2697,95087.54887774432,2010-10-30 12:22:31,2731.381949438215,2,9,0.5501165986061096,3.95455813407898,8.199885107293815,7.795499804746217,32.75974406860053,28.35316664171319,6.47544875391759e-05,0.0920556336641311,0,0,0
2698,95117.56390395504,2010-10-30 12:23:01,2761.3969756439124,2,9,0.5501165986061096,3.956338882446289,8.204471676939315,7.795499804746217,32.77788562543308,28.35316664171319,6.47544875391759e-05,0.0920556336641311,0,0,0
2699,95147.5791293271,2010-10-30 12:23:31,2791.412201036044,2,9,0.550297200679779,3.9579577445983887,8.20905832905403,7.795499804746217,32.796035102574805,28.35316664171319,6.47544875391759e-05,0.0920556336641311,0,0,0
2700,95177.59442290416,2010-10-30 12:24:01,2821.427494593063,2,9,0.5501165986061096,3.959576606750488,8.213644969680464,7.795499804746217,32.81419232005697,28.35316664171319,6.47544875391759e-05,0.0920556336641311,0,0,0
2701,95207.60954947,2010-10-30 12:24:31,2851.442621183951,2,9,0.5501165986061096,3.961195468902588,8.218231621455645,7.795499804746217,32.8323574149305,28.35316664171319,0.0,0.0920556336641311,0,0,0
2702,95237.62482105225,2010-10-30 12:25:01,2881.457892756177,2,9,0.5501165986061096,3.9629762172698975,8.222818338374966,7.795499804746217,32.8505306361832,28.35316664171319,3.237724376958795e-05,0.0920556336641311,0,0,0
2703,95267.63998016418,2010-10-30 12:25:31,2911.4730518580927,2,9,0.5501165986061096,3.964756965637207,8.227404935179097,7.795499804746217,32.86871133961541,28.35316664171319,3.237724376958795e-05,0.0920556336641311,0,0,0
2704,95297.65502416424,2010-10-30 12:26:01,2941.4880958781887,2,9,0.550297200679779,3.9665377140045166,8.231991584355967,7.795499804746217,32.8869002876586,28.35316664171319,6.47544875391759e-05,0.0920556336641311,0,0,0
2705,95327.67034125992,2010-10-30 12:26:31,2971.5034129638484,2,9,0.5501165986061096,3.968318462371826,8.23657833850571,7.795499804746217,32.90509769629223,28.35316664171319,3.237724376958795e-05,0.0920556336641311,0,0,0
2706,95357.68539415716,2010-10-30 12:27:01,3001.518465841019,2,9,0.5501165986061096,3.969937324523926,8.241165216581917,7.795499804746217,32.92330371472873,28.35316664171319,0.0,0.0920556336641311,0,0,0
2707,95387.70058859212,2010-10-30 12:27:31,3031.533660281008,2,9,0.5501165986061096,3.9717180728912354,8.245752549735212,7.795499804746217,32.94151972253084,28.35316664171319,3.237724376958795e-05,0.0920556336641311,0,0,0
2708,95417.71589133704,2010-10-30 12:28:01,3061.5489631362007,2,9,0.550297200679779,3.973660707473755,8.250339942597423,7.795499804746217,32.959744220978145,28.35316664171319,3.237724376958795e-05,0.0920556336641311,0,0,0
2709,95447.73098263996,2010-10-30 12:28:31,3091.564054328866,2,9,0.550297200679779,3.9756033420562735,8.254927244350423,7.795499804746217,32.97797663750885,28.35316664171319,9.713172767078504e-05,0.0920556336641311,0,0,0
2710,95477.74613702012,2010-10-30 12:29:01,3121.579208734076,2,9,0.5501165986061096,3.977222204208374,8.259514298972459,7.795499804746217,32.996216482202094,28.35316664171319,3.237724376958795e-05,0.0920556336641311,0,0,0
2711,95507.7613353448,2010-10-30 12:29:31,3151.594407033684,2,9,0.550297200679779,3.9791648387908936,8.264100924497674,7.795499804746217,33.01446257029195,28.35316664171319,3.237724376958795e-05,0.0920556336641311,0,0,0
2712,95537.77658059642,2010-10-30 12:30:01,3181.609652310374,2,9,0.5501165986061096,3.980945587158203,8.268687514990644,7.795499804746217,33.03271758663883,28.35316664171319,3.237724376958795e-05,0.0920556336641311,0,0,0
2713,95567.79169267614,2010-10-30 12:30:32,3211.624764355008,2,9,0.5499359965324402,3.9827263355255127,8.273274052596488,7.795499804746217,33.050981037313015,28.35316664171319,3.237724376958795e-05,0.0920556336641311,0,0,0
2714,95597.8068759082,2010-10-30 12:31:02,3241.6399475970884,2,9,0.5501165986061096,3.984830856323242,8.277860592889418,7.795499804746217,33.06925314457533,28.35316664171319,3.237724376958795e-05,0.0920556336641311,0,0,0
2715,95627.8220980071,2010-10-30 12:31:32,3271.655169721074,2,9,0.550297200679779,3.986935377120972,8.282447139116137,7.795499804746217,33.08753418121046,28.35316664171319,6.47544875391759e-05,0.0920556336641311,0,0,0
2716,95657.83726545484,2010-10-30 12:32:02,3301.6703371337026,2,9,0.5501165986061096,3.988716125488281,8.28703363195553,7.795499804746217,33.105823865923874,28.35316664171319,9.713172767078504e-05,0.0920556336641311,0,0,0
2717,95687.85243836616,2010-10-30 12:32:32,3331.6855100751104,2,9,0.5501165986061096,3.990658760070801,8.291620049926287,7.795499804746217,33.124122266334204,28.35316664171319,3.237724376958795e-05,0.0920556336641311,0,0,0
2718,95717.86762699668,2010-10-30 12:33:02,3361.70069868557,2,9,0.5501165986061096,3.99260139465332,8.296206558828093,7.795499804746217,33.14243011432864,28.35316664171319,3.237724376958795e-05,0.0920556336641311,0,0,0
2719,95747.88302051282,2010-10-30 12:33:32,3391.7160921967056,2,9,0.5501165986061096,3.994705677032471,8.300793029428274,7.795499804746217,33.16074698673335,28.35316664171319,3.237724376958795e-05,0.0920556336641311,0,0,0
2720,95777.89800532536,2010-10-30 12:34:02,3421.731077009238,2,9,0.550297200679779,3.99697208404541,8.305379515321295,7.795499804746217,33.17907327227267,28.35316664171319,9.713172767078504e-05,0.0920556336641311,0,0,0
2721,95807.91330287736,2010-10-30 12:34:32,3451.7463745662267,2,9,0.550297200679779,3.99875283241272,8.309966075950594,7.795499804746217,33.19740921442081,28.35316664171319,6.47544875391759e-05,0.0920556336641311,0,0,0
2722,95837.92836391483,2010-10-30 12:35:02,3481.761435603736,2,9,0.5501165986061096,4.001181125640869,8.314552556823882,7.795499804746217,33.21575433361828,28.35316664171319,0.0001295089750783,0.0920556336641311,0,0,0
2723,95867.94380512983,2010-10-30 12:35:32,3511.7768768237765,2,9,0.5501165986061096,4.002962112426758,8.319139088230145,7.795499804746217,33.23410923989945,28.35316664171319,3.24249267578125e-05,0.0920556336641311,0,0,0
2724,95897.95874517584,2010-10-30 12:36:02,3541.7918168947995,2,9,0.5499359965324402,4.005066394805908,8.323725516173091,7.795499804746217,33.25247340696535,28.35316664171319,3.23295607813634e-05,0.0920556336641311,0,0,0
2725,95927.97391776134,2010-10-30 12:36:32,3571.806989470296,2,9,0.5499359965324402,4.007171154022217,8.32831197451162,7.795499804746217,33.27084754246052,28.35316664171319,3.24249267578125e-05,0.0920556336641311,0,0,0
2726,95957.9891022766,2010-10-30 12:37:02,3601.8221739955734,2,9,0.5501165986061096,4.009599208831787,8.332898488812383,7.795499804746217,33.28923189808009,28.35316664171319,9.70840483205393e-05,0.0920556336641311,0,0,0
2727,95988.0044943692,2010-10-30 12:37:32,3631.8375661783984,2,9,0.5499359965324402,4.011541843414307,8.337484990455359,7.795499804746217,33.30762632497479,28.35316664171319,3.23295607813634e-05,0.0920556336641311,0,0,0
2728,96018.01947381838,2010-10-30 12:38:02,3661.852545517289,2,9,0.5499359965324402,4.013808250427246,8.342071437275914,7.795499804746217,33.32603081553307,28.35316664171319,6.47544875391759e-05,0.0920556336641311,0,0,0
2729,96048.03467686982,2010-10-30 12:38:32,3691.867748558715,2,9,0.5499359965324402,4.0160746574401855,8.346657982253783,7.795499804746217,33.3444460309625,28.35316664171319,6.47544875391759e-05,0.0920556336641311,0,0,0
2730,96078.04991001126,2010-10-30 12:39:02,3721.8829817202095,2,9,0.5499359965324402,4.018503189086914,8.351244529185061,7.795499804746217,33.36287178378351,28.35316664171319,3.24249267578125e-05,0.0920556336641311,0,0,0
2731,96108.06518008978,2010-10-30 12:39:32,3751.898251823776,2,9,0.550297200679779,4.020931243896484,8.355831100325329,7.795499804746217,33.38130803132179,28.35316664171319,9.70840483205393e-05,0.0920556336641311,0,0,0
2732,96138.08022509736,2010-10-30 12:40:02,3781.913296811283,2,9,0.5497553944587708,4.022873878479004,8.360417584340498,7.795499804746217,33.39975459317609,28.35316664171319,3.23295607813634e-05,0.0920556336641311,0,0,0
2733,96168.09542682048,2010-10-30 12:40:32,3811.928498514374,2,9,0.550297200679779,4.025626182556152,8.365004147227895,7.795499804746217,33.418212114872375,28.35316664171319,9.71794142969884e-05,0.0920556336641311,0,0,0
2734,96198.11070486382,2010-10-30 12:41:02,3841.9437766078536,2,9,0.5501165986061096,4.027730464935303,8.36959067457354,7.795499804746217,33.43668018708539,28.35316664171319,6.47544875391759e-05,0.0920556336641311,0,0,0
2735,96228.12579003148,2010-10-30 12:41:32,3871.9588617404142,2,9,0.5501165986061096,4.029996871948242,8.374177150334818,7.795499804746217,33.45515877247346,28.35316664171319,6.47544875391759e-05,0.0920556336641311,0,0,0
2736,96258.14109003956,2010-10-30 12:42:02,3901.9741617234495,2,9,0.550297200679779,4.032425403594971,8.378763655576348,7.795499804746217,33.47364835023196,28.35316664171319,3.24249267578125e-05,0.0920556336641311,0,0,0
2737,96288.15629793308,2010-10-30 12:42:32,3931.9893696269937,2,9,0.550297200679779,4.035015106201172,8.383350114015771,7.795499804746217,33.492148734383825,28.35316664171319,9.70840483205393e-05,0.0920556336641311,0,0,0
2738,96318.17133121142,2010-10-30 12:43:02,3962.004402905317,2,9,0.550297200679779,4.037281513214111,8.387936599642389,7.795499804746217,33.51066029280923,28.35316664171319,6.47544875391759e-05,0.0920556336641311,0,0,0
2739,96348.18665736968,2010-10-30 12:43:32,3992.019729073615,2,9,0.5501165986061096,4.039871692657471,8.392523191410127,7.795499804746217,33.529183521179185,28.35316664171319,9.70840483205393e-05,0.0920556336641311,0,0,0
2740,96378.20182865196,2010-10-30 12:44:02,4022.0349003408496,2,9,0.5501165986061096,4.042300224304199,8.397109728845976,7.795499804746217,33.5477177178504,28.35316664171319,9.71794142969884e-05,0.0920556336641311,0,0,0
2741,96408.21690044126,2010-10-30 12:44:32,4052.049972135167,2,9,0.5501165986061096,4.0447282791137695,8.401696246102741,7.795499804746217,33.56626334197193,28.35316664171319,6.47544875391759e-05,0.0920556336641311,0,0,0
2742,96438.23207900667,2010-10-30 12:45:02,4082.065150730667,2,9,0.5501165986061096,4.047156810760498,8.406282724320558,7.795499804746217,33.58482024994761,28.35316664171319,3.24249267578125e-05,0.0920556336641311,0,0,0
2743,96468.24740332538,2010-10-30 12:45:32,4112.080475019279,2,9,0.5499359965324402,4.049746990203857,8.410869247539724,7.795499804746217,33.603388986922965,28.35316664171319,6.47544875391759e-05,0.0920556336641311,0,0,0
2744,96498.26260776028,2010-10-30 12:46:02,4142.095679454178,2,9,0.5501165986061096,4.052337169647217,8.415455719198658,7.795499804746217,33.62196916680039,28.35316664171319,6.47544875391759e-05,0.0920556336641311,0,0,0
2745,96528.27786056072,2010-10-30 12:46:32,4172.110932249607,2,9,0.550297200679779,4.055088996887207,8.42004225282243,7.795499804746217,33.64056147418666,28.35316664171319,9.70840483205393e-05,0.0920556336641311,0,0,0
2746,96558.2928321954,2010-10-30 12:47:02,4202.125903904346,2,9,0.5501165986061096,4.057517528533936,8.42462877540772,7.795499804746217,33.65916561333126,28.35316664171319,3.24249267578125e-05,0.0920556336641311,0,0,0
2747,96588.30801999885,2010-10-30 12:47:32,4232.14109171782,2,9,0.550297200679779,4.060269355773926,8.42921529381904,7.795499804746217,33.67778176986315,28.35316664171319,6.47544875391759e-05,0.0920556336641311,0,0,0
2748,96618.32321911048,2010-10-30 12:48:02,4262.156290789352,2,9,0.5501165986061096,4.062697887420654,8.433801833397641,7.795499804746217,33.6964097267584,28.35316664171319,6.47544875391759e-05,0.0920556336641311,0,0,0
2749,96648.33860128337,2010-10-30 12:48:32,4292.171673007341,2,9,0.5501165986061096,4.0654497146606445,8.438388390009907,7.795499804746217,33.71505003608375,28.35316664171319,6.47544875391759e-05,0.0920556336641311,0,0,0
2750,96678.3535750684,2010-10-30 12:49:02,4322.186646782366,2,9,0.5501165986061096,4.068202018737793,8.442974808045559,7.795499804746217,33.733702095915135,28.35316664171319,9.71794142969884e-05,0.0920556336641311,0,0,0
2751,96708.36896772742,2010-10-30 12:49:32,4352.202039416314,2,9,0.550297200679779,4.070953845977783,8.447561364484423,7.795499804746217,33.75236723686591,28.35316664171319,6.47544875391759e-05,0.0920556336641311,0,0,0
2752,96738.38394303629,2010-10-30 12:50:02,4382.217014715136,2,9,0.5501165986061096,4.073544025421143,8.45214784012185,7.795499804746217,33.771044506167904,28.35316664171319,3.23295607813634e-05,0.0920556336641311,0,0,0
2753,96768.3991224037,2010-10-30 12:50:32,4412.232194087573,2,9,0.5499359965324402,4.076296329498291,8.456734278376308,7.795499804746217,33.78973437700374,28.35316664171319,3.24249267578125e-05,0.0920556336641311,0,0,0
2754,96798.41431009686,2010-10-30 12:51:02,4442.247381780746,2,9,0.5501165986061096,4.07921028137207,8.46132074320943,7.795499804746217,33.808437201620976,28.35316664171319,6.47544875391759e-05,0.0920556336641311,0,0,0
2755,96828.42950862704,2010-10-30 12:51:32,4472.262580315941,2,9,0.550297200679779,4.0819621086120605,8.465907232553834,7.795499804746217,33.8271530804658,28.35316664171319,6.47544875391759e-05,0.0920556336641311,0,0,0
2756,96858.44734883613,2010-10-30 12:52:02,4502.2804206453,2,9,0.5501165986061096,4.085038185119629,8.470494129513778,7.795499804746217,33.84588368040799,28.35316664171319,9.71794142969884e-05,0.0920556336641311,0,0,0
2757,96888.4599088854,2010-10-30 12:52:32,4532.29298059934,2,9,0.5501165986061096,4.087952136993408,8.475080187051448,7.795499804746217,33.86462403290378,28.35316664171319,9.71794142969884e-05,0.0920556336641311,0,0,0
2758,96918.47507587196,2010-10-30 12:53:02,4562.308147585906,2,9,0.5501165986061096,4.090703964233398,8.479666605828761,7.795499804746217,33.8833792418489,28.35316664171319,6.47544875391759e-05,0.0920556336641311,0,0,0
2759,96948.49026032204,2010-10-30 12:53:32,4592.323332030985,2,9,0.5501165986061096,4.093780040740967,8.48425310312557,7.795499804746217,33.902148159745,28.35316664171319,9.71794142969884e-05,0.0920556336641311,0,0,0
2760,96978.50542664196,2010-10-30 12:54:02,4622.338498335852,2,9,0.550297200679779,4.096693992614746,8.488839591229095,7.795499804746217,33.92093064260016,28.35316664171319,9.71794142969884e-05,0.0920556336641311,0,0,0
2761,97008.52061489152,2010-10-30 12:54:32,4652.353686590425,2,9,0.5501165986061096,4.099607944488525,8.493426047757794,7.795499804746217,33.93972657998822,28.35316664171319,6.47544875391759e-05,0.0920556336641311,0,0,0
2762,97038.53580821872,2010-10-30 12:55:02,4682.3688799126285,2,9,0.5501165986061096,4.102521896362305,8.498012555274936,7.795499804746217,33.95853635052232,28.35316664171319,6.47544875391759e-05,0.0920556336641311,0,0,0
2763,97068.55114406112,2010-10-30 12:55:32,4712.384215795135,2,9,0.5501165986061096,4.105759620666504,8.502599076100443,7.795499804746217,33.97736010809305,28.35316664171319,9.71794142969884e-05,0.0920556336641311,0,0,0
2764,97098.56629675708,2010-10-30 12:56:02,4742.399368471036,2,9,0.550297200679779,4.108835220336914,8.507185568526923,7.795499804746217,33.9961977200703,28.35316664171319,9.70840483205393e-05,0.0920556336641311,0,0,0
2765,97128.5813754486,2010-10-30 12:56:32,4772.414447157531,2,9,0.5499359965324402,4.111749172210693,8.51177203176807,7.795499804746217,34.01504936071219,28.35316664171319,6.47544875391759e-05,0.0920556336641311,0,0,0
2766,97158.59656562294,2010-10-30 12:57:02,4802.429637341914,2,9,0.5501165986061096,4.114986896514893,8.516358491146681,7.795499804746217,34.033915161994244,28.35316664171319,6.47544875391759e-05,0.0920556336641311,0,0,0
2767,97188.61198183568,2010-10-30 12:57:32,4832.445053529566,2,9,0.5501165986061096,4.118062496185303,8.520945008382766,7.795499804746217,34.05279551082776,28.35316664171319,9.70840483205393e-05,0.0920556336641311,0,0,0
2768,97218.62692544048,2010-10-30 12:58:02,4862.459997129385,2,9,0.5501165986061096,4.121300220489502,8.525531482952742,7.795499804746217,34.071690100291214,28.35316664171319,9.70840483205393e-05,0.0920556336641311,0,0,0
2769,97248.64210897833,2010-10-30 12:58:32,4892.475180657177,2,9,0.5501165986061096,4.12437629699707,8.530117934572642,7.795499804746217,34.090599017838834,28.35316664171319,6.47544875391759e-05,0.0920556336641311,0,0,0
2770,97278.64267183188,2010-10-30 12:59:02,4922.475743661124,2,9,0.5501165986061096,4.1276140213012695,8.534702172869135,7.795499804746217,34.10951354405087,28.35316664171319,6.47544875391759e-05,0.0920556336641311,0,0,0
2771,97308.65685082106,2010-10-30 12:59:32,4952.489922535011,2,9,0.5501165986061096,4.130851745605469,8.539288563707292,7.795499804746217,34.128451736671025,28.35316664171319,9.71794142969884e-05,0.0920556336641311,0,0,0
2772,97338.67205712562,2010-10-30 13:00:02,4982.505128814507,2,9,0.5499359965324402,4.134089469909668,8.543875107123819,7.795499804746217,34.14740548273367,28.35316664171319,6.47544875391759e-05,0.0920556336641311,0,0,0
2773,97368.68735030667,2010-10-30 13:00:32,5012.520422005614,2,9,0.550297200679779,4.137488842010498,8.548461635413961,7.795499804746217,34.16637419773342,28.35316664171319,9.70840483205393e-05,0.0920556336641311,0,0,0
2774,97398.702452988,2010-10-30 13:01:02,5042.535524696937,2,9,0.5501165986061096,4.140726566314697,8.553048154530837,7.795499804746217,34.185358009473745,28.35316664171319,9.70840483205393e-05,0.0920556336641311,0,0,0
2775,97428.71760210504,2010-10-30 13:01:32,5072.5506738390295,2,9,0.5501165986061096,4.1439642906188965,8.557634734322056,7.795499804746217,34.20435725476714,28.35316664171319,9.70840483205393e-05,0.0920556336641311,0,0,0
2776,97458.73282430418,2010-10-30 13:02:02,5102.565896028178,2,9,0.5501165986061096,4.147525787353516,8.562221187474908,7.795499804746217,34.223371649883504,28.35316664171319,0.0001295089750783,0.0920556336641311,0,0,0
2777,97488.74801053372,2010-10-30 13:02:32,5132.581082222617,2,9,0.5501165986061096,4.150925636291504,8.566807695155516,7.795499804746217,34.24240178430165,28.35316664171319,0.0001295089750783,0.0920556336641311,0,0,0
2778,97518.76325261744,2010-10-30 13:03:03,5162.596324336423,2,9,0.550297200679779,4.154487133026123,8.571394196148251,7.795499804746217,34.26144751103731,28.35316664171319,0.0001619339018361,0.0920556336641311,0,0,0
2779,97548.77836094784,2010-10-30 13:03:33,5192.6114326668,2,9,0.5499359965324402,4.157724857330322,8.57598062647242,7.795499804746217,34.28050862277743,28.35316664171319,0.0001295089750783,0.0920556336641311,0,0,0
2780,97578.79356631506,2010-10-30 13:04:03,5222.626638114223,2,9,0.5501165986061096,4.161124229431152,8.580567143059659,7.795499804746217,34.29958593570449,28.35316664171319,9.70840483205393e-05,0.0920556336641311,0,0,0
2781,97608.80875519116,2010-10-30 13:04:33,5252.641826990345,2,9,0.5501165986061096,4.164524078369141,8.585153688404569,7.795499804746217,34.31867927495667,28.35316664171319,6.47544875391759e-05,0.0920556336641311,0,0,0
2782,97638.82394044827,2010-10-30 13:05:03,5282.657012137172,2,9,0.5499359965324402,4.16808557510376,8.589740155549537,7.795499804746217,34.33778831767537,28.35316664171319,6.47544875391759e-05,0.0920556336641311,0,0,0
2783,97668.8390935352,2010-10-30 13:05:33,5312.6721652190845,2,9,0.5499359965324402,4.17180871963501,8.594326655862307,7.795499804746217,34.35691373516788,28.35316664171319,9.70840483205393e-05,0.0920556336641311,0,0,0
2784,97698.85451395842,2010-10-30 13:06:03,5342.687585672368,2,9,0.5501165986061096,4.175208568572998,8.598913221268518,7.795499804746217,34.37605569822633,28.35316664171319,9.71794142969884e-05,0.0920556336641311,0,0,0
2785,97728.86947545284,2010-10-30 13:06:33,5372.702547141723,2,9,0.550297200679779,4.178931713104248,8.603499656696405,7.795499804746217,34.395213473677394,28.35316664171319,9.70840483205393e-05,0.0920556336641311,0,0,0
2786,97758.88465509594,2010-10-30 13:07:03,5402.717726784833,2,9,0.5501165986061096,4.182493209838867,8.608086186667023,7.795499804746217,34.414388125588786,28.35316664171319,6.47544875391759e-05,0.0920556336641311,0,0,0
2787,97788.8998451851,2010-10-30 13:07:33,5432.732916873979,2,9,0.5501165986061096,4.186054706573486,8.612672734244452,7.795499804746217,34.43357939103794,28.35316664171319,6.47544875391759e-05,0.0920556336641311,0,0,0
2788,97818.9150387078,2010-10-30 13:08:03,5462.748110391668,2,9,0.5501165986061096,4.189778327941895,8.617259214260892,7.795499804746217,34.452787082398785,28.35316664171319,0.0001295089750783,0.0920556336641311,0,0,0
2789,97848.93030663092,2010-10-30 13:08:33,5492.763378349887,2,9,0.5499359965324402,4.193339824676514,8.621845704083016,7.795499804746217,34.47201152108492,28.35316664171319,9.71794142969884e-05,0.0920556336641311,0,0,0
2790,97878.94543300128,2010-10-30 13:09:03,5522.778504690151,2,9,0.5499359965324402,4.196900844573975,8.62643219820098,7.795499804746217,34.49125274641444,28.35316664171319,9.70840483205393e-05,0.0920556336641311,0,0,0
2791,97902.3202745236,2010-10-30 13:09:26,5546.153346217497,2,9,0.550297200679779,4.200138568878174,8.630004033123305,7.795499804746217,34.5062489487889,28.35316664171319,0.0001618385285837,0.0920556336641311,0,0,0
2792,97932.33935415104,2010-10-30 13:09:56,30.017795091612943,3,9,0.0,4.114986896514893,8.630004033123305,7.795499804746217,34.5062489487889,28.35316664171319,-0.0003885269106831,0.0920556336641311,0,0,0
2793,97962.3519499795,2010-10-30 13:10:26,60.03039079474999,3,9,0.0,4.104464530944824,8.630004033123305,7.795499804746217,34.5062489487889,28.35316664171319,-0.0001942634553415,0.0920556336641311,0,0,0
2794,97992.36710414912,2010-10-30 13:10:56,90.0455449894352,3,9,0.0,4.098150730133057,8.630004033123305,7.795499804746217,34.5062489487889,28.35316664171319,-0.0001295089750783,0.0920556336641311,0,0,0
2795,98022.33802121627,2010-10-30 13:11:26,120.01646216686204,3,9,0.0,4.094265460968018,8.630004033123305,7.795499804746217,34.5062489487889,28.35316664171319,-3.24249267578125e-05,0.0920556336641311,0,0,0
2796,98022.33867977932,2010-10-30 13:11:26,2.796970912e-06,4,9,0.9936929941177368,4.199653148651123,8.630004033895341,7.795499804746217,34.506248952031186,28.35316664171319,0.0,0.0920556336641311,0,0,0
2797,98023.16680327788,2010-10-30 13:11:27,0.828126270474105,4,9,0.9427611827850342,4.199491024017334,8.630225075131781,7.795499804746217,34.507177248981144,28.35316664171319,-3.24249267578125e-05,0.0920556336641311,0,0,0
2798,98025.24488552324,2010-10-30 13:11:29,2.906208510826984,4,9,0.8923711776733398,4.199653148651123,8.6307535378125,7.795499804746217,34.50939661491731,28.35316664171319,0.0,0.0920556336641311,0,0,0
2799,98028.4167258152,2010-10-30 13:11:32,6.078048807797896,4,9,0.8421618342399597,4.199814796447754,8.63151631002998,7.795499804746217,34.5126000071786,28.35316664171319,0.0,0.0920556336641311,0,0,0
2800,98032.76039885494,2010-10-30 13:11:37,10.421721847527683,4,9,0.7921330332756042,4.199653148651123,8.632500840662166,7.795499804746217,34.516734718662526,28.35316664171319,-3.23295607813634e-05,0.0920556336641311,0,0,0
2801,98038.46344337164,2010-10-30 13:11:42,16.12476639432123,4,9,0.7419236898422241,4.199653148651123,8.63371451247031,7.795499804746217,34.521831761890176,28.35316664171319,0.0,0.0920556336641311,0,0,0
2802,98045.97898574572,2010-10-30 13:11:50,23.640308733304543,4,9,0.6918948888778687,4.199653148651123,8.63520912666173,7.795499804746217,34.52810870381155,28.35316664171319,-3.23295607813634e-05,0.0920556336641311,0,0,0
2803,98055.90069200056,2010-10-30 13:12:00,33.562015018199205,4,9,0.6416855454444885,4.199653148651123,8.637043797967022,7.795499804746217,34.535813786552104,28.35316664171319,-3.23295607813634e-05,0.0920556336641311,0,0,0
2804,98069.94735746794,2010-10-30 13:12:14,47.60868046554489,4,9,0.5916567444801331,4.199653148651123,8.639444814059011,7.795499804746217,34.54589733004685,28.35316664171319,0.0,0.0920556336641311,0,0,0
2805,98091.2908462442,2010-10-30 13:12:35,68.95216924681515,4,9,0.5414473414421082,4.199653148651123,8.64279336561781,7.795499804746217,34.55996025666502,28.35316664171319,0.0,0.0920556336641311,0,0,0
2806,98128.05600008994,2010-10-30 13:13:12,105.71732309756624,4,9,0.4914186000823974,4.199653148651123,8.648044579749513,7.795499804746217,34.58201378870709,28.35316664171319,0.0,0.0920556336641311,0,0,0
2807,98194.57073566706,2010-10-30 13:14:19,172.2320586947469,4,9,0.4413898289203644,4.199653148651123,8.656622320075781,7.795499804746217,34.61803778346181,28.35316664171319,0.0,0.0920556336641311,0,0,0
2808,98294.3972009594,2010-10-30 13:15:58,272.05852395701595,4,9,0.3911804556846618,4.199491024017334,8.668137876130585,7.795499804746217,34.666399665836245,28.35316664171319,-3.24249267578125e-05,0.0920556336641311,0,0,0
2809,98418.5047805948,2010-10-30 13:18:03,396.1661036224899,4,9,0.3409710824489593,4.199653148651123,8.68074962748967,7.795499804746217,34.71936473586337,28.35316664171319,0.0,0.0920556336641311,0,0,0
2810,98569.51837948395,2010-10-30 13:20:34,547.1797025266819,4,9,0.2909423112869262,4.199653148651123,8.693993417842993,7.795499804746217,34.774984277263194,28.35316664171319,-3.23295607813634e-05,0.0920556336641311,0,0,0
2811,98747.18768778777,2010-10-30 13:23:31,724.8490108304544,4,9,0.240913525223732,4.199653148651123,8.707092088417697,7.795499804746217,34.82999483105162,28.35316664171319,-3.23295607813634e-05,0.0920556336641311,0,0,0
2812,98967.02802651002,2010-10-30 13:27:11,944.6893495627564,4,9,0.19052354991436,4.199653148651123,8.720235065188076,7.795499804746217,34.88519153461785,28.35316664171319,0.0,0.0920556336641311,0,0,0
2813,99264.08639378884,2010-10-30 13:32:08,1241.7477169117649,4,9,0.1403141617774963,4.199491024017334,8.733815378012745,7.795499804746217,34.9422249133737,28.35316664171319,-6.47544875391759e-05,0.0920556336641311,0,0,0
2814,99719.62640435634,2010-10-30 13:39:44,1697.2877273539436,4,9,0.0901047885417938,4.199814796447754,8.748173338570563,7.795499804746217,35.00252431180543,28.35316664171319,3.23295607813634e-05,0.0920556336641311,0,0,0
2815,100411.39768894024,2010-10-30 13:51:15,2389.059011942842,4,9,0.0498289167881011,4.199814796447754,8.761230870511465,7.795499804746217,35.05736225745426,28.35316664171319,3.23295607813634e-05,0.0920556336641311,0,0,0
2816,100441.4118095386,2010-10-30 13:51:46,30.015182670656092,5,9,0.0,4.191882610321045,8.761230870511465,7.795499804746217,35.05736225745426,28.35316664171319,-3.24249267578125e-05,0.0920556336641311,0,0,0
2817,100471.41137125203,2010-10-30 13:52:16,60.01474438408032,5,9,0.0,4.190749645233154,8.761230870511465,7.795499804746217,35.05736225745426,28.35316664171319,-3.23295607813634e-05,0.0920556336641311,0,0,0
2818,100471.59880935049,2010-10-30 13:52:16,0.187486223356674,6,9,-1.9243103452026844e-05,4.190749645233154,8.761230870511465,7.795499805748388,35.05736225745426,28.35316664591304,0.0,0.0940094217658042,0,0,0
2819,100476.42697709508,2010-10-30 13:52:21,5.015653977991301,6,9,0.0007031940040178,4.190587520599365,8.761231780712967,7.795499805999811,35.05736607186822,28.35316664696668,0.0,0.0940094217658042,0,0,0
2820,100506.44219661209,2010-10-30 13:52:51,30.01531779242111,7,9,-1.099568486213684,4.013970375061035,8.761231780712967,7.804668424568524,35.05736607186822,28.39016640453858,-0.0009388923645019,0.0940094217658042,0,0,0
2821,100536.45723593548,2010-10-30 13:53:21,60.030356995511895,7,9,-1.0997490882873535,3.986935377120972,8.761231780712967,7.813836954605973,35.05736607186822,28.42683580343933,-0.0006151676061563,0.0940094217658042,0,0,0
2822,100566.47242145325,2010-10-30 13:53:51,90.04554251326384,7,9,-1.099568486213684,3.968156576156616,8.761231780712967,7.823005435674407,35.05736607186822,28.46330014331667,-0.0004532813909463,0.0940094217658042,0,0,0
2823,100596.48776074924,2010-10-30 13:54:21,120.06088182431598,7,9,-1.099568486213684,3.9537487030029297,8.761231780712967,7.832173934307424,35.05736607186822,28.499613537643057,-0.0003561496851034,0.0940094217658042,0,0,0
2824,100626.5028051052,2010-10-30 13:54:51,150.07592616521177,7,9,-1.099568486213684,3.9412834644317623,8.761231780712967,7.841342319841898,35.05736607186822,28.535803554703698,-0.0003237724304199,0.0940094217658042,0,0,0
2825,100656.51811566458,2010-10-30 13:55:21,180.09123672460592,7,9,-1.099568486213684,3.930275201797485,8.761231780712967,7.850510776561284,35.05736607186822,28.57188760974004,-0.0002913951757363,0.0940094217658042,0,0,0
2826,100686.5331764264,2010-10-30 13:55:51,210.1062974914402,7,9,-1.0997490882873535,3.920238256454468,8.761231780712967,7.859679180584983,35.05736607186822,28.60787544944999,-0.0002266406954731,0.0940094217658042,0,0,0
2827,100716.54838429988,2010-10-30 13:56:21,240.121505359897,7,9,-1.099568486213684,3.910687208175659,8.761231780712967,7.868847715770917,35.05736607186822,28.643774010044265,-0.0002590179501567,0.0940094217658042,0,0,0
2828,100746.56374954055,2010-10-30 13:56:51,270.1368706406737,7,9,-1.0997490882873535,3.9014596939086914,8.761231780712967,7.878016214863196,35.05736607186822,28.679586931200458,-0.0002266406954731,0.0940094217658042,0,0,0
2829,100776.57875117,2010-10-30 13:57:21,300.1518723202443,7,9,-1.099568486213684,3.892879724502564,8.761231780712967,7.88718461931233,35.05736607186822,28.715317322706888,-0.0002266406954731,0.0940094217658042,0,0,0
2830,100806.59392830686,2010-10-30 13:57:51,330.1670493919461,7,9,-1.0997490882873535,3.8841378688812256,8.761231780712967,7.896353029564025,35.05736607186822,28.75096876215625,-0.0002266406954731,0.0940094217658042,0,0,0
2831,100836.60925587866,2010-10-30 13:58:21,360.1823769537154,7,9,-1.0997490882873535,3.875719785690308,8.761231780712967,7.905521522563714,35.05736607186822,28.786542577460786,-0.0002913951757363,0.0940094217658042,0,0,0
2832,100866.62430109172,2010-10-30 13:58:51,390.1974221467349,7,9,-1.1001102924346924,3.8673017024993896,8.761231780712967,7.91468995640745,35.05736607186822,28.82203953099341,-0.0002590179501567,0.0940094217658042,0,0,0
2833,100896.63961190676,2010-10-30 13:59:21,420.2127329968538,7,9,-1.0997490882873535,3.8593692779541016,8.761231780712967,7.923858491661651,35.05736607186822,28.85746194449029,-0.0002266406954731,0.0940094217658042,0,0,0
2834,100926.6547202722,2010-10-30 13:59:51,450.227841337256,7,9,-1.0997490882873535,3.8514368534088135,8.761231780712967,7.93302693921826,35.05736607186822,28.892810386591176,-0.0002266406954731,0.0940094217658042,0,0,0
2835,100956.6698791185,2010-10-30 14:00:21,480.24300017852187,7,9,-1.099568486213684,3.843828201293945,8.761231780712967,7.942195461009317,35.05736607186822,28.928087410372537,-0.0001942634553415,0.0940094217658042,0,0,0
2836,100986.68527065472,2010-10-30 14:00:51,510.2583917548352,7,9,-1.0997490882873535,3.836057662963867,8.761231780712967,7.951364014748076,35.05736607186822,28.963293845156308,-0.0002266406954731,0.0940094217658042,0,0,0
2837,101016.70046284913,2010-10-30 14:01:21,540.2735839442148,7,9,-1.099568486213684,3.828611135482788,8.761231780712967,7.960532551235681,35.05736607186822,28.99843042202368,-0.0001618862152099,0.0940094217658042,0,0,0
2838,101046.7154452356,2010-10-30 14:01:51,570.2885663357137,7,9,-1.099568486213684,3.82116436958313,8.761231780712967,7.969700983129697,35.05736607186822,29.033498120473947,-0.0001942634553415,0.0940094217658042,0,0,0
2839,101076.73084325796,2010-10-30 14:02:21,600.3039644182423,7,9,-1.0993878841400146,3.814041376113892,8.761231780712967,7.978869549604653,35.05736607186822,29.06849944829835,-0.0001295089750783,0.0940094217658042,0,0,0
2840,101106.7458079303,2010-10-30 14:02:51,630.3189289853173,7,9,-1.0997490882873535,3.8065946102142334,8.761231780712967,7.988037947528866,35.05736607186822,29.1034337078722,-0.0001942634553415,0.0940094217658042,0,0,0
2841,101136.76108592856,2010-10-30 14:03:21,660.334207013634,7,9,-1.099568486213684,3.799633502960205,8.761231780712967,7.997206479431357,35.05736607186822,29.13830369976927,-0.0002266406954731,0.0940094217658042,0,0,0
2842,101166.77617606858,2010-10-30 14:03:51,690.3492971286129,7,9,-1.099929690361023,3.7926723957061768,8.761231780712967,8.006374968557592,35.05736607186822,29.173109457958947,-0.0001942634553415,0.0940094217658042,0,0,0
2843,101196.79138092954,2010-10-30 14:04:21,720.364501989574,7,9,-1.099568486213684,3.786035060882568,8.761231780712967,8.015543488289685,35.05736607186822,29.20785303507589,-0.0001942634553415,0.0940094217658042,0,0,0
2844,101226.80763085012,2010-10-30 14:04:51,750.3807519452328,7,9,-1.0997490882873535,3.77955961227417,8.761231780712967,8.024712304523147,35.05736607186822,29.242537047711856,-0.0001618862152099,0.0940094217658042,0,0,0
2845,101256.80873667696,2010-10-30 14:05:21,780.381857857275,7,9,-1.0997490882873535,3.773084163665772,8.761231780712967,8.033876503450237,35.05736607186822,29.277144072058583,-0.0001618862152099,0.0940094217658042,0,0,0
2846,101286.82135735734,2010-10-30 14:05:51,810.3944784424256,7,9,-1.0997490882873535,3.766608715057373,8.761231780712967,8.043044208417838,35.05736607186822,29.31170561565939,-0.0001942634553415,0.0940094217658042,0,0,0
2847,101316.83649233912,2010-10-30 14:06:21,840.409613429239,7,9,-1.099568486213684,3.760618925094605,8.761231780712967,8.05221273794977,35.05736607186822,29.3462123826916,-0.0001295089750783,0.0940094217658042,0,0,0
2848,101346.85182259764,2010-10-30 14:06:51,870.4249436626669,7,9,-1.0997490882873535,3.754143476486206,8.761231780712967,8.061381339823516,35.05736607186822,29.3806630197818,-0.0002266406954731,0.0940094217658042,0,0,0
2849,101376.86686502876,2010-10-30 14:07:21,900.439986093803,7,9,-1.099568486213684,3.7486395835876474,8.761231780712967,8.070549855046625,35.05736607186822,29.415058239940105,-0.0001295089750783,0.0940094217658042,0,0,0
2850,101406.88206281207,2010-10-30 14:07:51,930.455183872112,7,9,-1.0997490882873535,3.742649793624878,8.761231780712967,8.079718453201663,35.05736607186822,29.44940043828198,-0.0001618862152099,0.0940094217658042,0,0,0
2851,101436.89724528223,2010-10-30 14:08:21,960.4703663823684,7,9,-1.099568486213684,3.7371456623077393,8.761231780712967,8.088886936039911,35.05736607186822,29.48368952336406,-0.0001295089750783,0.0940094217658042,0,0,0
2852,101466.91252217272,2010-10-30 14:08:51,990.4856432327492,7,9,-1.0997490882873535,3.7313177585601807,8.761231780712967,8.098055545432755,35.05736607186822,29.51792739930581,-0.0001618862152099,0.0940094217658042,0,0,0
2853,101496.92788578937,2010-10-30 14:09:21,1020.501006854391,7,9,-1.099568486213684,3.726137399673462,8.761231780712967,8.107224221025648,35.05736607186822,29.552114736759357,-0.0001295089750783,0.0940094217658042,0,0,0
2854,101526.94280612118,2010-10-30 14:09:51,1050.5159271862178,7,9,-1.099568486213684,3.720471382141113,8.761231780712967,8.116392609361505,35.05736607186822,29.58625036647976,-0.0001295089750783,0.0940094217658042,0,0,0
2855,101556.95799982936,2010-10-30 14:10:21,1080.5311209344827,7,9,-1.099568486213684,3.715129137039185,8.761231780712967,8.125561131219204,35.05736607186822,29.6203364834572,-0.0001295089750783,0.0940094217658042,0,0,0
2856,101586.97319964271,2010-10-30 14:10:51,1110.546320707764,7,9,-1.099568486213684,3.709786891937256,8.761231780712967,8.134729664357057,35.05736607186822,29.65437373979148,-0.0001295089750783,0.0940094217658042,0,0,0
2857,101616.98836909544,2010-10-30 14:11:21,1140.5614901554643,7,9,-1.0997490882873535,3.704444646835327,8.761231780712967,8.143898206980465,35.05736607186822,29.688363228973696,-0.0001942634553415,0.0940094217658042,0,0,0
2858,101647.00355083378,2010-10-30 14:11:51,1170.576671913847,7,9,-1.0997490882873535,3.6994261741638175,8.761231780712967,8.153066814813014,35.05736607186822,29.72230572271401,-0.0001618862152099,0.0940094217658042,0,0,0
2859,101677.01874137404,2010-10-30 14:12:21,1200.591862469154,7,9,-1.0997490882873535,3.6944077014923096,8.761231780712967,8.162235350475184,35.05736607186822,29.75620152689368,-0.0001295089750783,0.0940094217658042,0,0,0
2860,101707.03394978384,2010-10-30 14:12:51,1230.607070848885,7,9,-1.0997490882873535,3.689389228820801,8.761231780712967,8.171403901488834,35.05736607186822,29.79005151115656,-0.0001295089750783,0.0940094217658042,0,0,0
2861,101737.04920373215,2010-10-30 14:13:21,1260.6223247971868,7,9,-1.0997490882873535,3.684532642364502,8.761231780712967,8.18057242395887,35.05736607186822,29.823855833456065,-9.713172767078504e-05,0.0940094217658042,0,0,0
2862,101767.06432084944,2010-10-30 14:13:51,1290.6374419345136,7,9,-1.099568486213684,3.679676055908203,8.761231780712967,8.189740638692934,35.05736607186822,29.857614093360063,-0.0001295089750783,0.0940094217658042,0,0,0
2863,101797.07954503856,2010-10-30 14:14:21,1320.652666188809,7,9,-1.099568486213684,3.674981355667114,8.761231780712967,8.19890884746027,35.05736607186822,29.89132795248034,-6.47544875391759e-05,0.0940094217658042,0,0,0
2864,101827.0946671232,2010-10-30 14:14:51,1350.6677881882538,7,9,-1.0997490882873535,3.670286893844605,8.761231780712967,8.208077099702319,35.05736607186822,29.92499826379946,-6.47544875391759e-05,0.0940094217658042,0,0,0
2865,101857.1098415784,2010-10-30 14:15:21,1380.6829626484468,7,9,-1.099568486213684,3.665592193603516,8.761231780712967,8.217245358130524,35.05736607186822,29.95862563039213,-9.713172767078504e-05,0.0940094217658042,0,0,0
2866,101887.12503062494,2010-10-30 14:15:52,1410.6981517250688,7,9,-1.099568486213684,3.6608974933624263,8.761231780712967,8.226413939504308,35.05736607186822,29.992211742584825,-0.0001295089750783,0.0940094217658042,0,0,0
2867,101917.14023799216,2010-10-30 14:16:22,1440.7133590822511,7,9,-1.0997490882873535,3.656364679336548,8.761231780712967,8.235582552753115,35.05736607186822,30.02575587953977,-0.0001618862152099,0.0940094217658042,0,0,0
2868,101947.15547437668,2010-10-30 14:16:52,1470.728595436704,7,9,-1.099568486213684,3.651831865310669,8.761231780712967,8.244751166387237,35.05736607186822,30.059258665816746,-0.0001295089750783,0.0940094217658042,0,0,0
2869,101977.17063928308,2010-10-30 14:17:22,1500.7437603480982,7,9,-1.0997490882873535,3.6474609375,8.761231780712967,8.253919719691792,35.05736607186822,30.09272059286755,-9.713172767078504e-05,0.0940094217658042,0,0,0
2870,102007.1859178427,2010-10-30 14:17:52,1530.7590389077393,7,9,-1.099568486213684,3.643090009689331,8.761231780712967,8.263088250839353,35.05736607186822,30.12614246220273,-0.0001295089750783,0.0940094217658042,0,0,0
2871,102037.20097570732,2010-10-30 14:18:22,1560.7740967923903,7,9,-1.0997490882873535,3.638880968093872,8.761231780712967,8.272256803797008,35.05736607186822,30.159525348723182,-9.713172767078504e-05,0.0940094217658042,0,0,0
2872,102067.21637371968,2010-10-30 14:18:52,1590.7894950002312,7,9,-1.0997490882873535,3.634671926498413,8.761231780712967,8.281425429275853,35.05736607186822,30.19286980927916,-0.0001295089750783,0.0940094217658042,0,0,0
2873,102097.2313519959,2010-10-30 14:19:22,1620.804473085999,7,9,-1.0997490882873535,3.630624771118164,8.761231780712967,8.290593918810856,35.05736607186822,30.226176085586896,-0.0001295089750783,0.0940094217658042,0,0,0
2874,102127.24662786385,2010-10-30 14:19:52,1650.8197489439062,7,9,-1.0997490882873535,3.626577615737915,8.761231780712967,8.299762478148569,35.05736607186822,30.25944540834621,-0.0001295089750783,0.0940094217658042,0,0,0
2875,102157.2617274424,2010-10-30 14:20:22,1680.834848497409,7,9,-1.0997490882873535,3.622692346572876,8.761231780712967,8.30893096168732,35.05736607186822,30.292678020592756,-9.713172767078504e-05,0.0940094217658042,0,0,0
2876,102187.27692452898,2010-10-30 14:20:52,1710.8500456291065,7,9,-1.0997490882873535,3.618968963623047,8.761231780712967,8.318099548883229,35.05736607186822,30.325875783017327,-9.713172767078504e-05,0.0940094217658042,0,0,0
2877,102217.29222704834,2010-10-30 14:21:22,1740.8653481233998,7,9,-1.099929690361023,3.615083694458008,8.761231780712967,8.327268181239576,35.05736607186822,30.359039136621835,-0.0001295089750783,0.0940094217658042,0,0,0
2878,102247.30728608085,2010-10-30 14:21:52,1770.8804071458867,7,9,-1.099568486213684,3.6115221977233887,8.761231780712967,8.336436676333456,35.05736607186822,30.39216846220397,-0.0001295089750783,0.0940094217658042,0,0,0
2879,102277.3224748918,2010-10-30 14:22:22,1800.8955959568464,7,9,-1.0997490882873535,3.6079607009887695,8.761231780712967,8.34560518693397,35.05736607186822,30.42526477354578,-0.0001295089750783,0.0940094217658042,0,0,0
2880,102307.33766876036,2010-10-30 14:22:52,1830.9107898203983,7,9,-1.0997490882873535,3.60456109046936,8.761231780712967,8.35477368954687,35.05736607186822,30.458328539688218,-6.47544875391759e-05,0.0940094217658042,0,0,0
2881,102337.35287467897,2010-10-30 14:23:22,1860.9259957991453,7,9,-1.0997490882873535,3.600999593734741,8.761231780712967,8.36394218921868,35.05736607186822,30.49136101326616,-0.0001295089750783,0.0940094217658042,0,0,0
2882,102367.36803722948,2010-10-30 14:23:52,1890.941158289506,7,9,-1.099568486213684,3.597761869430542,8.761231780712967,8.373110754339573,35.05736607186822,30.524362868361926,-9.713172767078504e-05,0.0940094217658042,0,0,0
2883,102397.3832283562,2010-10-30 14:24:22,1920.956349416237,7,9,-1.099929690361023,3.5945241451263428,8.761231780712967,8.38227928208169,35.05736607186822,30.55733453065349,-9.713172767078504e-05,0.0940094217658042,0,0,0
2884,102427.39842065588,2010-10-30 14:24:52,1950.9715417108791,7,9,-1.099568486213684,3.5914485454559326,8.761231780712967,8.391447864225427,35.05736607186822,30.5902770673139,-6.47544875391759e-05,0.0940094217658042,0,0,0
2885,102457.41362263964,2010-10-30 14:25:22,1980.9867437046948,7,9,-1.0997490882873535,3.5882108211517334,8.761231780712967,8.400616410914331,35.05736607186822,30.62319072059711,-9.713172767078504e-05,0.0940094217658042,0,0,0
2886,102487.4289280462,2010-10-30 14:25:52,2011.0020491112464,7,9,-1.0997490882873535,3.585134983062744,8.761231780712967,8.409785066450647,35.05736607186822,30.65607640692909,-9.713172767078504e-05,0.0940094217658042,0,0,0
2887,102517.44397645726,2010-10-30 14:26:22,2041.0170975473488,7,9,-1.099568486213684,3.582221031188965,8.761231780712967,8.418953537650747,35.05736607186822,30.688933589385304,-9.713172767078504e-05,0.0940094217658042,0,0,0
2888,102547.45919426046,2010-10-30 14:26:52,2071.032315350566,7,9,-1.099568486213684,3.579145193099976,8.761231780712967,8.428122052161848,35.05736607186822,30.72176340052408,-9.713172767078504e-05,0.0940094217658042,0,0,0
2889,102577.4743550566,2010-10-30 14:27:22,2101.047476116629,7,9,-1.099568486213684,3.5762312412261963,8.761231780712967,8.437290607250656,35.05736607186822,30.75456594998032,-0.0001295089750783,0.0940094217658042,0,0,0
2890,102607.4896652952,2010-10-30 14:27:52,2131.0627863602363,7,9,-1.099568486213684,3.573317289352417,8.761231780712967,8.446459203657747,35.05736607186822,30.78734171366053,-6.47544875391759e-05,0.0940094217658042,0,0,0
2891,102637.50484817638,2010-10-30 14:28:22,2161.077969241417,7,9,-1.0997490882873535,3.5704033374786377,8.761231780712967,8.455627769270151,35.05736607186822,30.82009046105452,-9.713172767078504e-05,0.0940094217658042,0,0,0
2892,102667.5199407124,2010-10-30 14:28:52,2191.09306177743,7,9,-1.099929690361023,3.5671656131744385,8.761231780712967,8.464796265064336,35.05736607186822,30.85281166608392,-0.0001295089750783,0.0940094217658042,0,0,0
2893,102697.5353491758,2010-10-30 14:29:22,2221.1084703761685,7,9,-1.0997490882873535,3.564413547515869,8.761231780712967,8.473964940185175,35.05736607186822,30.885506148707325,-9.713172767078504e-05,0.0940094217658042,0,0,0
2894,102727.5502930964,2010-10-30 14:29:52,2251.1234142717235,7,9,-1.0997490882873535,3.56149959564209,8.761231780712967,8.48313339175958,35.05736607186822,30.91817278048911,-6.47544875391759e-05,0.0940094217658042,0,0,0
2895,102757.56549830324,2010-10-30 14:30:22,2281.138619363259,7,9,-1.099568486213684,3.5585856437683105,8.761231780712967,8.492301929902856,35.05736607186822,30.95081250624625,-6.47544875391759e-05,0.0940094217658042,0,0,0
2896,102787.580701886,2010-10-30 14:30:52,2311.153822986135,7,9,-1.0997490882873535,3.5555098056793213,8.761231780712967,8.501470452227434,35.05736607186822,30.98342444858045,-9.713172767078504e-05,0.0940094217658042,0,0,0
2897,102817.59585215592,2010-10-30 14:31:22,2341.1689732109257,7,9,-1.099568486213684,3.552433967590332,8.761231780712967,8.510639058255482,35.05736607186822,31.016008337031785,-9.713172767078504e-05,0.0940094217658042,0,0,0
2898,102847.61103669622,2010-10-30 14:31:52,2371.184157751242,7,9,-1.099568486213684,3.549034357070923,8.761231780712967,8.519807662425961,35.05736607186822,31.048563594059104,-0.0001295089750783,0.0940094217658042,0,0,0
2899,102877.62622423402,2010-10-30 14:32:22,2401.1993453241157,7,9,-1.0997490882873535,3.5459585189819336,8.761231780712967,8.52897628827755,35.05736607186822,31.08108960890699,-6.47544875391759e-05,0.0940094217658042,0,0,0
2900,102907.64141900482,2010-10-30 14:32:52,2431.214540064854,7,9,-1.0997490882873535,3.5425589084625244,8.761231780712967,8.538144901683017,35.05736607186822,31.1135859479574,-9.713172767078504e-05,0.0940094217658042,0,0,0
2901,102937.6571742425,2010-10-30 14:33:22,2461.230295312548,7,9,-1.0997490882873535,3.539321184158325,8.761231780712967,8.547313699340918,35.05736607186822,31.14605279730168,-9.713172767078504e-05,0.0940094217658042,0,0,0
2902,102967.67205783776,2010-10-30 14:33:52,2491.245178942904,7,9,-1.0997490882873535,3.535759687423706,8.761231780712967,8.556482164130822,35.05736607186822,31.17848729986216,-0.0001295089750783,0.0940094217658042,0,0,0
2903,102997.6735684384,2010-10-30 14:34:22,2521.246689628767,7,9,-1.0997490882873535,3.532521963119507,8.761231780712967,8.565646577272222,35.05736607186822,31.210875513131352,0.0,0.0940094217658042,0,0,0
2904,103027.68660379227,2010-10-30 14:34:52,2551.259724882399,7,9,-1.099568486213684,3.528636693954468,8.761231780712967,8.57481451024255,35.05736607186822,31.2432433713716,-9.713172767078504e-05,0.0940094217658042,0,0,0
2905,103057.70174371642,2010-10-30 14:35:22,2581.274864781455,7,9,-1.099929690361023,3.5247514247894287,8.761231780712967,8.583983118778962,35.05736607186822,31.275579391212,-0.0001618862152099,0.0940094217658042,0,0,0
2906,103087.71692196104,2010-10-30 14:35:52,2611.290043021068,7,9,-1.0997490882873535,3.5208661556243896,8.761231780712967,8.593151721031587,35.05736607186822,31.307879616149616,-0.0001618862152099,0.0940094217658042,0,0,0
2907,103117.73213178938,2010-10-30 14:36:22,2641.305252879484,7,9,-1.099568486213684,3.5168190002441406,8.761231780712967,8.602320298961198,35.05736607186822,31.340142482283703,-9.713172767078504e-05,0.0940094217658042,0,0,0
2908,103147.74743955684,2010-10-30 14:36:52,2671.3205606318825,7,9,-1.099568486213684,3.512448072433472,8.761231780712967,8.61148903003923,35.05736607186822,31.37236626238387,-6.47544875391759e-05,0.0940094217658042,0,0,0
2909,103177.76252127084,2010-10-30 14:37:22,2701.3356431679726,7,9,-1.0997490882873535,3.507591724395752,8.761231780712967,8.620657554902799,35.05736607186822,31.40454764018932,-0.0001295089750783,0.0940094217658042,0,0,0
2910,103207.7802869993,2010-10-30 14:37:52,2731.353408179617,7,9,-1.0997490882873535,3.502411365509033,8.761231780712967,8.629826978914105,35.05736607186822,31.436687454926403,-0.0001618862152099,0.0940094217658042,0,0,0
2911,103237.79287190552,2010-10-30 14:38:22,2761.365993000632,7,9,-1.0997490882873535,3.4969072341918945,8.761231780712967,8.638994787821025,35.05736607186822,31.46877313516066,-0.0001942634553415,0.0940094217658042,0,0,0
2912,103267.8080632528,2010-10-30 14:38:52,2791.3811843429007,7,9,-1.099568486213684,3.490917444229126,8.761231780712967,8.64816336124535,35.05736607186822,31.50080825923913,-0.0001942634553415,0.0940094217658042,0,0,0
2913,103297.82325682562,2010-10-30 14:39:22,2821.396377935778,7,9,-1.0997490882873535,3.4839563369750977,8.761231780712967,8.657331981926484,35.05736607186822,31.53278438143445,-0.0001942634553415,0.0940094217658042,0,0,0
2914,103327.83845023304,2010-10-30 14:39:52,2851.411571293069,7,9,-1.099568486213684,3.4761857986450195,8.761231780712967,8.666500510159533,35.05736607186822,31.564693027905644,-0.0002266406954731,0.0940094217658042,0,0,0
2915,103357.85362330978,2010-10-30 14:40:22,2881.426744369814,7,9,-1.099568486213684,3.4674439430236816,8.761231780712967,8.675669103108197,35.05736607186822,31.596525422475317,-0.0001942634553415,0.0940094217658042,0,0,0
2916,103387.86879900808,2010-10-30 14:40:52,2911.441920093156,7,9,-1.0997490882873535,3.456921339035034,8.761231780712967,8.684837665262254,35.05736607186822,31.628269211099663,-0.0002913951757363,0.0940094217658042,0,0,0
2917,103417.88399632522,2010-10-30 14:41:22,2941.4571173852523,7,9,-1.099568486213684,3.444294214248657,8.761231780712967,8.694006312951965,35.05736607186822,31.659908338421182,-0.0003885269106831,0.0940094217658042,0,0,0
2918,103447.89929899496,2010-10-30 14:41:52,2971.4724200800456,7,9,-1.099568486213684,3.4290771484375,8.761231780712967,8.703175031998757,35.05736607186822,31.691420932597836,-0.0004209041653666,0.0940094217658042,0,0,0
2919,103477.91437387698,2010-10-30 14:42:22,3001.487495027222,7,9,-1.099568486213684,3.409812688827514,8.761231780712967,8.71234360484305,35.05736607186822,31.722775913643005,-0.0005827903514727,0.0940094217658042,0,0,0
2920,103507.92963070744,2010-10-30 14:42:52,3031.502751877757,7,9,-1.0997490882873535,3.3848822116851807,8.761231780712967,8.721512193560729,35.05736607186822,31.753930209098915,-0.0007770538213662,0.0940094217658042,0,0,0
2921,103537.94491429965,2010-10-30 14:43:22,3061.518035454903,7,9,-1.099568486213684,3.3513717651367188,8.761231780712967,8.730680793670304,35.05736607186822,31.784819281949293,-0.0010036944877356,0.0940094217658042,0,0,0
2922,103567.9599260092,2010-10-30 14:43:52,3091.5330470692343,7,9,-1.099568486213684,3.304910659790039,8.761231780712967,8.739849345689015,35.05736607186822,31.81534562394875,-0.0013922214275225,0.0940094217658042,0,0,0
2923,103597.9751139881,2010-10-30 14:44:22,3121.54823504812,7,9,-1.099568486213684,3.239346981048584,8.761231780712967,8.749017916865466,35.05736607186822,31.84536416273571,-0.0020073889754712,0.0940094217658042,0,0,0
2924,103627.99030067376,2010-10-30 14:44:52,3151.563421758845,7,9,-1.099568486213684,3.1428630352020264,8.761231780712967,8.75818643892815,35.05736607186822,31.87465242213393,-0.0030434608925133,0.0940094217658042,0,0,0
2925,103658.00562350372,2010-10-30 14:45:22,3181.578744568771,7,9,-1.0997490882873535,2.980329751968384,8.761231780712967,8.767355062167512,35.05736607186822,31.902808196157864,-0.0058926581405103,0.0940094217658042,0,0,0
2926,103676.31789188107,2010-10-30 14:45:41,3199.891012996237,7,9,-1.099568486213684,2.7802391052246094,8.761231780712967,8.772948770812718,35.05736607186822,31.91897427666577,-0.0107491966336965,0.0940094217658042,0,0,0
2927,103681.88029652995,2010-10-30 14:45:46,3205.4534176351062,7,9,-1.0997490882873535,2.699458122253418,8.761231780712967,8.774647906105802,35.05736607186822,31.923630502275955,-0.0116881374269723,0.0940094217658042,0,0,0
2928,103741.89475218672,2010-10-30 14:46:46,60.01473850442642,8,9,0.0,3.318185329437256,8.761231780712967,8.774647906105802,35.05736607186822,31.923630502275955,0.0013598442310467,0.0940094217658042,0,0,0
2929,103742.08307889088,2010-10-30 14:46:47,0.187593129800426,9,9,-1.9243103452026844e-05,3.318185329437256,8.761231780712967,8.774647907108545,35.05736607186822,31.92363050560324,0.0,0.0930307656526565,0,0,0
2930,103746.91099304848,2010-10-30 14:46:52,5.015507277368211,9,9,0.0007031940040178,3.325955867767334,8.761232579308007,8.77464790735873,35.057368725412466,31.923630506433565,0.0011008263099938,0.0930307656526565,0,0,0
