Data_Point,Test_Time(s),Date_Time,Step_Time(s),Step_Index,Cycle_Index,Current(A),Voltage(V),Charge_Capacity(Ah),Discharge_Capacity(Ah),Charge_Energy(Wh),Discharge_Energy(Wh),dV/dt(V/s),Internal_Resistance(Ohm),Is_FC_Data,AC_Impedance(Ohm),ACI_Phase_Angle(Deg)
967,34715.87432846005,2010-10-29 19:36:13,30.01532280992628,1,4,0.0,3.413050413131714,2.902953806792479,2.906707310838609,11.638488461270384,10.540722777655516,0.0007122993702068,0.0930307656526565,0,0,0
968,34745.88924564403,2010-10-29 19:36:43,60.03024000393288,1,4,0.0,3.436523675918579,2.902953806792479,2.906707310838609,11.638488461270384,10.540722777655516,0.0005180359003134,0.0930307656526565,0,0,0
969,34775.90442601897,2010-10-29 19:37:13,90.04542037886733,1,4,0.0,3.454331159591675,2.902953806792479,2.906707310838609,11.638488461270384,10.540722777655516,0.0004209041653666,0.0930307656526565,0,0,0
970,34805.87284750136,2010-10-29 19:37:43,120.01384191137912,1,4,0.0,3.4684152603149414,2.902953806792479,2.906707310838609,11.638488461270384,10.540722777655516,0.0003561496851034,0.0930307656526565,0,0,0
971,34835.88672348211,2010-10-29 19:38:13,30.01514128751658,2,4,0.5499359965324402,3.623987436294556,2.907540130538768,2.906707310838609,11.654955193937498,10.540722777655516,0.0014893531333655,0.0930307656526565,0,0,0
972,34865.90198891904,2010-10-29 19:38:43,60.03040673948919,2,4,0.5501165986061096,3.669153690338135,2.912126377543433,2.906707310838609,11.671686028901542,10.540722777655516,0.0010360718006268,0.0930307656526565,0,0,0
973,34895.91699189184,2010-10-29 19:39:13,90.04540972732039,2,4,0.5501165986061096,3.701530694961548,2.91671259993645,2.906707310838609,11.688590887171932,10.540722777655516,0.0007770538213662,0.0930307656526565,0,0,0
974,34925.93239906703,2010-10-29 19:39:43,120.06081690251088,2,4,0.5501165986061096,3.726946830749512,2.92129895615451,2.906707310838609,11.705627148880504,10.540722777655516,0.0006151676061563,0.0930307656526565,0,0,0
975,34955.947256111125,2010-10-29 19:40:13,150.07567394660538,2,4,0.550297200679779,3.747344493865967,2.925885123839682,2.906707310838609,11.722767156430832,10.540722777655516,0.0005180359003134,0.0930307656526565,0,0,0
976,34985.96241428573,2010-10-29 19:40:43,180.0908321011598,2,4,0.5499359965324402,3.763532876968384,2.930471342224864,2.906707310838609,11.73999214674752,10.540722777655516,0.0003561496851034,0.0930307656526565,0,0,0
977,35015.97761805897,2010-10-29 19:41:13,210.10603600974736,2,4,0.5499359965324402,3.775026798248291,2.935057578733471,2.906707310838609,11.75728124618133,10.540722777655516,0.0002590179501567,0.0930307656526565,0,0,0
978,35045.99262071097,2010-10-29 19:41:43,240.12103854645423,2,4,0.5501165986061096,3.7819879055023193,2.939643854488009,2.906707310838609,11.774611613754578,10.540722777655516,0.0001618862152099,0.0930307656526565,0,0,0
979,35076.00779832903,2010-10-29 19:42:13,270.13621618456773,2,4,0.5501165986061096,3.786682605743408,2.944230035834027,2.906707310838609,11.791967730129455,10.540722777655516,9.713172767078504e-05,0.0930307656526565,0,0,0
980,35106.02291714554,2010-10-29 19:42:43,300.1513349860421,2,4,0.5501165986061096,3.790891647338867,2.948816210788774,2.906707310838609,11.809344177536246,10.540722777655516,9.713172767078504e-05,0.0930307656526565,0,0,0
981,35136.038078051955,2010-10-29 19:43:13,330.16649589746754,2,4,0.5501165986061096,3.794776916503906,2.953402434209799,2.906707310838609,11.826739355256606,10.540722777655516,9.713172767078504e-05,0.0930307656526565,0,0,0
982,35166.05330117344,2010-10-29 19:43:43,360.1817189888646,2,4,0.5501165986061096,3.798662185668945,2.95798863455219,2.906707310838609,11.844152474052766,10.540722777655516,9.713172767078504e-05,0.0930307656526565,0,0,0
983,35196.06847810478,2010-10-29 19:44:13,390.19689614577874,2,4,0.5501165986061096,3.8027093410491934,2.962574888551388,2.906707310838609,11.861583516604195,10.540722777655516,9.713172767078504e-05,0.0930307656526565,0,0,0
984,35226.08386400194,2010-10-29 19:44:43,420.2122818675005,2,4,0.5501165986061096,3.806432723999024,2.967161233343934,2.906707310838609,11.879032279309538,10.540722777655516,0.0001295089750783,0.0930307656526565,0,0,0
985,35256.09875747683,2010-10-29 19:45:13,450.2271753022918,2,4,0.550297200679779,3.8099942207336426,2.971747531385799,2.906707310838609,11.896497722721517,10.540722777655516,9.713172767078504e-05,0.0930307656526565,0,0,0
986,35286.113769066105,2010-10-29 19:45:43,480.2421869065979,2,4,0.5499359965324402,3.8135557174682617,2.976333801052386,2.906707310838609,11.913979662306955,10.540722777655516,9.713172767078504e-05,0.0930307656526565,0,0,0
987,35316.12890121083,2010-10-29 19:46:14,510.2573191415528,2,4,0.5501165986061096,3.817117214202881,2.9809199874571,2.906707310838609,11.931477845820496,10.540722777655516,3.237724376958795e-05,0.0930307656526565,0,0,0
988,35346.144017340644,2010-10-29 19:46:44,540.2724351811438,2,4,0.550297200679779,3.8206787109375,2.985506210099423,2.906707310838609,11.948992174623651,10.540722777655516,9.713172767078504e-05,0.0930307656526565,0,0,0
989,35376.15916892383,2010-10-29 19:47:14,570.2875867342453,2,4,0.550297200679779,3.824078321456909,2.990092429756261,2.906707310838609,11.966522113383627,10.540722777655516,0.0001295089750783,0.0930307656526565,0,0,0
990,35406.174420952346,2010-10-29 19:47:44,600.3028387778,2,4,0.5501165986061096,3.827316045761109,2.994678578331128,2.906707310838609,11.9840672407164,10.540722777655516,6.47544875391759e-05,0.0930307656526565,0,0,0
991,35436.18953341302,2010-10-29 19:48:14,630.3179512334589,2,4,0.5501165986061096,3.8307156562805176,2.999264810385131,2.906707310838609,12.001627944145632,10.540722777655516,9.713172767078504e-05,0.0930307656526565,0,0,0
992,35466.204541097555,2010-10-29 19:48:44,660.3329589079706,2,4,0.5499359965324402,3.8339531421661377,3.003850953425163,2.906707310838609,12.019203609334182,10.540722777655516,9.713172767078504e-05,0.0930307656526565,0,0,0
993,35496.2199032756,2010-10-29 19:49:14,690.3483211762393,2,4,0.5501165986061096,3.837352752685547,3.008437105004196,2.906707310838609,12.036794711493137,10.540722777655516,6.47544875391759e-05,0.0930307656526565,0,0,0
994,35526.23494141103,2010-10-29 19:49:44,720.3633592264567,2,4,0.5497553944587708,3.840752363204956,3.013023182591792,2.906707310838609,12.054400976596044,10.540722777655516,9.713172767078504e-05,0.0930307656526565,0,0,0
995,35556.24995583736,2010-10-29 19:50:14,750.3783736477836,2,4,0.5501165986061096,3.844313859939575,3.017609299966034,2.906707310838609,12.072023050100384,10.540722777655516,9.713172767078504e-05,0.0930307656526565,0,0,0
996,35586.26509437803,2010-10-29 19:50:44,780.3935122185293,2,4,0.5501165986061096,3.847713470458984,3.022195525152791,2.906707310838609,12.089661382031316,10.540722777655516,9.713172767078504e-05,0.0930307656526565,0,0,0
997,35616.280416611524,2010-10-29 19:51:14,810.4088344620438,2,4,0.5499359965324402,3.8511130809783936,3.026781816612251,2.906707310838609,12.107315956567472,10.540722777655516,9.713172767078504e-05,0.0930307656526565,0,0,0
998,35646.29538353447,2010-10-29 19:51:44,840.4238013749655,2,4,0.5499359965324402,3.854836463928223,3.031368036509895,2.906707310838609,12.124986242233335,10.540722777655516,0.0001295089750783,0.0930307656526565,0,0,0
999,35676.310506611604,2010-10-29 19:52:14,870.438924452096,2,4,0.550297200679779,3.858236074447632,3.0359542648333,2.906707310838609,12.142672493506463,10.540722777655516,0.0001295089750783,0.0930307656526565,0,0,0
1000,35706.32566940773,2010-10-29 19:52:44,900.4540872181436,2,4,0.5499359965324402,3.861473798751831,3.040540526934214,2.906707310838609,12.160374577238292,10.540722777655516,6.47544875391759e-05,0.0930307656526565,0,0,0
1001,35736.34083981782,2010-10-29 19:53:14,930.4692576883926,2,4,0.5501165986061096,3.86487340927124,3.045126805180016,2.906707310838609,12.178092162409945,10.540722777655516,9.713172767078504e-05,0.0930307656526565,0,0,0
1002,35766.35591839905,2010-10-29 19:53:44,960.4843362094758,2,4,0.5499359965324402,3.8679492473602295,3.04971304806266,2.906707310838609,12.195824760994189,10.540722777655516,6.47544875391759e-05,0.0930307656526565,0,0,0
1003,35796.37106323542,2010-10-29 19:54:14,990.4994810458372,2,4,0.5501165986061096,3.871348857879639,3.05429934115623,2.906707310838609,12.213572490143058,10.540722777655516,9.713172767078504e-05,0.0930307656526565,0,0,0
1004,35826.38621417198,2010-10-29 19:54:44,1020.5146319824024,2,4,0.5501165986061096,3.874424695968628,3.05888562412702,2.906707310838609,12.231334734179896,10.540722777655516,9.713172767078504e-05,0.0930307656526565,0,0,0
1005,35856.4013379659,2010-10-29 19:55:14,1050.529755771307,2,4,0.5499359965324402,3.8773386478424072,3.063471883294414,2.906707310838609,12.249111080386136,10.540722777655516,6.47544875391759e-05,0.0930307656526565,0,0,0
1006,35886.41646737882,2010-10-29 19:55:44,1080.5448852193158,2,4,0.5501165986061096,3.8805763721466064,3.068058131632899,2.906707310838609,12.266901146156115,10.540722777655516,9.713172767078504e-05,0.0930307656526565,0,0,0
1007,35916.431747156494,2010-10-29 19:56:14,1110.5601649969926,2,4,0.5499359965324402,3.883328437805176,3.072644399763956,2.906707310838609,12.284704575120063,10.540722777655516,6.47544875391759e-05,0.0930307656526565,0,0,0
1008,35946.446813241586,2010-10-29 19:56:44,1140.5752311823314,2,4,0.5497553944587708,3.885918617248535,3.077230681194306,2.906707310838609,12.30252078794584,10.540722777655516,6.47544875391759e-05,0.0930307656526565,0,0,0
1009,35976.461892890475,2010-10-29 19:57:14,1170.5903106958883,2,4,0.5499359965324402,3.8885087966918954,3.081816956636423,2.906707310838609,12.320349131641771,10.540722777655516,6.47544875391759e-05,0.0930307656526565,0,0,0
1010,36006.47701511549,2010-10-29 19:57:44,1200.60543295097,2,4,0.550297200679779,3.890937089920044,3.086403330293415,2.906707310838609,12.33818929330873,10.540722777655516,3.237724376958795e-05,0.0930307656526565,0,0,0
1011,36036.49215368122,2010-10-29 19:58:14,1230.6205714966532,2,4,0.5501165986061096,3.893365383148194,3.090989723519857,2.906707310838609,12.356040397197074,10.540722777655516,6.47544875391759e-05,0.0930307656526565,0,0,0
1012,36066.50729386599,2010-10-29 19:58:44,1260.6357117114962,2,4,0.5499359965324402,3.895146131515503,3.09557608772181,2.906707310838609,12.373901349184417,10.540722777655516,3.237724376958795e-05,0.0930307656526565,0,0,0
1013,36096.52243397557,2010-10-29 19:59:14,1290.6508517859895,2,4,0.5499359965324402,3.8974125385284415,3.100162365316629,2.906707310838609,12.391771340202078,10.540722777655516,6.47544875391759e-05,0.0930307656526565,0,0,0
1014,36126.537704104194,2010-10-29 19:59:44,1320.6661220449428,2,4,0.5501165986061096,3.899355173110962,3.104748697756045,2.906707310838609,12.409650496189832,10.540722777655516,3.237724376958795e-05,0.0930307656526565,0,0,0
1015,36156.5527023452,2010-10-29 20:00:14,1350.6811201606313,2,4,0.5499359965324402,3.9009740352630615,3.109335000724119,2.906707310838609,12.427537837834532,10.540722777655516,3.237724376958795e-05,0.0930307656526565,0,0,0
1016,36186.56823102822,2010-10-29 20:00:44,1380.6966488436565,2,4,0.5501165986061096,3.902592897415161,3.113921305867917,2.906707310838609,12.445433014252492,10.540722777655516,3.237724376958795e-05,0.0930307656526565,0,0,0
1017,36216.58299382743,2010-10-29 20:01:14,1410.7114116679263,2,4,0.5501165986061096,3.904373645782471,3.118507533026627,2.906707310838609,12.46333527064265,10.540722777655516,6.47544875391759e-05,0.0930307656526565,0,0,0
1018,36246.59812045842,2010-10-29 20:01:44,1440.7265382989142,2,4,0.5501165986061096,3.9056687355041504,3.12309391935339,2.906707310838609,12.481245047352672,10.540722777655516,0.0,0.0930307656526565,0,0,0
1019,36276.613338477175,2010-10-29 20:02:14,1470.7417563828312,2,4,0.5501165986061096,3.90712571144104,3.1276801427956,2.906707310838609,12.499160848635714,10.540722777655516,3.237724376958795e-05,0.0930307656526565,0,0,0
1020,36306.62839685806,2010-10-29 20:02:44,1500.7568146985564,2,4,0.5501165986061096,3.9085826873779297,3.132266385567001,2.906707310838609,12.517083108449423,10.540722777655516,6.47544875391759e-05,0.0930307656526565,0,0,0
1021,36336.64355915794,2010-10-29 20:03:14,1530.7719769984424,2,4,0.5501165986061096,3.90987777709961,3.136852645794279,2.906707310838609,12.535011597183392,10.540722777655516,6.47544875391759e-05,0.0930307656526565,0,0,0
1022,36366.6586670372,2010-10-29 20:03:44,1560.7870848426078,2,4,0.5501165986061096,3.911172866821289,3.141439000883184,2.906707310838609,12.552946394597363,10.540722777655516,6.47544875391759e-05,0.0930307656526565,0,0,0
1023,36396.67402709496,2010-10-29 20:04:14,1590.8024449454797,2,4,0.550297200679779,3.9126298427581783,3.146025359317153,2.906707310838609,12.570887155404224,10.540722777655516,6.47544875391759e-05,0.0930307656526565,0,0,0
1024,36426.68895233903,2010-10-29 20:04:44,1620.8173701494495,2,4,0.5501165986061096,3.913762807846069,3.150611670662737,2.906707310838609,12.588833596616825,10.540722777655516,6.470680091297254e-05,0.0930307656526565,0,0,0
1025,36456.704285524815,2010-10-29 20:05:14,1650.8327034254603,2,4,0.5501165986061096,3.914896011352539,3.155198113297977,2.906707310838609,12.60678640725854,10.540722777655516,3.237724376958795e-05,0.0930307656526565,0,0,0
1026,36486.71923095419,2010-10-29 20:05:44,1680.847648799701,2,4,0.5499359965324402,3.916029214859009,3.159784421853333,2.906707310838609,12.624744390745596,10.540722777655516,0.0,0.0930307656526565,0,0,0
1027,36516.734364978605,2010-10-29 20:06:14,1710.862782819103,2,4,0.5501165986061096,3.9174861907958975,3.164370777991627,2.906707310838609,12.642708450278818,10.540722777655516,3.237724376958795e-05,0.0930307656526565,0,0,0
1028,36546.74952766948,2010-10-29 20:06:44,1740.8779454798882,2,4,0.5501165986061096,3.918781280517578,3.168957071331952,2.906707310838609,12.660678033737009,10.540722777655516,6.47544875391759e-05,0.0930307656526565,0,0,0
1029,36576.76465774403,2010-10-29 20:07:14,1770.8930755544588,2,4,0.5499359965324402,3.919914484024048,3.173543433874657,2.906707310838609,12.67865379054548,10.540722777655516,0.0,0.0930307656526565,0,0,0
1030,36606.78245905615,2010-10-29 20:07:44,1800.9108769868749,2,4,0.5501165986061096,3.9213714599609375,3.178130195449432,2.906707310838609,12.696636949958302,10.540722777655516,6.47544875391759e-05,0.0930307656526565,0,0,0
1031,36636.79494581276,2010-10-29 20:08:14,1830.923363658272,2,4,0.5501165986061096,3.922666549682617,3.182716055877927,2.906707310838609,12.714622518128142,10.540722777655516,6.47544875391759e-05,0.0930307656526565,0,0,0
1032,36666.81007237859,2010-10-29 20:08:44,1860.938490214072,2,4,0.5501165986061096,3.923961639404297,3.187302440495763,2.906707310838609,12.732616120770606,10.540722777655516,6.47544875391759e-05,0.0930307656526565,0,0,0
1033,36696.82523256821,2010-10-29 20:09:14,1890.9536504036985,2,4,0.5501165986061096,3.925256729125977,3.191888761352492,2.906707310838609,12.750615539580886,10.540722777655516,3.237724376958795e-05,0.0930307656526565,0,0,0
1034,36726.84035535462,2010-10-29 20:09:44,1920.968773165042,2,4,0.550297200679779,3.926713705062866,3.19647513957779,2.906707310838609,12.768621155762238,10.540722777655516,6.47544875391759e-05,0.0930307656526565,0,0,0
1035,36756.85552132365,2010-10-29 20:10:14,1950.9839391591352,2,4,0.5499359965324402,3.927846908569336,3.201061490877469,2.906707310838609,12.786632784667368,10.540722777655516,0.0,0.0930307656526565,0,0,0
1036,36786.8706468168,2010-10-29 20:10:44,1980.9990646272247,2,4,0.5499359965324402,3.929141998291016,3.205647848808416,2.906707310838609,12.804650511184464,10.540722777655516,0.0,0.0930307656526565,0,0,0
1037,36816.88581334724,2010-10-29 20:11:14,2011.014231212792,2,4,0.550297200679779,3.9307608604431152,3.21023428514109,2.906707310838609,12.82267483776556,10.540722777655516,6.47544875391759e-05,0.0930307656526565,0,0,0
1038,36846.901048453576,2010-10-29 20:11:44,2041.0294663141217,2,4,0.5501165986061096,3.931894063949585,3.214820744474096,2.906707310838609,12.840705380209048,10.540722777655516,3.237724376958795e-05,0.0930307656526565,0,0,0
1039,36876.91602486016,2010-10-29 20:12:14,2071.0444426655663,2,4,0.5499359965324402,3.9333510398864746,3.219406482842805,2.906707310838609,12.858739351681344,10.540722777655516,6.47544875391759e-05,0.0930307656526565,0,0,0
1040,36906.93116289958,2010-10-29 20:12:44,2101.0595807100003,2,4,0.5499359965324402,3.9346461296081534,3.223991942486661,2.906707310838609,12.876778515874705,10.540722777655516,3.237724376958795e-05,0.0930307656526565,0,0,0
1041,36936.94656044577,2010-10-29 20:13:14,2131.0749783614547,2,4,0.5501165986061096,3.936264991760254,3.228577621639999,2.906707310838609,12.894824990752184,10.540722777655516,6.47544875391759e-05,0.0930307656526565,0,0,0
1042,36966.96149613588,2010-10-29 20:13:44,2161.089913946297,2,4,0.5501165986061096,3.9375600814819336,3.23316308229892,2.906707310838609,12.91287678485584,10.540722777655516,3.237724376958795e-05,0.0930307656526565,0,0,0
1043,36996.97683278028,2010-10-29 20:14:14,2191.105250620777,2,4,0.5499359965324402,3.938855171203613,3.237748545301055,2.906707310838609,12.93093521582635,10.540722777655516,3.237724376958795e-05,0.0930307656526565,0,0,0
1044,37026.99176944782,2010-10-29 20:14:44,2221.120187288319,2,4,0.5499359965324402,3.940150260925293,3.242333979656392,2.906707310838609,12.94900001457582,10.540722777655516,3.237724376958795e-05,0.0930307656526565,0,0,0
1045,37057.00692719135,2010-10-29 20:15:14,2251.1353450017737,2,4,0.5501165986061096,3.9417691230773926,3.24691995576252,2.906707310838609,12.967073553366047,10.540722777655516,6.47544875391759e-05,0.0930307656526565,0,0,0
1046,37087.02230954468,2010-10-29 20:15:44,2281.1507274603628,2,4,0.5499359965324402,3.943226099014282,3.251506420743596,2.906707310838609,12.985155676354506,10.540722777655516,3.237724376958795e-05,0.0930307656526565,0,0,0
1047,37117.03721437788,2010-10-29 20:16:14,2311.1656321883,2,4,0.5501165986061096,3.944683074951172,3.256092834168421,2.906707310838609,13.00324426410794,10.540722777655516,3.237724376958795e-05,0.0930307656526565,0,0,0
1048,37147.05235280828,2010-10-29 20:16:44,2341.180770623708,2,4,0.5499359965324402,3.945978164672852,3.260679314970127,2.906707310838609,13.021339899391856,10.540722777655516,0.0,0.0930307656526565,0,0,0
1049,37177.06761283172,2010-10-29 20:17:14,2371.196030672214,2,4,0.5499359965324402,3.947435140609741,3.265265833705696,2.906707310838609,13.03944230413053,10.540722777655516,3.237724376958795e-05,0.0930307656526565,0,0,0
1050,37207.08265450096,2010-10-29 20:17:44,2401.211072311376,2,4,0.5501165986061096,3.949054002761841,3.269852356428458,2.906707310838609,13.057551602842327,10.540722777655516,3.237724376958795e-05,0.0930307656526565,0,0,0
1051,37237.09779249526,2010-10-29 20:18:15,2431.2262103056846,2,4,0.5501165986061096,3.950672864913941,3.274438770286296,2.906707310838609,13.075667295525962,10.540722777655516,3.237724376958795e-05,0.0930307656526565,0,0,0
1052,37267.113162172,2010-10-29 20:18:45,2461.24158008768,2,4,0.5501165986061096,3.95196795463562,3.279025325024699,2.906707310838609,13.093790517669843,10.540722777655516,0.0,0.0930307656526565,0,0,0
1053,37297.12811424293,2010-10-29 20:19:15,2491.256532048336,2,4,0.5501165986061096,3.9534249305725098,3.283611792327609,2.906707310838609,13.111920375098832,10.540722777655516,-3.237724376958795e-05,0.0930307656526565,0,0,0
1054,37327.14341892267,2010-10-29 20:19:45,2521.271836768176,2,4,0.550297200679779,3.955367565155029,3.288198341195268,2.906707310838609,13.130057579941973,10.540722777655516,6.47544875391759e-05,0.0930307656526565,0,0,0
1055,37357.15839873775,2010-10-29 20:20:15,2551.2868165832533,2,4,0.5501165986061096,3.956662654876709,3.292784755674182,2.906707310838609,13.148201352692686,10.540722777655516,0.0,0.0930307656526565,0,0,0
1056,37387.173567899736,2010-10-29 20:20:45,2581.3019857502545,2,4,0.5501165986061096,3.958119630813599,3.297371288399177,2.906707310838609,13.16635257702028,10.540722777655516,0.0,0.0930307656526565,0,0,0
1057,37417.188924564034,2010-10-29 20:21:15,2611.317342524831,2,4,0.5501165986061096,3.959738492965698,3.301957837202273,2.906707310838609,13.184511115759804,10.540722777655516,0.0,0.0930307656526565,0,0,0
1058,37447.20384742216,2010-10-29 20:21:45,2641.33226523258,2,4,0.5501165986061096,3.961357355117798,3.306544338685391,2.906707310838609,13.202676763119433,10.540722777655516,0.0,0.0930307656526565,0,0,0
1059,37477.21898459442,2010-10-29 20:22:15,2671.34740240484,2,4,0.550297200679779,3.963299989700317,3.311130868106427,2.906707310838609,13.22084976864061,10.540722777655516,9.713172767078504e-05,0.0930307656526565,0,0,0
1060,37507.23427459758,2010-10-29 20:22:45,2701.362692413014,2,4,0.5501165986061096,3.964756965637207,3.315717434901398,2.906707310838609,13.239030339327432,10.540722777655516,6.47544875391759e-05,0.0930307656526565,0,0,0
1061,37537.24930007646,2010-10-29 20:23:15,2731.377717921974,2,4,0.5499359965324402,3.9662139415740967,3.320303920522397,2.906707310838609,13.257217950223122,10.540722777655516,6.47544875391759e-05,0.0930307656526565,0,0,0
1062,37567.26444052188,2010-10-29 20:23:45,2761.3928583573675,2,4,0.5501165986061096,3.967832803726196,3.32489047059272,2.906707310838609,13.275413288801126,10.540722777655516,0.0,0.0930307656526565,0,0,0
1063,37597.27970364806,2010-10-29 20:24:15,2791.408121478531,2,4,0.550297200679779,3.969613552093506,3.329477034984707,2.906707310838609,13.293616221044488,10.540722777655516,6.47544875391759e-05,0.0930307656526565,0,0,0
1064,37627.29486732638,2010-10-29 20:24:45,2821.423285141815,2,4,0.5501165986061096,3.9712324142456055,3.33406348497886,2.906707310838609,13.31182623301412,10.540722777655516,6.47544875391759e-05,0.0930307656526565,0,0,0
1065,37657.30989690048,2010-10-29 20:25:15,2851.438314705882,2,4,0.5501165986061096,3.972689390182495,3.338650004544568,2.906707310838609,13.330044202130114,10.540722777655516,0.0,0.0930307656526565,0,0,0
1066,37687.32504161152,2010-10-29 20:25:45,2881.4534594169318,2,4,0.5501165986061096,3.9744701385498047,3.34323658743514,2.906707310838609,13.348270086053,10.540722777655516,0.0,0.0930307656526565,0,0,0
1067,37717.34018770602,2010-10-29 20:26:15,2911.468605536491,2,4,0.5501165986061096,3.976250886917114,3.347823102931288,2.906707310838609,13.366503428850926,10.540722777655516,6.47544875391759e-05,0.0930307656526565,0,0,0
1068,37747.355496791744,2010-10-29 20:26:45,2941.4839146422623,2,4,0.5501165986061096,3.977707862854004,3.352409731553576,2.906707310838609,13.384745017298988,10.540722777655516,0.0,0.0930307656526565,0,0,0
1069,37777.37051577443,2010-10-29 20:27:15,2971.49893358987,2,4,0.5501165986061096,3.979812383651733,3.356996168496592,2.906707310838609,13.402993408272586,10.540722777655516,9.713172767078504e-05,0.0930307656526565,0,0,0
1070,37807.38568945769,2010-10-29 20:27:45,3001.514107293177,2,4,0.5501165986061096,3.981593132019043,3.361582644293531,2.906707310838609,13.4212503341255,10.540722777655516,9.713172767078504e-05,0.0930307656526565,0,0,0
1071,37837.40091499519,2010-10-29 20:28:15,3031.529332820645,2,4,0.5499359965324402,3.983211994171143,3.366169145379332,2.906707310838609,13.43951538807914,10.540722777655516,3.237724376958795e-05,0.0930307656526565,0,0,0
1072,37867.41594754168,2010-10-29 20:28:45,3061.5443653821835,2,4,0.5501165986061096,3.984830856323242,3.370755586392408,2.906707310838609,13.457788290027413,10.540722777655516,0.0,0.0930307656526565,0,0,0
1073,37897.43123608621,2010-10-29 20:29:15,3091.5596539116723,2,4,0.550297200679779,3.9867734909057617,3.375342078048944,2.906707310838609,13.47606954970643,10.540722777655516,3.237724376958795e-05,0.0930307656526565,0,0,0
1074,37927.44625579571,2010-10-29 20:29:45,3121.5746736111537,2,4,0.5501165986061096,3.988716125488281,3.379928538814957,2.906707310838609,13.494358937413615,10.540722777655516,6.47544875391759e-05,0.0930307656526565,0,0,0
1075,37957.46140257192,2010-10-29 20:30:15,3151.5898204074,2,4,0.5501165986061096,3.990334987640381,3.384515010679706,2.906707310838609,13.512656724082138,10.540722777655516,3.237724376958795e-05,0.0930307656526565,0,0,0
1076,37987.47655827036,2010-10-29 20:30:45,3181.6049760757583,2,4,0.5501165986061096,3.9924395084381104,3.389101502701162,2.906707310838609,13.53096303153068,10.540722777655516,9.713172767078504e-05,0.0930307656526565,0,0,0
1077,38017.49173194358,2010-10-29 20:31:15,3211.6201497489897,2,4,0.5501165986061096,3.994220018386841,3.393687973359929,2.906707310838609,13.54927782460938,10.540722777655516,6.470680091297254e-05,0.0930307656526565,0,0,0
1078,38047.50698759613,2010-10-29 20:31:45,3241.635405406552,2,4,0.5499359965324402,3.9960007667541504,3.398274419240393,2.906707310838609,13.567601151695287,10.540722777655516,6.47544875391759e-05,0.0930307656526565,0,0,0
1079,38077.52201324044,2010-10-29 20:32:15,3271.6504310859373,2,4,0.5501165986061096,3.99794340133667,3.402860800131093,2.906707310838609,13.585932992878003,10.540722777655516,3.237724376958795e-05,0.0930307656526565,0,0,0
1080,38107.53719323441,2010-10-29 20:32:45,3301.6656110598724,2,4,0.5501165986061096,3.9998860359191895,3.407447275459371,2.906707310838609,13.604273947241005,10.540722777655516,3.237724376958795e-05,0.0930307656526565,0,0,0
1081,38137.55233328384,2010-10-29 20:33:15,3331.680751099278,2,4,0.5501165986061096,4.001990795135498,3.412033753571561,2.906707310838609,13.622623963211304,10.540722777655516,6.47544875391759e-05,0.0930307656526565,0,0,0
1082,38167.56747316786,2010-10-29 20:33:45,3361.695890983297,2,4,0.5501165986061096,4.0037713050842285,3.416620139814451,2.906707310838609,13.640982682241033,10.540722777655516,3.23295607813634e-05,0.0930307656526565,0,0,0
1083,38197.58262861567,2010-10-29 20:34:15,3391.711046451155,2,4,0.5501165986061096,4.005713939666748,3.421206529607505,2.906707310838609,13.659350582591856,10.540722777655516,3.23295607813634e-05,0.0930307656526565,0,0,0
1084,38227.59794489432,2010-10-29 20:34:45,3421.7263627498537,2,4,0.5499359965324402,4.007818698883057,3.425792902727168,2.906707310838609,13.677727642557468,10.540722777655516,6.47544875391759e-05,0.0930307656526565,0,0,0
1085,38257.61309493365,2010-10-29 20:35:15,3451.7415127741447,2,4,0.5501165986061096,4.009922981262207,3.430379334331674,2.906707310838609,13.696114302201886,10.540722777655516,6.47544875391759e-05,0.0930307656526565,0,0,0
1086,38287.62821829649,2010-10-29 20:35:45,3481.756636116938,2,4,0.5501165986061096,4.011865615844727,3.434965785423786,2.906707310838609,13.714510544895532,10.540722777655516,0.0,0.0930307656526565,0,0,0
1087,38317.643463959146,2010-10-29 20:36:15,3511.771881809664,2,4,0.5499359965324402,4.014132022857666,3.439552169208149,2.906707310838609,13.732916149391611,10.540722777655516,3.23295607813634e-05,0.0930307656526565,0,0,0
1088,38347.658402170535,2010-10-29 20:36:45,3541.7868199909776,2,4,0.5499359965324402,4.016236782073975,3.444138606206848,2.906707310838609,13.751331769706733,10.540722777655516,6.47544875391759e-05,0.0930307656526565,0,0,0
1089,38377.67376579718,2010-10-29 20:37:15,3571.8021837279066,2,4,0.5499359965324402,4.018341064453125,3.448725151503023,2.906707310838609,13.76975773030863,10.540722777655516,3.23295607813634e-05,0.0930307656526565,0,0,0
1090,38407.68871762251,2010-10-29 20:37:45,3601.8171354630003,2,4,0.5501165986061096,4.0206074714660645,3.45331160784523,2.906707310838609,13.788193221489315,10.540722777655516,3.23295607813634e-05,0.0930307656526565,0,0,0
1091,38437.70388580706,2010-10-29 20:38:15,3631.8323036224897,2,4,0.5501165986061096,4.022873878479004,3.457898043969151,2.906707310838609,13.80663879388328,10.540722777655516,3.23295607813634e-05,0.0930307656526565,0,0,0
1092,38467.71904640269,2010-10-29 20:38:45,3661.8474643083537,2,4,0.5499359965324402,4.025140285491943,3.462484522365051,2.906707310838609,13.825094758376377,10.540722777655516,6.47544875391759e-05,0.0930307656526565,0,0,0
1093,38497.73436610487,2010-10-29 20:39:15,3691.8627839303344,2,4,0.5501165986061096,4.027406692504883,3.467070947014407,2.906707310838609,13.84356081165129,10.540722777655516,6.47544875391759e-05,0.0930307656526565,0,0,0
1094,38527.7504004632,2010-10-29 20:39:45,3721.8788184139694,2,4,0.5499359965324402,4.029511451721191,3.471657594671111,2.906707310838609,13.862038213851728,10.540722777655516,0.0,0.0930307656526565,0,0,0
1095,38557.75147542812,2010-10-29 20:40:15,3751.8798933588328,2,4,0.5501165986061096,4.031939506530762,3.476241860161454,2.906707310838609,13.88051644846452,10.540722777655516,0.0,0.0930307656526565,0,0,0
1096,38587.7642574456,2010-10-29 20:40:45,3781.892675271061,2,4,0.5501165986061096,4.034367561340332,3.480827924057874,2.906707310838609,13.899012525286365,10.540722777655516,9.70840483205393e-05,0.0930307656526565,0,0,0
1097,38617.77916914591,2010-10-29 20:41:15,3811.907586986412,2,4,0.5501165986061096,4.036633968353272,3.485414322201001,2.906707310838609,13.91752062898366,10.540722777655516,6.47544875391759e-05,0.0930307656526565,0,0,0
1098,38647.79447277804,2010-10-29 20:41:45,3841.922890603504,2,4,0.5501165986061096,4.038900375366211,3.49000079669999,2.906707310838609,13.936039802798572,10.540722777655516,6.47544875391759e-05,0.0930307656526565,0,0,0
1099,38677.8094825177,2010-10-29 20:42:15,3871.9379003281247,2,4,0.550297200679779,4.04132890701294,3.494587263217384,2.906707310838609,13.954569700940976,10.540722777655516,6.47544875391759e-05,0.0930307656526565,0,0,0
1100,38707.8246375194,2010-10-29 20:42:45,3901.953055329821,2,4,0.5501165986061096,4.04375696182251,3.499173694927851,2.906707310838609,13.973110473792731,10.540722777655516,6.47544875391759e-05,0.0930307656526565,0,0,0
1101,38737.83979378926,2010-10-29 20:43:15,3931.968211629754,2,4,0.5501165986061096,4.046185493469238,3.503760202277084,2.906707310838609,13.991662658555654,10.540722777655516,6.47544875391759e-05,0.0930307656526565,0,0,0
1102,38767.85495325207,2010-10-29 20:43:45,3961.9833710624944,2,4,0.5501165986061096,4.048613548278809,3.50834676886987,2.906707310838609,14.010226291899286,10.540722777655516,6.47544875391759e-05,0.0930307656526565,0,0,0
1103,38797.87037705872,2010-10-29 20:44:15,3991.99879489921,2,4,0.5501165986061096,4.051042079925537,3.512933267852245,2.906707310838609,14.028800914879389,10.540722777655516,9.71794142969884e-05,0.0930307656526565,0,0,0
1104,38827.88525557132,2010-10-29 20:44:45,4022.0136734118114,2,4,0.5501165986061096,4.0536322593688965,3.517519579914376,2.906707310838609,14.04738617590813,10.540722777655516,6.47544875391759e-05,0.0930307656526565,0,0,0
1105,38857.9004165078,2010-10-29 20:45:15,4052.0288343482985,2,4,0.5501165986061096,4.056060314178467,3.522106063044287,2.906707310838609,14.065983591969792,10.540722777655516,6.47544875391759e-05,0.0930307656526565,0,0,0
1106,38887.91558323372,2010-10-29 20:45:45,4082.0440010441407,2,4,0.5499359965324402,4.058650493621826,3.526692576795997,2.906707310838609,14.084592796700758,10.540722777655516,6.47544875391759e-05,0.0930307656526565,0,0,0
1107,38917.93080043544,2010-10-29 20:46:15,4112.059218391221,2,4,0.5499359965324402,4.060916900634766,3.531279089730869,2.906707310838609,14.10321359698512,10.540722777655516,3.23295607813634e-05,0.0930307656526565,0,0,0
1108,38947.94588737751,2010-10-29 20:46:45,4142.074305283168,2,4,0.550297200679779,4.063830852508545,3.535865537348311,2.906707310838609,14.12184580170562,10.540722777655516,9.70840483205393e-05,0.0930307656526565,0,0,0
1109,38977.96104213861,2010-10-29 20:47:15,4172.089459979102,2,4,0.5499359965324402,4.066259384155273,3.540451952000127,2.906707310838609,14.140489832651811,10.540722777655516,6.47544875391759e-05,0.0930307656526565,0,0,0
1110,39007.97621702487,2010-10-29 20:47:45,4202.104634865356,2,4,0.5501165986061096,4.069173336029053,3.545038351043479,2.906707310838609,14.15914586683228,10.540722777655516,0.0001295089750783,0.0930307656526565,0,0,0
1111,39037.99147988538,2010-10-29 20:48:15,4232.119897700808,2,4,0.5501165986061096,4.071763515472412,3.54962474340666,2.906707310838609,14.17781401022715,10.540722777655516,6.47544875391759e-05,0.0930307656526565,0,0,0
1112,39068.00651268751,2010-10-29 20:48:45,4262.134930522996,2,4,0.5501165986061096,4.074353694915772,3.554211135415735,2.906707310838609,14.196494427041992,10.540722777655516,6.47544875391759e-05,0.0930307656526565,0,0,0
1113,39098.02166890224,2010-10-29 20:49:15,4292.150086722679,2,4,0.5499359965324402,4.076781749725342,3.558797552065955,2.906707310838609,14.215187396377027,10.540722777655516,0.0,0.0930307656526565,0,0,0
1114,39128.03684115192,2010-10-29 20:49:45,4322.165258992412,2,4,0.5501165986061096,4.07985782623291,3.563384053453177,2.906707310838609,14.233893265559225,10.540722777655516,6.47544875391759e-05,0.0930307656526565,0,0,0
1115,39158.05199371754,2010-10-29 20:50:15,4352.180411527963,2,4,0.550297200679779,4.0826096534729,3.567970491022838,2.906707310838609,14.25261145765711,10.540722777655516,3.23295607813634e-05,0.0930307656526565,0,0,0
1116,39188.06714832325,2010-10-29 20:50:46,4382.195566133672,2,4,0.5499359965324402,4.085361957550049,3.572556904594804,2.906707310838609,14.271342400581531,10.540722777655516,6.47544875391759e-05,0.0930307656526565,0,0,0
1117,39218.08237142968,2010-10-29 20:51:16,4412.210789275194,2,4,0.5501165986061096,4.088113784790039,3.577143314597382,2.906707310838609,14.290086258340525,10.540722777655516,6.47544875391759e-05,0.0930307656526565,0,0,0
1118,39248.0975574537,2010-10-29 20:51:46,4442.22597526412,2,4,0.5499359965324402,4.091027736663818,3.581729731112194,2.906707310838609,14.308843163466882,10.540722777655516,6.47544875391759e-05,0.0930307656526565,0,0,0
1119,39278.11261537343,2010-10-29 20:52:16,4472.241033183858,2,4,0.5499359965324402,4.093941688537598,3.586316149624995,2.906707310838609,14.327613129842732,10.540722777655516,3.23295607813634e-05,0.0930307656526565,0,0,0
1120,39308.12777562321,2010-10-29 20:52:46,4502.2561934336345,2,4,0.550297200679779,4.096855640411377,3.590902593556547,2.906707310838609,14.34639650979797,10.540722777655516,6.47544875391759e-05,0.0930307656526565,0,0,0
1121,39338.14292582294,2010-10-29 20:53:16,4532.271343633363,2,4,0.550297200679779,4.099931716918945,3.595489073618453,2.906707310838609,14.365193418480812,10.540722777655516,9.71794142969884e-05,0.0930307656526565,0,0,0
1122,39368.15829268266,2010-10-29 20:53:46,4562.286710548213,2,4,0.5501165986061096,4.102845668792725,3.600075559200155,2.906707310838609,14.384003814786352,10.540722777655516,9.71794142969884e-05,0.0930307656526565,0,0,0
1123,39398.173280367344,2010-10-29 20:54:16,4592.301698202828,2,4,0.5501165986061096,4.105759620666504,3.604661941910366,2.906707310838609,14.402827462359811,10.540722777655516,6.47544875391759e-05,0.0930307656526565,0,0,0
1124,39428.18844912332,2010-10-29 20:54:46,4622.31686692873,2,4,0.5501165986061096,4.108673572540283,3.609248358644968,2.906707310838609,14.421664971463512,10.540722777655516,6.47544875391759e-05,0.0930307656526565,0,0,0
1125,39458.20359543336,2010-10-29 20:55:16,4652.33201326884,2,4,0.550297200679779,4.111911296844482,3.613834807128276,2.906707310838609,14.440516478207291,10.540722777655516,9.71794142969884e-05,0.0930307656526565,0,0,0
1126,39488.21888220847,2010-10-29 20:55:46,4682.3473000239055,2,4,0.550297200679779,4.114824771881104,3.618421264507332,2.906707310838609,14.459381901112089,10.540722777655516,9.70840483205393e-05,0.0930307656526565,0,0,0
1127,39518.23395120582,2010-10-29 20:56:16,4712.362369046316,2,4,0.550297200679779,4.117900848388672,3.623007678958469,2.906707310838609,14.47826113710818,10.540722777655516,6.47544875391759e-05,0.0930307656526565,0,0,0
1128,39548.249110819015,2010-10-29 20:56:46,4742.377528664518,2,4,0.5501165986061096,4.120814800262451,3.62759417149431,2.906707310838609,14.497154815663654,10.540722777655516,6.47544875391759e-05,0.0930307656526565,0,0,0
1129,39578.26428749473,2010-10-29 20:57:16,4772.392705330208,2,4,0.5501165986061096,4.12405252456665,3.632180682693656,2.906707310838609,14.516062724712992,10.540722777655516,6.47544875391759e-05,0.0930307656526565,0,0,0
1130,39608.27952915741,2010-10-29 20:57:46,4802.407946982865,2,4,0.5501165986061096,4.12729024887085,3.636767124753178,2.906707310838609,14.534984736817137,10.540722777655516,0.0001295089750783,0.0930307656526565,0,0,0
1131,39638.294563628704,2010-10-29 20:58:16,4832.422981439125,2,4,0.5501165986061096,4.13036584854126,3.641353521250846,2.906707310838609,14.553921115303693,10.540722777655516,6.47544875391759e-05,0.0930307656526565,0,0,0
1132,39668.30969463059,2010-10-29 20:58:46,4862.438112466069,2,4,0.5501165986061096,4.133603572845459,3.645940069129755,2.906707310838609,14.57287283825326,10.540722777655516,6.47544875391759e-05,0.0930307656526565,0,0,0
1133,39698.32497706989,2010-10-29 20:59:16,4892.4533948853295,2,4,0.5499359965324402,4.136841297149658,3.650526543871659,2.906707310838609,14.59183908187766,10.540722777655516,9.70840483205393e-05,0.0930307656526565,0,0,0
1134,39728.3400217717,2010-10-29 20:59:46,4922.468439582112,2,4,0.5501165986061096,4.140079021453857,3.655113043981497,2.906707310838609,14.610820382150102,10.540722777655516,6.47544875391759e-05,0.0930307656526565,0,0,0
1135,39758.35517625209,2010-10-29 21:00:16,4952.483594057498,2,4,0.5501165986061096,4.143478870391846,3.659699531515789,2.906707310838609,14.62981676531098,10.540722777655516,9.71794142969884e-05,0.0930307656526565,0,0,0
1136,39788.37046927277,2010-10-29 21:00:46,4982.498887088204,2,4,0.5499359965324402,4.146878242492676,3.664286016888409,2.906707310838609,14.648828466831729,10.540722777655516,6.47544875391759e-05,0.0930307656526565,0,0,0
1137,39818.385494090006,2010-10-29 21:01:16,5012.513911900429,2,4,0.5501165986061096,4.150115966796875,3.668872402984101,2.906707310838609,14.667855177640682,10.540722777655516,3.23295607813634e-05,0.0930307656526565,0,0,0
1138,39848.40069878556,2010-10-29 21:01:46,5042.529116626052,2,4,0.5501165986061096,4.153515815734863,3.673458899844858,2.906707310838609,14.686897861658032,10.540722777655516,9.71794142969884e-05,0.0930307656526565,0,0,0
1139,39878.41580907582,2010-10-29 21:02:16,5072.544226916314,2,4,0.5499359965324402,4.156753540039063,3.678045315642515,2.906707310838609,14.705955599261188,10.540722777655516,3.24249267578125e-05,0.0930307656526565,0,0,0
1140,39908.43096662888,2010-10-29 21:02:46,5102.559384439295,2,4,0.5501165986061096,4.1604766845703125,3.682631769569329,2.906707310838609,14.725029062402418,10.540722777655516,0.0001295089750783,0.0930307656526565,0,0,0
1141,39938.44612589621,2010-10-29 21:03:16,5132.574543731685,2,4,0.5501165986061096,4.163876533508301,3.68721829719603,2.906707310838609,14.744118635130508,10.540722777655516,0.0001295089750783,0.0930307656526565,0,0,0
1142,39968.46130562452,2010-10-29 21:03:46,5162.589723439958,2,4,0.5501165986061096,4.167275905609131,3.691804759910681,2.906707310838609,14.76322364451336,10.540722777655516,9.70840483205393e-05,0.0930307656526565,0,0,0
1143,39998.47656882087,2010-10-29 21:04:16,5192.604986731546,2,4,0.550297200679779,4.17083740234375,3.696391215620449,2.906707310838609,14.782344609467875,10.540722777655516,9.70840483205393e-05,0.0930307656526565,0,0,0
1144,40028.49160006413,2010-10-29 21:04:46,5222.620017884574,2,4,0.5501165986061096,4.174237251281738,3.700977668055387,2.906707310838609,14.80148154546674,10.540722777655516,9.71794142969884e-05,0.0930307656526565,0,0,0
1145,40058.50707743428,2010-10-29 21:05:16,5252.635495259725,2,4,0.5501165986061096,4.177636623382568,3.705564200769147,2.906707310838609,14.820634906172009,10.540722777655516,6.47544875391759e-05,0.0930307656526565,0,0,0
1146,40088.52193274905,2010-10-29 21:05:46,5282.650350584534,2,4,0.5501165986061096,4.181198120117188,3.710150574895079,2.906707310838609,14.839803840615346,10.540722777655516,9.70840483205393e-05,0.0930307656526565,0,0,0
1147,40118.537083846015,2010-10-29 21:06:16,5312.665501656436,2,4,0.5501165986061096,4.184921741485596,3.714737091963601,2.906707310838609,14.85898979784934,10.540722777655516,9.71794142969884e-05,0.0930307656526565,0,0,0
1148,40148.55224947419,2010-10-29 21:06:46,5342.680667279605,2,4,0.5501165986061096,4.188483238220215,3.719323548584144,2.906707310838609,14.87819188227432,10.540722777655516,9.71794142969884e-05,0.0930307656526565,0,0,0
1149,40178.56740707236,2010-10-29 21:07:16,5372.69582491286,2,4,0.5501165986061096,4.192044734954834,3.723910067481181,2.906707310838609,14.897410759887585,10.540722777655516,6.47544875391759e-05,0.0930307656526565,0,0,0
1150,40208.58256481088,2010-10-29 21:07:46,5402.710982631327,2,4,0.5501165986061096,4.195605754852295,3.728496482507107,2.906707310838609,14.91664578369226,10.540722777655516,6.47544875391759e-05,0.0930307656526565,0,0,0
1151,40238.5977877118,2010-10-29 21:08:16,5432.7262055222245,2,4,0.5499359965324402,4.199329376220703,3.733082930626204,2.906707310838609,14.93589764723218,10.540722777655516,0.0001295089750783,0.0930307656526565,0,0,0
1152,40242.613503962304,2010-10-29 21:08:20,5436.741921807813,2,4,0.550297200679779,4.200138568878174,3.733696560327941,2.906707310838609,14.938474689278248,10.540722777655516,0.0001295089750783,0.0930307656526565,0,0,0
1153,40272.625354043565,2010-10-29 21:08:50,30.01265686557266,3,4,0.0,4.112235069274902,3.733696560327941,2.906707310838609,14.938474689278248,10.540722777655516,-0.0003885269106831,0.0930307656526565,0,0,0
1154,40302.640368043845,2010-10-29 21:09:20,60.02767085081279,3,4,0.0,4.101388454437256,3.733696560327941,2.906707310838609,14.938474689278248,10.540722777655516,-0.0001619339018361,0.0930307656526565,0,0,0
1155,40332.655562318425,2010-10-29 21:09:50,90.04286516548937,3,4,0.0,4.094751358032227,3.733696560327941,2.906707310838609,14.938474689278248,10.540722777655516,-0.0001295089750783,0.0930307656526565,0,0,0
1156,40362.62386556613,2010-10-29 21:10:20,120.01116839816156,3,4,0.0,4.090542316436768,3.733696560327941,2.906707310838609,14.938474689278248,10.540722777655516,-6.47544875391759e-05,0.0930307656526565,0,0,0
1157,40362.62509109366,2010-10-29 21:10:20,2.641583639e-06,4,4,1.007599949836731,4.199814796447754,3.733696561067291,2.906707310838609,14.93847469238338,10.540722777655516,0.0,0.0930307656526565,0,0,0
1158,40363.0781889379,2010-10-29 21:10:21,0.453100500863691,4,4,0.9575711488723756,4.199653148651123,3.7338187798547,2.906707310838609,14.938987976047216,10.540722777655516,-3.23295607813634e-05,0.0930307656526565,0,0,0
1159,40364.87522397716,2010-10-29 21:10:23,2.250135655402696,4,4,0.9073617458343506,4.199814796447754,3.734282957784292,2.906707310838609,14.940937381429936,10.540722777655516,0.0,0.0930307656526565,0,0,0
1160,40367.74999553743,2010-10-29 21:10:25,5.124907095376169,4,4,0.8573330044746399,4.199653148651123,3.734986471924662,2.906707310838609,14.943891939571609,10.540722777655516,3.24249267578125e-05,0.0930307656526565,0,0,0
1161,40371.84367037973,2010-10-29 21:10:30,9.2185819627379,4,4,0.8073042035102844,4.199814796447754,3.73593177943456,2.906707310838609,14.947861964527362,10.540722777655516,3.23295607813634e-05,0.0930307656526565,0,0,0
1162,40377.26570644693,2010-10-29 21:10:35,14.640618039961131,4,4,0.7572754621505737,4.199814796447754,3.737108360413048,2.906707310838609,14.95280327738878,10.540722777655516,3.23295607813634e-05,0.0930307656526565,0,0,0
1163,40384.29668974067,2010-10-29 21:10:42,21.67160129862118,4,4,0.7068854570388794,4.199653148651123,3.738536354018978,2.906707310838609,14.958800461926232,10.540722777655516,0.0,0.0930307656526565,0,0,0
1164,40393.67158272357,2010-10-29 21:10:51,31.046494286529505,4,4,0.6568567156791687,4.199814796447754,3.740309423110458,2.906707310838609,14.966246872871242,10.540722777655516,0.0,0.0930307656526565,0,0,0
1165,40406.64013628437,2010-10-29 21:11:04,44.015047952589526,4,4,0.6066473126411438,4.199653148651123,3.742580632976245,2.906707310838609,14.975785301758387,10.540722777655516,-3.23295607813634e-05,0.0930307656526565,0,0,0
1166,40425.93663526221,2010-10-29 21:11:24,63.31154695047657,4,4,0.5566185712814331,4.199814796447754,3.745690247627756,2.906707310838609,14.988844804273809,10.540722777655516,6.47544875391759e-05,0.0930307656526565,0,0,0
1167,40458.2799768362,2010-10-29 21:11:56,95.65488843425152,4,4,0.5064091682434082,4.199653148651123,3.750446809119802,2.906707310838609,15.008821030533277,10.540722777655516,0.0,0.0930307656526565,0,0,0
1168,40518.46654402559,2010-10-29 21:12:56,155.84145562864367,4,4,0.4563803970813751,4.199814796447754,3.758456649984564,2.906707310838609,15.04246016805571,10.540722777655516,3.23295607813634e-05,0.0930307656526565,0,0,0
1169,40614.66817184762,2010-10-29 21:14:32,252.043083540902,4,4,0.406351625919342,4.199653148651123,3.769952679982704,2.906707310838609,15.090740354851002,10.540722777655516,-3.23295607813634e-05,0.0930307656526565,0,0,0
1170,40739.91616766604,2010-10-29 21:16:38,377.29107934930136,4,4,0.3561422526836395,4.199491024017334,3.783205293085993,2.906707310838609,15.146397689615856,10.540722777655516,-3.24249267578125e-05,0.0930307656526565,0,0,0
1171,40891.27312004775,2010-10-29 21:19:09,528.6480316006817,4,4,0.3061134815216064,4.199814796447754,3.797110667927223,2.906707310838609,15.204796462694013,10.540722777655516,3.23295607813634e-05,0.0930307656526565,0,0,0
1172,41070.286110155015,2010-10-29 21:22:08,707.661021717974,4,4,0.2557235062122345,4.199653148651123,3.811062875281555,2.906707310838609,15.263391972841053,10.540722777655516,-3.23295607813634e-05,0.0930307656526565,0,0,0
1173,41290.70455810837,2010-10-29 21:25:48,928.0794696713348,4,4,0.2056947201490402,4.199814796447754,3.825169846431362,2.906707310838609,15.322637489671184,10.540722777655516,3.23295607813634e-05,0.0930307656526565,0,0,0
1174,41573.653202666734,2010-10-29 21:30:31,1211.0281142246831,4,4,0.1556659489870071,4.199491024017334,3.83931055118094,2.906707310838609,15.382024724552688,10.540722777655516,-3.24249267578125e-05,0.0930307656526565,0,0,0
1175,41980.72506535644,2010-10-29 21:37:18,1618.0999769143868,4,4,0.1056371852755546,4.199491024017334,3.853924086577847,2.906707310838609,15.443397600770332,10.540722777655516,-3.24249267578125e-05,0.0930307656526565,0,0,0
1176,42720.7605079927,2010-10-29 21:49:39,2358.135419555662,4,4,0.0556084141135215,4.199653148651123,3.869926183244572,2.906707310838609,15.510602144489717,10.540722777655516,-3.23295607813634e-05,0.0930307656526565,0,0,0
1177,42853.55535950262,2010-10-29 21:51:51,2490.930271070591,4,4,0.0498289167881011,4.199491024017334,3.871889900421642,2.906707310838609,15.51884921637172,10.540722777655516,-3.24249267578125e-05,0.0930307656526565,0,0,0
1178,42883.57118285946,2010-10-29 21:52:21,30.015150054366263,5,4,0.0,4.191558837890625,3.871889900421642,2.906707310838609,15.51884921637172,10.540722777655516,0.0,0.0930307656526565,0,0,0
1179,42913.570720888856,2010-10-29 21:52:51,60.01468808376261,5,4,0.0,4.190263748168945,3.871889900421642,2.906707310838609,15.51884921637172,10.540722777655516,0.0,0.0930307656526565,0,0,0
1180,42913.75983431346,2010-10-29 21:52:52,0.18749217819797,6,4,-1.9243103452026844e-05,4.1901021003723145,3.871889900421642,2.906707311840812,15.51884921637172,10.540722781854852,0.0,0.0956302732229232,0,0,0
1181,42918.58810161118,2010-10-29 21:52:57,5.015759551112002,6,4,0.0005225847125984,4.1901021003723145,3.871890566402649,2.906707312022279,15.518852007036513,10.54072278261523,-6.47544875391759e-05,0.0956302732229232,0,0,0
1182,42948.60473986785,2010-10-29 21:53:27,30.015163267296955,7,4,-1.0997490882873535,4.007656574249268,3.871890566402649,2.915876002541787,15.518852007036513,10.577672039473574,-0.0009713172912597,0.0956302732229232,0,0,0
1183,42978.62005332947,2010-10-29 21:53:57,60.03047673894938,7,4,-1.099568486213684,3.979650497436523,3.871890566402649,2.925044153340574,15.518852007036513,10.614277090796644,-0.0006151676061563,0.0956302732229232,0,0,0
1184,43008.63507453271,2010-10-29 21:54:27,90.045497922129,7,4,-1.099568486213684,3.959900379180908,3.871890566402649,2.934211795711834,15.518852007036513,10.650665504198026,-0.0004532813909463,0.0956302732229232,0,0,0
1185,43038.650247033016,2010-10-29 21:54:57,120.06067042243744,7,4,-1.0997490882873535,3.944521188735962,3.871890566402649,2.943379516888996,15.518852007036513,10.686896378623954,-0.0003885269106831,0.0956302732229232,0,0,0
1186,43068.66541396946,2010-10-29 21:55:27,150.07583735887903,7,4,-1.099568486213684,3.932217836380005,3.871890566402649,2.95254726837221,15.518852007036513,10.723000549376502,-0.0002913951757363,0.0956302732229232,0,0,0
1187,43098.68056695613,2010-10-29 21:55:57,180.090990370616,7,4,-1.0993878841400146,3.920885801315308,3.871890566402649,2.961714995476163,15.518852007036513,10.758996039136086,-0.0002590179501567,0.0956302732229232,0,0,0
1188,43128.6958139521,2010-10-29 21:56:27,210.1062373665906,7,4,-1.0997490882873535,3.910687208175659,3.871890566402649,2.970882728792334,15.518852007036513,10.794894523782142,-0.0002590179501567,0.0956302732229232,0,0,0
1189,43158.71088770631,2010-10-29 21:56:57,240.1213110957309,7,4,-1.0997490882873535,3.9009740352630615,3.871890566402649,2.980050463096553,15.518852007036513,10.830702900009436,-0.0002913951757363,0.0956302732229232,0,0,0
1190,43188.72611378014,2010-10-29 21:57:27,270.1365372948734,7,4,-1.099568486213684,3.8920702934265137,3.871890566402649,2.989218313280074,15.518852007036513,10.866426469723956,-0.0002913951757363,0.0956302732229232,0,0,0
1191,43218.74129694202,2010-10-29 21:57:57,300.1517203565039,7,4,-1.099568486213684,3.883328437805176,3.871890566402649,2.998386045104842,15.518852007036513,10.902068540522524,-0.0002266406954731,0.0956302732229232,0,0,0
1192,43248.756394520606,2010-10-29 21:58:27,330.1668179100219,7,4,-1.0993878841400146,3.874910354614258,3.871890566402649,3.007553818782009,15.518852007036513,10.937631182357675,-0.0002266406954731,0.0956302732229232,0,0,0
1193,43278.77155139196,2010-10-29 21:58:57,360.1819747863907,7,4,-1.099568486213684,3.86649227142334,3.871890566402649,3.016721590469703,15.518852007036513,10.9731169095641,-0.0001942634553415,0.0956302732229232,0,0,0
1194,43308.78670643877,2010-10-29 21:59:27,390.1971298281872,7,4,-1.099568486213684,3.858397960662842,3.871890566402649,3.025889401399465,15.518852007036513,11.00852702607888,-0.0002266406954731,0.0956302732229232,0,0,0
1195,43338.8018698013,2010-10-29 21:59:57,420.2122931907214,7,4,-1.099568486213684,3.850303649902344,3.871890566402649,3.035057182882706,15.518852007036513,11.04386266896525,-0.0002266406954731,0.0956302732229232,0,0,0
1196,43368.8170416149,2010-10-29 22:00:27,450.2274650343935,7,4,-1.099568486213684,3.8425331115722656,3.871890566402649,3.044225024761858,15.518852007036513,11.079125377422825,-0.0001942634553415,0.0956302732229232,0,0,0
1197,43398.83233967815,2010-10-29 22:00:57,480.2427631678182,7,4,-1.0997490882873535,3.8346006870269775,3.871890566402649,3.053392901640704,15.518852007036513,11.114317397360407,-0.0002266406954731,0.0956302732229232,0,0,0
1198,43428.84736884623,2010-10-29 22:01:27,510.25779227073633,7,4,-1.099568486213684,3.827316045761109,3.871890566402649,3.062560602634694,15.518852007036513,11.149438912514848,-0.0001618862152099,0.0956302732229232,0,0,0
1199,43458.862559762434,2010-10-29 22:01:57,540.2729831769179,7,4,-1.099568486213684,3.81970739364624,3.871890566402649,3.071728453525012,15.518852007036513,11.184492247819517,-0.0002266406954731,0.0956302732229232,0,0,0
1200,43488.87770067903,2010-10-29 22:02:27,570.2881240684475,7,4,-1.099568486213684,3.812422513961792,3.871890566402649,3.080896237809923,15.518852007036513,11.219477372546503,-0.0002266406954731,0.0956302732229232,0,0,0
1201,43518.89286033232,2010-10-29 22:02:57,600.3032837467997,7,4,-1.099568486213684,3.8052995204925537,3.871890566402649,3.090063959548508,15.518852007036513,11.25439532572018,-0.0001618862152099,0.0956302732229232,0,0,0
1202,43548.90808915801,2010-10-29 22:03:27,630.3185125474259,7,4,-1.099568486213684,3.798338413238525,3.871890566402649,3.099231768747281,15.518852007036513,11.289248939352827,-0.0001618862152099,0.0956302732229232,0,0,0
1203,43578.92317712764,2010-10-29 22:03:57,660.3336005170579,7,4,-1.099568486213684,3.791215419769287,3.871890566402649,3.108399537203582,15.518852007036513,11.324039040170472,-0.0002590179501567,0.0956302732229232,0,0,0
1204,43608.93850170196,2010-10-29 22:04:27,690.3489251114315,7,4,-1.099568486213684,3.7847399711608887,3.871890566402649,3.11756736870427,15.518852007036513,11.358767586565444,-0.0001942634553415,0.0956302732229232,0,0,0
1205,43638.95351046418,2010-10-29 22:04:57,720.3639338536044,7,4,-1.0993878841400146,3.77810263633728,3.871890566402649,3.126735072689726,15.518852007036513,11.393434396413095,-0.0001942634553415,0.0956302732229232,0,0,0
1206,43668.96903005956,2010-10-29 22:05:27,750.3794534940929,7,4,-1.099568486213684,3.771627187728882,3.871890566402649,3.135902935251088,15.518852007036513,11.428041885000862,-0.0001618862152099,0.0956302732229232,0,0,0
1207,43698.98398040619,2010-10-29 22:05:57,780.3944038457386,7,4,-1.099568486213684,3.7654755115509033,3.871890566402649,3.145070638209596,15.518852007036513,11.462590243620006,-0.0001618862152099,0.0956302732229232,0,0,0
1208,43728.99927958722,2010-10-29 22:06:27,810.4097031019618,7,4,-1.0997490882873535,3.759000062942505,3.871890566402649,3.154238502522072,15.518852007036513,11.497081913425957,-0.0001618862152099,0.0956302732229232,0,0,0
1209,43759.01419039532,2010-10-29 22:06:57,840.4246138799779,7,4,-1.099568486213684,3.7531721591949454,3.871890566402649,3.163406279158534,15.518852007036513,11.53151718146876,-0.0001295089750783,0.0956302732229232,0,0,0
1210,43789.029336174026,2010-10-29 22:07:27,870.4397595634506,7,4,-1.099568486213684,3.747182607650757,3.871890566402649,3.17257410401517,15.518852007036513,11.56589720286236,-0.0001618862152099,0.0956302732229232,0,0,0
1211,43819.04452169178,2010-10-29 22:07:57,900.4549451062647,7,4,-1.099568486213684,3.741192817687988,3.871890566402649,3.181742034127005,15.518852007036513,11.60022356360358,-0.0001942634553415,0.0956302732229232,0,0,0
1212,43849.05968594152,2010-10-29 22:08:27,930.4701093359604,7,4,-1.099568486213684,3.73552680015564,3.871890566402649,3.19090992565585,15.518852007036513,11.63449657910995,-0.0001618862152099,0.0956302732229232,0,0,0
1213,43879.07750690261,2010-10-29 22:08:57,960.4879303321356,7,4,-1.0997490882873535,3.729698896408081,3.871890566402649,3.200078698094432,15.518852007036513,11.66872001598866,-0.0001618862152099,0.0956302732229232,0,0,0
1214,43909.09013376842,2010-10-29 22:09:27,990.5005573733766,7,4,-1.099568486213684,3.7241947650909424,3.871890566402649,3.209245769412999,15.518852007036513,11.70288568666235,-0.0001618862152099,0.0956302732229232,0,0,0
1215,43939.10529343674,2010-10-29 22:09:57,1020.5157168311792,7,4,-1.0997490882873535,3.718690633773804,3.871890566402649,3.218413710301288,15.518852007036513,11.737003790725526,-0.0001618862152099,0.0956302732229232,0,0,0
1216,43969.12034647933,2010-10-29 22:10:27,1050.53076986875,7,4,-1.099568486213684,3.713348388671875,3.871890566402649,3.227581532975615,15.518852007036513,11.771071623567163,-0.0001295089750783,0.0956302732229232,0,0,0
1217,43999.1354920024,2010-10-29 22:10:57,1080.5459153918227,7,4,-1.0997490882873535,3.7080061435699454,3.871890566402649,3.23674940913571,15.518852007036513,11.805090061759149,-0.0001295089750783,0.0956302732229232,0,0,0
1218,44029.15082277216,2010-10-29 22:11:27,1110.5612462067,7,4,-1.099568486213684,3.702825784683228,3.871890566402649,3.245917335197773,15.518852007036513,11.839060060300389,-9.713172767078504e-05,0.0956302732229232,0,0,0
1219,44059.16584515333,2010-10-29 22:11:57,1140.5762686279652,7,4,-1.099568486213684,3.697483539581299,3.871890566402649,3.255085194682405,15.518852007036513,11.872981526235002,-0.0001295089750783,0.0956302732229232,0,0,0
1220,44089.18099221524,2010-10-29 22:12:27,1170.5914155996484,7,4,-1.099568486213684,3.69230318069458,3.871890566402649,3.264253106094894,15.518852007036513,11.90685632644606,-0.0001618862152099,0.0956302732229232,0,0,0
1221,44119.19639935033,2010-10-29 22:12:57,1200.6068227547887,7,4,-1.099568486213684,3.687446594238281,3.871890566402649,3.273421005099894,15.518852007036513,11.940684123335608,-9.713172767078504e-05,0.0956302732229232,0,0,0
1222,44149.21133452916,2010-10-29 22:13:27,1230.6217579286065,7,4,-1.0993878841400146,3.6825900077819824,3.871890566402649,3.282588714104935,15.518852007036513,11.974465533028368,-6.47544875391759e-05,0.0956302732229232,0,0,0
1223,44179.22638291514,2010-10-29 22:13:57,1260.6368063045593,7,4,-1.0997490882873535,3.6775715351104736,3.871890566402649,3.291756564571166,15.518852007036513,12.008202616272436,-0.0001295089750783,0.0956302732229232,0,0,0
1224,44209.24176292262,2010-10-29 22:14:27,1290.6521863220642,7,4,-1.099568486213684,3.672714948654175,3.871890566402649,3.300924476256847,15.518852007036513,12.041896171625622,-0.0001295089750783,0.0956302732229232,0,0,0
1225,44239.25672867765,2010-10-29 22:14:57,1320.6671520720874,7,4,-1.099568486213684,3.668020486831665,3.871890566402649,3.310092275660576,15.518852007036513,12.075545756898224,-0.0001295089750783,0.0956302732229232,0,0,0
1226,44269.27197985405,2010-10-29 22:15:27,1350.6824032434683,7,4,-1.099568486213684,3.663325786590576,3.871890566402649,3.319260185353816,15.518852007036513,12.109152554225036,-9.713172767078504e-05,0.0956302732229232,0,0,0
1227,44299.28719194803,2010-10-29 22:15:57,1380.6976153374565,7,4,-1.0993878841400146,3.6589548587799072,3.871890566402649,3.32842807565284,15.518852007036513,12.14271632061943,-6.47544875391759e-05,0.0956302732229232,0,0,0
1228,44329.30236432804,2010-10-29 22:16:27,1410.7127877174653,7,4,-1.0993878841400146,3.6542601585388175,3.871890566402649,3.337595929193657,15.518852007036513,12.176237733833316,-9.713172767078504e-05,0.0956302732229232,0,0,0
1229,44359.317682706926,2010-10-29 22:16:57,1440.7281061414603,7,4,-1.099568486213684,3.64972734451294,3.871890566402649,3.346763855974071,15.518852007036513,12.209718001726722,-9.713172767078504e-05,0.0956302732229232,0,0,0
1230,44389.33268074743,2010-10-29 22:17:27,1470.7431041518862,7,4,-1.0997490882873535,3.645194530487061,3.871890566402649,3.355931669295063,15.518852007036513,12.243156746858924,-0.0001295089750783,0.0956302732229232,0,0,0
1231,44419.34784731294,2010-10-29 22:17:57,1500.758270732441,7,4,-1.0997490882873535,3.6409854888916016,3.871890566402649,3.365099493698486,15.518852007036513,12.276555429999478,-6.47544875391759e-05,0.0956302732229232,0,0,0
1232,44449.36304128176,2010-10-29 22:18:27,1530.7734647012555,7,4,-1.099568486213684,3.6366145610809326,3.871890566402649,3.374267362837832,15.518852007036513,12.309915134624497,-6.47544875391759e-05,0.0956302732229232,0,0,0
1233,44479.37818127104,2010-10-29 22:18:57,1560.7886046604615,7,4,-1.099568486213684,3.632567405700684,3.871890566402649,3.38343515888856,15.518852007036513,12.343235963270926,-9.713172767078504e-05,0.0956302732229232,0,0,0
1234,44509.39346815142,2010-10-29 22:19:28,1590.8038915809402,7,4,-1.0997490882873535,3.6283583641052246,3.871890566402649,3.392603010662506,15.518852007036513,12.376518989841037,-0.0001295089750783,0.0956302732229232,0,0,0
1235,44539.40851137453,2010-10-29 22:19:58,1620.8189347789876,7,4,-1.099568486213684,3.624311208724976,3.871890566402649,3.401770843840395,15.518852007036513,12.409764522024204,-9.713172767078504e-05,0.0956302732229232,0,0,0
1236,44569.42374837559,2010-10-29 22:20:28,1650.834171795089,7,4,-1.0997490882873535,3.620264053344727,3.871890566402649,3.410938717548802,15.518852007036513,12.44297342592538,-0.0001295089750783,0.0956302732229232,0,0,0
1237,44599.43896629911,2010-10-29 22:20:58,1680.8493897286314,7,4,-1.0997490882873535,3.6162168979644775,3.871890566402649,3.420106604823912,15.518852007036513,12.476146243438832,-0.0001295089750783,0.0956302732229232,0,0,0
1238,44629.45400515634,2010-10-29 22:21:28,1710.8644285758353,7,4,-1.099568486213684,3.6126554012298575,3.871890566402649,3.429274425120863,15.518852007036513,12.509283498703056,-9.713172767078504e-05,0.0956302732229232,0,0,0
1239,44659.46932237232,2010-10-29 22:21:58,1740.8797458118695,7,4,-1.099568486213684,3.608932018280029,3.871890566402649,3.438442415213452,15.518852007036513,12.542386869253557,-9.713172767078504e-05,0.0956302732229232,0,0,0
1240,44689.48469099142,2010-10-29 22:22:28,1770.8951145111662,7,4,-1.0993878841400146,3.6052086353302,3.871890566402649,3.447610315246713,15.518852007036513,12.575456054704192,-6.47544875391759e-05,0.0956302732229232,0,0,0
1241,44719.49950824635,2010-10-29 22:22:58,1800.9099316407817,7,4,-1.0997490882873535,3.601647138595581,3.871890566402649,3.456778026935972,15.518852007036513,12.608491460135648,-9.713172767078504e-05,0.0956302732229232,0,0,0
1242,44749.514670491095,2010-10-29 22:23:28,1830.92509388553,7,4,-1.099568486213684,3.598247528076172,3.871890566402649,3.46594590752158,15.518852007036513,12.641495430439573,-6.47544875391759e-05,0.0956302732229232,0,0,0
1243,44779.52983825961,2010-10-29 22:23:58,1860.940261654045,7,4,-1.099568486213684,3.5948479175567627,3.871890566402649,3.475113738702461,15.518852007036513,12.674468068698811,-9.713172767078504e-05,0.0956302732229232,0,0,0
1244,44809.54500736145,2010-10-29 22:24:28,1890.955430760896,7,4,-1.099568486213684,3.5914485454559326,3.871890566402649,3.484281610785256,15.518852007036513,12.707410106872157,-9.713172767078504e-05,0.0956302732229232,0,0,0
1245,44839.56017246332,2010-10-29 22:24:58,1920.970595857753,7,4,-1.099568486213684,3.588372707366944,3.871890566402649,3.493449436562582,15.518852007036513,12.74032210652789,-9.713172767078504e-05,0.0956302732229232,0,0,0
1246,44869.57537873279,2010-10-29 22:25:28,1950.9858021272248,7,4,-1.099568486213684,3.585134983062744,3.871890566402649,3.502617388426357,15.518852007036513,12.773205093520676,-9.713172767078504e-05,0.0956302732229232,0,0,0
1247,44899.59061697194,2010-10-29 22:25:58,1981.0010404114869,7,4,-1.099568486213684,3.582059144973755,3.871890566402649,3.511785235702713,15.518852007036513,12.80605873840492,-9.713172767078504e-05,0.0956302732229232,0,0,0
1248,44929.60573491126,2010-10-29 22:26:28,2011.0161583057004,7,4,-1.0997490882873535,3.578821420669556,3.871890566402649,3.520953111114035,15.518852007036513,12.838883892872074,-0.0001295089750783,0.0956302732229232,0,0,0
1249,44959.6208226052,2010-10-29 22:26:58,2041.0312459996453,7,4,-1.0993878841400146,3.5759074687957764,3.871890566402649,3.530120975968051,15.518852007036513,12.871680886696762,-6.47544875391759e-05,0.0956302732229232,0,0,0
1250,44989.63602124066,2010-10-29 22:27:28,2071.0464446651654,7,4,-1.099568486213684,3.572831630706787,3.871890566402649,3.539288816709303,15.518852007036513,12.90444988638745,-6.47544875391759e-05,0.0956302732229232,0,0,0
1251,45019.65116296927,2010-10-29 22:27:58,2101.0615864038064,7,4,-1.0997490882873535,3.569755792617798,3.871890566402649,3.548456715263216,15.518852007036513,12.93719137441376,-0.0001295089750783,0.0956302732229232,0,0,0
1252,45049.66634864742,2010-10-29 22:28:28,2131.076772041858,7,4,-1.0997490882873535,3.5666799545288086,3.871890566402649,3.557624612302057,15.518852007036513,12.969905449369856,-9.713172767078504e-05,0.0956302732229232,0,0,0
1253,45079.68152601987,2010-10-29 22:28:58,2161.091949444384,7,4,-1.0997490882873535,3.56360411643982,3.871890566402649,3.566792547103863,15.518852007036513,13.002592212852727,-0.0001295089750783,0.0956302732229232,0,0,0
1254,45109.69666629988,2010-10-29 22:29:28,2191.107089814615,7,4,-1.0997490882873535,3.56085205078125,3.871890566402649,3.575960356187967,15.518852007036513,13.03525157934838,-0.0001295089750783,0.0956302732229232,0,0,0
1255,45139.71184072999,2010-10-29 22:29:58,2221.122264124433,7,4,-1.0997490882873535,3.5577762126922607,3.871890566402649,3.585128244349199,15.518852007036513,13.067883973106944,-0.0001295089750783,0.0956302732229232,0,0,0
1256,45169.72699882941,2010-10-29 22:30:28,2251.137422258938,7,4,-1.0997490882873535,3.5550241470336914,3.871890566402649,3.594296204537472,15.518852007036513,13.100489090784702,-3.237724376958795e-05,0.0956302732229232,0,0,0
1257,45199.74215423212,2010-10-29 22:30:58,2281.152577631559,7,4,-1.099568486213684,3.552110195159912,3.871890566402649,3.603464075493063,15.518852007036513,13.133066086244128,-6.47544875391759e-05,0.0956302732229232,0,0,0
1258,45229.75731417613,2010-10-29 22:31:28,2311.167737575573,7,4,-1.099568486213684,3.548710584640503,3.871890566402649,3.612632019321607,15.518852007036513,13.165615387829078,-9.713172767078504e-05,0.0956302732229232,0,0,0
1259,45259.77251281658,2010-10-29 22:31:58,2341.1829362160306,7,4,-1.0997490882873535,3.5456347465515137,3.871890566402649,3.621799928717127,15.518852007036513,13.198136316324778,-0.0001295089750783,0.0956302732229232,0,0,0
1260,45289.787797646844,2010-10-29 22:32:28,2371.198221056325,7,4,-1.0993878841400146,3.5425589084625244,3.871890566402649,3.630967854286362,15.518852007036513,13.230628443514837,-6.47544875391759e-05,0.0956302732229232,0,0,0
1261,45319.8029370196,2010-10-29 22:32:58,2401.2133604090195,7,4,-1.099568486213684,3.539321184158325,3.871890566402649,3.640135743718611,15.518852007036513,13.26309136204075,-6.47544875391759e-05,0.0956302732229232,0,0,0
1262,45349.81810772544,2010-10-29 22:33:28,2431.228531134905,7,4,-1.099568486213684,3.535921573638916,3.871890566402649,3.649303651196364,15.518852007036513,13.295524559172335,-0.0001295089750783,0.0956302732229232,0,0,0
1263,45379.833173299245,2010-10-29 22:33:58,2461.2435966986955,7,4,-1.099568486213684,3.532683849334717,3.871890566402649,3.658471576001214,15.518852007036513,13.327927259942507,-6.47544875391759e-05,0.0956302732229232,0,0,0
1264,45409.84832159423,2010-10-29 22:34:28,2491.258744988664,7,4,-1.099568486213684,3.529284238815308,3.871890566402649,3.667639480498114,15.518852007036513,13.360298860761416,-6.47544875391759e-05,0.0956302732229232,0,0,0
1265,45439.86347511724,2010-10-29 22:34:58,2521.2738985116757,7,4,-1.0997490882873535,3.5257227420806885,3.871890566402649,3.676807384790841,15.518852007036513,13.392638718450543,-9.713172767078504e-05,0.0956302732229232,0,0,0
1266,45469.87863338206,2010-10-29 22:35:28,2551.289056781517,7,4,-1.099568486213684,3.52199935913086,3.871890566402649,3.685976049268508,15.518852007036513,13.424947985684144,-0.0001295089750783,0.0956302732229232,0,0,0
1267,45499.89382176696,2010-10-29 22:35:58,2581.304245166415,7,4,-1.099568486213684,3.5181140899658203,3.871890566402649,3.695144775447401,15.518852007036513,13.457223196286458,-0.0001295089750783,0.0956302732229232,0,0,0
1268,45529.90900786617,2010-10-29 22:36:28,2611.319431285666,7,4,-1.099568486213684,3.514228820800781,3.871890566402649,3.704312694948087,15.518852007036513,13.489459681373695,-9.713172767078504e-05,0.0956302732229232,0,0,0
1269,45559.92415592557,2010-10-29 22:36:58,2641.3345793199974,7,4,-1.0997490882873535,3.5100200176239014,3.871890566402649,3.713480624666492,15.518852007036513,13.521658345831511,-9.713172767078504e-05,0.0956302732229232,0,0,0
1270,45589.93961216303,2010-10-29 22:37:28,2671.350035592553,7,4,-1.099568486213684,3.5053253173828125,3.871890566402649,3.722648625510453,15.518852007036513,13.553817095900154,-0.0001295089750783,0.0956302732229232,0,0,0
1271,45619.954621837525,2010-10-29 22:37:58,2701.3650452620377,7,4,-1.0997490882873535,3.5004687309265137,3.871890566402649,3.731816488163992,15.518852007036513,13.585932310322978,-0.0001295089750783,0.0956302732229232,0,0,0
1272,45649.96980703448,2010-10-29 22:38:28,2731.3802304439528,7,4,-1.0997490882873535,3.495288372039795,3.871890566402649,3.740984439225174,15.518852007036513,13.618001491574168,-0.0001295089750783,0.0956302732229232,0,0,0
1273,45679.98483465871,2010-10-29 22:38:58,2761.395258053148,7,4,-1.0997490882873535,3.4892985820770264,3.871890566402649,3.750152330229085,15.518852007036513,13.650019822526977,-0.0001942634553415,0.0956302732229232,0,0,0
1274,45710.00014003519,2010-10-29 22:39:28,2791.410563444662,7,4,-1.0997490882873535,3.482985019683838,3.871890566402649,3.759320330526907,15.518852007036513,13.681982525631208,-0.0001942634553415,0.0956302732229232,0,0,0
1275,45740.01516363439,2010-10-29 22:39:58,2821.4255870789507,7,4,-1.0993878841400146,3.4758620262146,3.871890566402649,3.768488227427557,15.518852007036513,13.71388168946404,-0.0001942634553415,0.0956302732229232,0,0,0
1276,45770.03033603946,2010-10-29 22:40:28,2851.440759433897,7,4,-1.099568486213684,3.4674439430236816,3.871890566402649,3.777656135215373,15.518852007036513,13.745709723493016,-0.0002590179501567,0.0956302732229232,0,0,0
1277,45800.04642291367,2010-10-29 22:40:58,2881.456846333169,7,4,-1.099568486213684,3.457892656326294,3.871890566402649,3.786824368610311,15.518852007036513,13.777457148952282,-0.0002590179501567,0.0956302732229232,0,0,0
1278,45830.04855552457,2010-10-29 22:41:28,2911.458979039298,7,4,-1.099568486213684,3.4465606212615967,3.871890566402649,3.795988360815361,15.518852007036513,13.809094735984056,-0.0002913951757363,0.0956302732229232,0,0,0
1279,45860.06026262803,2010-10-29 22:41:58,2941.470686047534,7,4,-1.0997490882873535,3.43296217918396,3.871890566402649,3.805155222865321,15.518852007036513,13.840628535298425,-0.0003885269106831,0.0956302732229232,0,0,0
1280,45890.07537396591,2010-10-29 22:42:28,2971.4857973603443,7,4,-1.0997490882873535,3.416126251220703,3.871890566402649,3.814323190651946,15.518852007036513,13.872027992167906,-0.0005180359003134,0.0956302732229232,0,0,0
1281,45920.09056064155,2010-10-29 22:42:58,3001.500984030969,7,4,-1.099568486213684,3.395081043243408,3.871890566402649,3.823491113558815,15.518852007036513,13.903254937855328,-0.0005827903514727,0.0956302732229232,0,0,0
1282,45950.10570581876,2010-10-29 22:43:28,3031.516129213193,7,4,-1.099568486213684,3.367560386657715,3.871890566402649,3.832659086313534,15.518852007036513,13.934260859222638,-0.0008094310760498,0.0956302732229232,0,0,0
1283,45980.12087250959,2010-10-29 22:43:58,3061.531295929085,7,4,-1.099568486213684,3.330164909362793,3.871890566402649,3.841827078487494,15.518852007036513,13.964972185107694,-0.0011332035064697,0.0956302732229232,0,0,0
1284,46010.136041842,2010-10-29 22:44:28,3091.546465276535,7,4,-1.099929690361023,3.278037548065185,3.871890566402649,3.850994991169519,15.518852007036513,13.995277871569396,-0.0016188621520996,0.0956302732229232,0,0,0
1285,46040.15121371574,2010-10-29 22:44:58,3121.56163716532,7,4,-1.0997490882873535,3.2037320137023926,3.871890566402649,3.860162925897844,15.518852007036513,14.025012175848191,-0.0023311614058911,0.0956302732229232,0,0,0
1286,46070.16651587922,2010-10-29 22:45:28,3151.5769392987136,7,4,-1.0997490882873535,3.091221570968628,3.871890566402649,3.869330932340323,15.518852007036513,14.053908382492429,-0.0036586285568773,0.0956302732229232,0,0,0
1287,46098.71285049357,2010-10-29 22:45:57,3180.123273882985,7,4,-1.099568486213684,2.8906450271606445,3.871890566402649,3.878050201927671,15.518852007036513,14.080110922444296,-0.0080619333311915,0.0956302732229232,0,0,0
1288,46113.57195068828,2010-10-29 22:46:12,3194.9823740827137,7,4,-1.0997490882873535,2.699781894683838,3.871890566402649,3.882588823444432,15.518852007036513,14.092820233536091,-0.0113319875672459,0.0956302732229232,0,0,0
1289,46173.58657670304,2010-10-29 22:47:12,60.01483963146612,8,4,0.0,3.3322694301605225,3.871890566402649,3.882588823444432,15.518852007036513,14.092820233536091,0.0012950897216796,0.0956302732229232,0,0,0
1290,46173.77460475516,2010-10-29 22:47:12,0.187469030506802,9,4,-1.9243103452026844e-05,3.3324313163757324,3.871890566402649,3.882588824446512,15.518852007036513,14.092820236875452,0.0,0.09375511854887,0,0,0
1291,46178.58718826405,2010-10-29 22:47:17,5.000052599555817,9,4,0.0008838032954372,3.3403637409210205,3.871891425440749,3.882588824627613,15.51885487365332,14.092820237478955,0.0011655807029455,0.09375511854887,0,0,0
