Data_Point,Test_Time(s),Date_Time,Step_Time(s),Step_Index,Cycle_Index,Current(A),Voltage(V),Charge_Capacity(Ah),Discharge_Capacity(Ah),Charge_Energy(Wh),Discharge_Energy(Wh),dV/dt(V/s),Internal_Resistance(Ohm),Is_FC_Data,AC_Impedance(Ohm),ACI_Phase_Angle(Deg)
323,11604.818417040027,2010-10-29 13:11:00,30.01549673339708,1,2,0.0,3.412564754486084,0.963637615903047,0.970339201364411,3.870357576599996,3.519872973805086,0.0008094310760498,0.0923885703086853,0,0,0
324,11634.833272530252,2010-10-29 13:11:30,60.03035208828157,1,2,0.0,3.436038017272949,0.963637615903047,0.970339201364411,3.870357576599996,3.519872973805086,0.0005504131549969,0.0923885703086853,0,0,0
325,11664.848337517604,2010-10-29 13:12:00,90.04541708064716,1,2,0.0,3.454007387161255,0.963637615903047,0.970339201364411,3.870357576599996,3.519872973805086,0.0004209041653666,0.0923885703086853,0,0,0
326,11694.816620840656,2010-10-29 13:12:30,120.01370040369844,1,2,0.0,3.468091487884521,0.963637615903047,0.970339201364411,3.870357576599996,3.519872973805086,0.0003237724304199,0.0923885703086853,0,0,0
327,11724.832006625684,2010-10-29 13:13:00,30.01511343309479,2,2,0.5499359965324402,3.623178005218506,0.968224117979203,0.970339201364411,3.88682104231602,3.519872973805086,0.0014893531333655,0.0923885703086853,0,0,0
328,11754.847155928175,2010-10-29 13:13:30,60.0302627055122,2,2,0.5499359965324402,3.668182373046875,0.972810611141711,0.970339201364411,3.903548655166142,3.519872973805086,0.0010036944877356,0.0923885703086853,0,0,0
329,11784.862280428855,2010-10-29 13:14:00,90.04538720117833,2,2,0.5501165986061096,3.700235605239868,0.97739712510266,0.970339201364411,3.920450078181125,3.519872973805086,0.0007446765666827,0.0923885703086853,0,0,0
330,11814.877427485751,2010-10-29 13:14:30,120.06053426308648,2,2,0.5501165986061096,3.725651741027832,0.981983682072299,0.970339201364411,3.937481868328784,3.519872973805086,0.0006151676061563,0.0923885703086853,0,0,0
331,11844.89256950008,2010-10-29 13:15:00,150.07567630247692,2,2,0.5501165986061096,3.745887517929077,0.986570167033352,0.970339201364411,3.954617252594523,3.519872973805086,0.0004856586456298,0.0923885703086853,0,0,0
332,11874.907700777649,2010-10-29 13:15:30,180.0908075499707,2,2,0.5499359965324402,3.762237787246704,0.991156677280141,0.970339201364411,3.971837028765625,3.519872973805086,0.0003885269106831,0.0923885703086853,0,0,0
333,11904.922861613884,2010-10-29 13:16:00,210.1059683862087,2,2,0.5501165986061096,3.7737317085266113,0.995743342303338,0.970339201364411,3.989121478199276,3.519872973805086,0.0002266406954731,0.0923885703086853,0,0,0
334,11934.937984465454,2010-10-29 13:16:30,240.1210912327647,2,2,0.550297200679779,3.78069281578064,1.000329868773118,0.970339201364411,4.006446822635839,3.519872973805086,0.0001618862152099,0.0923885703086853,0,0,0
335,11964.953136760403,2010-10-29 13:17:00,270.1362435327277,2,2,0.5501165986061096,3.7855494022369385,1.004916079547052,0.970339201364411,4.023797120704525,3.519872973805086,9.713172767078504e-05,0.0923885703086853,0,0,0
336,11994.968314644128,2010-10-29 13:17:30,300.1514214515408,2,2,0.5499359965324402,3.7894346714019775,1.00950159834987,0.970339201364411,4.04116490711829,3.519872973805086,6.47544875391759e-05,0.0923885703086853,0,0,0
337,12024.98344035282,2010-10-29 13:18:00,330.16654713015515,2,2,0.5499359965324402,3.7934818267822266,1.014087124682207,0.970339201364411,4.058550935960986,3.519872973805086,9.713172767078504e-05,0.0923885703086853,0,0,0
338,12054.998549916269,2010-10-29 13:18:30,360.1816566885931,2,2,0.5499359965324402,3.797205209732056,1.018672710243501,0.970339201364411,4.075954887373193,3.519872973805086,9.713172767078504e-05,0.0923885703086853,0,0,0
339,12085.013712095855,2010-10-29 13:19:00,390.1968188832166,2,2,0.5501165986061096,3.8009285926818848,1.023258432817993,0.970339201364411,4.093376661228056,3.519872973805086,3.237724376958795e-05,0.0923885703086853,0,0,0
340,12115.028845122784,2010-10-29 13:19:30,420.2119518951078,2,2,0.5501165986061096,3.804651975631714,1.027844954705895,0.970339201364411,4.110818470186381,3.519872973805086,9.713172767078504e-05,0.0923885703086853,0,0,0
341,12145.0439691172,2010-10-29 13:20:00,450.2270759195996,2,2,0.5501165986061096,3.808213472366333,1.032431366897881,0.970339201364411,4.128276494254632,3.519872973805086,9.713172767078504e-05,0.0923885703086853,0,0,0
342,12175.059238478918,2010-10-29 13:20:30,480.24234525625405,2,2,0.5499359965324402,3.811774969100952,1.037017909928655,0.970339201364411,4.145751450981991,3.519872973805086,6.47544875391759e-05,0.0923885703086853,0,0,0
343,12205.074272529166,2010-10-29 13:21:00,510.2573793014898,2,2,0.550297200679779,3.815498352050781,1.041604405527266,0.970339201364411,4.163242403558983,3.519872973805086,0.0001295089750783,0.0923885703086853,0,0,0
344,12235.089428693762,2010-10-29 13:21:30,540.2725354660847,2,2,0.550297200679779,3.818736076354981,1.046190803894234,0.970339201364411,4.180748778901589,3.519872973805086,9.713172767078504e-05,0.0923885703086853,0,0,0
345,12265.104542422592,2010-10-29 13:22:00,570.2876491999291,2,2,0.5501165986061096,3.8221356868743896,1.050777310689527,0.970339201364411,4.198271072248348,3.519872973805086,6.47544875391759e-05,0.0923885703086853,0,0,0
346,12295.119828666386,2010-10-29 13:22:30,600.3029354537463,2,2,0.5501165986061096,3.825373411178589,1.055363781520512,0.970339201364411,4.215808365900887,3.519872973805086,9.713172767078504e-05,0.0923885703086853,0,0,0
347,12325.134854310683,2010-10-29 13:23:00,630.3179611231068,2,2,0.5499359965324402,3.828611135482788,1.059950220714931,0.970339201364411,4.233360757388581,3.519872973805086,6.47544875391759e-05,0.0923885703086853,0,0,0
348,12355.150024916267,2010-10-29 13:23:30,660.3331317387181,2,2,0.5501165986061096,3.832010746002197,1.064536619978695,0.970339201364411,4.250928119346957,3.519872973805086,9.713172767078504e-05,0.0923885703086853,0,0,0
349,12385.16510240478,2010-10-29 13:24:00,690.3482091821154,2,2,0.5501165986061096,3.8354101181030273,1.069123048686177,0.970339201364411,4.268510751429408,3.519872973805086,9.713172767078504e-05,0.0923885703086853,0,0,0
350,12415.180220203756,2010-10-29 13:24:30,720.3633269810913,2,2,0.5499359965324402,3.8386478424072266,1.0737094832614411,0.970339201364411,4.286108800440951,3.519872973805086,9.713172767078504e-05,0.0923885703086853,0,0,0
351,12445.19560884776,2010-10-29 13:25:00,750.3787156752213,2,2,0.5499359965324402,3.841885566711426,1.078295959553554,0.970339201364411,4.303722573997331,3.519872973805086,6.47544875391759e-05,0.0923885703086853,0,0,0
352,12475.210575665444,2010-10-29 13:25:30,780.3936824427805,2,2,0.5501165986061096,3.845608949661255,1.082882374088511,0.970339201364411,4.321351864903969,3.519872973805086,0.0001295089750783,0.0923885703086853,0,0,0
353,12505.225688852926,2010-10-29 13:26:00,810.4087956302632,2,2,0.5501165986061096,3.849170446395874,1.087468852470894,0.970339201364411,4.338997381781398,3.519872973805086,9.713172767078504e-05,0.0923885703086853,0,0,0
354,12535.24084895233,2010-10-29 13:26:30,840.4239557246522,2,2,0.5501165986061096,3.852570056915283,1.092055365791774,0.970339201364411,4.356659002317276,3.519872973805086,6.47544875391759e-05,0.0923885703086853,0,0,0
355,12565.255979868998,2010-10-29 13:27:00,870.439086646334,2,2,0.5499359965324402,3.8558077812194815,1.096641860304688,0.970339201364411,4.374336326076702,3.519872973805086,6.47544875391759e-05,0.0923885703086853,0,0,0
356,12595.271121707889,2010-10-29 13:27:30,900.4542284852248,2,2,0.5499359965324402,3.859207391738892,1.101228347440753,0.970339201364411,4.392029280472722,3.519872973805086,9.713172767078504e-05,0.0923885703086853,0,0,0
357,12625.286256398964,2010-10-29 13:28:00,930.4693632013632,2,2,0.5501165986061096,3.862768888473511,1.10581481585848,0.970339201364411,4.409737528287645,3.519872973805086,0.0001295089750783,0.0923885703086853,0,0,0
358,12655.301411566074,2010-10-29 13:28:30,960.4845183684722,2,2,0.5501165986061096,3.86600661277771,1.110401305639492,0.970339201364411,4.427460921886569,3.519872973805086,0.0001295089750783,0.0923885703086853,0,0,0
359,12685.31664509348,2010-10-29 13:29:00,990.4997518758288,2,2,0.5501165986061096,3.869082450866699,1.114987771394073,0.970339201364411,4.445199065174634,3.519872973805086,6.47544875391759e-05,0.0923885703086853,0,0,0
360,12715.331697359128,2010-10-29 13:29:30,1020.5148041364632,2,2,0.5501165986061096,3.8723201751708975,1.119574185165933,0.970339201364411,4.462951565844137,3.519872973805086,6.47544875391759e-05,0.0923885703086853,0,0,0
361,12745.346851929748,2010-10-29 13:30:00,1050.5299587070854,2,2,0.5501165986061096,3.875396013259888,1.124160596216257,0.970339201364411,4.480718222479013,3.519872973805086,0.0001295089750783,0.0923885703086853,0,0,0
362,12775.361967232504,2010-10-29 13:30:30,1080.5450740148524,2,2,0.5501165986061096,3.878309965133667,1.128747031052457,0.970339201364411,4.498498807164606,3.519872973805086,9.713172767078504e-05,0.0923885703086853,0,0,0
363,12805.377118164057,2010-10-29 13:31:00,1110.5602249413923,2,2,0.5501165986061096,3.8812239170074463,1.133333558769518,0.970339201364411,4.516293043435896,3.519872973805086,9.713172767078504e-05,0.0923885703086853,0,0,0
364,12835.392273075528,2010-10-29 13:31:30,1140.5753798879516,2,2,0.5501165986061096,3.8838140964508057,1.137920014058644,0.970339201364411,4.534099764606202,3.519872973805086,9.713172767078504e-05,0.0923885703086853,0,0,0
365,12865.407858986182,2010-10-29 13:32:00,1170.5909658938433,2,2,0.5501165986061096,3.886566162109375,1.14250658428166,0.970339201364411,4.551919016183661,3.519872973805086,0.0001295089750783,0.0923885703086853,0,0,0
366,12895.422658085865,2010-10-29 13:32:30,1200.60576488826,2,2,0.5501165986061096,3.888994455337525,1.147093033863362,0.970339201364411,4.569749309130313,3.519872973805086,6.47544875391759e-05,0.0923885703086853,0,0,0
367,12925.437698827787,2010-10-29 13:33:00,1230.6208056051237,2,2,0.5501165986061096,3.891260862350464,1.151679543945581,0.970339201364411,4.587590737435411,3.519872973805086,9.713172767078504e-05,0.0923885703086853,0,0,0
368,12955.452835990023,2010-10-29 13:33:30,1260.6359427673583,2,2,0.5501165986061096,3.893365383148194,1.156266028928293,0.970339201364411,4.60544230856893,3.519872973805086,9.713172767078504e-05,0.0923885703086853,0,0,0
369,12985.468396011152,2010-10-29 13:34:00,1290.6515028787132,2,2,0.5501165986061096,3.895146131515503,1.160852714957003,0.970339201364411,4.62330411566,3.519872973805086,6.47544875391759e-05,0.0923885703086853,0,0,0
370,13015.483169973182,2010-10-29 13:34:30,1320.6662767505163,2,2,0.5501165986061096,3.8970887660980233,1.16543913166124,0.970339201364411,4.641173534420495,3.519872973805086,3.237724376958795e-05,0.0923885703086853,0,0,0
371,13045.4982573363,2010-10-29 13:35:00,1350.6813641386996,2,2,0.5501165986061096,3.898869514465332,1.170025621514397,0.970339201364411,4.659051618423141,3.519872973805086,6.47544875391759e-05,0.0923885703086853,0,0,0
372,13075.513392227876,2010-10-29 13:35:30,1380.696499005213,2,2,0.5501165986061096,3.9006502628326416,1.17461214825897,0.970339201364411,4.676937655645078,3.519872973805086,9.713172767078504e-05,0.0923885703086853,0,0,0
373,13105.528652938032,2010-10-29 13:36:00,1410.711759750455,2,2,0.550297200679779,3.9021072387695312,1.179198622088403,0.970339201364411,4.694830856520958,3.519872973805086,6.47544875391759e-05,0.0923885703086853,0,0,0
374,13135.543793157887,2010-10-29 13:36:30,1440.7268999302107,2,2,0.5501165986061096,3.903402328491211,1.183785126593336,0.970339201364411,4.712731160905991,3.519872973805086,0.0,0.0923885703086853,0,0,0
375,13165.559137932556,2010-10-29 13:37:00,1470.742244810142,2,2,0.5501165986061096,3.905021190643311,1.188371618041351,0.970339201364411,4.730638133226856,3.519872973805086,3.237724376958795e-05,0.0923885703086853,0,0,0
376,13195.573953989498,2010-10-29 13:37:30,1500.7570607618218,2,2,0.5499359965324402,3.9064781665802,1.192958092867337,0.970339201364411,4.748551362052032,3.519872973805086,6.47544875391759e-05,0.0923885703086853,0,0,0
377,13225.589092033932,2010-10-29 13:38:00,1530.772198811268,2,2,0.5499359965324402,3.90777325630188,1.197544534909978,0.970339201364411,4.766470892637904,3.519872973805086,3.237724376958795e-05,0.0923885703086853,0,0,0
378,13255.60424544667,2010-10-29 13:38:30,1560.7873522189918,2,2,0.5499359965324402,3.90906834602356,1.202131014350709,0.970339201364411,4.784396761922979,3.519872973805086,6.47544875391759e-05,0.0923885703086853,0,0,0
379,13285.619390413354,2010-10-29 13:39:01,1590.8024972157532,2,2,0.5501165986061096,3.910525321960449,1.206717513243148,0.970339201364411,4.802328898966403,3.519872973805086,6.47544875391759e-05,0.0923885703086853,0,0,0
380,13315.634519480414,2010-10-29 13:39:31,1620.8176262527377,2,2,0.5499359965324402,3.911982297897339,1.21130403339391,0.970339201364411,4.820267149576816,3.519872973805086,9.713172767078504e-05,0.0923885703086853,0,0,0
381,13345.649888585722,2010-10-29 13:40:01,1650.8329954081712,2,2,0.5501165986061096,3.9131155014038086,1.21589054189429,0.970339201364411,4.838211518057543,3.519872973805086,3.237724376958795e-05,0.0923885703086853,0,0,0
382,13375.664819889897,2010-10-29 13:40:31,1680.847926667232,2,2,0.5501165986061096,3.914410352706909,1.220476996128852,0.970339201364411,4.856161752636679,3.519872973805086,0.0,0.0923885703086853,0,0,0
383,13405.680094805455,2010-10-29 13:41:01,1710.8632015978285,2,2,0.550297200679779,3.915705442428589,1.22506353136164,0.970339201364411,4.874118403404474,3.519872973805086,3.237724376958795e-05,0.0923885703086853,0,0,0
384,13435.695093462493,2010-10-29 13:41:31,1740.8782002398286,2,2,0.5501165986061096,3.9171624183654794,1.229649964946685,0.970339201364411,4.892080663229207,3.519872973805086,6.47544875391759e-05,0.0923885703086853,0,0,0
385,13465.71024446422,2010-10-29 13:42:01,1770.8933512465685,2,2,0.5501165986061096,3.918457508087158,1.23423642433269,0.970339201364411,4.910049268145011,3.519872973805086,0.0,0.0923885703086853,0,0,0
386,13495.725366022563,2010-10-29 13:42:31,1800.9084727999011,2,2,0.5501165986061096,3.919752597808838,1.238822845755111,0.970339201364411,4.928023941004361,3.519872973805086,3.237724376958795e-05,0.0923885703086853,0,0,0
387,13525.740515219795,2010-10-29 13:43:01,1830.9236219921188,2,2,0.5501165986061096,3.9210476875305176,1.243409330924755,0.970339201364411,4.946005104253998,3.519872973805086,3.237724376958795e-05,0.0923885703086853,0,0,0
388,13555.755796686684,2010-10-29 13:43:31,1860.9389034690305,2,2,0.5501165986061096,3.922666549682617,1.247995772447188,0.970339201364411,4.963992347191804,3.519872973805086,6.47544875391759e-05,0.0923885703086853,0,0,0
389,13585.770812145594,2010-10-29 13:44:01,1890.9539189229315,2,2,0.5501165986061096,3.923961639404297,1.252582192809814,0.970339201364411,4.981985892813563,3.519872973805086,6.47544875391759e-05,0.0923885703086853,0,0,0
390,13615.785936365575,2010-10-29 13:44:31,1920.96904314291,2,2,0.5501165986061096,3.925256729125977,1.257168645873555,0.970339201364411,4.999985961892623,3.519872973805086,3.237724376958795e-05,0.0923885703086853,0,0,0
391,13645.801086269565,2010-10-29 13:45:01,1950.9841930469013,2,2,0.5501165986061096,3.926713705062866,1.261755186867934,0.970339201364411,5.017992722883776,3.519872973805086,6.47544875391759e-05,0.0923885703086853,0,0,0
392,13675.816211477006,2010-10-29 13:45:31,1980.999318279404,2,2,0.5501165986061096,3.928170680999756,1.266341701134229,0.970339201364411,5.036005871910866,3.519872973805086,3.237724376958795e-05,0.0923885703086853,0,0,0
393,13705.831357461228,2010-10-29 13:46:01,2011.0144642335515,2,2,0.5499359965324402,3.9296276569366455,1.270928170623031,0.970339201364411,5.054025278972038,3.519872973805086,3.237724376958795e-05,0.0923885703086853,0,0,0
394,13735.84664829145,2010-10-29 13:46:31,2041.0297551038743,2,2,0.550297200679779,3.931084632873535,1.275514658592115,0.970339201364411,5.072051303158117,3.519872973805086,6.47544875391759e-05,0.0923885703086853,0,0,0
395,13765.861655991026,2010-10-29 13:47:01,2071.044762768361,2,2,0.5499359965324402,3.932379722595215,1.280101120561503,0.970339201364411,5.090083758106125,3.519872973805086,3.237724376958795e-05,0.0923885703086853,0,0,0
396,13795.876817173124,2010-10-29 13:47:31,2101.0599239554736,2,2,0.5501165986061096,3.933836698532105,1.284687639973167,0.970339201364411,5.108123057308615,3.519872973805086,3.237724376958795e-05,0.0923885703086853,0,0,0
397,13825.892045683026,2010-10-29 13:48:01,2131.0751524754005,2,2,0.5501165986061096,3.935455560684204,1.289274141781626,0.970339201364411,5.126168966625908,3.519872973805086,0.0,0.0923885703086853,0,0,0
398,13855.907059071782,2010-10-29 13:48:31,2161.090165849116,2,2,0.5499359965324402,3.936750650405884,1.293860723402317,0.970339201364411,5.144221818987039,3.519872973805086,6.47544875391759e-05,0.0923885703086853,0,0,0
399,13885.922214900538,2010-10-29 13:49:01,2191.105321677874,2,2,0.5501165986061096,3.938207626342773,1.298447221806538,0.970339201364411,5.162281154764123,3.519872973805086,3.237724376958795e-05,0.0923885703086853,0,0,0
400,13915.937344814707,2010-10-29 13:49:31,2221.1204516171074,2,2,0.5499359965324402,3.939664602279663,1.303033684852366,0.970339201364411,5.180347148481206,3.519872973805086,0.0,0.0923885703086853,0,0,0
401,13945.952484643589,2010-10-29 13:50:01,2251.135591420926,2,2,0.5499359965324402,3.9411215782165527,1.3076201096156,0.970339201364411,5.198419873147568,3.519872973805086,0.0,0.0923885703086853,0,0,0
402,13975.967757007793,2010-10-29 13:50:31,2281.150863820213,2,2,0.5501165986061096,3.942740440368652,1.312206566993537,0.970339201364411,5.216499569982544,3.519872973805086,6.47544875391759e-05,0.0923885703086853,0,0,0
403,14005.982788727228,2010-10-29 13:51:01,2311.165895504565,2,2,0.5501165986061096,3.944359302520752,1.316793039581925,0.970339201364411,5.234586381385169,3.519872973805086,3.237724376958795e-05,0.0923885703086853,0,0,0
404,14035.998035407416,2010-10-29 13:51:31,2341.181142290015,2,2,0.5501165986061096,3.9458162784576416,1.321379562301869,0.970339201364411,5.252680400288275,3.519872973805086,6.47544875391759e-05,0.0923885703086853,0,0,0
405,14066.0131388857,2010-10-29 13:52:01,2371.1962456981246,2,2,0.5501165986061096,3.9472732543945312,1.325966037026176,0.970339201364411,5.270781190315665,3.519872973805086,9.713172767078504e-05,0.0923885703086853,0,0,0
406,14096.028436071763,2010-10-29 13:52:31,2401.211542864138,2,2,0.5501165986061096,3.948892116546631,1.330552561941009,0.970339201364411,5.288889337874088,3.519872973805086,3.237724376958795e-05,0.0923885703086853,0,0,0
407,14126.043821447623,2010-10-29 13:53:01,2431.226928270073,2,2,0.5499359965324402,3.950349092483521,1.335139049123231,0.970339201364411,5.307004544588798,3.519872973805086,0.0,0.0923885703086853,0,0,0
408,14156.058603705327,2010-10-29 13:53:31,2461.241710497702,2,2,0.5501165986061096,3.95196795463562,1.339725519242871,0.970339201364411,5.325126934659792,3.519872973805086,3.237724376958795e-05,0.0923885703086853,0,0,0
409,14186.07361970058,2010-10-29 13:54:01,2491.2567264729014,2,2,0.5499359965324402,3.95358681678772,1.344312036899879,0.970339201364411,5.343256742207246,3.519872973805086,3.237724376958795e-05,0.0923885703086853,0,0,0
410,14216.088780195969,2010-10-29 13:54:31,2521.2718869783157,2,2,0.5501165986061096,3.9552056789398193,1.348898593454527,0.970339201364411,5.361394077905426,3.519872973805086,3.237724376958795e-05,0.0923885703086853,0,0,0
411,14246.103918776738,2010-10-29 13:55:01,2551.287025559086,2,2,0.5499359965324402,3.956824541091919,1.3534851190359,0.970339201364411,5.379538770747647,3.519872973805086,0.0,0.0923885703086853,0,0,0
412,14276.11904963827,2010-10-29 13:55:31,2581.302156440667,2,2,0.5501165986061096,3.9584434032440186,1.358071645586195,0.970339201364411,5.39769079676273,3.519872973805086,3.237724376958795e-05,0.0923885703086853,0,0,0
413,14306.134308834651,2010-10-29 13:56:01,2611.317415617,2,2,0.5499359965324402,3.960062265396118,1.362658163624336,0.970339201364411,5.415850311420546,3.519872973805086,0.0,0.0923885703086853,0,0,0
414,14336.149327576748,2010-10-29 13:56:31,2641.3324343540826,2,2,0.5501165986061096,3.961843013763428,1.367244700351922,0.970339201364411,5.434017490228859,3.519872973805086,6.47544875391759e-05,0.0923885703086853,0,0,0
415,14366.164702636896,2010-10-29 13:57:01,2671.347809454332,2,2,0.5501165986061096,3.9634618759155273,1.37183126159041,0.970339201364411,5.452192305934446,3.519872973805086,3.237724376958795e-05,0.0923885703086853,0,0,0
416,14396.179613916162,2010-10-29 13:57:31,2701.36272069851,2,2,0.5501165986061096,3.965080738067627,1.376417698587267,0.970339201364411,5.470374307131445,3.519872973805086,0.0,0.0923885703086853,0,0,0
417,14426.194798957726,2010-10-29 13:58:01,2731.377905835313,2,2,0.5501165986061096,3.966861486434937,1.381004264061997,0.970339201364411,5.488564556734456,3.519872973805086,6.47544875391759e-05,0.0923885703086853,0,0,0
418,14456.21003609914,2010-10-29 13:58:31,2761.393142881489,2,2,0.5504778623580933,3.968642234802246,1.385591189709286,0.970339201364411,5.506763913637419,3.519872973805086,6.47544875391759e-05,0.0923885703086853,0,0,0
419,14486.22503775866,2010-10-29 13:59:01,2791.408144530985,2,2,0.5501165986061096,3.9702610969543457,1.390178312651322,0.970339201364411,5.52497184507247,3.519872973805086,6.47544875391759e-05,0.0923885703086853,0,0,0
420,14516.240293897425,2010-10-29 13:59:31,2821.4234006797715,2,2,0.5501165986061096,3.971879959106445,1.39476545530132,0.970339201364411,5.543187700506825,3.519872973805086,3.237724376958795e-05,0.0923885703086853,0,0,0
421,14546.255309892673,2010-10-29 14:00:01,2851.438416670008,2,2,0.5501165986061096,3.973660707473755,1.399352607081034,0.970339201364411,5.561411510672706,3.519872973805086,3.237724376958795e-05,0.0923885703086853,0,0,0
422,14576.270467475804,2010-10-29 14:00:31,2881.4535742531384,2,2,0.5501165986061096,3.975441455841065,1.403939309587219,0.970339201364411,5.579641491493608,3.519872973805086,3.237724376958795e-05,0.0923885703086853,0,0,0
423,14606.285642582608,2010-10-29 14:01:01,2911.468749364956,2,2,0.5501165986061096,3.977222204208374,1.408525838667253,0.970339201364411,5.597878875267887,3.519872973805086,6.47544875391759e-05,0.0923885703086853,0,0,0
424,14636.30077249678,2010-10-29 14:01:31,2941.4838792991764,2,2,0.5501165986061096,3.979002952575684,1.413112348468565,0.970339201364411,5.616123766218895,3.519872973805086,6.47544875391759e-05,0.0923885703086853,0,0,0
425,14666.315879453732,2010-10-29 14:02:01,2971.498986226056,2,2,0.5499359965324402,3.980621814727783,1.417698774608423,0.970339201364411,5.634376914103102,3.519872973805086,3.237724376958795e-05,0.0923885703086853,0,0,0
426,14696.331017232504,2010-10-29 14:02:31,3001.5141240048274,2,2,0.5501165986061096,3.9827263355255127,1.422284463598703,0.970339201364411,5.652635287527914,3.519872973805086,9.713172767078504e-05,0.0923885703086853,0,0,0
427,14726.346175111372,2010-10-29 14:03:01,3031.52928189372,2,2,0.5499359965324402,3.984345197677612,1.426870016784965,0.970339201364411,5.670901251061376,3.519872973805086,6.47544875391759e-05,0.0923885703086853,0,0,0
428,14756.361489745925,2010-10-29 14:03:31,3061.5445965382955,2,2,0.5501165986061096,3.985964059829712,1.431456244124185,0.970339201364411,5.689178272292083,3.519872973805086,0.0,0.0923885703086853,0,0,0
429,14786.376470603598,2010-10-29 14:04:01,3091.559577375921,2,2,0.5501165986061096,3.987906694412232,1.436042615195592,0.970339201364411,5.707464306952633,3.519872973805086,3.237724376958795e-05,0.0923885703086853,0,0,0
430,14816.391733469123,2010-10-29 14:04:31,3121.574840236436,2,2,0.5499359965324402,3.989525556564331,1.44062905774368,0.970339201364411,5.72575889205694,3.519872973805086,0.0,0.0923885703086853,0,0,0
431,14846.40678551422,2010-10-29 14:05:01,3151.589892286545,2,2,0.5501165986061096,3.9914681911468506,1.44521537942749,0.970339201364411,5.744061562537608,3.519872973805086,0.0,0.0923885703086853,0,0,0
432,14876.421895157871,2010-10-29 14:05:31,3181.605001925183,2,2,0.5501165986061096,3.99357271194458,1.44980173717975,0.970339201364411,5.762373080903424,3.519872973805086,6.47544875391759e-05,0.0923885703086853,0,0,0
433,14906.437034119592,2010-10-29 14:06:01,3211.6201409219902,2,2,0.5499359965324402,3.995353221893311,1.454388110939097,0.970339201364411,5.780693356928805,3.519872973805086,3.237724376958795e-05,0.0923885703086853,0,0,0
434,14936.452302839709,2010-10-29 14:06:31,3241.6354096220584,2,2,0.5499359965324402,3.99729585647583,1.458974497987544,0.970339201364411,5.799022501423709,3.519872973805086,6.47544875391759e-05,0.0923885703086853,0,0,0
435,14966.46737987208,2010-10-29 14:07:01,3271.6504866744813,2,2,0.5501165986061096,3.9992384910583496,1.463560922347459,0.970339201364411,5.817360627161243,3.519872973805086,3.237724376958795e-05,0.0923885703086853,0,0,0
436,14996.482455315494,2010-10-29 14:07:31,3301.665562092832,2,2,0.5501165986061096,4.001343250274658,1.46814726683478,0.970339201364411,5.835707487427244,3.519872973805086,6.47544875391759e-05,0.0923885703086853,0,0,0
437,15026.497606031511,2010-10-29 14:08:01,3331.6807128288965,2,2,0.5501165986061096,4.003285884857178,1.472733660146419,0.970339201364411,5.854063697670466,3.519872973805086,6.47544875391759e-05,0.0923885703086853,0,0,0
438,15056.512898816603,2010-10-29 14:08:31,3361.696005689179,2,2,0.5501165986061096,4.005228519439697,1.477320028445249,0.970339201364411,5.872428998352977,3.519872973805086,0.0,0.0923885703086853,0,0,0
439,15086.528217461148,2010-10-29 14:09:01,3391.711324328712,2,2,0.5499359965324402,4.007494926452637,1.481906361882216,0.970339201364411,5.890803592493952,3.519872973805086,6.47544875391759e-05,0.0923885703086853,0,0,0
440,15116.543092580294,2010-10-29 14:09:31,3421.7261993726675,2,2,0.5499359965324402,4.009437561035156,1.486492733007157,0.970339201364411,5.909187845563912,3.519872973805086,6.47544875391759e-05,0.0923885703086853,0,0,0
441,15146.558164514963,2010-10-29 14:10:01,3451.741271292298,2,2,0.5501165986061096,4.011703968048096,1.491079080085726,0.970339201364411,5.927581585453449,3.519872973805086,6.47544875391759e-05,0.0923885703086853,0,0,0
442,15176.573306714752,2010-10-29 14:10:31,3481.7564134971008,2,2,0.5499359965324402,4.013646602630615,1.495665493213459,0.970339201364411,5.945985341076105,3.519872973805086,3.24249267578125e-05,0.0923885703086853,0,0,0
443,15206.588463781594,2010-10-29 14:11:02,3511.771570558932,2,2,0.5501165986061096,4.015913009643555,1.500251882611769,0.970339201364411,5.964398808483187,3.519872973805086,6.47544875391759e-05,0.0923885703086853,0,0,0
444,15236.603600432556,2010-10-29 14:11:32,3541.7867072299427,2,2,0.5501165986061096,4.018017292022705,1.504838365861784,0.970339201364411,5.982822599469793,3.519872973805086,3.23295607813634e-05,0.0923885703086853,0,0,0
445,15266.61876972487,2010-10-29 14:12:02,3571.8018765022057,2,2,0.5501165986061096,4.0202836990356445,1.50942481557756,0.970339201364411,6.001256165950097,3.519872973805086,6.47544875391759e-05,0.0923885703086853,0,0,0
446,15296.633871233244,2010-10-29 14:12:32,3601.816978005568,2,2,0.5499359965324402,4.022388458251953,1.514011191832678,0.970339201364411,6.019699603573328,3.519872973805086,3.24249267578125e-05,0.0923885703086853,0,0,0
447,15326.649035904038,2010-10-29 14:13:02,3631.8321427014257,2,2,0.5501165986061096,4.024654865264893,1.518597535526358,0.970339201364411,6.038153112004539,3.519872973805086,6.47544875391759e-05,0.0923885703086853,0,0,0
448,15356.6641565852,2010-10-29 14:13:32,3661.8472633675474,2,2,0.5501165986061096,4.026921272277832,1.523183869581183,0.970339201364411,6.05661695954885,3.519872973805086,6.47544875391759e-05,0.0923885703086853,0,0,0
449,15386.679297772464,2010-10-29 14:14:02,3691.862404574864,2,2,0.550297200679779,4.029349327087402,1.527770222642388,0.970339201364411,6.075091396020182,3.519872973805086,9.70840483205393e-05,0.0923885703086853,0,0,0
450,15416.69481682148,2010-10-29 14:14:32,3721.87792372914,2,2,0.5501165986061096,4.031615734100342,1.532356573635914,0.970339201364411,6.093576317847364,3.519872973805086,6.47544875391759e-05,0.0923885703086853,0,0,0
451,15446.709842821663,2010-10-29 14:15:02,3751.8929496892247,2,2,0.5501165986061096,4.03404426574707,1.536942855606381,0.970339201364411,6.112071617077386,3.519872973805086,0.0001295089750783,0.0923885703086853,0,0,0
452,15476.724746326554,2010-10-29 14:15:32,3781.907853154016,2,2,0.5499359965324402,4.036148548126221,1.541529185863231,0.970339201364411,6.130577881546874,3.519872973805086,3.24249267578125e-05,0.0923885703086853,0,0,0
453,15506.73986782475,2010-10-29 14:16:02,3811.9229746121114,2,2,0.5499359965324402,4.038576602935791,1.546115564475049,0.970339201364411,6.149095132863536,3.519872973805086,3.23295607813634e-05,0.0923885703086853,0,0,0
454,15536.755008575929,2010-10-29 14:16:32,3841.938115348252,2,2,0.5499359965324402,4.04100513458252,1.550701968364657,0.970339201364411,6.167623351431919,3.519872973805086,6.47544875391759e-05,0.0923885703086853,0,0,0
455,15566.770157763134,2010-10-29 14:17:02,3871.9532645354575,2,2,0.5501165986061096,4.04343318939209,1.555288329289015,0.970339201364411,6.186162417974243,3.519872973805086,6.47544875391759e-05,0.0923885703086853,0,0,0
456,15596.785291160988,2010-10-29 14:17:32,3901.9683979333104,2,2,0.5499359965324402,4.045861721038818,1.559874726973917,0.970339201364411,6.204712730290098,3.519872973805086,6.47544875391759e-05,0.0923885703086853,0,0,0
457,15626.800406433666,2010-10-29 14:18:02,3931.9835132360654,2,2,0.5497553944587708,4.048289775848389,1.564461030471802,0.970339201364411,6.223273878743204,3.519872973805086,6.47544875391759e-05,0.0923885703086853,0,0,0
458,15656.815554538174,2010-10-29 14:18:32,3961.9986613104966,2,2,0.5499359965324402,4.050718307495117,1.56904741544212,0.970339201364411,6.241846734225302,3.519872973805086,6.47544875391759e-05,0.0923885703086853,0,0,0
459,15686.830759058286,2010-10-29 14:19:02,3992.0138658406336,2,2,0.5499359965324402,4.053470134735107,1.573633764623849,0.970339201364411,6.260430859276086,3.519872973805086,3.23295607813634e-05,0.0923885703086853,0,0,0
460,15716.8458765515,2010-10-29 14:19:32,4022.0289833288352,2,2,0.5501165986061096,4.055898666381836,1.57822011036748,0.970339201364411,6.27902662905391,3.519872973805086,3.24249267578125e-05,0.0923885703086853,0,0,0
461,15746.86102005955,2010-10-29 14:20:02,4052.044126836885,2,2,0.5501165986061096,4.058488845825195,1.582806496992128,0.970339201364411,6.297634227543143,3.519872973805086,9.71794142969884e-05,0.0923885703086853,0,0,0
462,15776.8762237927,2010-10-29 14:20:32,4082.059330590087,2,2,0.5499359965324402,4.060755252838135,1.58739297916487,0.970339201364411,6.316253885988469,3.519872973805086,3.24249267578125e-05,0.0923885703086853,0,0,0
463,15806.891314729728,2010-10-29 14:21:02,4112.074421507064,2,2,0.5501165986061096,4.063507080078125,1.59197931621155,0.970339201364411,6.334884391895809,3.519872973805086,9.70840483205393e-05,0.0923885703086853,0,0,0
464,15836.906464448257,2010-10-29 14:21:32,4142.0895712807305,2,2,0.5501165986061096,4.066097259521484,1.596565679028709,0.970339201364411,6.353526956080657,3.519872973805086,6.47544875391759e-05,0.0923885703086853,0,0,0
465,15866.921603775889,2010-10-29 14:22:02,4172.104710553225,2,2,0.5501165986061096,4.068849563598633,1.60115203917234,0.970339201364411,6.372181425083171,3.519872973805086,9.71794142969884e-05,0.0923885703086853,0,0,0
466,15896.93674721878,2010-10-29 14:22:32,4202.119854031201,2,2,0.5501165986061096,4.071439743041992,1.605738350102769,0.970339201364411,6.390847872902055,3.519872973805086,9.71794142969884e-05,0.0923885703086853,0,0,0
467,15926.951878215648,2010-10-29 14:23:02,4232.134984997995,2,2,0.5501165986061096,4.074029922485352,1.610324655415662,0.970339201364411,6.409526480293277,3.519872973805086,9.71794142969884e-05,0.0923885703086853,0,0,0
468,15956.967131958436,2010-10-29 14:23:32,4262.150238745798,2,2,0.5501165986061096,4.076620101928711,1.614911032640442,0.970339201364411,6.428217787739905,3.519872973805086,6.47544875391759e-05,0.0923885703086853,0,0,0
469,15986.982269406384,2010-10-29 14:24:02,4292.165376188732,2,2,0.5501165986061096,4.07953405380249,1.61949730355136,0.970339201364411,6.446921140429754,3.519872973805086,6.47544875391759e-05,0.0923885703086853,0,0,0
470,16016.997410749036,2010-10-29 14:24:32,4322.180517531386,2,2,0.5499359965324402,4.08212423324585,1.624083710057734,0.970339201364411,6.46563758357749,3.519872973805086,6.47544875391759e-05,0.0923885703086853,0,0,0
471,16047.012810520777,2010-10-29 14:25:02,4352.195917488587,2,2,0.550297200679779,4.085038185119629,1.628670105712487,0.970339201364411,6.484366688884246,3.519872973805086,6.47544875391759e-05,0.0923885703086853,0,0,0
472,16077.027685775256,2010-10-29 14:25:32,4382.21079258768,2,2,0.5499359965324402,4.087790012359619,1.633256387336366,0.970339201364411,6.503108176612309,3.519872973805086,6.47544875391759e-05,0.0923885703086853,0,0,0
473,16107.042742486983,2010-10-29 14:26:02,4412.225849269333,2,2,0.550297200679779,4.090866088867188,1.637842631041306,0.970339201364411,6.521862469484512,3.519872973805086,9.71794142969884e-05,0.0923885703086853,0,0,0
474,16137.0578505116,2010-10-29 14:26:32,4442.240957288936,2,2,0.5499359965324402,4.093456268310547,1.642428974252945,0.970339201364411,6.540630200348242,3.519872973805086,9.71794142969884e-05,0.0923885703086853,0,0,0
475,16167.073088881074,2010-10-29 14:27:02,4472.25619567846,2,2,0.5501165986061096,4.096370220184326,1.647015387940428,0.970339201364411,6.5594113414725,3.519872973805086,9.71794142969884e-05,0.0923885703086853,0,0,0
476,16197.088135297145,2010-10-29 14:27:32,4502.27124209954,2,2,0.5501165986061096,4.099445819854736,1.651601736596313,0.970339201364411,6.578205529885429,3.519872973805086,9.70840483205393e-05,0.0923885703086853,0,0,0
477,16227.103282273838,2010-10-29 14:28:02,4532.2863890511735,2,2,0.5499359965324402,4.102198123931885,1.656188110402638,0.970339201364411,6.597013368042165,3.519872973805086,3.24249267578125e-05,0.0923885703086853,0,0,0
478,16257.118418879683,2010-10-29 14:28:32,4562.301525697122,2,2,0.5501165986061096,4.105435848236084,1.660774416875211,0.970339201364411,6.615834605093996,3.519872973805086,9.71794142969884e-05,0.0923885703086853,0,0,0
479,16287.13391723212,2010-10-29 14:29:02,4592.317024049554,2,2,0.5501165986061096,4.108187675476074,1.665360803175116,0.970339201364411,6.634669890080463,3.519872973805086,6.47544875391759e-05,0.0923885703086853,0,0,0
480,16317.148713970912,2010-10-29 14:29:32,4622.331820748249,2,2,0.5501165986061096,4.111425399780273,1.669947072047799,0.970339201364411,6.653518578889195,3.519872973805086,9.70840483205393e-05,0.0923885703086853,0,0,0
481,16347.163838882616,2010-10-29 14:30:02,4652.346945664965,2,2,0.550297200679779,4.114501476287842,1.67453348497877,0.970339201364411,6.672381754738538,3.519872973805086,9.71794142969884e-05,0.0923885703086853,0,0,0
482,16377.178981297944,2010-10-29 14:30:32,4682.362088070267,2,2,0.5501165986061096,4.117414951324463,1.679119811866975,0.970339201364411,6.691258607357975,3.519872973805086,6.47544875391759e-05,0.0923885703086853,0,0,0
483,16407.194150735617,2010-10-29 14:31:02,4712.377257538018,2,2,0.5501165986061096,4.120652675628662,1.68370612295897,0.970339201364411,6.71014960331299,3.519872973805086,6.47544875391759e-05,0.0923885703086853,0,0,0
484,16437.209289381553,2010-10-29 14:31:32,4742.392396153876,2,2,0.5501165986061096,4.123566627502441,1.688292455889493,0.970339201364411,6.729055009695029,3.519872973805086,6.47544875391759e-05,0.0923885703086853,0,0,0
485,16467.224524969093,2010-10-29 14:32:02,4772.407631751443,2,2,0.5497553944587708,4.12664270401001,1.692878790357316,0.970339201364411,6.747974782469314,3.519872973805086,3.24249267578125e-05,0.0923885703086853,0,0,0
486,16497.23962945489,2010-10-29 14:32:32,4802.422736232224,2,2,0.550297200679779,4.13004207611084,1.697465152898682,0.970339201364411,6.76690915729247,3.519872973805086,9.70840483205393e-05,0.0923885703086853,0,0,0
487,16527.254735108596,2010-10-29 14:33:02,4832.437841880918,2,2,0.550297200679779,4.133279800415039,1.702051545618803,0.970339201364411,6.785858290058342,3.519872973805086,6.47544875391759e-05,0.0923885703086853,0,0,0
488,16557.26997444548,2010-10-29 14:33:32,4862.453081358154,2,2,0.5499359965324402,4.136517524719238,1.706637923989649,0.970339201364411,6.804821945847175,3.519872973805086,9.70840483205393e-05,0.0923885703086853,0,0,0
489,16587.284984370603,2010-10-29 14:34:02,4892.468091173001,2,2,0.5501165986061096,4.1397552490234375,1.711224268586708,0.970339201364411,6.823800316239293,3.519872973805086,0.0001295089750783,0.0923885703086853,0,0,0
490,16617.3001138537,2010-10-29 14:34:32,4922.483220636046,2,2,0.5501165986061096,4.142992973327637,1.715810639134493,0.970339201364411,6.842793839245086,3.519872973805086,9.70840483205393e-05,0.0923885703086853,0,0,0
491,16647.31525862991,2010-10-29 14:35:02,4952.498365402233,2,2,0.5499359965324402,4.146069049835205,1.720397015118179,0.970339201364411,6.861802655735365,3.519872973805086,6.47544875391759e-05,0.0923885703086853,0,0,0
492,16677.330538156963,2010-10-29 14:35:32,4982.513644949336,2,2,0.5501165986061096,4.149630546569824,1.724983339499246,0.970339201364411,6.880826596831686,3.519872973805086,9.71794142969884e-05,0.0923885703086853,0,0,0
493,16707.345536037064,2010-10-29 14:36:02,5012.528642839462,2,2,0.5501165986061096,4.153029918670654,1.729569614844127,0.970339201364411,6.899865680543865,3.519872973805086,0.0001295089750783,0.0923885703086853,0,0,0
494,16737.360831293317,2010-10-29 14:36:32,5042.543938110753,2,2,0.5499359965324402,4.1562676429748535,1.734155897907339,0.970339201364411,6.918920187095816,3.519872973805086,3.23295607813634e-05,0.0923885703086853,0,0,0
495,16767.375830391455,2010-10-29 14:37:02,5072.558937203878,2,2,0.5501165986061096,4.159829139709473,1.738742169206268,0.970339201364411,6.937990209244343,3.519872973805086,9.70840483205393e-05,0.0923885703086853,0,0,0
496,16797.39095474677,2010-10-29 14:37:32,5102.574061529119,2,2,0.5501165986061096,4.163228988647461,1.743328584776734,0.970339201364411,6.957076593067678,3.519872973805086,9.71794142969884e-05,0.0923885703086853,0,0,0
497,16827.406097728508,2010-10-29 14:38:02,5132.5892045108585,2,2,0.5501165986061096,4.166628360748291,1.747915009724518,0.970339201364411,6.976178723487095,3.519872973805086,0.0001295089750783,0.0923885703086853,0,0,0
498,16857.421244720244,2010-10-29 14:38:32,5162.604351532666,2,2,0.550297200679779,4.17018985748291,1.752501323946086,0.970339201364411,6.995296308889576,3.519872973805086,0.0001295089750783,0.0923885703086853,0,0,0
499,16887.436965582237,2010-10-29 14:39:02,5192.620072359573,2,2,0.5501165986061096,4.173589706420898,1.757087752099616,0.970339201364411,7.014430455212922,3.519872973805086,9.71794142969884e-05,0.0923885703086853,0,0,0
500,16917.451518804115,2010-10-29 14:39:32,5222.634625581449,2,2,0.5501165986061096,4.177151203155518,1.761673999139674,0.970339201364411,7.033580041688786,3.519872973805086,3.24249267578125e-05,0.0923885703086853,0,0,0
501,16947.4666815451,2010-10-29 14:40:02,5252.649788317422,2,2,0.5499359965324402,4.180712699890137,1.766260303727914,0.970339201364411,7.052746251696162,3.519872973805086,6.47544875391759e-05,0.0923885703086853,0,0,0
502,16977.482324989145,2010-10-29 14:40:32,5282.66543188678,2,2,0.5499359965324402,4.184435844421387,1.770846740360693,0.970339201364411,7.071929514387966,3.519872973805086,0.0001295089750783,0.0923885703086853,0,0,0
503,17007.49697537318,2010-10-29 14:41:02,5312.680082155525,2,2,0.5501165986061096,4.187997341156006,1.775433001411658,0.970339201364411,7.091128471197769,3.519872973805086,6.47544875391759e-05,0.0923885703086853,0,0,0
504,17037.51213513173,2010-10-29 14:41:32,5342.695241909065,2,2,0.5499359965324402,4.191558837890625,1.780019368601481,0.970339201364411,7.110344489877122,3.519872973805086,9.70840483205393e-05,0.0923885703086853,0,0,0
505,17067.527225798083,2010-10-29 14:42:02,5372.710332570407,2,2,0.5499359965324402,4.195281982421875,1.784605731328812,0.970339201364411,7.12957707996864,3.519872973805086,0.0001294136018259,0.0923885703086853,0,0,0
506,17097.542371767267,2010-10-29 14:42:32,5402.725478544603,2,2,0.5501165986061096,4.198843479156494,1.789192082981526,0.970339201364411,7.148826170127008,3.519872973805086,0.0001295089750783,0.0923885703086853,0,0,0
507,17106.68286390614,2010-10-29 14:42:42,5411.8659706884855,2,2,0.5501165986061096,4.200138568878174,1.790588755300292,0.970339201364411,7.154691408959537,3.519872973805086,0.0001618385285837,0.0923885703086853,0,0,0
508,17136.697556270712,2010-10-29 14:43:12,30.015174379993216,3,2,0.0,4.110454082489014,1.790588755300292,0.970339201364411,7.154691408959537,3.519872973805086,-0.0003237724304199,0.0923885703086853,0,0,0
509,17166.71268871619,2010-10-29 14:43:42,60.03030683048521,3,2,0.0,4.098636627197266,1.790588755300292,0.970339201364411,7.154691408959537,3.519872973805086,-0.0002590179501567,0.0923885703086853,0,0,0
510,17196.727800445038,2010-10-29 14:44:12,90.04541855933249,3,2,0.0,4.091999053955078,1.790588755300292,0.970339201364411,7.154691408959537,3.519872973805086,-0.0001619339018361,0.0923885703086853,0,0,0
511,17226.69606830455,2010-10-29 14:44:42,120.01368641884388,3,2,0.0,4.087466239929199,1.790588755300292,0.970339201364411,7.154691408959537,3.519872973805086,-9.71794142969884e-05,0.0923885703086853,0,0,0
512,17226.711214833304,2010-10-29 14:44:42,0.015628135121379,4,2,0.9920675158500672,4.199814796447754,1.790593062013061,0.970339201364411,7.154709496355545,3.519872973805086,0.0,0.0923885703086853,0,0,0
513,17227.5549622966,2010-10-29 14:44:43,0.85937559841451,4,2,0.9420387744903564,4.199653148651123,1.790817983119561,0.970339201364411,7.155654106905647,3.519872973805086,-3.23295607813634e-05,0.0923885703086853,0,0,0
514,17229.742428184654,2010-10-29 14:44:45,3.04684152156143,4,2,0.8916487693786621,4.199653148651123,1.791373927209289,0.970339201364411,7.157988933910338,3.519872973805086,-3.23295607813634e-05,0.0923885703086853,0,0,0
515,17233.039238214653,2010-10-29 14:44:48,6.343651551559271,4,2,0.8414393663406372,4.199653148651123,1.792166337827877,0.970339201364411,7.1613168649126,3.519872973805086,-3.23295607813634e-05,0.0923885703086853,0,0,0
516,17237.60168770261,2010-10-29 14:44:53,10.90610100943891,4,2,0.7912300229072571,4.199976921081543,1.793199502652746,0.970339201364411,7.165655917539925,3.519872973805086,6.47544875391759e-05,0.0923885703086853,0,0,0
517,17243.523444036473,2010-10-29 14:44:59,16.827857343301766,4,2,0.7412012219429016,4.199653148651123,1.794458215487117,0.970339201364411,7.170942210207282,3.519872973805086,-3.23295607813634e-05,0.0923885703086853,0,0,0
518,17251.335844236586,2010-10-29 14:45:07,24.64025757850335,4,2,0.6909918785095215,4.199814796447754,1.7960100158946,0.970339201364411,7.177459410323869,3.519872973805086,3.23295607813634e-05,0.0923885703086853,0,0,0
519,17261.835736794575,2010-10-29 14:45:17,35.140150141506524,4,2,0.6406018733978271,4.199814796447754,1.79794858948586,0.970339201364411,7.185600986086051,3.519872973805086,0.0,0.0923885703086853,0,0,0
520,17276.58540935696,2010-10-29 14:45:32,49.88982268384281,4,2,0.5905730724334717,4.199814796447754,1.800465218582332,0.970339201364411,7.196170278986049,3.519872973805086,0.0,0.0923885703086853,0,0,0
521,17299.460045388303,2010-10-29 14:45:55,72.76445871518247,4,2,0.540544331073761,4.199653148651123,1.80404637435248,0.970339201364411,7.211210330096208,3.519872973805086,-3.23295607813634e-05,0.0923885703086853,0,0,0
522,17339.725147226345,2010-10-29 14:46:35,113.02956061838736,4,2,0.4905155599117279,4.199814796447754,1.809785514325645,0.970339201364411,7.235313442318956,3.519872973805086,3.23295607813634e-05,0.0923885703086853,0,0,0
523,17413.864704064155,2010-10-29 14:47:49,187.1691174110861,4,2,0.4404867887496948,4.199653148651123,1.819331164836804,0.970339201364411,7.275403010138935,3.519872973805086,0.0,0.0923885703086853,0,0,0
524,17525.378344853892,2010-10-29 14:49:41,298.68275817576114,4,2,0.3904580175876617,4.199814796447754,1.832170266901719,0.970339201364411,7.329324336155967,3.519872973805086,3.23295607813634e-05,0.0923885703086853,0,0,0
525,17662.626082877123,2010-10-29 14:51:58,435.9304961839508,4,2,0.3404292464256286,4.199653148651123,1.846082572866118,0.970339201364411,7.387752879834021,3.519872973805086,-3.23295607813634e-05,0.0923885703086853,0,0,0
526,17826.732809228564,2010-10-29 14:54:42,600.0372225253709,4,2,0.2904004752635956,4.199814796447754,1.860442298338081,0.970339201364411,7.448060478453513,3.519872973805086,0.0,0.0923885703086853,0,0,0
527,18026.6983238689,2010-10-29 14:58:02,800.0027371657053,4,2,0.240191102027893,4.199653148651123,1.875154749642085,0.970339201364411,7.50984952773352,3.519872973805086,-3.23295607813634e-05,0.0923885703086853,0,0,0
528,18276.866345999824,2010-10-29 15:02:12,1050.1707593467563,4,2,0.1901623308658599,4.199814796447754,1.890063633781879,0.970339201364411,7.572463650152084,3.519872973805086,0.0,0.0923885703086853,0,0,0
529,18605.032798979944,2010-10-29 15:07:40,1378.337212286776,4,2,0.1401335597038269,4.199653148651123,1.905027987093606,0.970339201364411,7.635310615999858,3.519872973805086,-3.23295607813634e-05,0.0923885703086853,0,0,0
530,19102.040377100027,2010-10-29 15:15:57,1875.3447905421976,4,2,0.0901047885417938,4.199814796447754,1.920683205071847,0.970339201364411,7.701059127879682,3.519872973805086,0.0,0.0923885703086853,0,0,0
531,19830.23188307685,2010-10-29 15:28:05,2603.536296393704,4,2,0.0498289167881011,4.199814796447754,1.934415863925266,0.970339201364411,7.758733317527598,3.519872973805086,0.0,0.0923885703086853,0,0,0
532,19860.247349893165,2010-10-29 15:28:36,30.015135578287424,5,2,0.0,4.191235065460205,1.934415863925266,0.970339201364411,7.758733317527598,3.519872973805086,-6.47544875391759e-05,0.0923885703086853,0,0,0
533,19890.24704555041,2010-10-29 15:29:06,60.01483124055338,5,2,0.0,4.1901021003723145,1.934415863925266,0.970339201364411,7.758733317527598,3.519872973805086,0.0,0.0923885703086853,0,0,0
534,19890.43587141735,2010-10-29 15:29:06,0.18755330554613,6,2,-1.9243103452026844e-05,4.1901021003723145,1.934415863925266,0.970339202366941,7.758733317527598,3.519872978005788,0.0,0.096440702676773,0,0,0
535,19895.26388229099,2010-10-29 15:29:11,5.015564269409914,6,2,0.0010644125286489,4.1901021003723145,1.934416796906968,0.970339202451227,7.758737226857321,3.519872978358958,-3.23295607813634e-05,0.096440702676773,0,0,0
536,19925.278486120456,2010-10-29 15:29:41,30.015122370369227,7,2,-1.0997490882873535,4.001181125640869,1.934416796906968,0.97950647838342,7.758737226857321,3.556764591706538,-0.0010037422180175,0.096440702676773,0,0,0
537,19955.293744830626,2010-10-29 15:30:11,60.0303810705142,7,2,-1.0993878841400146,3.971879959106445,1.934416796906968,0.98867364492616,7.758737226857321,3.593300604189627,-0.0006475448608398,0.096440702676773,0,0,0
538,19985.308852103368,2010-10-29 15:30:41,90.04548838335543,7,2,-1.099568486213684,3.9511585235595694,1.934416796906968,0.997840685261087,7.758737226857321,3.629610874892986,-0.0005180359003134,0.096440702676773,0,0,0
539,20015.32402145583,2010-10-29 15:31:11,120.06065769571856,7,2,-1.099568486213684,3.935293674468994,1.934416796906968,1.007007742693004,7.758737226857321,3.665755921099764,-0.0003561496851034,0.096440702676773,0,0,0
540,20045.33903397742,2010-10-29 15:31:41,150.07567020227336,7,2,-1.099568486213684,3.9221808910369873,1.934416796906968,1.016174784315184,7.758737226857321,3.701768953774462,-0.0003237724304199,0.096440702676773,0,0,0
541,20075.35431476762,2010-10-29 15:32:11,180.09095099748603,7,2,-1.099568486213684,3.910849094390869,1.934416796906968,1.025341931307372,7.758737226857321,3.737670878601068,-0.0002913951757363,0.096440702676773,0,0,0
542,20105.369542079537,2010-10-29 15:32:41,210.10617833947688,7,2,-1.099568486213684,3.9006502628326416,1.934416796906968,1.034509052723673,7.758737226857321,3.773474278404851,-0.0002590179501567,0.096440702676773,0,0,0
543,20135.38467475559,2010-10-29 15:33:11,240.12131099046857,7,2,-1.099568486213684,3.891098976135254,1.934416796906968,1.043676140827701,7.758737226857321,3.809186438706428,-0.0002266406954731,0.096440702676773,0,0,0
544,20165.399800153504,2010-10-29 15:33:41,270.1364364234708,7,2,-1.099568486213684,3.881709575653076,1.934416796906968,1.052843201422556,7.758737226857321,3.844812441644057,-0.0002590179501567,0.096440702676773,0,0,0
545,20195.414747091643,2010-10-29 15:34:11,300.1513833164965,7,2,-1.099568486213684,3.8726439476013184,1.934416796906968,1.062010226210354,7.758737226857321,3.88035463863433,-0.0002266406954731,0.096440702676773,0,0,0
546,20225.429906183537,2010-10-29 15:34:41,330.16654243846205,7,2,-1.0993878841400146,3.8640639781951904,1.934416796906968,1.071177345918756,7.758737226857321,3.915816844192207,-0.0002266406954731,0.096440702676773,0,0,0
547,20255.44502822809,2010-10-29 15:35:11,360.18166445294423,7,2,-1.099568486213684,3.8558077812194815,1.934416796906968,1.080344531141884,7.758737226857321,3.951200703734846,-0.0001942634553415,0.096440702676773,0,0,0
548,20285.46017251308,2010-10-29 15:35:41,390.1968087830438,7,2,-1.0993878841400146,3.8475515842437744,1.934416796906968,1.089511667413801,7.758737226857321,3.986508340653228,-0.0001942634553415,0.096440702676773,0,0,0
549,20315.475237179635,2010-10-29 15:36:11,420.211873404485,7,2,-1.0993878841400146,3.839457273483277,1.934416796906968,1.098678775615132,7.758737226857321,4.021741555266104,-0.0001942634553415,0.096440702676773,0,0,0
550,20345.49065388357,2010-10-29 15:36:41,450.227290148524,7,2,-1.0993878841400146,3.831525087356568,1.934416796906968,1.107845998682717,7.758737226857321,4.056901476352115,-0.0001942634553415,0.096440702676773,0,0,0
551,20375.5055137898,2010-10-29 15:37:11,480.2421500096394,7,2,-1.0993878841400146,3.8235926628112793,1.934416796906968,1.117013057356139,7.758737226857321,4.091989118210326,-0.0002590179501567,0.096440702676773,0,0,0
552,20405.52086972228,2010-10-29 15:37:41,510.2575059521423,7,2,-1.0993878841400146,3.815984010696411,1.934416796906968,1.126180271697396,7.758737226857321,4.127006439887655,-0.0002266406954731,0.096440702676773,0,0,0
553,20435.53588736664,2010-10-29 15:38:11,540.2725235914895,7,2,-1.099568486213684,3.808375358581543,1.934416796906968,1.135347343912195,7.758737226857321,4.161953257474353,-0.0002266406954731,0.096440702676773,0,0,0
554,20465.55105243843,2010-10-29 15:38:41,570.2876886733088,7,2,-1.099568486213684,3.8009285926818848,1.934416796906968,1.144514435306567,7.758737226857321,4.196831539037953,-0.0002266406954731,0.096440702676773,0,0,0
555,20495.56622457784,2010-10-29 15:39:11,600.3028608026929,7,2,-1.0993878841400146,3.7938055992126474,1.934416796906968,1.15368150092929,7.758737226857321,4.231642423070836,-0.0002266406954731,0.096440702676773,0,0,0
556,20525.58133798086,2010-10-29 15:39:41,630.3179742057126,7,2,-1.0993878841400146,3.786682605743408,1.934416796906968,1.162848525988227,7.758737226857321,4.266387814395577,-0.0002266406954731,0.096440702676773,0,0,0
557,20555.596562696304,2010-10-29 15:40:11,660.3331989562447,7,2,-1.0993878841400146,3.77972149848938,1.934416796906968,1.172015632066006,7.758737226857321,4.301068563635336,-0.0001942634553415,0.096440702676773,0,0,0
558,20585.611634054538,2010-10-29 15:40:41,690.3482703796385,7,2,-1.099568486213684,3.772760391235352,1.934416796906968,1.181182706823881,7.758737226857321,4.335685998890779,-0.0002266406954731,0.096440702676773,0,0,0
559,20615.6267305404,2010-10-29 15:41:11,720.3633667652457,7,2,-1.099568486213684,3.766284942626953,1.934416796906968,1.190349743500686,7.758737226857321,4.370242081531631,-0.0001618862152099,0.096440702676773,0,0,0
560,20645.64200024296,2010-10-29 15:41:41,750.3786364828496,7,2,-1.099568486213684,3.7599713802337646,1.934416796906968,1.199516907399031,7.758737226857321,4.404738676351476,-0.0001295089750783,0.096440702676773,0,0,0
561,20675.65713234759,2010-10-29 15:42:11,780.3937685824671,7,2,-1.099568486213684,3.753334045410156,1.934416796906968,1.208684057674643,7.758737226857321,4.439176321160617,-0.0001618862152099,0.096440702676773,0,0,0
562,20705.67216484898,2010-10-29 15:42:41,810.4088010738301,7,2,-1.099568486213684,3.747182607650757,1.934416796906968,1.217851111680565,7.758737226857321,4.473555698021498,-0.0001618862152099,0.096440702676773,0,0,0
563,20735.68743709789,2010-10-29 15:43:11,840.4240733377803,7,2,-1.099568486213684,3.741192817687988,1.934416796906968,1.227018253863023,7.758737226857321,4.507878996320566,-0.0001295089750783,0.096440702676773,0,0,0
564,20765.702455980336,2010-10-29 15:43:41,870.4390922603257,7,2,-1.0993878841400146,3.7350411415100098,1.934416796906968,1.236185391219269,7.758737226857321,4.542146423345195,-0.0001618862152099,0.096440702676773,0,0,0
565,20795.7176865604,2010-10-29 15:44:11,900.4543227852495,7,2,-1.0993878841400146,3.729051351547241,1.934416796906968,1.245352502875099,7.758737226857321,4.57635910462303,-0.0001942634553415,0.096440702676773,0,0,0
566,20825.732840880395,2010-10-29 15:44:41,930.4694771202844,7,2,-1.0993878841400146,3.7232234477996826,1.934416796906968,1.254519547361001,7.758737226857321,4.610517947550961,-0.0001618862152099,0.096440702676773,0,0,0
567,20855.74784132689,2010-10-29 15:45:11,960.4844775517444,7,2,-1.099568486213684,3.717395544052124,1.934416796906968,1.263686685213549,7.758737226857321,4.644623464710268,-0.0001618862152099,0.096440702676773,0,0,0
568,20885.76311661839,2010-10-29 15:45:41,990.4997528582776,7,2,-1.0993878841400146,3.711729526519776,1.934416796906968,1.272853899646345,7.758737226857321,4.678676001616416,-0.0001295089750783,0.096440702676773,0,0,0
569,20915.77825353,2010-10-29 15:46:11,1020.5148897598632,7,2,-1.0993878841400146,3.7062253952026367,1.934416796906968,1.282021070015369,7.758737226857321,4.712676744152302,-0.0001618862152099,0.096440702676773,0,0,0
570,20945.79330192099,2010-10-29 15:46:41,1050.529938140828,7,2,-1.099568486213684,3.700721263885498,1.934416796906968,1.291188190454163,7.758737226857321,4.746626651359112,-0.0001618862152099,0.096440702676773,0,0,0
571,20975.80861394403,2010-10-29 15:47:11,1080.5452502741448,7,2,-1.099568486213684,3.695379018783569,1.934416796906968,1.300355441155718,7.758737226857321,4.780527297449846,-0.0001295089750783,0.096440702676773,0,0,0
572,21005.82354226577,2010-10-29 15:47:41,1110.5601785206975,7,2,-1.0993878841400146,3.6901986598968506,1.934416796906968,1.30952251250383,7.758737226857321,4.814378150291303,-0.0001295089750783,0.096440702676773,0,0,0
573,21035.83881047461,2010-10-29 15:48:11,1140.575446704479,7,2,-1.0993878841400146,3.684856414794922,1.934416796906968,1.318689681677081,7.758737226857321,4.848181057471497,-9.713172767078504e-05,0.096440702676773,0,0,0
574,21065.854181058607,2010-10-29 15:48:41,1170.5908173385976,7,2,-1.099568486213684,3.679676055908203,1.934416796906968,1.327856897838335,7.758737226857321,4.881936470018196,-0.0001295089750783,0.096440702676773,0,0,0
575,21095.86897432876,2010-10-29 15:49:11,1200.605610578673,7,2,-1.0992072820663452,3.674495697021485,1.934416796906968,1.337023999444609,7.758737226857321,4.915644236132287,-0.0001295089750783,0.096440702676773,0,0,0
576,21125.88422876829,2010-10-29 15:49:41,1230.6208649981493,7,2,-1.099568486213684,3.6694774627685542,1.934416796906968,1.346191227308799,7.758737226857321,4.949306133617646,-0.0001295089750783,0.096440702676773,0,0,0
577,21155.899262036583,2010-10-29 15:50:11,1260.6358982614363,7,2,-1.099568486213684,3.664620876312256,1.934416796906968,1.355358423777834,7.758737226857321,4.982922556211793,-9.713172767078504e-05,0.096440702676773,0,0,0
578,21185.91438614127,2010-10-29 15:50:42,1290.651022366128,7,2,-1.0993878841400146,3.659764289855957,1.934416796906968,1.364525551623079,7.758737226857321,5.016493412158149,-0.0001295089750783,0.096440702676773,0,0,0
579,21215.92951748902,2010-10-29 15:51:12,1320.6661537138714,7,2,-1.0993878841400146,3.654907703399658,1.934416796906968,1.373692735362868,7.758737226857321,5.050020333152158,-9.713172767078504e-05,0.096440702676773,0,0,0
580,21245.94466476145,2010-10-29 15:51:42,1350.6813009863044,7,2,-1.099568486213684,3.650213003158569,1.934416796906968,1.382859872237421,7.758737226857321,5.083503449275947,-0.0001295089750783,0.096440702676773,0,0,0
581,21275.95980360789,2010-10-29 15:52:12,1380.696439832737,7,2,-1.0993878841400146,3.6456801891326895,1.934416796906968,1.392027063702134,7.758737226857321,5.116943879003281,-9.713172767078504e-05,0.096440702676773,0,0,0
582,21305.975056222866,2010-10-29 15:52:42,1410.7116924727782,7,2,-1.0993878841400146,3.6409854888916016,1.934416796906968,1.4011941825778,7.758737226857321,5.150341368231509,-9.713172767078504e-05,0.096440702676773,0,0,0
583,21335.990078659164,2010-10-29 15:53:12,1440.7267148840183,7,2,-1.099568486213684,3.636128902435303,1.934416796906968,1.410361327092262,7.758737226857321,5.183696604264631,-0.0001618862152099,0.096440702676773,0,0,0
584,21366.00522832256,2010-10-29 15:53:42,1470.7418645975354,7,2,-1.099568486213684,3.631757974624634,1.934416796906968,1.419528533387777,7.758737226857321,5.217010926763741,-0.0001942634553415,0.096440702676773,0,0,0
585,21396.020358477326,2010-10-29 15:54:12,1500.7569947021807,7,2,-1.099568486213684,3.627387046813965,1.934416796906968,1.428695671911704,7.758737226857321,5.250284474070826,-0.0001295089750783,0.096440702676773,0,0,0
586,21426.0355133888,2010-10-29 15:54:42,1530.7721496136523,7,2,-1.099568486213684,3.623016119003296,1.934416796906968,1.437862753786164,7.758737226857321,5.283518385998616,-0.0001295089750783,0.096440702676773,0,0,0
587,21456.05075583844,2010-10-29 15:55:12,1560.7873921084088,7,2,-1.0997490882873535,3.618968963623047,1.934416796906968,1.447030643352225,7.758737226857321,5.316716319261621,-0.0001295089750783,0.096440702676773,0,0,0
588,21486.06575087646,2010-10-29 15:55:42,1590.8023871063267,7,2,-1.0997490882873535,3.614759922027588,1.934416796906968,1.456198593909752,7.758737226857321,5.349876524829338,-0.0001295089750783,0.096440702676773,0,0,0
589,21516.080892058715,2010-10-29 15:56:12,1620.817528288581,7,2,-1.0993878841400146,3.610874652862549,1.934416796906968,1.46536646163139,7.758737226857321,5.382999090512836,-0.0001295089750783,0.096440702676773,0,0,0
590,21546.096047050385,2010-10-29 15:56:42,1650.8326832752398,7,2,-1.099568486213684,3.6069893836975098,1.934416796906968,1.474534417183957,7.758737226857321,5.416084948931762,-9.713172767078504e-05,0.096440702676773,0,0,0
591,21576.111190733875,2010-10-29 15:57:12,1680.8478269988277,7,2,-1.0997490882873535,3.6029422283172607,1.934416796906968,1.483702362263529,7.758737226857321,5.449134605976576,-9.713172767078504e-05,0.096440702676773,0,0,0
592,21606.12633142992,2010-10-29 15:57:42,1710.8629677850952,7,2,-1.099568486213684,3.599218845367432,1.934416796906968,1.49287037380848,7.758737226857321,5.482149235670582,-9.713172767078504e-05,0.096440702676773,0,0,0
593,21636.14145150957,2010-10-29 15:58:12,1740.8780877444551,7,2,-1.0993878841400146,3.5954954624176025,1.934416796906968,1.502037917174847,7.758737226857321,5.515127919292326,-6.47544875391759e-05,0.096440702676773,0,0,0
594,21666.156813311685,2010-10-29 15:58:42,1770.8934495716246,7,2,-1.0993878841400146,3.5917723178863525,1.934416796906968,1.511205123393813,7.758737226857321,5.548071906034857,-0.0001294612884521,0.096440702676773,0,0,0
595,21696.17172599945,2010-10-29 15:59:12,1800.9083622193004,7,2,-1.099568486213684,3.588372707366944,1.934416796906968,1.520372263337612,7.758737226857321,5.580982977790537,-9.713172767078504e-05,0.096440702676773,0,0,0
596,21726.18699179729,2010-10-29 15:59:42,1830.9236280371847,7,2,-1.0997490882873535,3.584811210632324,1.934416796906968,1.529539506722655,7.758737226857321,5.613862302085707,-9.713172767078504e-05,0.096440702676773,0,0,0
597,21756.2020121484,2010-10-29 16:00:12,1860.9386483732533,7,2,-1.099568486213684,3.581411600112915,1.934416796906968,1.538706615021567,7.758737226857321,5.646709986989793,-0.0001295089750783,0.096440702676773,0,0,0
598,21786.21717892444,2010-10-29 16:00:42,1890.9538151442828,7,2,-1.099568486213684,3.578335762023926,1.934416796906968,1.547873772659188,7.758737226857321,5.679526883350618,-6.47544875391759e-05,0.096440702676773,0,0,0
599,21816.232289695905,2010-10-29 16:01:12,1920.968925915744,7,2,-1.099568486213684,3.5749361515045166,1.934416796906968,1.557040989315415,7.758737226857321,5.712313290321411,-6.47544875391759e-05,0.096440702676773,0,0,0
600,21846.247431544816,2010-10-29 16:01:42,1950.984067769672,7,2,-1.0993878841400146,3.571374654769897,1.934416796906968,1.566208161771586,7.758737226857321,5.74506952427322,-0.0001295089750783,0.096440702676773,0,0,0
601,21876.26269293166,2010-10-29 16:02:12,1980.9993291615256,7,2,-1.099568486213684,3.568298816680908,1.934416796906968,1.57537536102394,7.758737226857321,5.777795991702148,-0.0001295089750783,0.096440702676773,0,0,0
602,21906.27772192932,2010-10-29 16:02:42,2011.0143581692064,7,2,-1.099568486213684,3.565222978591919,1.934416796906968,1.584542455446135,7.758737226857321,5.81049238456421,-6.47544875391759e-05,0.096440702676773,0,0,0
603,21936.29297293027,2010-10-29 16:03:12,2041.02960916515,7,2,-1.099568486213684,3.56198525428772,1.934416796906968,1.593709631013647,7.758737226857321,5.843160055158409,-9.713172767078504e-05,0.096440702676773,0,0,0
604,21966.308050769658,2010-10-29 16:03:42,2071.044686999522,7,2,-1.0997490882873535,3.5587475299835205,1.934416796906968,1.602876718392894,7.758737226857321,5.875799158930602,-9.713172767078504e-05,0.096440702676773,0,0,0
605,21996.323294372178,2010-10-29 16:04:12,2101.0599306321137,7,2,-1.099568486213684,3.5556716918945312,1.934416796906968,1.612043866187344,7.758737226857321,5.908409919471438,-9.713172767078504e-05,0.096440702676773,0,0,0
606,22026.338532105063,2010-10-29 16:04:42,2131.075168460239,7,2,-1.0993878841400146,3.552595853805542,1.934416796906968,1.621211001999091,7.758737226857321,5.940991995462145,-9.713172767078504e-05,0.096440702676773,0,0,0
607,22056.35357160389,2010-10-29 16:05:12,2161.0902078487925,7,2,-1.099568486213684,3.5495200157165527,1.934416796906968,1.630378123635538,7.758737226857321,5.973545688268787,-9.713172767078504e-05,0.096440702676773,0,0,0
608,22086.36855642144,2010-10-29 16:05:42,2191.105192646288,7,2,-1.0993878841400146,3.5464441776275635,1.934416796906968,1.639545213427284,7.758737226857321,6.006070842352697,-9.713172767078504e-05,0.096440702676773,0,0,0
609,22116.383687699006,2010-10-29 16:06:12,2221.1203239238566,7,2,-1.0997490882873535,3.543368339538574,1.934416796906968,1.648712406496152,7.758737226857321,6.038567803732632,-9.713172767078504e-05,0.096440702676773,0,0,0
610,22146.39883841501,2010-10-29 16:06:42,2251.1354746398715,7,2,-1.0993878841400146,3.540130615234375,1.934416796906968,1.657879564742886,7.758737226857321,6.071035767120166,-9.713172767078504e-05,0.096440702676773,0,0,0
611,22176.41396730163,2010-10-29 16:07:12,2281.150603556556,7,2,-1.099568486213684,3.536892890930176,1.934416796906968,1.667046773868632,7.758737226857321,6.103474762850587,-9.713172767078504e-05,0.096440702676773,0,0,0
612,22206.42912537097,2010-10-29 16:07:42,2311.165761600836,7,2,-1.099568486213684,3.5338170528411865,1.934416796906968,1.676214011950693,7.758737226857321,6.135884893003691,-9.713172767078504e-05,0.096440702676773,0,0,0
613,22236.44425014733,2010-10-29 16:08:12,2341.180886402264,7,2,-1.099568486213684,3.5305793285369877,1.934416796906968,1.685381172821781,7.758737226857321,6.168264840179944,-6.47544875391759e-05,0.096440702676773,0,0,0
614,22266.45962804456,2010-10-29 16:08:42,2371.1962643095094,7,2,-1.099568486213684,3.527179718017578,1.934416796906968,1.694548477845277,7.758737226857321,6.200615141372463,-0.0001295089750783,0.096440702676773,0,0,0
615,22296.474603313305,2010-10-29 16:09:12,2401.211239593294,7,2,-1.0993878841400146,3.523941993713379,1.934416796906968,1.703715633225152,7.758737226857321,6.23293451466297,-6.47544875391759e-05,0.096440702676773,0,0,0
616,22326.489667388385,2010-10-29 16:09:42,2431.2263036382983,7,2,-1.0993878841400146,3.52038049697876,1.934416796906968,1.712882820379577,7.758737226857321,6.265222588892629,-9.713172767078504e-05,0.096440702676773,0,0,0
617,22356.50481415957,2010-10-29 16:10:12,2461.2414504094822,7,2,-1.099568486213684,3.5169808864593506,1.934416796906968,1.722049971182393,7.758737226857321,6.297478976419317,-9.713172767078504e-05,0.096440702676773,0,0,0
618,22386.519964254032,2010-10-29 16:10:42,2491.256600478885,7,2,-1.0997490882873535,3.513257503509521,1.934416796906968,1.731217236315396,7.758737226857321,6.329702967483226,-0.0001295089750783,0.096440702676773,0,0,0
619,22416.53511289989,2010-10-29 16:11:12,2521.271749154817,7,2,-1.099568486213684,3.509372472763061,1.934416796906968,1.740384473596073,7.758737226857321,6.361892911456947,-0.0001295089750783,0.096440702676773,0,0,0
620,22446.550241596025,2010-10-29 16:11:42,2551.2868778258894,7,2,-1.0993878841400146,3.5056490898132324,1.934416796906968,1.749551725898652,7.758737226857321,6.394047853111609,-9.713172767078504e-05,0.096440702676773,0,0,0
621,22476.565408612663,2010-10-29 16:12:12,2581.302044837518,7,2,-1.0993878841400146,3.501440048217773,1.934416796906968,1.758718956988337,7.758737226857321,6.426165281210863,-0.0001295089750783,0.096440702676773,0,0,0
622,22506.580555273573,2010-10-29 16:12:42,2611.317191598677,7,2,-1.0997490882873535,3.4970691204071045,1.934416796906968,1.767886071213858,7.758737226857321,6.458242954572532,-9.713172767078504e-05,0.096440702676773,0,0,0
623,22536.5956738545,2010-10-29 16:13:12,2641.3323101094265,7,2,-1.099568486213684,3.492050647735596,1.934416796906968,1.777053246703507,7.758737226857321,6.490279064977991,-0.0001942634553415,0.096440702676773,0,0,0
624,22566.61080920221,2010-10-29 16:13:42,2671.34744545714,7,2,-1.0993878841400146,3.487355947494507,1.934416796906968,1.786220427333326,7.758737226857321,6.522270330072435,-0.0001295089750783,0.096440702676773,0,0,0
625,22596.625939412123,2010-10-29 16:14:12,2701.36257563196,7,2,-1.0993878841400146,3.481689929962158,1.934416796906968,1.79538761549561,7.758737226857321,6.554213111098737,-0.0001618862152099,0.096440702676773,0,0,0
626,22626.641177561043,2010-10-29 16:14:42,2731.3778137909094,7,2,-1.0993878841400146,3.4757001399993896,1.934416796906968,1.804554660211629,7.758737226857321,6.58610193784095,-0.0001295089750783,0.096440702676773,0,0,0
627,22656.65621094463,2010-10-29 16:15:12,2761.392847169484,7,2,-1.0993878841400146,3.4689009189605717,1.934416796906968,1.813721739523624,7.758737226857321,6.617932466174927,-0.0001618862152099,0.096440702676773,0,0,0
628,22686.67135048279,2010-10-29 16:15:42,2791.407986702628,7,2,-1.0992072820663452,3.461292266845703,1.934416796906968,1.822888872041302,7.758737226857321,6.649697871621084,-0.0001942634553415,0.096440702676773,0,0,0
629,22716.68661688212,2010-10-29 16:16:12,2821.4232531069747,7,2,-1.099568486213684,3.452712297439575,1.934416796906968,1.832056051996722,7.758737226857321,6.681389599955309,-0.0002266406954731,0.096440702676773,0,0,0
630,22746.70164584469,2010-10-29 16:16:42,2851.4382820695423,7,2,-1.0993878841400146,3.4426753520965576,1.934416796906968,1.841223211389761,7.758737226857321,6.712996445718881,-0.0002913951757363,0.096440702676773,0,0,0
631,22776.716774245087,2010-10-29 16:17:12,2881.453410500016,7,2,-1.099568486213684,3.4310197830200195,1.934416796906968,1.850390368176343,7.758737226857321,6.744505058090067,-0.0003561019839253,0.096440702676773,0,0,0
632,22806.73191441482,2010-10-29 16:17:42,2911.468550639672,7,2,-1.099568486213684,3.417097568511963,1.934416796906968,1.859557583433045,7.758737226857321,6.77589709998634,-0.0003885269106831,0.096440702676773,0,0,0
633,22836.747075000432,2010-10-29 16:18:12,2941.483711220272,7,2,-1.099568486213684,3.400261402130127,1.934416796906968,1.86872471454211,7.758737226857321,6.807148541568996,-0.0005180359003134,0.096440702676773,0,0,0
634,22866.76220782686,2010-10-29 16:18:42,2971.498844086801,7,2,-1.099568486213684,3.379539966583252,1.934416796906968,1.877891872970668,7.758737226857321,6.838228506716243,-0.0006151676061563,0.096440702676773,0,0,0
635,22896.777336949057,2010-10-29 16:19:12,3001.5139731739105,7,2,-1.099568486213684,3.3528287410736084,1.934416796906968,1.887059045741113,7.758737226857321,6.869092617954719,-0.0008418083307333,0.096440702676773,0,0,0
636,22926.792474747883,2010-10-29 16:19:42,3031.529111007819,7,2,-1.099568486213684,3.318185329437256,1.934416796906968,1.896226197826489,7.758737226857321,6.899677880704975,-0.0010360718006268,0.096440702676773,0,0,0
637,22956.807744209844,2010-10-29 16:20:12,3061.5443804397114,7,2,-1.0993878841400146,3.2707526683807373,1.934416796906968,1.90539330491734,7.758737226857321,6.929889979193566,-0.0014245987404137,0.096440702676773,0,0,0
638,22986.822981431465,2010-10-29 16:20:42,3091.559617756562,7,2,-1.099568486213684,3.2043795585632324,1.934416796906968,1.914560415655416,7.758737226857321,6.959587493958676,-0.0020397664047777,0.096440702676773,0,0,0
639,23016.83789946757,2010-10-29 16:21:12,3121.574535692418,7,2,-1.099568486213684,3.1059532165527344,1.934416796906968,1.923727519216127,7.758737226857321,6.988543050993917,-0.0031405449844896,0.096440702676773,0,0,0
640,23046.85305691536,2010-10-29 16:21:42,3151.5896931652733,7,2,-1.0993878841400146,2.935811281204224,1.934416796906968,1.932894697413078,7.758737226857321,7.016329564696211,-0.0061516286805272,0.096440702676773,0,0,0
641,23065.97771839127,2010-10-29 16:22:02,3170.714354606095,7,2,-1.099568486213684,2.73572039604187,1.934416796906968,1.938735763142251,7.758737226857321,7.032937037053894,-0.0098103042691946,0.096440702676773,0,0,0
642,23068.79018118392,2010-10-29 16:22:04,3173.526817418797,7,2,-1.0993878841400146,2.699781894683838,1.934416796906968,1.939594739885513,7.758737226857321,7.035271725690882,-0.0101340292021632,0.096440702676773,0,0,0
643,23128.804799521306,2010-10-29 16:23:05,60.01453303232672,8,2,0.0,3.3682079315185547,1.934416796906968,1.939594739885513,7.758737226857321,7.035271725690882,0.0013274669181555,0.096440702676773,0,0,0
644,23128.99336419715,2010-10-29 16:23:05,0.187519651670317,9,2,-1.9243103452026844e-05,3.3683698177337646,1.934416796906968,1.939594740887863,7.758737226857321,7.035271729067167,0.0,0.0931989923119545,0,0,0
645,23133.821515064697,2010-10-29 16:23:10,5.015670504179647,9,2,0.0007031940040178,3.3763022422790527,1.934417717367796,1.939594741054879,7.758740331536492,7.035271729629738,0.0011332035064697,0.0931989923119545,0,0,0
