Data_Point,Test_Time(s),Date_Time,Step_Time(s),Step_Index,Cycle_Index,Current(A),Voltage(V),Charge_Capacity(Ah),Discharge_Capacity(Ah),Charge_Energy(Wh),Discharge_Energy(Wh),dV/dt(V/s),Internal_Resistance(Ohm),Is_FC_Data,AC_Impedance(Ohm),ACI_Phase_Angle(Deg)
1,30.00125364167254,2010-10-29 09:58:03,29.937718836947468,1,1,0.0,3.652155637741089,0.0,0.0,0.0,0.0,0.0,0.0,0,0,0
2,60.016398909108304,2010-10-29 09:58:33,59.95286409435824,1,1,0.0,3.652155637741089,0.0,0.0,0.0,0.0,-3.237724376958795e-05,0.0,0,0,0
3,90.03230728845375,2010-10-29 09:59:03,89.968772609041,1,1,0.0,3.652317523956299,0.0,0.0,0.0,0.0,-3.237724376958795e-05,0.0,0,0,0
4,120.04671069193628,2010-10-29 09:59:34,119.98317593733611,1,1,0.0,3.652317523956299,0.0,0.0,0.0,0.0,-3.237724376958795e-05,0.0,0,0,0
5,120.07797473655518,2010-10-29 09:59:34,120.01443997694254,1,1,0.0,3.652155637741089,0.0,0.0,0.0,0.0,0.0,0.0,0,0,0
6,150.09313191684976,2010-10-29 10:00:04,30.01474670910577,2,1,0.5501165986061096,3.769846439361572,0.004586373646233,0.0,0.017217546083732,0.0,0.0007122993702068,0.0,0,0,0
7,180.10827605146218,2010-10-29 10:00:34,60.02989081364324,2,1,0.5501165986061096,3.788949012756348,0.009172785010312,0.0,0.034555546481484,0.0,0.0003885269106831,0.0,0,0,0
8,210.1234112838876,2010-10-29 10:01:04,90.04502604606867,2,1,0.5499359965324402,3.798338413238525,0.013759196876338,0.0,0.051957428395665,0.0,0.0001295089750783,0.0,0,0,0
9,240.1386148917256,2010-10-29 10:01:34,120.06022965891916,2,1,0.5499359965324402,3.803842544555664,0.018345605569477,0.0,0.069392273894232,0.0,9.713172767078504e-05,0.0,0,0,0
10,270.1537031470697,2010-10-29 10:02:04,150.0753178741633,2,1,0.5501165986061096,3.807727813720703,0.022931972425998,0.0,0.086847647463179,0.0,9.713172767078504e-05,0.0,0,0,0
11,300.1688445799486,2010-10-29 10:02:34,180.09045931706714,2,1,0.5501165986061096,3.811127424240112,0.027518354318479,0.0,0.104319510589384,0.0,6.47544875391759e-05,0.0,0,0,0
12,330.18397520088075,2010-10-29 10:03:04,210.1055899630618,2,1,0.5501165986061096,3.814365148544312,0.032104692375925,0.0,0.121806147852176,0.0,6.47544875391759e-05,0.0,0,0,0
13,360.1991295960657,2010-10-29 10:03:34,240.12074435323424,2,1,0.550297200679779,3.817602872848511,0.036691051812567,0.0,0.139307264538217,0.0,0.0001295089750783,0.0,0,0,0
14,390.2142874248081,2010-10-29 10:04:04,270.1359021869891,2,1,0.550297200679779,3.82051682472229,0.041277415390481,0.0,0.156822186938128,0.0,0.0001295089750783,0.0,0,0,0
15,420.2293959406475,2010-10-29 10:04:34,300.15101072789105,2,1,0.5501165986061096,3.8232688903808594,0.045863806220827,0.0,0.174350722311041,0.0,6.47544875391759e-05,0.0,0,0,0
16,450.2445607868797,2010-10-29 10:05:04,330.1661755540732,2,1,0.550297200679779,3.8263447284698486,0.050450130235291,0.0,0.191892224511185,0.0,9.713172767078504e-05,0.0,0,0,0
17,480.25968583392,2010-10-29 10:05:34,360.18130057103855,2,1,0.550297200679779,3.829096794128418,0.055036391424372,0.0,0.209446417748845,0.0,9.713172767078504e-05,0.0,0,0,0
18,510.27485844951576,2010-10-29 10:06:04,390.19647321169685,2,1,0.5501165986061096,3.831686973571777,0.05962276226738,0.0,0.227013822330265,0.0,3.237724376958795e-05,0.0,0,0,0
19,540.2899662385439,2010-10-29 10:06:34,420.2115810007249,2,1,0.5501165986061096,3.8342769145965576,0.064209132128346,0.0,0.244593668260116,0.0,3.237724376958795e-05,0.0,0,0,0
20,570.3053180607777,2010-10-29 10:07:04,450.2269328229587,2,1,0.5501165986061096,3.837190866470337,0.068795476490226,0.0,0.262185873905217,0.0,6.47544875391759e-05,0.0,0,0,0
21,600.3202561819412,2010-10-29 10:07:34,480.24187096918473,2,1,0.5501165986061096,3.839781045913696,0.073381829740519,0.0,0.279790464209252,0.0,6.47544875391759e-05,0.0,0,0,0
22,630.3368406011862,2010-10-29 10:08:04,510.25845537339217,2,1,0.5501165986061096,3.8425331115722656,0.077968384455131,0.0,0.297408197991099,0.0,6.47544875391759e-05,0.0,0,0,0
23,660.3512606260942,2010-10-29 10:08:34,540.2728755186002,2,1,0.5501165986061096,3.845123291015625,0.08255464527461,0.0,0.315037130515842,0.0,6.47544875391759e-05,0.0,0,0,0
24,690.3656815983637,2010-10-29 10:09:04,570.2872963605447,2,1,0.5499359965324402,3.8478753566741934,0.087140819311102,0.0,0.332678282422568,0.0,3.237724376958795e-05,0.0,0,0,0
25,720.3808686048259,2010-10-29 10:09:34,600.302483336932,2,1,0.5501165986061096,3.8507893085479736,0.0917272109346,0.0,0.350333062350603,0.0,6.47544875391759e-05,0.0,0,0,0
26,750.3959850905286,2010-10-29 10:10:04,630.3175998527098,2,1,0.550297200679779,3.853541374206543,0.096313597430283,0.0,0.368000888914249,0.0,6.47544875391759e-05,0.0,0,0,0
27,780.4110999371466,2010-10-29 10:10:34,660.3327147143651,2,1,0.550297200679779,3.856617212295532,0.100899884554223,0.0,0.385681697782644,0.0,6.47544875391759e-05,0.0,0,0,0
28,810.4262424827987,2010-10-29 10:11:04,690.3478572449799,2,1,0.550297200679779,3.8596930503845215,0.10548621888669,0.0,0.403376293446146,0.0,9.713172767078504e-05,0.0,0,0,0
29,840.4416142798159,2010-10-29 10:11:34,720.363229052022,2,1,0.550297200679779,3.862768888473511,0.110072585637992,0.0,0.421084728777427,0.0,0.0001295089750783,0.0,0,0,0
30,870.4565371078643,2010-10-29 10:12:04,750.3781519001203,2,1,0.550297200679779,3.86568284034729,0.114658890485836,0.0,0.438806608874273,0.0,0.0001295089750783,0.0,0,0,0
31,900.4716754580602,2010-10-29 10:12:34,780.3932902202412,2,1,0.5501165986061096,3.868596792221069,0.119245208318548,0.0,0.456542225020151,0.0,9.713172767078504e-05,0.0,0,0,0
32,930.4868311414556,2010-10-29 10:13:04,810.4084459036368,2,1,0.5499359965324402,3.8715107440948486,0.12383155767339,0.0,0.474291453108407,0.0,9.713172767078504e-05,0.0,0,0,0
33,960.5019962332998,2010-10-29 10:13:34,840.4236110606436,2,1,0.5501165986061096,3.874424695968628,0.128417912336985,0.0,0.492054077323646,0.0,9.713172767078504e-05,0.0,0,0,0
34,990.517114949562,2010-10-29 10:14:04,870.4387296866806,2,1,0.5501165986061096,3.877176761627197,0.133004278381727,0.0,0.509829903196466,0.0,9.713172767078504e-05,0.0,0,0,0
35,1020.53223474351,2010-10-29 10:14:34,900.4538494906536,2,1,0.5499359965324402,3.879928827285767,0.137590599639769,0.0,0.527618619884213,0.0,6.47544875391759e-05,0.0,0,0,0
36,1050.5473940860252,2010-10-29 10:15:04,930.469008823144,2,1,0.5501165986061096,3.882680892944336,0.142176897276371,0.0,0.54542003094103,0.0,3.237724376958795e-05,0.0,0,0,0
37,1080.5625494636588,2010-10-29 10:15:34,960.4841642609274,2,1,0.5501165986061096,3.885432958602905,0.146763270574124,0.0,0.563234251023133,0.0,3.237724376958795e-05,0.0,0,0,0
38,1110.5778809301598,2010-10-29 10:16:04,990.499495662266,2,1,0.5501165986061096,3.8880231380462646,0.151349718851024,0.0,0.581060825869811,0.0,3.237724376958795e-05,0.0,0,0,0
39,1140.5928386601947,2010-10-29 10:16:34,1020.5144534223756,2,1,0.5501165986061096,3.890775203704834,0.155936019248162,0.0,0.598898490603004,0.0,9.713172767078504e-05,0.0,0,0,0
40,1170.6079545042985,2010-10-29 10:17:04,1050.5295692664797,2,1,0.5499359965324402,3.893041610717773,0.160522289693909,0.0,0.616747190494753,0.0,6.47544875391759e-05,0.0,0,0,0
41,1200.623095536178,2010-10-29 10:17:34,1080.544710268284,2,1,0.5501165986061096,3.894984245300293,0.16510865415372,0.0,0.634606772109277,0.0,6.47544875391759e-05,0.0,0,0,0
42,1230.6383922711173,2010-10-29 10:18:04,1110.5600070483358,2,1,0.550297200679779,3.897250652313232,0.169694994074855,0.0,0.65247591342051,0.0,6.47544875391759e-05,0.0,0,0,0
43,1260.653374356854,2010-10-29 10:18:34,1140.5749891190353,2,1,0.5501165986061096,3.899193286895752,0.174281320730327,0.0,0.670354499992197,0.0,6.47544875391759e-05,0.0,0,0,0
44,1290.6687127004952,2010-10-29 10:19:04,1170.5903274476386,2,1,0.5501165986061096,3.9009740352630615,0.178867779111055,0.0,0.688242391552095,0.0,3.237724376958795e-05,0.0,0,0,0
45,1320.68365836546,2010-10-29 10:19:34,1200.6052731025786,2,1,0.5499359965324402,3.902754783630371,0.183454094708056,0.0,0.706137918550911,0.0,3.237724376958795e-05,0.0,0,0,0
46,1350.698833372015,2010-10-29 10:20:04,1230.620448134196,2,1,0.5501165986061096,3.904373645782471,0.188040443490316,0.0,0.724041241814984,0.0,3.237724376958795e-05,0.0,0,0,0
47,1380.7140940119946,2010-10-29 10:20:34,1260.6357087541255,2,1,0.5501165986061096,3.9059925079345694,0.192626855603322,0.0,0.741951882861463,0.0,3.237724376958795e-05,0.0,0,0,0
48,1410.7292065879533,2010-10-29 10:21:04,1290.6508213250715,2,1,0.5501165986061096,3.90728759765625,0.197213209401194,0.0,0.759869045999307,0.0,0.0,0.0,0,0,0
49,1440.744220337606,2010-10-29 10:21:34,1320.6658350997873,2,1,0.5499359965324402,3.90874457359314,0.201799533418232,0.0,0.777792420112423,0.0,6.47544875391759e-05,0.0,0,0,0
50,1470.759369735336,2010-10-29 10:22:04,1350.6809844975169,2,1,0.5499359965324402,3.90987777709961,0.206385911398235,0.0,0.795722101053408,0.0,0.0,0.0,0,0,0
51,1500.7746296535165,2010-10-29 10:22:34,1380.6962444056726,2,1,0.5501165986061096,3.911172866821289,0.210972321443934,0.0,0.813657741769664,0.0,0.0,0.0,0,0,0
52,1530.7897782041348,2010-10-29 10:23:04,1410.7113929813534,2,1,0.5501165986061096,3.9124679565429688,0.215558692790058,0.0,0.831598969901509,0.0,3.237724376958795e-05,0.0,0,0,0
53,1560.8048040539452,2010-10-29 10:23:34,1440.7264188161264,2,1,0.5501165986061096,3.913762807846069,0.22014504610507,0.0,0.849545731278194,0.0,6.470680091297254e-05,0.0,0,0,0
54,1590.8199362588252,2010-10-29 10:24:04,1470.741551026019,2,1,0.5501165986061096,3.914896011352539,0.224731430014186,0.0,0.867498224029743,0.0,0.0,0.0,0,0,0
55,1620.8352903116183,2010-10-29 10:24:34,1500.7569050637744,2,1,0.5499359965324402,3.916029214859009,0.229317871456955,0.0,0.885456331690009,0.0,0.0,0.0,0,0,0
56,1650.8502841115503,2010-10-29 10:25:04,1530.7718989689688,2,1,0.5501165986061096,3.9171624183654794,0.233904212650948,0.0,0.903419658467822,0.0,0.0,0.0,0,0,0
57,1680.865353885834,2010-10-29 10:25:35,1560.7869686730774,2,1,0.5499359965324402,3.918457508087158,0.238490591990706,0.0,0.921388696580296,0.0,0.0,0.0,0,0,0
58,1710.880634440447,2010-10-29 10:26:05,1590.8022491825782,2,1,0.5501165986061096,3.919752597808838,0.243076928695629,0.0,0.939363151897993,0.0,3.237724376958795e-05,0.0,0,0,0
59,1740.8956458843534,2010-10-29 10:26:35,1620.8172606465344,2,1,0.5499359965324402,3.920885801315308,0.247663266145578,0.0,0.957343237241672,0.0,0.0,0.0,0,0,0
60,1770.9107945452467,2010-10-29 10:27:05,1650.8324093124404,2,1,0.5501165986061096,3.922342777252197,0.252249581496545,0.0,0.975328837013863,0.0,6.47544875391759e-05,0.0,0,0,0
61,1800.9259202088235,2010-10-29 10:27:35,1680.8475349760172,2,1,0.5499359965324402,3.923475980758667,0.256835953304264,0.0,0.993320440073917,0.0,3.237724376958795e-05,0.0,0,0,0
62,1830.941077812004,2010-10-29 10:28:05,1710.862692599247,2,1,0.550297200679779,3.9247710704803462,0.261422279089844,0.0,1.011317590328065,0.0,3.237724376958795e-05,0.0,0,0,0
63,1860.9562017462708,2010-10-29 10:28:35,1740.8778164783769,2,1,0.5501165986061096,3.925904273986816,0.266008656378108,0.0,1.029320856141692,0.0,3.237724376958795e-05,0.0,0,0,0
64,1890.9713471139564,2010-10-29 10:29:05,1770.8929618460625,2,1,0.5501165986061096,3.927361249923706,0.27059500923454,0.0,1.047329778568166,0.0,6.47544875391759e-05,0.0,0,0,0
65,1920.9866437436333,2010-10-29 10:29:35,1800.9082586010518,2,1,0.5497553944587708,3.928494453430176,0.275181374658796,0.0,1.065344765862294,0.0,3.237724376958795e-05,0.0,0,0,0
66,1951.0018597874653,2010-10-29 10:30:05,1830.9234746198213,2,1,0.550297200679779,3.9301133155822754,0.279768558207527,0.0,1.083368962450911,0.0,6.47544875391759e-05,0.0,0,0,0
67,1981.0167906756024,2010-10-29 10:30:35,1860.9384054127213,2,1,0.550297200679779,3.931246519088745,0.284355738591021,0.0,1.101399216550115,0.0,6.47544875391759e-05,0.0,0,0,0
68,2011.0319429855904,2010-10-29 10:31:05,1890.9535577227089,2,1,0.5499359965324402,3.932541608810425,0.28894210938568,0.0,1.11943223817957,0.0,6.47544875391759e-05,0.0,0,0,0
69,2041.047307604718,2010-10-29 10:31:35,1920.9689224922115,2,1,0.5499359965324402,3.9336748123168954,0.293528559072645,0.0,1.137471780694237,0.0,-3.237724376958795e-05,0.0,0,0,0
70,2071.062432100384,2010-10-29 10:32:05,1950.9840468375023,2,1,0.550297200679779,3.935455560684204,0.298114963377688,0.0,1.155517368217521,0.0,6.47544875391759e-05,0.0,0,0,0
71,2101.0775217542136,2010-10-29 10:32:35,1980.9991364963448,2,1,0.5499359965324402,3.936426877975464,0.302701414655006,0.0,1.173569316216728,0.0,3.237724376958795e-05,0.0,0,0,0
72,2131.092502526677,2010-10-29 10:33:05,2011.0141172938709,2,1,0.5499359965324402,3.9378838539123535,0.307287688663673,0.0,1.191626841614916,0.0,0.0,0.0,0,0,0
73,2161.107649463273,2010-10-29 10:33:35,2041.0292642304669,2,1,0.5501165986061096,3.939502716064453,0.31187402640147,0.0,1.209691002289008,0.0,9.713172767078504e-05,0.0,0,0,0
74,2191.1228212417827,2010-10-29 10:34:05,2071.044436003964,2,1,0.5501165986061096,3.940797805786133,0.316460316983809,0.0,1.227761420097328,0.0,3.237724376958795e-05,0.0,0,0,0
75,2221.1379172915526,2010-10-29 10:34:35,2101.0595320537336,2,1,0.5499359965324402,3.942092895507813,0.321046694762558,0.0,1.245838575345516,0.0,3.237724376958795e-05,0.0,0,0,0
76,2251.153072864673,2010-10-29 10:35:05,2131.0746877170795,2,1,0.5501165986061096,3.943711757659912,0.325633042009825,0.0,1.26392212063533,0.0,9.713172767078504e-05,0.0,0,0,0
77,2281.168304557508,2010-10-29 10:35:35,2161.089919394876,2,1,0.5499359965324402,3.945006847381592,0.330219398726794,0.0,1.282012245268181,0.0,0.0,0.0,0,0,0
78,2311.183361359461,2010-10-29 10:36:05,2191.104976121642,2,1,0.5501165986061096,3.9464638233184814,0.334805770695589,0.0,1.300109084850387,0.0,0.0,0.0,0,0,0
79,2341.1985023261773,2010-10-29 10:36:35,2221.1201170883587,2,1,0.550297200679779,3.947920799255371,0.339392145273071,0.0,1.318212419359793,0.0,3.237724376958795e-05,0.0,0,0,0
80,2371.2136602401324,2010-10-29 10:37:05,2251.1352750023134,2,1,0.5499359965324402,3.949215888977051,0.343978546585439,0.0,1.336322662904137,0.0,0.0,0.0,0,0,0
81,2401.2287953522577,2010-10-29 10:37:35,2281.150410114439,2,1,0.550297200679779,3.95099663734436,0.348564889307291,0.0,1.354439435162336,0.0,6.47544875391759e-05,0.0,0,0,0
82,2431.243931882919,2010-10-29 10:38:05,2311.1655466451,2,1,0.5501165986061096,3.95245361328125,0.353151286653289,0.0,1.372563258949071,0.0,3.237724376958795e-05,0.0,0,0,0
83,2461.2590612206527,2010-10-29 10:38:35,2341.180675987847,2,1,0.5501165986061096,3.9537487030029297,0.357737682542837,0.0,1.390693953801713,0.0,0.0,0.0,0,0,0
84,2491.274454952338,2010-10-29 10:39:05,2371.1960698197813,2,1,0.5499359965324402,3.9552056789398193,0.362324065231173,0.0,1.408831443269035,0.0,0.0,0.0,0,0,0
85,2521.2893349987617,2010-10-29 10:39:35,2401.210949760942,2,1,0.5501165986061096,3.956824541091919,0.366910416323689,0.0,1.426975835192087,0.0,3.237724376958795e-05,0.0,0,0,0
86,2551.3045158799578,2010-10-29 10:40:05,2431.226130622089,2,1,0.5499359965324402,3.958605289459229,0.371496780122806,0.0,1.445127127541001,0.0,6.47544875391759e-05,0.0,0,0,0
87,2581.3196187818057,2010-10-29 10:40:35,2461.2412335439863,2,1,0.5501165986061096,3.960062265396118,0.376083166007381,0.0,1.463285702510436,0.0,3.237724376958795e-05,0.0,0,0,0
88,2611.3348057782428,2010-10-29 10:41:05,2491.256420540424,2,1,0.550297200679779,3.961843013763428,0.380669571090326,0.0,1.481451469778856,0.0,9.713172767078504e-05,0.0,0,0,0
89,2641.3500280425787,2010-10-29 10:41:35,2521.271642784709,2,1,0.5501165986061096,3.963299989700317,0.385255975644453,0.0,1.499624370793913,0.0,6.47544875391759e-05,0.0,0,0,0
90,2671.365064543936,2010-10-29 10:42:05,2551.286679306117,2,1,0.5501165986061096,3.964756965637207,0.389842364064346,0.0,1.517804500500188,0.0,3.237724376958795e-05,0.0,0,0,0
91,2701.380184889258,2010-10-29 10:42:35,2581.3017996263766,2,1,0.5501165986061096,3.9662139415740967,0.39442874210202,0.0,1.53599186302105,0.0,3.237724376958795e-05,0.0,0,0,0
92,2731.3954592033174,2010-10-29 10:43:05,2611.317073955473,2,1,0.5499359965324402,3.967832803726196,0.399015198805327,0.0,1.554186892336404,0.0,0.0,0.0,0,0,0
93,2761.410683838562,2010-10-29 10:43:35,2641.3322985857058,2,1,0.5501165986061096,3.969613552093506,0.403601608106099,0.0,1.572389122262953,0.0,3.237724376958795e-05,0.0,0,0,0
94,2791.425633468409,2010-10-29 10:44:05,2671.347248205528,2,1,0.5499359965324402,3.971070528030396,0.408188101127169,0.0,1.5905991083203,0.0,3.237724376958795e-05,0.0,0,0,0
95,2821.4407742145763,2010-10-29 10:44:35,2701.3623889516957,2,1,0.5497553944587708,3.972689390182495,0.412774522593533,0.0,1.608816370730228,0.0,-3.237724376958795e-05,0.0,0,0,0
96,2851.455907597392,2010-10-29 10:45:05,2731.3775223645857,2,1,0.5499359965324402,3.9744701385498047,0.417360914353606,0.0,1.627041024508029,0.0,6.47544875391759e-05,0.0,0,0,0
97,2881.4710339677304,2010-10-29 10:45:35,2761.3926487048493,2,1,0.550297200679779,3.976250886917114,0.421947323781232,0.0,1.645273419620793,0.0,6.47544875391759e-05,0.0,0,0,0
98,2911.4862239516137,2010-10-29 10:46:05,2791.4078387137943,2,1,0.5499359965324402,3.977707862854004,0.426533798613622,0.0,1.663513768312632,0.0,0.0,0.0,0,0,0
99,2941.501326176775,2010-10-29 10:46:35,2821.422940938955,2,1,0.5501165986061096,3.979650497436523,0.431120163132456,0.0,1.681760909100536,0.0,9.713172767078504e-05,0.0,0,0,0
100,2971.5164692086387,2010-10-29 10:47:05,2851.438083945757,2,1,0.5501165986061096,3.981269359588623,0.435706456763396,0.0,1.700016036554782,0.0,3.237724376958795e-05,0.0,0,0,0
101,3001.5316130174388,2010-10-29 10:47:35,2881.45322775957,2,1,0.5499359965324402,3.982888221740722,0.440292756863963,0.0,1.718279053016285,0.0,3.237724376958795e-05,0.0,0,0,0
102,3031.546982323247,2010-10-29 10:48:05,2911.468597060365,2,1,0.550297200679779,3.984668970108032,0.444879059796013,0.0,1.736550011848839,0.0,3.237724376958795e-05,0.0,0,0,0
103,3061.5619195571994,2010-10-29 10:48:35,2941.4835342993306,2,1,0.5501165986061096,3.986449718475342,0.449465278606283,0.0,1.754828708267932,0.0,0.0,0.0,0,0,0
104,3091.577025897617,2010-10-29 10:49:05,2971.498640664811,2,1,0.5501165986061096,3.9882304668426514,0.454051474172861,0.0,1.773115320806326,0.0,6.47544875391759e-05,0.0,0,0,0
105,3121.592168959556,2010-10-29 10:49:35,3001.513783696674,2,1,0.5499359965324402,3.989849328994751,0.458637645865218,0.0,1.791409812553285,0.0,6.47544875391759e-05,0.0,0,0,0
106,3151.6074535141383,2010-10-29 10:50:05,3031.529068356519,2,1,0.5499359965324402,3.9917919635772714,0.46322382711071,0.0,1.809712521987687,0.0,6.47544875391759e-05,0.0,0,0,0
107,3181.622454065898,2010-10-29 10:50:35,3061.54406880803,2,1,0.5501165986061096,3.99341082572937,0.467809990473993,0.0,1.828023413917111,0.0,0.0,0.0,0,0,0
108,3211.6377415678257,2010-10-29 10:51:05,3091.5593563550697,2,1,0.5499359965324402,3.995353221893311,0.47239624353277,0.0,1.846342941223849,0.0,6.47544875391759e-05,0.0,0,0,0
109,3241.6527543199927,2010-10-29 10:51:35,3121.5743690621243,2,1,0.5501165986061096,3.99729585647583,0.476982537989585,0.0,1.864671092981074,0.0,6.47544875391759e-05,0.0,0,0,0
110,3271.6680423883327,2010-10-29 10:52:05,3151.589657130464,2,1,0.5501165986061096,3.99907660484314,0.481568896903269,0.0,1.883007944302329,0.0,6.47544875391759e-05,0.0,0,0,0
111,3301.683015667119,2010-10-29 10:52:35,3181.604630404238,2,1,0.5501165986061096,4.000857353210449,0.486155098783544,0.0,1.901352810527089,0.0,3.23295607813634e-05,0.0,0,0,0
112,3331.698166869347,2010-10-29 10:53:05,3211.619781606465,2,1,0.5501165986061096,4.002799987792969,0.490741335429738,0.0,1.91970650561823,0.0,6.47544875391759e-05,0.0,0,0,0
113,3361.7134453688377,2010-10-29 10:53:35,3241.635060151069,2,1,0.5501165986061096,4.004742622375488,0.49532766102687,0.0,1.938069291634112,0.0,6.47544875391759e-05,0.0,0,0,0
114,3391.7284480057947,2010-10-29 10:54:05,3271.650062767976,2,1,0.550297200679779,4.006847381591797,0.499913903121626,0.0,1.95644063606585,0.0,6.47544875391759e-05,0.0,0,0,0
115,3421.7435782357525,2010-10-29 10:54:35,3301.665192997933,2,1,0.5499359965324402,4.008627891540527,0.504500132963429,0.0,1.974820954421792,0.0,3.23295607813634e-05,0.0,0,0,0
116,3451.758863762758,2010-10-29 10:55:05,3331.680478610152,2,1,0.5501165986061096,4.010732650756836,0.509086388461648,0.0,1.993210415762717,0.0,3.24249267578125e-05,0.0,0,0,0
117,3481.7738582093016,2010-10-29 10:55:35,3361.6954729714826,2,1,0.550297200679779,4.012836933135986,0.513672655696423,0.0,2.011609221807697,0.0,9.70840483205393e-05,0.0,0,0,0
118,3511.789009526816,2010-10-29 10:56:05,3391.7106242639347,2,1,0.5499359965324402,4.014779567718506,0.518258983300373,0.0,2.030017700207636,0.0,6.47544875391759e-05,0.0,0,0,0
119,3541.8042646179665,2010-10-29 10:56:35,3421.7258793600977,2,1,0.5501165986061096,4.016884326934815,0.522845253682499,0.0,2.048435498702157,0.0,6.47544875391759e-05,0.0,0,0,0
120,3571.819283335,2010-10-29 10:57:05,3451.7408980721184,2,1,0.5501165986061096,4.018988609313965,0.527431509590867,0.0,2.06686295439266,0.0,6.47544875391759e-05,0.0,0,0,0
121,3601.834429439522,2010-10-29 10:57:36,3481.756044201703,2,1,0.5501165986061096,4.021255016326904,0.532017792062101,0.0,2.085300161686524,0.0,6.47544875391759e-05,0.0,0,0,0
122,3631.849700881424,2010-10-29 10:58:06,3511.771315633579,2,1,0.5501165986061096,4.023359775543213,0.536604056760873,0.0,2.103747292024388,0.0,9.71794142969884e-05,0.0,0,0,0
123,3661.864745112044,2010-10-29 10:58:36,3541.7863598591875,2,1,0.5499359965324402,4.025302410125732,0.541190236262583,0.0,2.122204068131888,0.0,3.24249267578125e-05,0.0,0,0,0
124,3691.8798542744944,2010-10-29 10:59:06,3571.801469016626,2,1,0.5499359965324402,4.027568817138672,0.545776602552298,0.0,2.140671664074624,0.0,3.24249267578125e-05,0.0,0,0,0
125,3721.895110613756,2010-10-29 10:59:36,3601.816725395987,2,1,0.5501165986061096,4.029996871948242,0.550362868516315,0.0,2.159148950945485,0.0,9.70840483205393e-05,0.0,0,0,0
126,3751.910119541392,2010-10-29 11:00:06,3631.831734278509,2,1,0.5499359965324402,4.032263278961182,0.554949057103701,0.0,2.177636173567121,0.0,6.47544875391759e-05,0.0,0,0,0
127,3781.925250904172,2010-10-29 11:00:36,3661.8468656663526,2,1,0.5501165986061096,4.034529685974121,0.559535246845975,0.0,2.196133816155493,0.0,6.47544875391759e-05,0.0,0,0,0
128,3811.9404301362574,2010-10-29 11:01:06,3691.8620448834017,2,1,0.5501165986061096,4.0367960929870605,0.564121457066762,0.0,2.214641929401343,0.0,6.47544875391759e-05,0.0,0,0,0
129,3841.955577829741,2010-10-29 11:01:36,3721.8771925668593,2,1,0.5504778623580933,4.039224147796631,0.568707748312845,0.0,2.233160993821057,0.0,0.0001295089750783,0.0,0,0,0
130,3871.9707413727247,2010-10-29 11:02:06,3751.892356159968,2,1,0.5499359965324402,4.04132890701294,0.573294104152853,0.0,2.251690985025751,0.0,6.47544875391759e-05,0.0,0,0,0
131,3901.9858596428735,2010-10-29 11:02:36,3781.907474405056,2,1,0.5501165986061096,4.043919086456299,0.577880397423558,0.0,2.270231534823407,0.0,6.47544875391759e-05,0.0,0,0,0
132,3932.001260793049,2010-10-29 11:03:06,3811.922875545205,2,1,0.5501165986061096,4.046185493469238,0.582466765480339,0.0,2.288783229432272,0.0,6.47544875391759e-05,0.0,0,0,0
133,3962.016154012302,2010-10-29 11:03:36,3841.937768784509,2,1,0.5499359965324402,4.048613548278809,0.587053008077637,0.0,2.307345330960737,0.0,6.47544875391759e-05,0.0,0,0,0
134,3992.0314987669226,2010-10-29 11:04:06,3871.953113604291,2,1,0.5501165986061096,4.050879955291748,0.591639367802704,0.0,2.325918871099066,0.0,6.47544875391759e-05,0.0,0,0,0
135,4022.046425239053,2010-10-29 11:04:36,3901.968040026296,2,1,0.5501165986061096,4.053308486938477,0.596225666914946,0.0,2.34450318442819,0.0,6.47544875391759e-05,0.0,0,0,0
136,4052.0615711180126,2010-10-29 11:05:06,3931.983185855131,2,1,0.5501165986061096,4.055736541748047,0.600811945351044,0.0,2.363098612545962,0.0,3.23295607813634e-05,0.0,0,0,0
137,4082.076735041946,2010-10-29 11:05:36,3961.998349779065,2,1,0.5499359965324402,4.058326721191406,0.605398271556694,0.0,2.38170560731431,0.0,6.47544875391759e-05,0.0,0,0,0
138,4112.091920208824,2010-10-29 11:06:06,3992.0135350662417,2,1,0.5501165986061096,4.060755252838135,0.609984610490435,0.0,2.400324171041959,0.0,3.24249267578125e-05,0.0,0,0,0
139,4142.107051646792,2010-10-29 11:06:36,4022.028666439048,2,1,0.5501165986061096,4.063345432281494,0.614570913232495,0.0,2.418953733185011,0.0,9.71794142969884e-05,0.0,0,0,0
140,4172.122188563415,2010-10-29 11:07:06,4052.043803335621,2,1,0.5497553944587708,4.0657734870910645,0.619157110289726,0.0,2.43759461344004,0.0,6.47544875391759e-05,0.0,0,0,0
141,4202.137338898481,2010-10-29 11:07:36,4082.058953755899,2,1,0.5499359965324402,4.068363666534424,0.623743395628697,0.0,2.456247614475367,0.0,0.0,0.0,0,0,0
142,4232.152504030425,2010-10-29 11:08:06,4112.074118887844,2,1,0.5497553944587708,4.070953845977783,0.62832969488475,0.0,2.474912594631978,0.0,9.70840483205393e-05,0.0,0,0,0
143,4262.167624215348,2010-10-29 11:08:36,4142.089239072766,2,1,0.5499359965324402,4.073544025421143,0.63291589932695,0.0,2.493589094142022,0.0,3.23295607813634e-05,0.0,0,0,0
144,4292.182967641656,2010-10-29 11:09:06,4172.10458248905,2,1,0.5499359965324402,4.076296329498291,0.637502186685241,0.0,2.512278098815985,0.0,6.47544875391759e-05,0.0,0,0,0
145,4322.197914384307,2010-10-29 11:09:36,4202.119529241726,2,1,0.5499359965324402,4.079048156738281,0.642088487357002,0.0,2.530979353405026,0.0,6.47544875391759e-05,0.0,0,0,0
146,4352.213087816939,2010-10-29 11:10:06,4232.134702674357,2,1,0.5501165986061096,4.081638336181641,0.646674878208694,0.0,2.549693322877595,0.0,9.70840483205393e-05,0.0,0,0,0
147,4382.228171776577,2010-10-29 11:10:36,4262.14978660392,2,1,0.5501165986061096,4.084390640258789,0.651261189514444,0.0,2.568419371475343,0.0,6.47544875391759e-05,0.0,0,0,0
148,4412.243437338824,2010-10-29 11:11:06,4292.165052196243,2,1,0.5499359965324402,4.087142467498779,0.655847540620722,0.0,2.587158209560895,0.0,9.70840483205393e-05,0.0,0,0,0
149,4442.258459454328,2010-10-29 11:11:36,4322.1800743117465,2,1,0.5501165986061096,4.089894771575928,0.66043381827185,0.0,2.605909421799081,0.0,6.47544875391759e-05,0.0,0,0,0
150,4472.273748279554,2010-10-29 11:12:06,4352.195363136972,2,1,0.5501165986061096,4.092646598815918,0.665020153912887,0.0,2.624673618067558,0.0,6.47544875391759e-05,0.0,0,0,0
151,4502.288770986531,2010-10-29 11:12:36,4382.2103858690125,2,1,0.5499359965324402,4.095398902893066,0.669606388042633,0.0,2.643450263858326,0.0,3.24249267578125e-05,0.0,0,0,0
152,4532.303888214083,2010-10-29 11:13:06,4412.2255030715005,2,1,0.5501165986061096,4.098474502563477,0.674192700882326,0.0,2.662240319324757,0.0,9.70840483205393e-05,0.0,0,0,0
153,4562.319022895134,2010-10-29 11:13:36,4442.240637752552,2,1,0.5501165986061096,4.101226806640625,0.678779036771372,0.0,2.681043637426231,0.0,6.47544875391759e-05,0.0,0,0,0
154,4592.334332406917,2010-10-29 11:14:06,4472.255947244285,2,1,0.5499359965324402,4.104302406311035,0.683365422429923,0.0,2.6998604380797,0.0,9.70840483205393e-05,0.0,0,0,0
155,4622.349298227116,2010-10-29 11:14:36,4502.270912989296,2,1,0.5501165986061096,4.107216358184815,0.68795165028688,0.0,2.71869006438179,0.0,9.70840483205393e-05,0.0,0,0,0
156,4652.364444471987,2010-10-29 11:15:06,4532.286059324393,2,1,0.5501165986061096,4.110130310058594,0.692537995091669,0.0,2.737533675257521,0.0,6.47544875391759e-05,0.0,0,0,0
157,4682.37989973202,2010-10-29 11:15:36,4562.301514599463,2,1,0.5501165986061096,4.113044261932373,0.697124359211536,0.0,2.756391044895603,0.0,0.0,0.0,0,0,0
158,4712.394768550459,2010-10-29 11:16:06,4592.31638349309,2,1,0.550297200679779,4.116119861602783,0.701710519683089,0.0,2.775261284736686,0.0,6.47544875391759e-05,0.0,0,0,0
159,4742.40999456414,2010-10-29 11:16:36,4622.331609431583,2,1,0.5501165986061096,4.1190338134765625,0.706296769258152,0.0,2.794145809769539,0.0,9.70840483205393e-05,0.0,0,0,0
160,4772.425013632048,2010-10-29 11:17:06,4652.346628459392,2,1,0.5501165986061096,4.122109889984131,0.71088301340854,0.0,2.81304437643167,0.0,3.24249267578125e-05,0.0,0,0,0
161,4802.440160628794,2010-10-29 11:17:36,4682.3617754862125,2,1,0.5501165986061096,4.12534761428833,0.715469258174354,0.0,2.83195694181877,0.0,6.47544875391759e-05,0.0,0,0,0
162,4832.455317690625,2010-10-29 11:18:06,4712.3769325480425,2,1,0.5499359965324402,4.128261566162109,0.720055624104547,0.0,2.850884326602369,0.0,6.47544875391759e-05,0.0,0,0,0
163,4862.470441770253,2010-10-29 11:18:36,4742.392056627672,2,1,0.5501165986061096,4.131499290466309,0.724641940295785,0.0,2.86982596968781,0.0,3.24249267578125e-05,0.0,0,0,0
164,4892.4855981604105,2010-10-29 11:19:06,4772.407213017828,2,1,0.5501165986061096,4.134898662567139,0.729228323102225,0.0,2.888782406278226,0.0,0.0001295089750783,0.0,0,0,0
165,4922.50090195294,2010-10-29 11:19:36,4802.422516830408,2,1,0.5501165986061096,4.138136386871338,0.733814716215043,0.0,2.90775352438529,0.0,9.70840483205393e-05,0.0,0,0,0
166,4952.516090453125,2010-10-29 11:20:06,4832.437705310543,2,1,0.5501165986061096,4.141212463378906,0.738401110146939,0.0,2.926739388886371,0.0,9.71794142969884e-05,0.0,0,0,0
167,4982.531072503774,2010-10-29 11:20:36,4862.45268739628,2,1,0.5501165986061096,4.1444501876831055,0.742987486648183,0.0,2.945739905837578,0.0,0.0001295089750783,0.0,0,0,0
168,5012.546149801809,2010-10-29 11:21:06,4892.467764659228,2,1,0.550297200679779,4.147849559783936,0.747573784795331,0.0,2.964755362120589,0.0,9.70840483205393e-05,0.0,0,0,0
169,5042.56141627633,2010-10-29 11:21:36,4922.483031143774,2,1,0.550297200679779,4.151249408721924,0.752160113860802,0.0,2.983786020543283,0.0,0.0001295089750783,0.0,0,0,0
170,5072.576444231388,2010-10-29 11:22:06,4952.498059088805,2,1,0.550297200679779,4.154487133026123,0.756746458273913,0.0,3.002831954240239,0.0,9.71794142969884e-05,0.0,0,0,0
171,5102.591572030286,2010-10-29 11:22:36,4982.51318679748,2,1,0.5501165986061096,4.157724857330322,0.7613326899087,0.0,3.021892636104872,0.0,9.71794142969884e-05,0.0,0,0,0
172,5132.607033931872,2010-10-29 11:23:06,5012.528648799315,2,1,0.5499359965324402,4.1609625816345215,0.765919033714655,0.0,3.040969213508331,0.0,6.47544875391759e-05,0.0,0,0,0
173,5162.621865903479,2010-10-29 11:23:36,5042.543480760896,2,1,0.5501165986061096,4.164361953735352,0.770505269919064,0.0,3.060060834770411,0.0,6.47544875391759e-05,0.0,0,0,0
174,5192.637020308688,2010-10-29 11:24:06,5072.558635166107,2,1,0.5499359965324402,4.167923450469971,0.775091542258719,0.0,3.079168203423493,0.0,6.47544875391759e-05,0.0,0,0,0
175,5222.652144648966,2010-10-29 11:24:36,5102.57375947631,2,1,0.5499359965324402,4.17148494720459,0.779677836180411,0.0,3.098291543840178,0.0,0.0001295089750783,0.0,0,0,0
176,5252.667290197102,2010-10-29 11:25:06,5132.588905054521,2,1,0.5501165986061096,4.174722671508789,0.784264104077036,0.0,3.117430661156492,0.0,6.47544875391759e-05,0.0,0,0,0
177,5282.6824269032,2010-10-29 11:25:36,5162.604041730544,2,1,0.5501165986061096,4.178284168243408,0.788850373977486,0.0,3.136585775234387,0.0,6.47544875391759e-05,0.0,0,0,0
178,5312.69759868171,2010-10-29 11:26:06,5192.619213539128,2,1,0.5501165986061096,4.181845664978027,0.793436636648272,0.0,3.155757042989526,0.0,6.47544875391759e-05,0.0,0,0,0
179,5342.712766375038,2010-10-29 11:26:36,5222.634381232457,2,1,0.5499359965324402,4.185407161712647,0.798022975268176,0.0,3.174944948558428,0.0,9.70840483205393e-05,0.0,0,0,0
180,5372.72797725099,2010-10-29 11:27:06,5252.649592118433,2,1,0.5501165986061096,4.189130783081055,0.802609241995558,0.0,3.194148869789042,0.0,0.0001295089750783,0.0,0,0,0
181,5402.743115470861,2010-10-29 11:27:36,5282.664730338304,2,1,0.5501165986061096,4.192692279815674,0.807195484723501,0.0,3.213369184157688,0.0,0.0001295089750783,0.0,0,0,0
182,5432.758162067379,2010-10-29 11:28:06,5312.679776924797,2,1,0.5501165986061096,4.196253299713135,0.811781761216256,0.0,3.232606078723098,0.0,9.70840483205393e-05,0.0,0,0,0
183,5462.773431584483,2010-10-29 11:28:36,5342.695046451926,2,1,0.5499359965324402,4.199976921081543,0.816368010388113,0.0,3.251859479584344,0.0,0.0001295089750783,0.0,0,0,0
184,5463.476349271642,2010-10-29 11:28:37,5343.397964038835,2,1,0.550297200679779,4.200138568878174,0.816475418634783,0.0,3.252310588061646,0.0,9.70840483205393e-05,0.0,0,0,0
185,5493.491642282674,2010-10-29 11:29:07,30.01501219076776,3,1,0.0,4.110130310058594,0.816475418634783,0.0,3.252310588061646,0.0,-0.0004209518374409,0.0,0,0,0
186,5523.506925393658,2010-10-29 11:29:37,60.03029540200191,3,1,0.0,4.0989603996276855,0.816475418634783,0.0,3.252310588061646,0.0,-0.0002265930233988,0.0,0,0,0
187,5553.521928346402,2010-10-29 11:30:07,90.04529825950831,3,1,0.0,4.091837406158447,0.816475418634783,0.0,3.252310588061646,0.0,-0.0001618385285837,0.0,0,0,0
188,5583.4901919803815,2010-10-29 11:30:37,120.0135618834634,3,1,0.0,4.087790012359619,0.816475418634783,0.0,3.252310588061646,0.0,-6.47544875391759e-05,0.0,0,0,0
189,5583.490476593118,2010-10-29 11:30:38,2.801983405e-06,4,1,0.9947766661643982,4.199491024017334,0.816475419409047,0.0,3.252310591313158,0.0,0.0,0.0,0,0,0
190,5584.318720426596,2010-10-29 11:30:38,0.828246620423209,4,1,0.9445672631263732,4.199653148651123,0.816696827141167,0.0,3.253240445497239,0.0,3.24249267578125e-05,0.0,0,0,0
191,5586.459195118135,2010-10-29 11:30:40,2.968721306949628,4,1,0.894177258014679,4.199814796447754,0.817242281492163,0.0,3.255531225339767,0.0,6.47544875391759e-05,0.0,0,0,0
192,5589.724743674922,2010-10-29 11:30:44,6.234269858724821,4,1,0.8437873125076294,4.199814796447754,0.81802952186152,0.0,3.258837448267459,0.0,3.23295607813634e-05,0.0,0,0,0
193,5594.24042353357,2010-10-29 11:30:48,10.749949727397514,4,1,0.7937585115432739,4.199653148651123,0.819055275430531,0.0,3.263145381044071,0.0,-3.23295607813634e-05,0.0,0,0,0
194,5600.130836876055,2010-10-29 11:30:54,16.64036306988186,4,1,0.7435491681098938,4.199814796447754,0.820311152531739,0.0,3.268419757087027,0.0,0.0,0.0,0,0,0
195,5607.802840364364,2010-10-29 11:31:02,24.31236667849101,4,1,0.6935203671455383,4.199814796447754,0.821840428953001,0.0,3.274842368963328,0.0,0.0,0.0,0,0,0
196,5618.177444038906,2010-10-29 11:31:12,34.68697023273389,4,1,0.6434916257858276,4.199814796447754,0.823763612537997,0.0,3.282919315871628,0.0,3.23295607813634e-05,0.0,0,0,0
197,5632.677215129934,2010-10-29 11:31:27,49.186741408973134,4,1,0.5934628248214722,4.199653148651123,0.826248372749746,0.0,3.29335475588355,0.0,-3.23295607813634e-05,0.0,0,0,0
198,5655.114314775975,2010-10-29 11:31:49,71.62384098985163,4,1,0.5434340834617615,4.199814796447754,0.829779067943354,0.0,3.308182909024957,0.0,0.0,0.0,0,0,0
199,5694.754321965816,2010-10-29 11:32:29,111.263848179694,4,1,0.4932246804237366,4.199653148651123,0.835460291590642,0.0,3.332042840338399,0.0,-3.23295607813634e-05,0.0,0,0,0
200,5768.034422288543,2010-10-29 11:33:42,184.5439485074339,4,1,0.4431959092617035,4.199653148651123,0.844948243951955,0.0,3.371890142176617,0.0,-3.23295607813634e-05,0.0,0,0,0
201,5878.720097192535,2010-10-29 11:35:33,295.2296234064129,4,1,0.3931671380996704,4.199814796447754,0.85777668273936,0.0,3.425766778346909,0.0,3.23295607813634e-05,0.0,0,0,0
202,6015.483510905558,2010-10-29 11:37:50,431.9930370993862,4,1,0.3431383967399597,4.199653148651123,0.871752536244243,0.0,3.484462387059243,0.0,0.0,0.0,0,0,0
203,6179.949427148734,2010-10-29 11:40:34,596.4589533425615,4,1,0.2929289937019348,4.199653148651123,0.886272342726279,0.0,3.545441572688007,0.0,0.0,0.0,0,0,0
204,6383.024305705676,2010-10-29 11:43:57,799.5338318944908,4,1,0.2429002374410629,4.199814796447754,0.901374334366615,0.0,3.608866544212106,0.0,0.0,0.0,0,0,0
205,6636.879579281743,2010-10-29 11:48:11,1053.3891054705575,4,1,0.1928714662790298,4.199653148651123,0.916681626428646,0.0,3.673153789816537,0.0,0.0,0.0,0,0,0
206,6973.639769669709,2010-10-29 11:53:48,1390.149295863537,4,1,0.1426620930433273,4.199653148651123,0.932279477010152,0.0,3.738661281024567,0.0,-3.23295607813634e-05,0.0,0,0,0
207,7473.94420334325,2010-10-29 12:02:08,1890.4537295320647,4,1,0.0924527049064636,4.199653148651123,0.948423016615205,0.0,3.806460506289364,0.0,-3.23295607813634e-05,0.0,0,0,0
208,8267.572055108032,2010-10-29 12:15:22,2684.0815813319346,4,1,0.0498289167881011,4.199814796447754,0.963635699252641,0.0,3.870350330597833,0.0,0.0,0.0,0,0,0
209,8297.587891418592,2010-10-29 12:15:52,30.01510702211666,5,1,0.0,4.191397190093994,0.963635699252641,0.0,3.870350330597833,0.0,-3.23295607813634e-05,0.0,0,0,0
210,8327.587410034605,2010-10-29 12:16:22,60.01462566820383,5,1,0.0,4.1901021003723145,0.963635699252641,0.0,3.870350330597833,0.0,-3.23295607813634e-05,0.0,0,0,0
211,8327.775873943792,2010-10-29 12:16:22,0.187737404377063,6,1,-1.9243103452026844e-05,4.1901021003723145,0.963635699252641,1.003514e-09,3.870350330597833,4.204826e-09,0.0,0.0965279787778854,0,0,0
212,8332.60368674377,2010-10-29 12:16:27,5.015550058993183,6,1,0.0008838032954372,4.189939975738525,0.963636653747686,1.087538e-09,3.870354330085572,4.556896e-09,-6.47544875391759e-05,0.0965279787778854,0,0,0
213,8362.619692093082,2010-10-29 12:16:57,30.01521047495296,7,1,-1.099568486213684,4.001667022705078,0.963636653747686,0.00916718867899,3.870354330085572,0.036894825057847,-0.0010360718006268,0.0965279787778854,0,0,0
214,8392.63472871975,2010-10-29 12:17:27,60.03024711164749,7,1,-1.0993878841400146,3.972527503967285,0.963636653747686,0.018334292954653,3.870354330085572,0.073435521241547,-0.0006151676061563,0.0965279787778854,0,0,0
215,8422.649904713766,2010-10-29 12:17:57,90.04542308060088,7,1,-1.0993878841400146,3.95212984085083,0.963636653747686,0.027501308779771,3.870354330085572,0.109752263430648,-0.0004532813909463,0.0965279787778854,0,0,0
216,8452.665031109167,2010-10-29 12:18:27,120.06054947600173,7,1,-1.099568486213684,3.936264991760254,0.963636653747686,0.036668413090301,3.870354330085572,0.145905899499209,-0.0003885269106831,0.0965279787778854,0,0,0
217,8482.680299292948,2010-10-29 12:18:57,150.0758176698078,7,1,-1.099568486213684,3.923314094543457,0.963636653747686,0.045835505386765,3.870354330085572,0.181929345914386,-0.0003237724304199,0.0965279787778854,0,0,0
218,8512.695342611294,2010-10-29 12:19:27,180.09086101823007,7,1,-1.099568486213684,3.911982297897339,0.963636653747686,0.055002578051376,3.870354330085572,0.217841874635975,-0.0002913951757363,0.0965279787778854,0,0,0
219,8542.710696904687,2010-10-29 12:19:57,210.10621531663529,7,1,-1.0993878841400146,3.901621580123901,0.963636653747686,0.064169657374365,3.870354330085572,0.253655243078527,-0.0002590179501567,0.0965279787778854,0,0,0
220,8572.72560502107,2010-10-29 12:20:27,240.12112338790524,7,1,-1.099568486213684,3.8920702934265137,0.963636653747686,0.0733366268132,3.870354330085572,0.289377179027907,-0.0002590179501567,0.0965279787778854,0,0,0
221,8602.74076594252,2010-10-29 12:20:57,270.1362843193806,7,1,-1.0992072820663452,3.883004665374756,0.963636653747686,0.082503658899243,3.870354330085572,0.325013464591523,-0.0002590179501567,0.0965279787778854,0,0,0
222,8632.75588608233,2010-10-29 12:21:27,300.1514044491656,7,1,-1.0993878841400146,3.873939037322998,0.963636653747686,0.091670709447416,3.870354330085572,0.360567130926204,-0.0002266406954731,0.0965279787778854,0,0,0
223,8662.771035755748,2010-10-29 12:21:57,330.16655412258245,7,1,-1.0997490882873535,3.86519718170166,0.963636653747686,0.100837796588178,3.870354330085572,0.396040253955293,-0.0002266406954731,0.0965279787778854,0,0,0
224,8692.786238075376,2010-10-29 12:22:27,360.1817564722848,7,1,-1.099568486213684,3.856779098510742,0.963636653747686,0.11000494205447,3.870354330085572,0.431435811055842,-0.0002590179501567,0.0965279787778854,0,0,0
225,8722.80130909777,2010-10-29 12:22:57,390.1968274696167,7,1,-1.0993878841400146,3.848846673965454,0.963636653747686,0.119172082564761,3.870354330085572,0.466754670187276,-0.0001618862152099,0.0965279787778854,0,0,0
226,8752.816590499495,2010-10-29 12:23:27,420.21210888136585,7,1,-1.099568486213684,3.840428590774536,0.963636653747686,0.128339263850651,3.870354330085572,0.501998705249467,-0.0002590179501567,0.0965279787778854,0,0,0
227,8782.831598539917,2010-10-29 12:23:57,450.2271169368272,7,1,-1.0993878841400146,3.832658290863037,0.963636653747686,0.137505665638436,3.870354330085572,0.537166461363122,-0.0001942157687153,0.0965279787778854,0,0,0
228,8812.846715632131,2010-10-29 12:24:27,480.2422339989666,7,1,-1.0993878841400146,3.824887752532959,0.963636653747686,0.146672054141057,3.870354330085572,0.572263008561011,-0.0002266406954731,0.0965279787778854,0,0,0
229,8842.861852488606,2010-10-29 12:24:57,510.25737085543966,7,1,-1.0993878841400146,3.817440986633301,0.963636653747686,0.155838510593984,3.870354330085572,0.607289960405629,-0.0001618862152099,0.0965279787778854,0,0,0
230,8872.876994553057,2010-10-29 12:25:27,540.2725129148802,7,1,-1.099568486213684,3.8098323345184326,0.963636653747686,0.165004739344529,3.870354330085572,0.642246332268007,-0.0001942634553415,0.0965279787778854,0,0,0
231,8902.892145985861,2010-10-29 12:25:57,570.2876643526944,7,1,-1.0992072820663452,3.802547454833984,0.963636653747686,0.174171081893786,3.870354330085572,0.677134557575011,-0.0001942634553415,0.0965279787778854,0,0,0
232,8932.90728217066,2010-10-29 12:26:27,600.3028005324809,7,1,-1.0993878841400146,3.795262575149536,0.963636653747686,0.183337352251063,3.870354330085572,0.711956326033341,-0.0001942634553415,0.0965279787778854,0,0,0
233,8962.922418576009,2010-10-29 12:26:57,630.3179369378297,7,1,-1.0993878841400146,3.788301467895508,0.963636653747686,0.192504044472784,3.870354330085572,0.746714546601771,-0.0001942634553415,0.0965279787778854,0,0,0
234,8992.93769376224,2010-10-29 12:27:27,660.333212164163,7,1,-1.0993878841400146,3.78134036064148,0.963636653747686,0.201671002566542,3.870354330085572,0.781409899028404,-0.0001618862152099,0.0965279787778854,0,0,0
235,9022.952905996575,2010-10-29 12:27:57,690.3484244937382,7,1,-1.099568486213684,3.774541139602661,0.963636653747686,0.210838001340556,3.870354330085572,0.816042474011713,-0.0001942634553415,0.0965279787778854,0,0,0
236,9052.967850664058,2010-10-29 12:28:27,720.3633690308924,7,1,-1.099568486213684,3.7679038047790527,0.963636653747686,0.220004908567255,3.870354330085572,0.850613583303194,-0.0001942634553415,0.0965279787778854,0,0,0
237,9082.98311456717,2010-10-29 12:28:57,750.3786329490423,7,1,-1.099568486213684,3.7614283561706543,0.963636653747686,0.229171958655108,3.870354330085572,0.885125104802761,-0.0001618862152099,0.0965279787778854,0,0,0
238,9112.998132953378,2010-10-29 12:29:27,780.3936513352511,7,1,-1.0993878841400146,3.754952907562256,0.963636653747686,0.238338858962534,3.870354330085572,0.919576008078419,-0.0001618862152099,0.0965279787778854,0,0,0
239,9143.013285544066,2010-10-29 12:29:57,810.4088039159135,7,1,-1.0997490882873535,3.748477697372437,0.963636653747686,0.247505872846919,3.870354330085572,0.953968378380115,-0.0001942634553415,0.0965279787778854,0,0,0
240,9173.02842652582,2010-10-29 12:30:27,840.4239448926556,7,1,-1.099568486213684,3.742326021194458,0.963636653747686,0.256672848970356,3.870354330085572,0.988303953868621,-0.0001942634553415,0.0965279787778854,0,0,0
241,9203.043582675378,2010-10-29 12:30:57,870.439101072288,7,1,-1.099568486213684,3.7364981174468994,0.963636653747686,0.265839803704408,3.870354330085572,1.022583141828611,-0.0001618862152099,0.0965279787778854,0,0,0
242,9233.058839876789,2010-10-29 12:31:27,900.4543582887351,7,1,-1.099568486213684,3.730508327484131,0.963636653747686,0.275006759374759,3.870354330085572,1.056807695002435,-0.0001618862152099,0.0965279787778854,0,0,0
243,9263.074059965702,2010-10-29 12:31:57,930.4695784277736,7,1,-1.0993878841400146,3.724680423736572,0.963636653747686,0.284173658642151,3.870354330085572,1.090978410956659,-0.0001618862152099,0.0965279787778854,0,0,0
244,9293.089008798564,2010-10-29 12:32:27,960.4845271653968,7,1,-1.0993878841400146,3.719014406204224,0.963636653747686,0.293340551417556,3.870354330085572,1.125095707296192,-9.713172767078504e-05,0.0965279787778854,0,0,0
245,9323.10412961506,2010-10-29 12:32:57,990.499647986906,7,1,-1.0993878841400146,3.713348388671875,0.963636653747686,0.30250745450425,3.870354330085572,1.159160919875697,-0.0001618862152099,0.0965279787778854,0,0,0
246,9353.119334927143,2010-10-29 12:33:27,1020.514853304004,7,1,-1.099568486213684,3.7076823711395264,0.963636653747686,0.311674520223862,3.870354330085572,1.193175270580458,-0.0001618862152099,0.0965279787778854,0,0,0
247,9383.134423603537,2010-10-29 12:33:58,1050.529941995435,7,1,-1.099568486213684,3.7020163536071777,0.963636653747686,0.320841487153945,3.870354330085572,1.227138494715421,-0.0001942634553415,0.0965279787778854,0,0,0
248,9413.149687697123,2010-10-29 12:34:28,1080.545206078997,7,1,-1.099568486213684,3.696674108505249,0.963636653747686,0.330008516025277,3.870354330085572,1.26105176979051,-0.0001942634553415,0.0965279787778854,0,0,0
249,9443.164738544236,2010-10-29 12:34:58,1110.560256936133,7,1,-1.099568486213684,3.6914937496185294,0.963636653747686,0.339175458021668,3.870354330085572,1.294915863854107,-0.0001618862152099,0.0965279787778854,0,0,0
250,9473.179838598988,2010-10-29 12:35:28,1140.5753569958974,7,1,-1.099568486213684,3.6861515045166016,0.963636653747686,0.348342422122723,3.870354330085572,1.328731638947396,-0.0001295089750783,0.0965279787778854,0,0,0
251,9503.19499731494,2010-10-29 12:35:58,1170.5905156817762,7,1,-1.099568486213684,3.6811330318450928,0.963636653747686,0.357509432280338,3.870354330085572,1.36249991166006,-0.0001295089750783,0.0965279787778854,0,0,0
252,9533.210126888262,2010-10-29 12:36:28,1200.6056452550974,7,1,-1.0993878841400146,3.676114559173584,0.963636653747686,0.366676405142398,3.870354330085572,1.396221046023771,-9.713172767078504e-05,0.0965279787778854,0,0,0
253,9563.2252632485,2010-10-29 12:36:58,1230.6207816153335,7,1,-1.0993878841400146,3.6710963249206543,0.963636653747686,0.375843382690245,3.870354330085572,1.429896021229159,-9.713172767078504e-05,0.0965279787778854,0,0,0
254,9593.240408811673,2010-10-29 12:37:28,1260.6359272035688,7,1,-1.099568486213684,3.6660778522491455,0.963636653747686,0.385010394041731,3.870354330085572,1.463525498678408,-0.0001618862152099,0.0965279787778854,0,0,0
255,9623.255561136695,2010-10-29 12:37:58,1290.6510794985195,7,1,-1.0993878841400146,3.661221265792847,0.963636653747686,0.394177408623743,3.870354330085572,1.497110390983514,-0.0001618862152099,0.0965279787778854,0,0,0
256,9653.270715536892,2010-10-29 12:38:28,1320.666233903729,7,1,-1.099568486213684,3.656526565551758,0.963636653747686,0.40334446337904,3.870354330085572,1.530651472190556,-9.713172767078504e-05,0.0965279787778854,0,0,0
257,9683.285835355904,2010-10-29 12:38:58,1350.6813537277524,7,1,-1.0993878841400146,3.651669979095459,0.963636653747686,0.412511500580186,3.870354330085572,1.564148942250137,-0.0001295089750783,0.0965279787778854,0,0,0
258,9713.300987981678,2010-10-29 12:39:28,1380.6965063485147,7,1,-1.0992072820663452,3.64713716506958,0.963636653747686,0.42167857206857,3.870354330085572,1.597602812917837,-9.713172767078504e-05,0.0965279787778854,0,0,0
259,9743.31614546456,2010-10-29 12:39:58,1410.7116638714951,7,1,-1.099568486213684,3.642280578613281,0.963636653747686,0.430845511446377,3.870354330085572,1.631012954427983,-0.0001295089750783,0.0965279787778854,0,0,0
260,9773.331258481618,2010-10-29 12:40:28,1440.726776848453,7,1,-1.0993878841400146,3.6377477645874015,0.963636653747686,0.440012457584992,3.870354330085572,1.6643813352758,-0.0001295089750783,0.0965279787778854,0,0,0
261,9803.346527788197,2010-10-29 12:40:58,1470.742046160045,7,1,-1.099568486213684,3.633376836776733,0.963636653747686,0.449179467642606,3.870354330085572,1.697708546654267,-9.713172767078504e-05,0.0965279787778854,0,0,0
262,9833.361542525312,2010-10-29 12:41:28,1500.7570608921465,7,1,-1.099568486213684,3.629005908966065,0.963636653747686,0.458346437954777,3.870354330085572,1.730994975728341,-9.713172767078504e-05,0.0965279787778854,0,0,0
263,9863.376703647262,2010-10-29 12:41:58,1530.7722220140963,7,1,-1.099568486213684,3.624634981155396,0.963636653747686,0.467513434202713,3.870354330085572,1.764241163938052,-0.0001295089750783,0.0965279787778854,0,0,0
264,9893.391827065245,2010-10-29 12:42:28,1560.7873454320768,7,1,-1.0993878841400146,3.620264053344727,0.963636653747686,0.476680341092652,3.870354330085572,1.797448061941,-0.0001295089750783,0.0965279787778854,0,0,0
265,9923.406971139704,2010-10-29 12:42:58,1590.8024895065394,7,1,-1.099568486213684,3.616055011749268,0.963636653747686,0.485847317356794,3.870354330085572,1.83061654752624,-0.0001618862152099,0.0965279787778854,0,0,0
266,9953.422108763089,2010-10-29 12:43:28,1620.8176271349364,7,1,-1.0993878841400146,3.612169742584229,0.963636653747686,0.495014340456787,3.870354330085572,1.863747281706627,-9.713172767078504e-05,0.0965279787778854,0,0,0
267,9983.437393743732,2010-10-29 12:43:58,1650.8329121456554,7,1,-1.0993878841400146,3.6082844734191895,0.963636653747686,0.504181459797716,3.870354330085572,1.896841281140187,-6.47544875391759e-05,0.0965279787778854,0,0,0
268,10013.45240470644,2010-10-29 12:44:28,1680.8479231083625,7,1,-1.099568486213684,3.6040754318237305,0.963636653747686,0.513348439412214,3.870354330085572,1.929898489254695,-0.0001295089750783,0.0965279787778854,0,0,0
269,10043.467535888773,2010-10-29 12:44:58,1710.8630542505937,7,1,-1.0993878841400146,3.6003520488739014,0.963636653747686,0.522515404098431,3.870354330085572,1.962920087186261,-9.713172767078504e-05,0.0965279787778854,0,0,0
270,10073.48276529591,2010-10-29 12:45:28,1740.8782837178817,7,1,-1.0993878841400146,3.5966286659240723,0.963636653747686,0.531682374098828,3.870354330085572,1.995906756482335,-9.713172767078504e-05,0.0965279787778854,0,0,0
271,10103.497823807122,2010-10-29 12:45:58,1770.8933421739566,7,1,-1.0993878841400146,3.593067169189453,0.963636653747686,0.540849321593575,3.870354330085572,2.02885952513609,-6.47544875391759e-05,0.0965279787778854,0,0,0
272,10133.513080873194,2010-10-29 12:46:28,1800.9085992450414,7,1,-1.0993878841400146,3.589344024658203,0.963636653747686,0.550016330842152,3.870354330085572,2.0617790226751,-6.47544875391759e-05,0.0965279787778854,0,0,0
273,10163.528110657811,2010-10-29 12:46:58,1830.923629024646,7,1,-1.099568486213684,3.585782527923584,0.963636653747686,0.559183294294637,3.870354330085572,2.09466600772035,-9.713172767078504e-05,0.0965279787778854,0,0,0
274,10193.543396741205,2010-10-29 12:47:28,1860.938915143126,7,1,-1.0993878841400146,3.582382917404175,0.963636653747686,0.568350270252716,3.870354330085572,2.127521048639213,-6.47544875391759e-05,0.0965279787778854,0,0,0
275,10223.558583983253,2010-10-29 12:47:58,1890.9541023450752,7,1,-1.0993878841400146,3.578821420669556,0.963636653747686,0.577517312621531,3.870354330085572,2.160344713298554,-0.0001295089750783,0.0965279787778854,0,0,0
276,10253.574105723976,2010-10-29 12:48:28,1920.9696240857984,7,1,-1.099568486213684,3.5755836963653564,0.963636653747686,0.586684409877645,3.870354330085572,2.193137712329417,-9.713172767078504e-05,0.0965279787778854,0,0,0
277,10283.574509801832,2010-10-29 12:48:58,1950.9700281987416,7,1,-1.0993878841400146,3.572345972061157,0.963636653747686,0.595846909240028,3.870354330085572,2.225884142659949,-9.713172767078504e-05,0.0965279787778854,0,0,0
278,10313.58820186744,2010-10-29 12:49:28,1980.9837202593387,7,1,-1.0997490882873535,3.569270133972168,0.963636653747686,0.605013585242602,3.870354330085572,2.258615927323385,-6.47544875391759e-05,0.0965279787778854,0,0,0
279,10343.603346538392,2010-10-29 12:49:58,2010.9988649403128,7,1,-1.0993878841400146,3.5660324096679688,0.963636653747686,0.614180567766029,3.870354330085572,2.291319122888892,-6.47544875391759e-05,0.0965279787778854,0,0,0
280,10373.618500768162,2010-10-29 12:50:28,2041.0140191299856,7,1,-1.0993878841400146,3.5629565715789795,0.963636653747686,0.623347535136641,3.870354330085572,2.32399260247145,-6.47544875391759e-05,0.0965279787778854,0,0,0
281,10403.633681644347,2010-10-29 12:50:58,2071.0292000412564,7,1,-1.099568486213684,3.5595569610595703,0.963636653747686,0.632514492235342,3.870354330085572,2.356637862384196,-9.713172767078504e-05,0.0965279787778854,0,0,0
282,10433.648772255565,2010-10-29 12:51:28,2101.0442906474595,7,1,-1.0993878841400146,3.556481122970581,0.963636653747686,0.641681452223606,3.870354330085572,2.389253959965902,-6.47544875391759e-05,0.0965279787778854,0,0,0
283,10463.663893848994,2010-10-29 12:51:58,2131.0594122158304,7,1,-1.099568486213684,3.553081512451172,0.963636653747686,0.650848450723915,3.870354330085572,2.421841336022968,-0.0001295089750783,0.0965279787778854,0,0,0
284,10493.679271560755,2010-10-29 12:52:28,2161.0747899626763,7,1,-1.099568486213684,3.5503294467926025,0.963636653747686,0.660015547849104,3.870354330085572,2.454400817014232,-6.47544875391759e-05,0.0965279787778854,0,0,0
285,10523.694182985382,2010-10-29 12:52:58,2191.0897013522163,7,1,-1.0993878841400146,3.5472536087036133,0.963636653747686,0.669182522276967,3.870354330085572,2.486931970461754,-9.713172767078504e-05,0.0965279787778854,0,0,0
286,10553.709455494944,2010-10-29 12:53:28,2221.104973866791,7,1,-1.0993878841400146,3.544177770614624,0.963636653747686,0.678349590035864,3.870354330085572,2.519435323697534,-6.47544875391759e-05,0.0965279787778854,0,0,0
287,10583.724602501714,2010-10-29 12:53:58,2251.120120883587,7,1,-1.099568486213684,3.540940046310425,0.963636653747686,0.687516620095295,3.870354330085572,2.551909728847146,-9.713172767078504e-05,0.0965279787778854,0,0,0
288,10613.739649529309,2010-10-29 12:54:28,2281.1351678961414,7,1,-1.099568486213684,3.5378642082214355,0.963636653747686,0.696683602640325,3.870354330085572,2.584355485944014,-6.47544875391759e-05,0.0965279787778854,0,0,0
289,10643.754777468555,2010-10-29 12:54:58,2311.150295860452,7,1,-1.0992072820663452,3.5346264839172363,0.963636653747686,0.705850664687625,3.870354330085572,2.616772185242922,-6.47544875391759e-05,0.0965279787778854,0,0,0
290,10673.769891513177,2010-10-29 12:55:28,2341.165409890034,7,1,-1.099568486213684,3.531388759613037,0.963636653747686,0.715017643958688,3.870354330085572,2.649159065501217,-9.713172767078504e-05,0.0965279787778854,0,0,0
291,10703.785052219087,2010-10-29 12:55:58,2371.180570585922,7,1,-1.099568486213684,3.527989149093628,0.963636653747686,0.724184680356167,3.870354330085572,2.68151639984985,-9.713172767078504e-05,0.0965279787778854,0,0,0
292,10733.800305335317,2010-10-29 12:56:28,2401.1958238024,7,1,-1.0993878841400146,3.5245895385742188,0.963636653747686,0.733351770868733,3.870354330085572,2.713842822036623,-9.713172767078504e-05,0.0965279787778854,0,0,0
293,10763.815397620703,2010-10-29 12:56:58,2431.210916107838,7,1,-1.0993878841400146,3.5211899280548096,0.963636653747686,0.742518725923857,3.870354330085572,2.746137137409122,-9.713172767078504e-05,0.0965279787778854,0,0,0
294,10793.830591088268,2010-10-29 12:57:28,2461.226109495204,7,1,-1.0993878841400146,3.5173046588897705,0.963636653747686,0.751685724117974,3.870354330085572,2.778398084718196,-9.713172767078504e-05,0.0965279787778854,0,0,0
295,10823.845649684694,2010-10-29 12:57:58,2491.2411681116782,7,1,-1.0993878841400146,3.513743162155152,0.963636653747686,0.760852736349877,3.870354330085572,2.810624610484518,-6.47544875391759e-05,0.0965279787778854,0,0,0
296,10853.860771523738,2010-10-29 12:58:28,2521.2562898955857,7,1,-1.099568486213684,3.509696245193481,0.963636653747686,0.770019776164445,3.870354330085572,2.842816638029911,-0.0001295089750783,0.0965279787778854,0,0,0
297,10883.875883011986,2010-10-29 12:58:58,2551.2714013838336,7,1,-1.0993878841400146,3.5059728622436523,0.963636653747686,0.779186766226999,3.870354330085572,2.874972950304033,-6.47544875391759e-05,0.0965279787778854,0,0,0
298,10913.891020139134,2010-10-29 12:59:28,2581.286538505969,7,1,-1.0993878841400146,3.5016019344329834,0.963636653747686,0.788353841230709,3.870354330085572,2.907091762585246,-0.0001295089750783,0.0965279787778854,0,0,0
299,10943.906289475788,2010-10-29 12:59:58,2611.301807842623,7,1,-1.0993878841400146,3.4970691204071045,0.963636653747686,0.797520878146526,3.870354330085572,2.939170530288382,-0.0001295089750783,0.0965279787778854,0,0,0
300,10973.921316759172,2010-10-29 13:00:28,2641.3168351260065,7,1,-1.0993878841400146,3.4925363063812256,0.963636653747686,0.806687861609301,3.870354330085572,2.971207004361709,-9.713172767078504e-05,0.0965279787778854,0,0,0
301,11003.936446317455,2010-10-29 13:00:58,2671.331964679277,7,1,-1.0997490882873535,3.487355947494507,0.963636653747686,0.815854894292304,3.870354330085572,3.003198892885366,-0.0001618862152099,0.0965279787778854,0,0,0
302,11033.951722987384,2010-10-29 13:01:28,2701.3472413993336,7,1,-1.099568486213684,3.481689929962158,0.963636653747686,0.825022007599444,3.870354330085572,3.035142394609308,-0.0001618862152099,0.0965279787778854,0,0,0
303,11063.966773423472,2010-10-29 13:01:58,2731.362291815371,7,1,-1.0993878841400146,3.47553825378418,0.963636653747686,0.834188922347976,3.870354330085572,3.067031339985513,-0.0001942634553415,0.0965279787778854,0,0,0
304,11093.981894691096,2010-10-29 13:02:28,2761.377413057929,7,1,-1.099568486213684,3.4687390327453613,0.963636653747686,0.843355926127709,3.870354330085572,3.09886109785221,-0.0001942634553415,0.0965279787778854,0,0,0
305,11123.99705297096,2010-10-29 13:02:58,2791.392571337796,7,1,-1.099568486213684,3.461130380630493,0.963636653747686,0.852522929038546,3.870354330085572,3.130625086723935,-0.0002266406954731,0.0965279787778854,0,0,0
306,11154.01214791297,2010-10-29 13:03:28,2821.407666284818,7,1,-1.0993878841400146,3.452550411224365,0.963636653747686,0.861689902083537,3.870354330085572,3.16231455560902,-0.0002590179501567,0.0965279787778854,0,0,0
307,11184.02742343504,2010-10-29 13:03:58,2851.4229419021253,7,1,-1.0997490882873535,3.442513465881348,0.963636653747686,0.870857024869621,3.870354330085572,3.193919915949308,-0.0002913951757363,0.0965279787778854,0,0,0
308,11214.04281432464,2010-10-29 13:04:28,2881.438332811777,7,1,-1.099568486213684,3.4310197830200195,0.963636653747686,0.880024120054695,3.870354330085572,3.225426889057539,-0.0003237247583456,0.0965279787778854,0,0,0
309,11244.057576657688,2010-10-29 13:04:58,2911.453095024523,7,1,-1.0993878841400146,3.417421340942383,0.963636653747686,0.889191064546656,3.870354330085572,3.256818247210405,-0.0003561496851034,0.0965279787778854,0,0,0
310,11274.072733423782,2010-10-29 13:05:28,2941.4682518206914,7,1,-1.099568486213684,3.400908946990967,0.963636653747686,0.898358095377653,3.870354330085572,3.288072123358396,-0.0004532813909463,0.0965279787778854,0,0,0
311,11304.087863723917,2010-10-29 13:05:58,2971.4833820907493,7,1,-1.0993878841400146,3.3806731700897217,0.963636653747686,0.90752517521182,3.870354330085572,3.319158632068716,-0.0005504131549969,0.0965279787778854,0,0,0
312,11334.103009888586,2010-10-29 13:06:29,3001.498528255421,7,1,-1.099568486213684,3.354609489440918,0.963636653747686,0.916692233051583,3.870354330085572,3.350035446082404,-0.0008094310760498,0.0965279787778854,0,0,0
313,11364.118267130096,2010-10-29 13:06:59,3031.5137855420435,7,1,-1.099568486213684,3.321099281311035,0.963636653747686,0.925859344689114,3.870354330085572,3.380641745901704,-0.0010360718006268,0.0965279787778854,0,0,0
314,11394.133282543897,2010-10-29 13:07:29,3061.528800920757,7,1,-1.099568486213684,3.275609254837036,0.963636653747686,0.935026333005738,3.870354330085572,3.410889000492752,-0.0013922214275225,0.0965279787778854,0,0,0
315,11424.148420417903,2010-10-29 13:07:59,3091.5439387847405,7,1,-1.0997490882873535,3.2123119831085205,0.963636653747686,0.94419338396588,3.870354330085572,3.440644649735787,-0.0019750117789953,0.0965279787778854,0,0,0
316,11454.163623023243,2010-10-29 13:08:29,3121.55914139008,7,1,-1.099568486213684,3.119389533996582,0.963636653747686,0.953360400863631,3.870354330085572,3.469696292260902,-0.002978706266731,0.0965279787778854,0,0,0
317,11484.178731995222,2010-10-29 13:08:59,3151.574250392131,7,1,-1.099568486213684,2.963007926940918,0.963636653747686,0.9625274006539,3.870354330085572,3.497656072967601,-0.0056012631393969,0.0965279787778854,0,0,0
318,11504.725368540534,2010-10-29 13:09:19,3172.1208869524817,7,1,-1.099568486213684,2.762917280197144,0.963636653747686,0.968802653655835,3.870354330085572,3.515675360500229,-0.0093569755554199,0.0965279787778854,0,0,0
319,11509.756393888712,2010-10-29 13:09:24,3177.151912260557,7,1,-1.099568486213684,2.699943780899048,0.963636653747686,0.970339200195423,3.870354330085572,3.519872969866179,-0.0101016517728567,0.0965279787778854,0,0,0
320,11569.771284611965,2010-10-29 13:10:24,60.0146535426756,8,1,0.0,3.3695030212402344,0.963636653747686,0.970339200195423,3.870354330085572,3.519872969866179,0.0013598442310467,0.0965279787778854,0,0,0
321,11569.958943527849,2010-10-29 13:10:25,0.187428188716493,9,1,-1.9243103452026844e-05,3.3695030212402344,0.963636653747686,0.970339201197284,3.870354330085572,3.519872973241953,0.0,0.0923885703086853,0,0,0
322,11574.787116590713,2010-10-29 13:10:29,5.015601261605849,9,1,0.0010644125286489,3.3775973320007324,0.963637615903047,0.970339201364411,3.870357576599996,3.519872973805086,0.0011655807029455,0.0923885703086853,0,0,0
