Data_Point,Test_Time(s),Date_Time,Step_Time(s),Step_Index,Cycle_Index,Current(A),Voltage(V),Charge_Capacity(Ah),Discharge_Capacity(Ah),Charge_Energy(Wh),Discharge_Energy(Wh),dV/dt(V/s),Internal_Resistance(Ohm),Is_FC_Data,AC_Impedance(Ohm),ACI_Phase_Angle(Deg)
646,23163.853419545336,2010-10-29 16:23:40,30.015267622381938,1,3,0.0,3.4109458923339844,1.934417717367796,1.939594741054879,7.758740331536492,7.035271729629738,0.0007770538213662,0.0931989923119545,0,0,0
647,23193.86847742999,2010-10-29 16:24:10,60.030325336608165,1,3,0.0,3.4344191551208496,1.934417717367796,1.939594741054879,7.758740331536492,7.035271729629738,0.0005504131549969,0.0931989923119545,0,0,0
648,23223.883599063523,2010-10-29 16:24:40,90.04544693505352,1,3,0.0,3.452064752578736,1.934417717367796,1.939594741054879,7.758740331536492,7.035271729629738,0.0003885269106831,0.0931989923119545,0,0,0
649,23253.85183936936,2010-10-29 16:25:10,120.01368724590516,1,3,0.0,3.466310739517212,1.934417717367796,1.939594741054879,7.758740331536492,7.035271729629738,0.0003561496851034,0.0931989923119545,0,0,0
650,23283.86819185066,2010-10-29 16:25:40,30.01522669537925,2,3,0.5501165986061096,3.622044801712036,1.939004105820515,1.939594741054879,7.775196647338932,7.035271729629738,0.0015217304462566,0.0931989923119545,0,0,0
651,23313.88325172527,2010-10-29 16:26:10,60.03028645971498,2,3,0.550297200679779,3.667372941970825,1.943590443299285,1.939594741054879,7.791918617270157,7.035271729629738,0.0010684489971026,0.0931989923119545,0,0,0
652,23343.898307655047,2010-10-29 16:26:40,90.04534241956877,2,3,0.5499359965324402,3.699588060379028,1.948176777042167,1.939594741054879,7.808815574344353,7.035271729629738,0.0007770538213662,0.0931989923119545,0,0,0
653,23373.913402857703,2010-10-29 16:27:10,120.06043759215277,2,3,0.5501165986061096,3.725166082382202,1.952763070953222,1.939594741054879,7.825843733993671,7.035271729629738,0.0005827903514727,0.0931989923119545,0,0,0
654,23403.928623638345,2010-10-29 16:27:40,150.07565845299052,2,3,0.5501165986061096,3.745725631713867,1.957349386048672,1.939594741054879,7.84297665216493,7.035271729629738,0.0005180359003134,0.0931989923119545,0,0,0
655,23433.943678510488,2010-10-29 16:28:10,180.09071329004598,2,3,0.5499359965324402,3.762237787246704,1.961935686751407,1.939594741054879,7.860194831523166,7.035271729629738,0.0004209041653666,0.0931989923119545,0,0,0
656,23463.95882508117,2010-10-29 16:28:40,210.1058598106049,2,3,0.5499359965324402,3.7737317085266113,1.966522087611557,1.939594741054879,7.877478215110926,7.035271729629738,0.0002590179501567,0.0931989923119545,0,0,0
657,23493.97393854936,2010-10-29 16:29:10,240.1209733088621,2,3,0.5501165986061096,3.78069281578064,1.971108361539212,1.939594741054879,7.894803108148101,7.035271729629738,0.0001295089750783,0.0931989923119545,0,0,0
658,23523.98935936354,2010-10-29 16:29:40,270.13639412304514,2,3,0.5499359965324402,3.785711288452149,1.975694654899269,1.939594741054879,7.912154436876804,7.035271729629738,0.0001295089750783,0.0931989923119545,0,0,0
659,23554.004242753297,2010-10-29 16:30:10,300.1512775077886,2,3,0.5501165986061096,3.7897584438323975,1.980280837268546,1.939594741054879,7.929525580051492,7.035271729629738,9.713172767078504e-05,0.0931989923119545,0,0,0
660,23584.01935784552,2010-10-29 16:30:40,330.16639257996854,2,3,0.5499359965324402,3.793643712997437,1.984867021456469,1.939594741054879,7.946915197780369,7.035271729629738,6.47544875391759e-05,0.0931989923119545,0,0,0
661,23614.03450327837,2010-10-29 16:31:10,360.18153803286657,2,3,0.5499359965324402,3.797528982162476,1.989453304283324,1.939594741054879,7.964322977839296,7.035271729629738,9.713172767078504e-05,0.0931989923119545,0,0,0
662,23644.049663843933,2010-10-29 16:31:40,390.19669857838,2,3,0.550297200679779,3.801414251327514,1.99403963128037,1.939594741054879,7.981748309301914,7.035271729629738,0.0001295089750783,0.0931989923119545,0,0,0
663,23674.06478157775,2010-10-29 16:32:10,420.2118163372559,2,3,0.5501165986061096,3.804975748062134,1.998625967472287,1.939594741054879,7.999190628220819,7.035271729629738,9.713172767078504e-05,0.0931989923119545,0,0,0
664,23704.08004305481,2010-10-29 16:32:40,450.2270777892594,2,3,0.5501165986061096,3.808537244796753,2.003212304353998,1.939594741054879,8.016649793270616,7.035271729629738,9.713172767078504e-05,0.0931989923119545,0,0,0
665,23734.09507149107,2010-10-29 16:33:10,480.2421062255159,2,3,0.5501165986061096,3.811936855316162,2.007798626009462,1.939594741054879,8.034125335305367,7.035271729629738,3.237724376958795e-05,0.0931989923119545,0,0,0
666,23764.110416035164,2010-10-29 16:33:40,510.2574508748728,2,3,0.5501165986061096,3.815660238265991,2.012384919904782,1.939594741054879,8.051617177103202,7.035271729629738,6.47544875391759e-05,0.0931989923119545,0,0,0
667,23794.125339930877,2010-10-29 16:34:10,540.2723746603072,2,3,0.5501165986061096,3.8190598487854,2.016971165291159,1.939594741054879,8.069124761042577,7.035271729629738,6.47544875391759e-05,0.0931989923119545,0,0,0
668,23824.140485669486,2010-10-29 16:34:40,570.2875204039298,2,3,0.5501165986061096,3.8224594593048096,2.021557509581741,1.939594741054879,8.086648327262115,7.035271729629738,6.47544875391759e-05,0.0931989923119545,0,0,0
669,23854.15562418008,2010-10-29 16:35:10,600.3026589345753,2,3,0.5501165986061096,3.8258590698242183,2.026143815240452,1.939594741054879,8.1041869955065,7.035271729629738,0.0001295089750783,0.0931989923119545,0,0,0
670,23884.170774795846,2010-10-29 16:35:40,630.3178095252784,2,3,0.5501165986061096,3.829096794128418,2.030730108209103,1.939594741054879,8.121740836017034,7.035271729629738,9.713172767078504e-05,0.0931989923119545,0,0,0
671,23914.1859260482,2010-10-29 16:36:10,660.3329607826429,2,3,0.5501165986061096,3.832496404647827,2.03531644906835,1.939594741054879,8.139310095587108,7.035271729629738,0.0001295089750783,0.0931989923119545,0,0,0
672,23944.201059852065,2010-10-29 16:36:40,690.3480945814954,2,3,0.5499359965324402,3.8357338905334473,2.039902726722084,1.939594741054879,8.156894218606855,7.035271729629738,9.713172767078504e-05,0.0931989923119545,0,0,0
673,23974.216336306457,2010-10-29 16:37:10,720.3633710409019,2,3,0.5499359965324402,3.8389716148376474,2.0444890283844,1.939594741054879,8.174493898848882,7.035271729629738,3.237724376958795e-05,0.0931989923119545,0,0,0
674,24004.231336677767,2010-10-29 16:37:40,750.378371402187,2,3,0.550297200679779,3.8425331115722656,2.049075301199511,1.939594741054879,8.19210903270617,7.035271729629738,6.47544875391759e-05,0.0931989923119545,0,0,0
675,24034.2464646922,2010-10-29 16:38:10,780.3934994466979,2,3,0.5501165986061096,3.8460946083068848,2.05366162996976,1.939594741054879,8.209740156550636,7.035271729629738,0.0001295089750783,0.0931989923119545,0,0,0
676,24064.26160631556,2010-10-29 16:38:40,810.4086410399765,2,3,0.550297200679779,3.849494218826294,2.058247975458113,1.939594741054879,8.227387335460367,7.035271729629738,9.713172767078504e-05,0.0931989923119545,0,0,0
677,24094.276774700607,2010-10-29 16:39:10,840.4238094250285,2,3,0.5501165986061096,3.853217601776123,2.062834305602456,1.939594741054879,8.245050512799082,7.035271729629738,9.713172767078504e-05,0.0931989923119545,0,0,0
678,24124.29190616364,2010-10-29 16:39:40,870.438940893072,2,3,0.550297200679779,3.856617212295532,2.067420651069299,1.939594741054879,8.262729595895577,7.035271729629738,0.0001295089750783,0.0931989923119545,0,0,0
679,24154.307047892253,2010-10-29 16:40:10,900.4540826166755,2,3,0.5499359965324402,3.859854936599731,2.072006981771324,1.939594741054879,8.280424369863143,7.035271729629738,6.47544875391759e-05,0.0931989923119545,0,0,0
680,24184.322313369288,2010-10-29 16:40:40,930.469348128798,2,3,0.5501165986061096,3.8632545471191406,2.076593341517663,1.939594741054879,8.298134691083309,7.035271729629738,9.713172767078504e-05,0.0931989923119545,0,0,0
681,24214.33743406549,2010-10-29 16:41:10,960.4844687999322,2,3,0.5499359965324402,3.86633038520813,2.081179765796242,1.939594741054879,8.315860425797661,7.035271729629738,6.47544875391759e-05,0.0931989923119545,0,0,0
682,24244.352583473243,2010-10-29 16:41:40,990.4996182076868,2,3,0.5501165986061096,3.869729995727539,2.085766058659841,1.939594741054879,8.33360060528391,7.035271729629738,6.47544875391759e-05,0.0931989923119545,0,0,0
683,24274.367591217928,2010-10-29 16:42:10,1020.5146259724236,2,3,0.5501165986061096,3.872805833816528,2.090352406698767,1.939594741054879,8.351355633309115,7.035271729629738,6.47544875391759e-05,0.0931989923119545,0,0,0
684,24304.382735783613,2010-10-29 16:42:40,1050.5297705381104,2,3,0.5501165986061096,3.8758816719055176,2.09493878617467,1.939594741054879,8.369125057345691,7.035271729629738,6.47544875391759e-05,0.0931989923119545,0,0,0
685,24334.397893191308,2010-10-29 16:43:10,1080.5449279157283,2,3,0.5501165986061096,3.878795623779297,2.099525140017569,1.939594741054879,8.386908166449066,7.035271729629738,6.47544875391759e-05,0.0931989923119545,0,0,0
686,24364.41304057401,2010-10-29 16:43:41,1110.560075358586,2,3,0.5501165986061096,3.881547689437866,2.104111465007915,1.939594741054879,8.40470444390745,7.035271729629738,6.47544875391759e-05,0.0931989923119545,0,0,0
687,24394.428165470683,2010-10-29 16:44:11,1140.575200200114,2,3,0.5499359965324402,3.884299755096436,2.108697776405067,1.939594741054879,8.422513421549464,7.035271729629738,3.237724376958795e-05,0.0931989923119545,0,0,0
688,24424.44341767464,2010-10-29 16:44:41,1170.5904524191062,2,3,0.5499359965324402,3.886889934539795,2.113284128420542,1.939594741054879,8.44033467073163,7.035271729629738,3.237724376958795e-05,0.0931989923119545,0,0,0
689,24454.45845913836,2010-10-29 16:45:11,1200.6054938677937,2,3,0.5499359965324402,3.8894801139831534,2.117870474677195,1.939594741054879,8.458167464265241,7.035271729629738,6.47544875391759e-05,0.0931989923119545,0,0,0
690,24484.47365384401,2010-10-29 16:45:41,1230.6206886937443,2,3,0.550297200679779,3.891908407211304,2.122456850012803,1.939594741054879,8.47601116767588,7.035271729629738,9.713172767078504e-05,0.0931989923119545,0,0,0
691,24514.488709222416,2010-10-29 16:46:11,1260.6357440019742,2,3,0.5501165986061096,3.894012928009033,2.127043291433946,1.939594741054879,8.493865383952391,7.035271729629738,3.237724376958795e-05,0.0931989923119545,0,0,0
692,24544.503848986133,2010-10-29 16:46:41,1290.6508837155682,2,3,0.5501165986061096,3.895793676376343,2.131629747856418,1.939594741054879,8.511728929294277,7.035271729629738,3.237724376958795e-05,0.0931989923119545,0,0,0
693,24574.518994263595,2010-10-29 16:47:11,1320.6660289880165,2,3,0.5501165986061096,3.8977363109588623,2.136216099075982,1.939594741054879,8.529600920879021,7.035271729629738,6.47544875391759e-05,0.0931989923119545,0,0,0
694,24604.534149816667,2010-10-29 16:47:41,1350.6811845460995,2,3,0.5501165986061096,3.899517059326172,2.14080244957205,1.939594741054879,8.547481281084474,7.035271729629738,3.237724376958795e-05,0.0931989923119545,0,0,0
695,24634.54929096383,2010-10-29 16:48:11,1380.6963256932663,2,3,0.5499359965324402,3.9009740352630615,2.145388830631853,1.939594741054879,8.56536957859178,7.035271729629738,0.0,0.0931989923119545,0,0,0
696,24664.5644075147,2010-10-29 16:48:41,1410.7114422441316,2,3,0.5501165986061096,3.902754783630371,2.149975101035258,1.939594741054879,8.58326480340349,7.035271729629738,3.237724376958795e-05,0.0931989923119545,0,0,0
697,24694.579544476437,2010-10-29 16:49:11,1440.726579205867,2,3,0.5501165986061096,3.9042117595672607,2.154561419651578,1.939594741054879,8.601167177524903,7.035271729629738,6.47544875391759e-05,0.0931989923119545,0,0,0
698,24724.59484457977,2010-10-29 16:49:41,1470.7418794194762,2,3,0.550297200679779,3.905506849288941,2.159147725078723,1.939594741054879,8.619076161480514,7.035271729629738,3.237724376958795e-05,0.0931989923119545,0,0,0
699,24754.60982352267,2010-10-29 16:50:11,1500.7568582922052,2,3,0.5497553944587708,3.90696382522583,2.163733884299588,1.939594741054879,8.63699097153716,7.035271729629738,0.0,0.0931989923119545,0,0,0
700,24784.624975567,2010-10-29 16:50:41,1530.7720103014435,2,3,0.5501165986061096,3.9080970287323,2.168320220687603,1.939594741054879,8.654912713490734,7.035271729629738,3.237724376958795e-05,0.0931989923119545,0,0,0
701,24814.640107446063,2010-10-29 16:51:11,1560.7871422005614,2,3,0.5501165986061096,3.9097158908844,2.172906480378896,1.939594741054879,8.672840287532278,7.035271729629738,6.47544875391759e-05,0.0931989923119545,0,0,0
702,24844.65525431749,2010-10-29 16:51:41,1590.802289071995,2,3,0.5499359965324402,3.911010980606079,2.177492838144469,1.939594741054879,8.690774255804776,7.035271729629738,6.47544875391759e-05,0.0931989923119545,0,0,0
703,24874.67048937873,2010-10-29 16:52:11,1620.8175242485115,2,3,0.5501165986061096,3.912306070327759,2.182079178050948,1.939594741054879,8.70871425212491,7.035271729629738,3.237724376958795e-05,0.0931989923119545,0,0,0
704,24904.68554504785,2010-10-29 16:52:41,1650.8325798023536,2,3,0.5501165986061096,3.9136011600494394,2.186665493307952,1.939594741054879,8.72666018043673,7.035271729629738,3.237724376958795e-05,0.0931989923119545,0,0,0
705,24934.7006957338,2010-10-29 16:53:11,1680.8477304933065,2,3,0.5501165986061096,3.914896011352539,2.191251850607398,1.939594741054879,8.744612415140294,7.035271729629738,3.237724376958795e-05,0.0931989923119545,0,0,0
706,24964.71585867027,2010-10-29 16:53:41,1710.8628934097287,2,3,0.5499359965324402,3.916029214859009,2.195838164856653,1.939594741054879,8.762570384796042,7.035271729629738,3.237724376958795e-05,0.0931989923119545,0,0,0
707,24994.73091043968,2010-10-29 16:54:11,1740.877945169114,2,3,0.5501165986061096,3.9174861907958975,2.200424951584779,1.939594741054879,8.780536443285595,7.035271729629738,0.0,0.0931989923119545,0,0,0
708,25024.74606207298,2010-10-29 16:54:41,1770.8930968024154,2,3,0.5501165986061096,3.918943166732788,2.205012140789776,1.939594741054879,8.798510302983804,7.035271729629738,3.237724376958795e-05,0.0931989923119545,0,0,0
709,25054.76120777149,2010-10-29 16:55:11,1800.908242500925,2,3,0.5501165986061096,3.9204001426696777,2.209599102351048,1.939594741054879,8.816489487100991,7.035271729629738,6.47544875391759e-05,0.0931989923119545,0,0,0
710,25084.776374261823,2010-10-29 16:55:41,1830.9234089862427,2,3,0.5499359965324402,3.921533346176148,2.214186195187653,1.939594741054879,8.834475390374772,7.035271729629738,0.0,0.0931989923119545,0,0,0
711,25114.79149817604,2010-10-29 16:56:11,1860.938532905472,2,3,0.5501165986061096,3.922990322113037,2.218773226162554,1.939594741054879,8.852467343559814,7.035271729629738,3.237724376958795e-05,0.0931989923119545,0,0,0
712,25144.806765322235,2010-10-29 16:56:41,1890.95380005668,2,3,0.5501165986061096,3.924447298049927,2.223360388939982,1.939594741054879,8.870466091723078,7.035271729629738,3.237724376958795e-05,0.0931989923119545,0,0,0
713,25174.82189488052,2010-10-29 16:57:11,1920.9689297102009,2,3,0.5499359965324402,3.9257423877716064,2.227947229390526,1.939594741054879,8.888469921049785,7.035271729629738,0.0,0.0931989923119545,0,0,0
714,25204.836909722893,2010-10-29 16:57:41,1950.9839444473148,2,3,0.5501165986061096,3.927199363708496,2.232533696811749,1.939594741054879,8.90647851658219,7.035271729629738,3.237724376958795e-05,0.0931989923119545,0,0,0
715,25234.852218337444,2010-10-29 16:58:11,1980.999253091937,2,3,0.5501165986061096,3.9286563396453857,2.237120198834354,1.939594741054879,8.924493810605044,7.035271729629738,6.47544875391759e-05,0.0931989923119545,0,0,0
716,25264.867199591103,2010-10-29 16:58:41,2011.0142343456,2,3,0.5501165986061096,3.9299514293670654,2.241706703142616,1.939594741054879,8.942515646760787,7.035271729629738,3.237724376958795e-05,0.0931989923119545,0,0,0
717,25294.882482727156,2010-10-29 16:59:11,2041.0295174716216,2,3,0.5501165986061096,3.931570291519165,2.246293307449426,1.939594741054879,8.960544491935112,7.035271729629738,6.47544875391759e-05,0.0931989923119545,0,0,0
718,25324.89749197057,2010-10-29 16:59:41,2071.0445267100317,2,3,0.5499359965324402,3.9328653812408447,2.250879772586197,1.939594741054879,8.978579357086069,7.035271729629738,3.237724376958795e-05,0.0931989923119545,0,0,0
719,25354.912603503933,2010-10-29 17:00:11,2101.0596382333665,2,3,0.5501165986061096,3.934484243392944,2.255466259105899,1.939594741054879,8.996620977423364,7.035271729629738,9.713172767078504e-05,0.0931989923119545,0,0,0
720,25384.92796797269,2010-10-29 17:00:41,2131.075002707132,2,3,0.5501165986061096,3.935779333114624,2.260052769297666,1.939594741054879,9.014669428142351,7.035271729629738,3.237724376958795e-05,0.0931989923119545,0,0,0
721,25414.942885828343,2010-10-29 17:01:11,2161.089920557775,2,3,0.5499359965324402,3.9372363090515137,2.26463926315012,1.939594741054879,9.032724362015989,7.035271729629738,3.237724376958795e-05,0.0931989923119545,0,0,0
722,25444.95824712419,2010-10-29 17:01:41,2191.105281888707,2,3,0.5499359965324402,3.9386932849884033,2.269225778928105,1.939594741054879,9.050786309605364,7.035271729629738,0.0,0.0931989923119545,0,0,0
723,25474.97317126049,2010-10-29 17:02:11,2221.120206009979,2,3,0.550297200679779,3.940474033355713,2.273812273847425,1.939594741054879,9.0688550405364,7.035271729629738,6.47544875391759e-05,0.0931989923119545,0,0,0
724,25504.9886458086,2010-10-29 17:02:41,2251.135680563096,2,3,0.5501165986061096,3.9417691230773926,2.278398851715356,1.939594741054879,9.086931039064607,7.035271729629738,6.47544875391759e-05,0.0931989923119545,0,0,0
725,25535.00344915887,2010-10-29 17:03:11,2281.150483888306,2,3,0.5501165986061096,3.943387985229492,2.282985350261961,1.939594741054879,9.10501366781078,7.035271729629738,3.237724376958795e-05,0.0931989923119545,0,0,0
726,25565.018582596826,2010-10-29 17:03:41,2311.165617321247,2,3,0.5501165986061096,3.944844961166382,2.2875718833054,1.939594741054879,9.123103462503016,7.035271729629738,3.237724376958795e-05,0.0931989923119545,0,0,0
727,25595.033794004103,2010-10-29 17:04:11,2341.180828788674,2,3,0.5501165986061096,3.9464638233184814,2.292158363505882,1.939594741054879,9.14120013947534,7.035271729629738,6.47544875391759e-05,0.0931989923119545,0,0,0
728,25625.04888000884,2010-10-29 17:04:41,2371.195914738271,2,3,0.5501165986061096,3.948082685470581,2.296744878993073,1.939594741054879,9.159303940562005,7.035271729629738,6.47544875391759e-05,0.0931989923119545,0,0,0
729,25655.066614579613,2010-10-29 17:05:11,2401.213649429347,2,3,0.5501165986061096,3.949539661407471,2.301331755432908,1.939594741054879,9.177416375512887,7.035271729629738,3.237724376958795e-05,0.0931989923119545,0,0,0
730,25685.07919753097,2010-10-29 17:05:41,2431.2262322954903,2,3,0.550297200679779,3.9511585235595694,2.305917900801635,1.939594741054879,9.195533196428146,7.035271729629738,3.237724376958795e-05,0.0931989923119545,0,0,0
731,25715.094494702,2010-10-29 17:06:11,2461.241529551729,2,3,0.5501165986061096,3.95261549949646,2.3105044401634,1.939594741054879,9.213658785551829,7.035271729629738,3.237724376958795e-05,0.0931989923119545,0,0,0
732,25745.109443650144,2010-10-29 17:06:41,2491.256478404639,2,3,0.5501165986061096,3.95423436164856,2.315090901308858,1.939594741054879,9.231791350669043,7.035271729629738,3.237724376958795e-05,0.0931989923119545,0,0,0
733,25775.12468648575,2010-10-29 17:07:11,2521.27172125027,2,3,0.5501165986061096,3.956015110015869,2.319677384049751,1.939594741054879,9.249931319457566,7.035271729629738,6.47544875391759e-05,0.0931989923119545,0,0,0
734,25805.139702821845,2010-10-29 17:07:41,2551.2867375863693,2,3,0.550297200679779,3.957472085952759,2.324263932472164,1.939594741054879,9.268078873134368,7.035271729629738,6.47544875391759e-05,0.0931989923119545,0,0,0
735,25835.154842640703,2010-10-29 17:08:11,2581.301877405225,2,3,0.5499359965324402,3.9590909481048575,2.328850470761528,1.939594741054879,9.286233859116336,7.035271729629738,0.0,0.0931989923119545,0,0,0
736,25865.170114889617,2010-10-29 17:08:41,2611.317149634088,2,3,0.5501165986061096,3.960871696472168,2.333437035379572,1.939594741054879,9.304396427020391,7.035271729629738,6.47544875391759e-05,0.0931989923119545,0,0,0
737,25895.18527199656,2010-10-29 17:09:11,2641.332306766094,2,3,0.5501165986061096,3.9623286724090576,2.338023574704014,1.939594741054879,9.322566425153514,7.035271729629738,6.47544875391759e-05,0.0931989923119545,0,0,0
738,25925.20037917908,2010-10-29 17:09:41,2671.3474139636483,2,3,0.5499359965324402,3.963947534561157,2.342610133539898,1.939594741054879,9.340744049519063,7.035271729629738,0.0,0.0931989923119545,0,0,0
739,25955.21552286758,2010-10-29 17:10:11,2701.3625576320983,2,3,0.5499359965324402,3.965728282928467,2.347196684822202,1.939594741054879,9.358929371174993,7.035271729629738,3.237724376958795e-05,0.0931989923119545,0,0,0
740,25985.2305500858,2010-10-29 17:10:41,2731.377584810219,2,3,0.550297200679779,3.967509031295776,2.351783176378331,1.939594741054879,9.377122122124277,7.035271729629738,6.47544875391759e-05,0.0931989923119545,0,0,0
741,26015.24568012027,2010-10-29 17:11:11,2761.3927148497028,2,3,0.5499359965324402,3.969127893447876,2.356369690961935,1.939594741054879,9.395322614888864,7.035271729629738,3.237724376958795e-05,0.0931989923119545,0,0,0
742,26045.26082091155,2010-10-29 17:11:41,2791.4078556359696,2,3,0.5501165986061096,3.9709086418151855,2.360956235740432,1.939594741054879,9.413531039377087,7.035271729629738,6.47544875391759e-05,0.0931989923119545,0,0,0
743,26075.275965858185,2010-10-29 17:12:11,2821.423000612681,2,3,0.5501165986061096,3.972527503967285,2.365542738929005,1.939594741054879,9.431747180567976,7.035271729629738,6.47544875391759e-05,0.0931989923119545,0,0,0
744,26105.29124636267,2010-10-29 17:12:41,2851.438281107144,2,3,0.5497553944587708,3.9741463661193848,2.370129332241157,1.939594741054879,9.449971563948102,7.035271729629738,3.237724376958795e-05,0.0931989923119545,0,0,0
745,26135.306385745444,2010-10-29 17:13:11,2881.453420605201,2,3,0.5501165986061096,3.976089000701904,2.374715912794199,1.939594741054879,9.468203890816255,7.035271729629738,6.47544875391759e-05,0.0931989923119545,0,0,0
746,26165.3213908686,2010-10-29 17:13:41,2911.468425628104,2,3,0.550297200679779,3.977707862854004,2.379302532335812,1.939594741054879,9.4864444108209,7.035271729629738,3.237724376958795e-05,0.0931989923119545,0,0,0
747,26195.33651152469,2010-10-29 17:14:11,2941.483546254126,2,3,0.5501165986061096,3.979650497436523,2.383889061535832,1.939594741054879,9.50469217127844,7.035271729629738,3.237724376958795e-05,0.0931989923119545,0,0,0
748,26225.351733117357,2010-10-29 17:14:41,2971.49876787185,2,3,0.5501165986061096,3.981269359588623,2.388475526344267,1.939594741054879,9.52294832524422,7.035271729629738,3.237724376958795e-05,0.0931989923119545,0,0,0
749,26255.36686487612,2010-10-29 17:15:11,3001.513899660693,2,3,0.5501165986061096,3.983211994171143,2.393061987943656,1.939594741054879,9.541212693982336,7.035271729629738,6.47544875391759e-05,0.0931989923119545,0,0,0
750,26285.381941587697,2010-10-29 17:15:42,3031.5289763171286,2,3,0.5499359965324402,3.984992742538452,2.397648369739404,1.939594741054879,9.559484938916288,7.035271729629738,6.47544875391759e-05,0.0931989923119545,0,0,0
751,26315.39721866865,2010-10-29 17:16:12,3061.544253413122,2,3,0.5501165986061096,3.986611604690552,2.402234894859356,1.939594741054879,9.577766133916867,7.035271729629738,6.47544875391759e-05,0.0931989923119545,0,0,0
752,26345.41223861876,2010-10-29 17:16:42,3091.5592733431786,2,3,0.5499359965324402,3.9885542392730713,2.406821378662364,1.939594741054879,9.596055530578592,7.035271729629738,6.47544875391759e-05,0.0931989923119545,0,0,0
753,26375.427477514542,2010-10-29 17:17:12,3121.5745122540025,2,3,0.5501165986061096,3.990334987640381,2.411407835868801,1.939594741054879,9.61435330920468,7.035271729629738,3.237724376958795e-05,0.0931989923119545,0,0,0
754,26405.44248911885,2010-10-29 17:17:42,3151.589523843271,2,3,0.5499359965324402,3.992277622222901,2.415994218250503,1.939594741054879,9.63265934575102,7.035271729629738,3.237724376958795e-05,0.0931989923119545,0,0,0
755,26435.457628977805,2010-10-29 17:18:12,3181.6046637072395,2,3,0.550297200679779,3.994058132171631,2.420580669827534,1.939594741054879,9.650974349742455,7.035271729629738,3.23295607813634e-05,0.0931989923119545,0,0,0
756,26465.47297769731,2010-10-29 17:18:42,3211.620012421728,2,3,0.5499359965324402,3.99616265296936,2.425167203394663,1.939594741054879,9.669298527738322,7.035271729629738,3.237724376958795e-05,0.0931989923119545,0,0,0
757,26495.48791481096,2010-10-29 17:19:12,3241.6349495353807,2,3,0.550297200679779,3.99826717376709,2.429753646863393,1.939594741054879,9.687631335408613,7.035271729629738,6.47544875391759e-05,0.0931989923119545,0,0,0
758,26525.50317233818,2010-10-29 17:19:42,3271.650207082652,2,3,0.5499359965324402,4.0000481605529785,2.434340126029906,1.939594741054879,9.705973221272034,7.035271729629738,6.480216688942164e-05,0.0931989923119545,0,0,0
759,26555.51833329472,2010-10-29 17:20:12,3301.6653680391896,2,3,0.5501165986061096,4.002152442932129,2.438926583152764,1.939594741054879,9.724324221885018,7.035271729629738,3.23295607813634e-05,0.0931989923119545,0,0,0
760,26585.53334443787,2010-10-29 17:20:42,3331.6803792023966,2,3,0.5501165986061096,4.0042572021484375,2.44351300806586,1.939594741054879,9.742684317545242,7.035271729629738,6.47544875391759e-05,0.0931989923119545,0,0,0
761,26615.54847827683,2010-10-29 17:21:12,3361.6955130313245,2,3,0.5499359965324402,4.006199836730957,2.448099473489722,1.939594741054879,9.761053968335132,7.035271729629738,3.24249267578125e-05,0.0931989923119545,0,0,0
762,26645.563600521884,2010-10-29 17:21:42,3391.710635246306,2,3,0.5501165986061096,4.008304119110107,2.45268601640083,1.939594741054879,9.779433465941011,7.035271729629738,6.47544875391759e-05,0.0931989923119545,0,0,0
763,26675.57874038585,2010-10-29 17:22:12,3421.725775115287,2,3,0.5501165986061096,4.010408878326416,2.457272451343562,1.939594741054879,9.797822021557218,7.035271729629738,6.47544875391759e-05,0.0931989923119545,0,0,0
764,26705.594019045744,2010-10-29 17:22:42,3451.741053815278,2,3,0.5501165986061096,4.012351512908936,2.461858952903116,1.939594741054879,9.816220586160982,7.035271729629738,3.24249267578125e-05,0.0931989923119545,0,0,0
765,26735.609024444584,2010-10-29 17:23:12,3481.7560591740184,2,3,0.550297200679779,4.014779567718506,2.466445412407645,1.939594741054879,9.834628779122433,7.035271729629738,6.47544875391759e-05,0.0931989923119545,0,0,0
766,26765.624326507805,2010-10-29 17:23:42,3511.771361252275,2,3,0.5501165986061096,4.016722202301025,2.471032003760862,1.939594741054879,9.85304746957671,7.035271729629738,3.23295607813634e-05,0.0931989923119545,0,0,0
767,26795.63929982168,2010-10-29 17:24:12,3541.786334551112,2,3,0.5501165986061096,4.019150733947754,2.47561849628865,1.939594741054879,9.87147579505636,7.035271729629738,9.71794142969884e-05,0.0931989923119545,0,0,0
768,26825.65457547408,2010-10-29 17:24:42,3571.80161020852,2,3,0.5501165986061096,4.021255016326904,2.480205002058233,1.939594741054879,9.889914100526116,7.035271729629738,6.47544875391759e-05,0.0931989923119545,0,0,0
769,26855.669598702352,2010-10-29 17:25:12,3601.8166334668717,2,3,0.5499359965324402,4.023683547973633,2.484791455999267,1.939594741054879,9.908362547646965,7.035271729629738,9.71794142969884e-05,0.0931989923119545,0,0,0
770,26885.684726471176,2010-10-29 17:25:42,3631.8317612206574,2,3,0.5501165986061096,4.025787830352783,2.489377881047704,1.939594741054879,9.92682122316464,7.035271729629738,3.23295607813634e-05,0.0931989923119545,0,0,0
771,26915.699920770818,2010-10-29 17:26:12,3661.8469555253087,2,3,0.5501165986061096,4.028054237365723,2.493964312093482,1.939594741054879,9.94529044740688,7.035271729629738,6.47544875391759e-05,0.0931989923119545,0,0,0
772,26945.715008404608,2010-10-29 17:26:42,3691.862043159104,2,3,0.5501165986061096,4.030320644378662,2.498550699452522,1.939594741054879,9.963770025855691,7.035271729629738,6.47544875391759e-05,0.0931989923119545,0,0,0
773,26975.73040057741,2010-10-29 17:27:12,3721.877435341929,2,3,0.5501165986061096,4.032749176025391,2.503137131247111,1.939594741054879,9.982260428299728,7.035271729629738,3.24249267578125e-05,0.0931989923119545,0,0,0
774,27005.745285190213,2010-10-29 17:27:42,3751.892319944708,2,3,0.5501165986061096,4.035015106201172,2.507723500402061,1.939594741054879,10.00076139775331,7.035271729629738,3.23295607813634e-05,0.0931989923119545,0,0,0
775,27035.760417445217,2010-10-29 17:28:12,3781.9074521997127,2,3,0.5501165986061096,4.037605285644531,2.512309967526829,1.939594741054879,10.019273699391034,7.035271729629738,9.70840483205393e-05,0.0931989923119545,0,0,0
776,27065.77556334423,2010-10-29 17:28:42,3811.922598073661,2,3,0.5501165986061096,4.039871692657471,2.516896421166613,1.939594741054879,10.037796904407983,7.035271729629738,6.47544875391759e-05,0.0931989923119545,0,0,0
777,27095.79088197373,2010-10-29 17:29:12,3841.93791670818,2,3,0.5501165986061096,4.042300224304199,2.521482922088233,1.939594741054879,10.056331259219688,7.035271729629738,6.47544875391759e-05,0.0931989923119545,0,0,0
778,27125.805837984484,2010-10-29 17:29:42,3871.9528727189295,2,3,0.5501165986061096,4.0447282791137695,2.526069328671758,1.939594741054879,10.074876459755393,7.035271729629738,6.47544875391759e-05,0.0931989923119545,0,0,0
779,27155.82107627877,2010-10-29 17:30:12,3901.968111043293,2,3,0.5501165986061096,4.047318458557129,2.530655823947553,1.939594741054879,10.093433274987186,7.035271729629738,3.23295607813634e-05,0.0931989923119545,0,0,0
780,27185.8361324291,2010-10-29 17:30:42,3931.9831671535208,2,3,0.5501165986061096,4.049746990203857,2.53524231574642,1.939594741054879,10.112001482110832,7.035271729629738,6.47544875391759e-05,0.0931989923119545,0,0,0
781,27215.851257902203,2010-10-29 17:31:12,3961.998292631636,2,3,0.550297200679779,4.052337169647217,2.539828836907838,1.939594741054879,10.130581120690858,7.035271729629738,9.71794142969884e-05,0.0931989923119545,0,0,0
782,27245.86638159086,2010-10-29 17:31:42,3992.0134163152775,2,3,0.5499359965324402,4.054765224456787,2.54441529209381,1.939594741054879,10.149172101741406,7.035271729629738,3.23295607813634e-05,0.0931989923119545,0,0,0
783,27275.881534166507,2010-10-29 17:32:12,4022.028568921003,2,3,0.5501165986061096,4.0573554039001465,2.549001755870527,1.939594741054879,10.16777479075731,7.035271729629738,9.70840483205393e-05,0.0931989923119545,0,0,0
784,27305.896716075265,2010-10-29 17:32:42,4052.043750829761,2,3,0.5501165986061096,4.059783935546875,2.553588257125228,1.939594741054879,10.18638942040208,7.035271729629738,6.47544875391759e-05,0.0931989923119545,0,0,0
785,27335.911799959715,2010-10-29 17:33:12,4082.05883471421,2,3,0.5501165986061096,4.062211990356445,2.558174792063792,1.939594741054879,10.205015664222362,7.035271729629738,6.47544875391759e-05,0.0931989923119545,0,0,0
786,27365.92715077444,2010-10-29 17:33:42,4112.074185538959,2,3,0.5501165986061096,4.065125942230225,2.562761044291932,1.939594741054879,10.223652634629428,7.035271729629738,9.70840483205393e-05,0.0931989923119545,0,0,0
787,27395.94209319131,2010-10-29 17:34:12,4142.08912796084,2,3,0.5499359965324402,4.067554473876953,2.567346553648195,1.939594741054879,10.242298476949353,7.035271729629738,6.47544875391759e-05,0.0931989923119545,0,0,0
788,27425.957406096542,2010-10-29 17:34:42,4172.104440825981,2,3,0.5501165986061096,4.070306301116943,2.571932134022451,1.939594741054879,10.260956829152512,7.035271729629738,9.70840483205393e-05,0.0931989923119545,0,0,0
789,27455.9723359872,2010-10-29 17:35:12,4202.11937071162,2,3,0.5501165986061096,4.073058605194092,2.576517617545054,1.939594741054879,10.279627058478866,7.035271729629738,0.0001295089750783,0.0931989923119545,0,0,0
790,27485.987471881275,2010-10-29 17:35:42,4232.134506605694,2,3,0.5501165986061096,4.075810432434082,2.58110329450987,1.939594741054879,10.298310490695668,7.035271729629738,0.0001295089750783,0.0931989923119545,0,0,0
791,27516.002658120826,2010-10-29 17:36:12,4262.149692850257,2,3,0.5499359965324402,4.078400611877441,2.585689834622443,1.939594741054879,10.317010019850647,7.035271729629738,6.47544875391759e-05,0.0931989923119545,0,0,0
792,27546.0179301943,2010-10-29 17:36:42,4292.164964923733,2,3,0.5501165986061096,4.08115291595459,2.590276351971019,1.939594741054879,10.335722111039988,7.035271729629738,6.47544875391759e-05,0.0931989923119545,0,0,0
793,27576.035547843672,2010-10-29 17:37:12,4322.1825826934055,2,3,0.5501165986061096,4.08390474319458,2.594863209339695,1.939594741054879,10.354448148953912,7.035271729629738,3.23295607813634e-05,0.0931989923119545,0,0,0
794,27606.04810628394,2010-10-29 17:37:42,4352.1951410384345,2,3,0.5501165986061096,4.08649492263794,2.599449334908353,1.939594741054879,10.37318409538,7.035271729629738,0.0,0.0931989923119545,0,0,0
795,27636.0633621821,2010-10-29 17:38:12,4382.210397031833,2,3,0.5499359965324402,4.089732646942139,2.604035827765865,1.939594741054879,10.391934483923396,7.035271729629738,9.70840483205393e-05,0.0931989923119545,0,0,0
796,27666.07837417738,2010-10-29 17:38:42,4412.225408936889,2,3,0.550297200679779,4.092484951019287,2.60862223927481,1.939594741054879,10.410697662046292,7.035271729629738,6.47544875391759e-05,0.0931989923119545,0,0,0
797,27696.09361655184,2010-10-29 17:39:12,4442.240651296307,2,3,0.550297200679779,4.095398902893066,2.613208654869017,1.939594741054879,10.429474044037754,7.035271729629738,9.71794142969884e-05,0.0931989923119545,0,0,0
798,27726.10862838672,2010-10-29 17:39:42,4472.2556631412135,2,3,0.5501165986061096,4.098312854766846,2.61779514032007,1.939594741054879,10.448264029454942,7.035271729629738,9.71794142969884e-05,0.0931989923119545,0,0,0
799,27756.12376124824,2010-10-29 17:40:12,4502.27079600273,2,3,0.5499359965324402,4.101388454437256,2.622381603044957,1.939594741054879,10.467067375083282,7.035271729629738,0.0001295089750783,0.0931989923119545,0,0,0
800,27786.138914706084,2010-10-29 17:40:42,4532.285949435516,2,3,0.5499359965324402,4.104302406311035,2.626968049364441,1.939594741054879,10.485884199632176,7.035271729629738,6.47544875391759e-05,0.0931989923119545,0,0,0
801,27816.15418184225,2010-10-29 17:41:12,4562.301216601761,2,3,0.5499359965324402,4.107216358184815,2.631554511915002,1.939594741054879,10.504714768853658,7.035271729629738,6.47544875391759e-05,0.0931989923119545,0,0,0
802,27846.16917611336,2010-10-29 17:41:42,4592.31621083778,2,3,0.5501165986061096,4.110292434692383,2.63614089819409,1.939594741054879,10.523558684033938,7.035271729629738,9.71794142969884e-05,0.0931989923119545,0,0,0
803,27876.184315285605,2010-10-29 17:42:12,4622.3313500401,2,3,0.5501165986061096,4.113368034362793,2.640727423361822,1.939594741054879,10.542417102956726,7.035271729629738,0.0001295089750783,0.0931989923119545,0,0,0
804,27906.19947124469,2010-10-29 17:42:42,4652.346505999182,2,3,0.550297200679779,4.116281986236572,2.645313849401884,1.939594741054879,10.561289072673434,7.035271729629738,9.71794142969884e-05,0.0931989923119545,0,0,0
805,27936.21460105861,2010-10-29 17:43:12,4682.361635813103,2,3,0.5499359965324402,4.119195938110352,2.649900370770782,1.939594741054879,10.58017566221541,7.035271729629738,6.47544875391759e-05,0.0931989923119545,0,0,0
806,27966.22995190341,2010-10-29 17:43:42,4712.376986677951,2,3,0.5499359965324402,4.122433662414551,2.654486842439129,1.939594741054879,10.599076317169306,7.035271729629738,6.47544875391759e-05,0.0931989923119545,0,0,0
807,27996.24488721256,2010-10-29 17:44:12,4742.391921972069,2,3,0.5501165986061096,4.125509262084961,2.659073269075752,1.939594741054879,10.617991143024284,7.035271729629738,6.47544875391759e-05,0.0931989923119545,0,0,0
808,28026.260049286884,2010-10-29 17:44:42,4772.407084041381,2,3,0.5501165986061096,4.128909111022949,2.663659738626199,1.939594741054879,10.636920765086735,7.035271729629738,0.0001295089750783,0.0931989923119545,0,0,0
809,28056.27529484929,2010-10-29 17:45:12,4802.422329688994,2,3,0.5501165986061096,4.132146835327148,2.668246223627375,1.939594741054879,10.655865105563356,7.035271729629738,6.47544875391759e-05,0.0931989923119545,0,0,0
810,28086.290308042557,2010-10-29 17:45:42,4832.437342797049,2,3,0.5501165986061096,4.135222434997559,2.67283270084355,1.939594741054879,10.67482415796684,7.035271729629738,6.47544875391759e-05,0.0931989923119545,0,0,0
811,28116.30543672365,2010-10-29 17:46:12,4862.45247148817,2,3,0.5501165986061096,4.138460159301758,2.6774192468382,1.939594741054879,10.69379836271668,7.035271729629738,9.70840483205393e-05,0.0931989923119545,0,0,0
812,28146.32059208625,2010-10-29 17:46:42,4892.467626845753,2,3,0.5501165986061096,4.141860008239746,2.682005775001118,1.939594741054879,10.71278757976112,7.035271729629738,9.71794142969884e-05,0.0931989923119545,0,0,0
813,28176.33571303307,2010-10-29 17:47:12,4922.4827477625,2,3,0.5501165986061096,4.145097732543945,2.686592208891236,1.939594741054879,10.731791588108944,7.035271729629738,3.24249267578125e-05,0.0931989923119545,0,0,0
814,28206.35084102745,2010-10-29 17:47:43,4952.497875756887,2,3,0.5499359965324402,4.1486592292785645,2.69117864045696,1.939594741054879,10.750811085921226,7.035271729629738,9.71794142969884e-05,0.0931989923119545,0,0,0
815,28236.366003748382,2010-10-29 17:48:13,4982.513038477821,2,3,0.550297200679779,4.151896953582764,2.695765051385878,1.939594741054879,10.769845884039194,7.035271729629738,9.71794142969884e-05,0.0931989923119545,0,0,0
816,28266.381430487338,2010-10-29 17:48:43,5012.528465372158,2,3,0.5501165986061096,4.155296325683594,2.700351536238546,1.939594741054879,10.7888964869989,7.035271729629738,6.47544875391759e-05,0.0931989923119545,0,0,0
817,28296.396352989577,2010-10-29 17:49:13,5042.543387724019,2,3,0.5499359965324402,4.158696174621582,2.704937860460257,1.939594741054879,10.807962060463415,7.035271729629738,6.47544875391759e-05,0.0931989923119545,0,0,0
818,28326.41139226785,2010-10-29 17:49:43,5072.558426997285,2,3,0.5501165986061096,4.162257671356201,2.709524210807539,1.939594741054879,10.82704350560574,7.035271729629738,0.0001295089750783,0.0931989923119545,0,0,0
819,28356.42666346414,2010-10-29 17:50:13,5102.573698238688,2,3,0.550297200679779,4.165657043457031,2.714110625771488,1.939594741054879,10.846141028748042,7.035271729629738,6.47544875391759e-05,0.0931989923119545,0,0,0
820,28386.441876234818,2010-10-29 17:50:43,5132.588910989311,2,3,0.5501165986061096,4.16905689239502,2.718696989200474,1.939594741054879,10.865254232854332,7.035271729629738,9.71794142969884e-05,0.0931989923119545,0,0,0
821,28416.456800356085,2010-10-29 17:51:13,5162.603835090533,2,3,0.5501165986061096,4.172618389129639,2.723283305193117,1.939594741054879,10.884383186794189,7.035271729629738,0.0001295089750783,0.0931989923119545,0,0,0
822,28446.471997658213,2010-10-29 17:51:43,5192.619032392656,2,3,0.550297200679779,4.176179885864258,2.727869656698431,1.939594741054879,10.903528396366596,7.035271729629738,9.71794142969884e-05,0.0931989923119545,0,0,0
823,28476.487115392025,2010-10-29 17:52:13,5222.634150146519,2,3,0.5501165986061096,4.179741382598877,2.732455972347996,1.939594741054879,10.9226898295644,7.035271729629738,6.47544875391759e-05,0.0931989923119545,0,0,0
824,28506.50239722482,2010-10-29 17:52:43,5252.649431989343,2,3,0.5501165986061096,4.183302879333496,2.737042398707763,1.939594741054879,10.941868087435072,7.035271729629738,9.71794142969884e-05,0.0931989923119545,0,0,0
825,28536.517388814245,2010-10-29 17:53:13,5282.664423543678,2,3,0.5499359965324402,4.186864376068115,2.74162884046994,1.939594741054879,10.96106290116032,7.035271729629738,6.47544875391759e-05,0.0931989923119545,0,0,0
826,28566.532536111743,2010-10-29 17:53:43,5312.679570876261,2,3,0.5501165986061096,4.190587520599365,2.746215225877243,1.939594741054879,10.980274065693582,7.035271729629738,9.70840483205393e-05,0.0931989923119545,0,0,0
827,28596.547792355766,2010-10-29 17:54:13,5342.694827090209,2,3,0.5497553944587708,4.194149017333984,2.750801652145663,1.939594741054879,10.999502132568638,7.035271729629738,9.70840483205393e-05,0.0931989923119545,0,0,0
828,28626.56288571884,2010-10-29 17:54:43,5372.709920503408,2,3,0.5501165986061096,4.197872161865234,2.755387978000524,1.939594741054879,11.018746579423794,7.035271729629738,9.70840483205393e-05,0.0931989923119545,0,0,0
829,28642.750066438864,2010-10-29 17:54:59,5388.897101198371,2,3,0.5501165986061096,4.200138568878174,2.757861402179757,1.939594741054879,11.029132245968276,7.035271729629738,0.0001295089750783,0.0931989923119545,0,0,0
830,28672.76557589106,2010-10-29 17:55:29,30.015119999460197,3,3,0.0,4.109158992767334,2.757861402179757,1.939594741054879,11.029132245968276,7.035271729629738,-0.0004209518374409,0.0931989923119545,0,0,0
831,28702.78106070475,2010-10-29 17:55:59,60.03060482317469,3,3,0.0,4.097989082336426,2.757861402179757,1.939594741054879,11.029132245968276,7.035271729629738,-0.0002265930233988,0.0931989923119545,0,0,0
832,28732.79587401485,2010-10-29 17:56:29,90.04541812324562,3,3,0.0,4.091027736663818,2.757861402179757,1.939594741054879,11.029132245968276,7.035271729629738,-0.0001295089750783,0.0931989923119545,0,0,0
833,28762.76414757857,2010-10-29 17:56:59,120.01369169198618,3,3,0.0,4.08649492263794,2.757861402179757,1.939594741054879,11.029132245968276,7.035271729629738,-9.71794142969884e-05,0.0931989923119545,0,0,0
834,28762.76453029411,2010-10-29 17:56:59,2.796970912e-06,4,3,0.9947766661643982,4.199814796447754,2.757861402952635,1.939594741054879,11.029132249214223,7.035271729629738,0.0,0.0931989923119545,0,0,0
835,28763.561343738387,2010-10-29 17:57:00,0.796816241247417,4,3,0.944386661052704,4.199653148651123,2.758074325212604,1.939594741054879,11.030026466029092,7.035271729629738,-3.23295607813634e-05,0.0931989923119545,0,0,0
836,28765.7019198126,2010-10-29 17:57:02,2.937392305438169,4,3,0.894177258014679,4.199653148651123,2.758619738955201,1.939594741054879,11.032317061482326,7.035271729629738,-3.23295607813634e-05,0.0931989923119545,0,0,0
837,28768.967497336584,2010-10-29 17:57:05,6.202969829421019,4,3,0.8441485166549683,4.199653148651123,2.759406870684593,1.939594741054879,11.035622826738273,7.035271729629738,0.0,0.0931989923119545,0,0,0
838,28773.45178042482,2010-10-29 17:57:10,10.687252882568863,4,3,0.7939391136169434,4.199653148651123,2.760425708213516,1.939594741054879,11.039901702876085,7.035271729629738,0.0,0.0931989923119545,0,0,0
839,28779.373567149425,2010-10-29 17:57:16,16.609039617199787,4,3,0.7435491681098938,4.199653148651123,2.761688639888856,1.939594741054879,11.045205720606498,7.035271729629738,0.0,0.0931989923119545,0,0,0
840,28787.092229711503,2010-10-29 17:57:24,24.327702214365036,4,3,0.6935203671455383,4.199976921081543,2.763227124531306,1.939594741054879,11.051666995255216,7.035271729629738,6.47544875391759e-05,0.0931989923119545,0,0,0
841,28797.38891063357,2010-10-29 17:57:34,34.624383091319906,4,3,0.6433110237121582,4.199653148651123,2.765135900788671,1.939594741054879,11.059683444175008,7.035271729629738,-3.23295607813634e-05,0.0931989923119545,0,0,0
842,28812.01365697637,2010-10-29 17:57:48,49.24912944415312,4,3,0.5932822227478027,4.199653148651123,2.767642116153295,1.939594741054879,11.070208976942364,7.035271729629738,-3.23295607813634e-05,0.0931989923119545,0,0,0
843,28834.12268265114,2010-10-29 17:58:11,71.35815524923656,4,3,0.5430728793144226,4.199653148651123,2.771120779409976,1.939594741054879,11.084818553501664,7.035271729629738,-3.23295607813634e-05,0.0931989923119545,0,0,0
844,28873.74712878805,2010-10-29 17:58:50,110.98260129090964,4,3,0.4930440783500671,4.199976921081543,2.776795753865199,1.939594741054879,11.108652208298926,7.035271729629738,3.24249267578125e-05,0.0931989923119545,0,0,0
845,28946.605243873724,2010-10-29 18:00:03,183.84071643673465,4,3,0.443015307188034,4.199653148651123,2.786223157529741,1.939594741054879,11.14824527352763,7.035271729629738,-3.23295607813634e-05,0.0931989923119545,0,0,0
846,29057.197305113663,2010-10-29 18:01:54,294.4327775864462,4,3,0.392986536026001,4.199653148651123,2.799037246825124,1.939594741054879,11.202061644300969,7.035271729629738,-3.23295607813634e-05,0.0931989923119545,0,0,0
847,29194.56995106588,2010-10-29 18:04:11,431.8054235286406,4,3,0.3429577648639679,4.199814796447754,2.813062303325146,1.939594741054879,11.260963912070329,7.035271729629738,3.23295607813634e-05,0.0931989923119545,0,0,0
848,29359.44235319696,2010-10-29 18:06:56,596.677825709846,4,3,0.2929289937019348,4.199653148651123,2.827603944564837,1.939594741054879,11.32203573006821,7.035271729629738,-6.47544875391759e-05,0.0931989923119545,0,0,0
849,29559.501684076226,2010-10-29 18:10:16,796.7371566793393,4,3,0.2427196204662323,4.199814796447754,2.842463509455124,1.939594741054879,11.3844427504394,7.035271729629738,0.0,0.0931989923119545,0,0,0
850,29806.09129007309,2010-10-29 18:14:23,1043.3267625358585,4,3,0.1925102472305297,4.199653148651123,2.857344074278869,1.939594741054879,11.446937948083557,7.035271729629738,-3.23295607813634e-05,0.0931989923119545,0,0,0
851,30132.02349182169,2010-10-29 18:19:48,1369.2589642894598,4,3,0.1424814760684967,4.199491024017334,2.872458027650059,1.939594741054879,11.510413274708284,7.035271729629738,-6.47544875391759e-05,0.0931989923119545,0,0,0
852,30621.78117602038,2010-10-29 18:27:58,1859.0166484881552,4,3,0.0924527049064636,4.199653148651123,2.888244317411419,1.939594741054879,11.576712291447455,7.035271729629738,0.0,0.0931989923119545,0,0,0
853,31389.206204582337,2010-10-29 18:40:46,2626.441677045097,4,3,0.0498289167881011,4.199814796447754,2.902951975918225,1.939594741054879,11.638481485419836,7.035271729629738,0.0,0.0931989923119545,0,0,0
854,31419.22160370929,2010-10-29 18:41:16,30.015327326182177,5,3,0.0,4.191397190093994,2.902951975918225,1.939594741054879,11.638481485419836,7.035271729629738,0.0,0.0931989923119545,0,0,0
855,31449.22089160528,2010-10-29 18:41:46,60.01461517705666,5,3,0.0,4.1901021003723145,2.902951975918225,1.939594741054879,11.638481485419836,7.035271729629738,0.0,0.0931989923119545,0,0,0
856,31449.409358965542,2010-10-29 18:41:46,0.187400128782504,6,3,-1.9243103452026844e-05,4.189939975738525,2.902951979617446,1.939594741054879,11.638481500919646,7.035271729629738,-3.24249267578125e-05,0.0971632748842239,0,0,0
857,31454.2374184353,2010-10-29 18:41:51,5.015459633625343,6,3,0.0007031940040178,4.189778327941895,2.902952952874494,1.939594741221906,11.638485578903529,7.035271730329572,-6.47544875391759e-05,0.0971632748842239,0,0,0
858,31484.253455939368,2010-10-29 18:42:21,30.014915895771,7,3,-1.099568486213684,3.99907660484314,2.902952952874494,1.948761722278404,11.638485578903529,7.072145181811841,-0.0010036944877356,0.0971632748842239,0,0,0
859,31514.26887647285,2010-10-29 18:42:51,60.03033642424196,7,3,-1.099568486213684,3.969127893447876,2.902952952874494,1.957928883680627,11.638485578903529,7.108659352370001,-0.0006799221155233,0.0971632748842239,0,0,0
860,31544.283757982925,2010-10-29 18:43:21,90.04521793431321,7,3,-1.0997490882873535,3.947920799255371,2.902952952874494,1.967095725465564,11.638485578903529,7.144943003189814,-0.0005180359003134,0.0971632748842239,0,0,0
861,31574.2988673158,2010-10-29 18:43:51,120.06032728222648,7,3,-1.0993878841400146,3.931894063949585,2.902952952874494,1.976262656372696,11.638485578903529,7.181058758438817,-0.0004209041653666,0.0971632748842239,0,0,0
862,31604.31400326501,2010-10-29 18:44:21,150.0754631913384,7,3,-1.0993878841400146,3.918781280517578,2.902952952874494,1.985429606138979,11.638485578903529,7.217040809291875,-0.0003561496851034,0.0971632748842239,0,0,0
863,31634.329273042764,2010-10-29 18:44:51,180.0907329841297,7,3,-1.0993878841400146,3.90728759765625,2.902952952874494,1.994596566027945,11.638485578903529,7.252910263318143,-0.0002590179501567,0.0971632748842239,0,0,0
864,31664.346876386484,2010-10-29 18:45:21,210.10833634789785,7,3,-1.0993878841400146,3.896926879882813,2.902952952874494,2.003764240323509,11.638485578903529,7.288682066599606,-0.0002590179501567,0.0971632748842239,0,0,0
865,31694.359427759136,2010-10-29 18:45:51,240.12088772556217,7,3,-1.0993878841400146,3.887213706970215,2.902952952874494,2.012930415891699,11.638485578903529,7.324356116971916,-0.0002266406954731,0.0971632748842239,0,0,0
866,31724.3746828954,2010-10-29 18:46:21,270.1361428668373,7,3,-1.0993878841400146,3.877824306488037,2.902952952874494,2.022097445325334,11.638485578903529,7.359946482777363,-0.0002590179501567,0.0971632748842239,0,0,0
867,31754.389729131017,2010-10-29 18:46:51,300.15118906235546,7,3,-1.0992072820663452,3.869082450866699,2.902952952874494,2.031264364343652,11.638485578903529,7.395453767773106,-0.0001942634553415,0.0971632748842239,0,0,0
868,31784.404882253028,2010-10-29 18:47:21,330.1663422144421,7,3,-1.0997490882873535,3.8605024814605713,2.902952952874494,2.040431349239225,11.638485578903529,7.430881548315242,-0.0001942634553415,0.0971632748842239,0,0,0
869,31814.41996410241,2010-10-29 18:47:51,360.18142403374566,7,3,-1.0993878841400146,3.8519225120544434,2.902952952874494,2.049598282394388,11.638485578903529,7.466231058134328,-0.0002266406954731,0.0971632748842239,0,0,0
870,31844.435147254266,2010-10-29 18:48:21,390.19660727081344,7,3,-1.0993878841400146,3.843828201293945,2.902952952874494,2.058765298558623,11.638485578903529,7.501504651553363,-0.0001942634553415,0.0971632748842239,0,0,0
871,31874.450264817653,2010-10-29 18:48:51,420.2117247740523,7,3,-1.0993878841400146,3.8357338905334473,2.902952952874494,2.067932224763314,11.638485578903529,7.536703645908121,-0.0002266406954731,0.0971632748842239,0,0,0
872,31904.46550652043,2010-10-29 18:49:21,450.2269664718221,7,3,-1.0993878841400146,3.827963590621948,2.902952952874494,2.077099221937149,11.638485578903529,7.571830961678592,-0.0002266406954731,0.0971632748842239,0,0,0
873,31934.48053279129,2010-10-29 18:49:51,480.2419927376693,7,3,-1.0993878841400146,3.82035493850708,2.902952952874494,2.086266138544061,11.638485578903529,7.606887098042535,-0.0002266406954731,0.0971632748842239,0,0,0
874,31964.49566975804,2010-10-29 18:50:21,510.2571296843672,7,3,-1.099568486213684,3.812746286392212,2.902952952874494,2.095433127311465,11.638485578903529,7.641873394702055,-0.0001618862152099,0.0971632748842239,0,0,0
875,31994.51079476498,2010-10-29 18:50:51,540.27225469632,7,3,-1.099568486213684,3.8052995204925537,2.902952952874494,2.104600035630746,11.638485578903529,7.676789709533413,-0.0002266406954731,0.0971632748842239,0,0,0
876,32024.525924147827,2010-10-29 18:51:21,570.287384074154,7,3,-1.099568486213684,3.7980146408081055,2.902952952874494,2.113766999162193,11.638485578903529,7.711638783729983,-0.0001618862152099,0.0971632748842239,0,0,0
877,32054.54105543542,2010-10-29 18:51:51,600.3025153717726,7,3,-1.099568486213684,3.790729761123657,2.902952952874494,2.122934004258723,11.638485578903529,7.746421873476476,-0.0002266406954731,0.0971632748842239,0,0,0
878,32084.556195048764,2010-10-29 18:52:21,630.3176550001543,7,3,-1.099568486213684,3.783606767654419,2.902952952874494,2.132101029325004,11.638485578903529,7.781139705895381,-0.0002266406954731,0.0971632748842239,0,0,0
879,32114.571364912503,2010-10-29 18:52:51,660.332824878929,7,3,-1.0993878841400146,3.7769694328308105,2.902952952874494,2.141268062209537,11.638485578903529,7.815794170936422,-0.0001618862152099,0.0971632748842239,0,0,0
880,32144.586616369597,2010-10-29 18:53:21,690.3480763009346,7,3,-1.099568486213684,3.770170211791992,2.902952952874494,2.150435073591889,11.638485578903529,7.850386021226077,-0.0001942634553415,0.0971632748842239,0,0,0
881,32174.60175226868,2010-10-29 18:53:51,720.3632122050341,7,3,-1.099568486213684,3.763370990753174,2.902952952874494,2.159602064478366,11.638485578903529,7.884916210230023,-0.0001942634553415,0.0971632748842239,0,0,0
882,32204.61674175787,2010-10-29 18:54:21,750.3782016841974,7,3,-1.099568486213684,3.756895542144776,2.902952952874494,2.168769012432215,11.638485578903529,7.919385936506843,-0.0001618862152099,0.0971632748842239,0,0,0
883,32234.6318936418,2010-10-29 18:54:51,780.3933535631112,7,3,-1.0993878841400146,3.750744104385376,2.902952952874494,2.177936072824072,11.638485578903529,7.953797661451346,-0.0001618862152099,0.0971632748842239,0,0,0
884,32264.647017581075,2010-10-29 18:55:21,810.4084775023906,7,3,-1.0997490882873535,3.7445924282073975,2.902952952874494,2.187103112904147,11.638485578903529,7.988152335534829,-0.0001618862152099,0.0971632748842239,0,0,0
885,32294.66213328483,2010-10-29 18:55:52,840.4235932111569,7,3,-1.0993878841400146,3.738440752029419,2.902952952874494,2.196270185671396,11.638485578903529,8.022451091382772,-0.0001942634553415,0.0971632748842239,0,0,0
886,32324.67726648218,2010-10-29 18:56:22,870.438726413523,7,3,-1.0997490882873535,3.7324509620666495,2.902952952874494,2.205437213110141,11.638485578903529,8.056693741369934,-0.0001618862152099,0.0971632748842239,0,0,0
887,32354.677831105164,2010-10-29 18:56:52,900.4392911718437,7,3,-1.099568486213684,3.726623058319092,2.902952952874494,2.214599786593191,11.638485578903529,8.090865278842772,-0.0001295089750783,0.0971632748842239,0,0,0
888,32384.69198894663,2010-10-29 18:57:22,930.4534488980228,7,3,-1.099568486213684,3.720795154571533,2.902952952874494,2.223766550412484,11.638485578903529,8.124999255930218,-0.0001942634553415,0.0971632748842239,0,0,0
889,32414.70709905645,2010-10-29 18:57:52,960.4685590128472,7,3,-1.0993878841400146,3.7152910232543945,2.902952952874494,2.232933522781145,11.638485578903529,8.159081445546247,-0.0001295089750783,0.0971632748842239,0,0,0
890,32444.722305922405,2010-10-29 18:58:22,990.4837658938432,7,3,-1.0993878841400146,3.709463119506836,2.902952952874494,2.242100534160276,11.638485578903529,8.193111526602744,-0.0001295089750783,0.0971632748842239,0,0,0
891,32474.737508537768,2010-10-29 18:58:52,1020.4989684791326,7,3,-1.0993878841400146,3.703958988189697,2.902952952874494,2.25126758884106,11.638485578903529,8.227090679383041,-0.0001295089750783,0.0971632748842239,0,0,0
892,32504.752540091795,2010-10-29 18:59:22,1050.514000018122,7,3,-1.0993878841400146,3.698454856872559,2.902952952874494,2.260434580494704,11.638485578903529,8.261019021478017,-0.0001295089750783,0.0971632748842239,0,0,0
893,32534.767663204013,2010-10-29 18:59:52,1080.5291231353528,7,3,-1.099568486213684,3.69295072555542,2.902952952874494,2.26960157654548,11.638485578903529,8.294897277949103,-0.0001295089750783,0.0971632748842239,0,0,0
894,32564.78278420096,2010-10-29 19:00:22,1110.5442441272864,7,3,-1.0993878841400146,3.687770366668701,2.902952952874494,2.278768644250282,11.638485578903529,8.328726978693366,-0.0001295089750783,0.0971632748842239,0,0,0
895,32594.79792135317,2010-10-29 19:00:52,1140.5593812744842,7,3,-1.0993878841400146,3.682751893997192,2.902952952874494,2.287935603484105,11.638485578903529,8.362508702586577,-0.0001295089750783,0.0971632748842239,0,0,0
896,32624.81319658953,2010-10-29 19:01:22,1170.5746565208674,7,3,-1.0993878841400146,3.677409648895264,2.902952952874494,2.297102660259507,11.638485578903529,8.39624345500675,-0.0001618862152099,0.0971632748842239,0,0,0
897,32654.82826752169,2010-10-29 19:01:52,1200.5897274831116,7,3,-1.0993878841400146,3.672391414642334,2.902952952874494,2.306269678369548,11.638485578903529,8.429931245646063,-0.0001618385285837,0.0971632748842239,0,0,0
898,32684.84333286995,2010-10-29 19:02:22,1230.6047928012892,7,3,-1.0993878841400146,3.667372941970825,2.902952952874494,2.315436725868035,11.638485578903529,8.463573145933704,-0.0001295089750783,0.0971632748842239,0,0,0
899,32714.858470032184,2010-10-29 19:02:52,1260.6199299835744,7,3,-1.099568486213684,3.662354469299317,2.902952952874494,2.324603766235085,11.638485578903529,8.497169443745348,-0.0001295089750783,0.0971632748842239,0,0,0
900,32744.87362996617,2010-10-29 19:03:22,1290.6350898925014,7,3,-1.0993878841400146,3.657659769058228,2.902952952874494,2.333770795776186,11.638485578903529,8.530720524536823,-0.0001295089750783,0.0971632748842239,0,0,0
901,32774.88874916865,2010-10-29 19:03:52,1320.6502091050002,7,3,-1.0993878841400146,3.652641296386719,2.902952952874494,2.342937816465452,11.638485578903529,8.564226944755196,-0.0001618862152099,0.0971632748842239,0,0,0
902,32804.90391593968,2010-10-29 19:04:22,1350.6653758860546,7,3,-1.099568486213684,3.64794659614563,2.902952952874494,2.352104812222318,11.638485578903529,8.597689845614113,-0.0001618862152099,0.0971632748842239,0,0,0
903,32834.91903887144,2010-10-29 19:04:52,1380.680498827848,7,3,-1.099568486213684,3.643413782119751,2.902952952874494,2.361271773133377,11.638485578903529,8.63110907715816,-9.713172767078504e-05,0.0971632748842239,0,0,0
904,32864.934179316864,2010-10-29 19:05:22,1410.6956392431907,7,3,-1.0993878841400146,3.638719081878662,2.902952952874494,2.370438775260753,11.638485578903529,8.664486339681567,-0.0001295089750783,0.0971632748842239,0,0,0
905,32894.94929514092,2010-10-29 19:05:52,1440.7107550722567,7,3,-1.0992072820663452,3.634348154067993,2.902952952874494,2.379605716356547,11.638485578903529,8.69782190945061,-0.0001295089750783,0.0971632748842239,0,0,0
906,32924.96443273423,2010-10-29 19:06:22,1470.725892660554,7,3,-1.099568486213684,3.629815340042114,2.902952952874494,2.388772711225613,11.638485578903529,8.731116610742891,-0.0001295089750783,0.0971632748842239,0,0,0
907,32954.97959577596,2010-10-29 19:06:52,1500.7410557073013,7,3,-1.099568486213684,3.6252825260162354,2.902952952874494,2.397939782191705,11.638485578903529,8.764370584495657,-0.0001295089750783,0.0971632748842239,0,0,0
908,32984.99471619647,2010-10-29 19:07:22,1530.7561761278107,7,3,-1.0993878841400146,3.621073484420776,2.902952952874494,2.40710680323807,11.638485578903529,8.797584522352654,-0.0001295089750783,0.0971632748842239,0,0,0
909,33015.009855624354,2010-10-29 19:07:52,1560.7713155556926,7,3,-1.099568486213684,3.6170263290405273,2.902952952874494,2.41627381476111,11.638485578903529,8.830759766460162,-6.47544875391759e-05,0.0971632748842239,0,0,0
910,33045.02498952847,2010-10-29 19:08:22,1590.786449454795,7,3,-1.0993878841400146,3.612817287445069,2.902952952874494,2.425440779651632,11.638485578903529,8.863896548016998,-9.713172767078504e-05,0.0971632748842239,0,0,0
911,33075.04012129225,2010-10-29 19:08:52,1620.8015812185756,7,3,-1.099568486213684,3.60860824584961,2.902952952874494,2.434607749525849,11.638485578903529,8.896995855898448,-0.0001295089750783,0.0971632748842239,0,0,0
912,33105.05540628793,2010-10-29 19:09:22,1650.8168662292946,7,3,-1.099568486213684,3.60456109046936,2.902952952874494,2.443774788314958,11.638485578903529,8.930058049321058,-0.0001295089750783,0.0971632748842239,0,0,0
913,33135.070517861386,2010-10-29 19:09:52,1680.831977797742,7,3,-1.099568486213684,3.6008377075195312,2.902952952874494,2.452941854772185,11.638485578903529,8.963084260305797,-0.0001295089750783,0.0971632748842239,0,0,0
914,33165.08555443794,2010-10-29 19:10:22,1710.8470143893242,7,3,-1.0993878841400146,3.596952438354492,2.902952952874494,2.462108860637879,11.638485578903529,8.996075073835954,-9.713172767078504e-05,0.0971632748842239,0,0,0
915,33195.10069563523,2010-10-29 19:10:52,1740.862155606666,7,3,-1.0993878841400146,3.593390941619873,2.902952952874494,2.47127587016993,11.638485578903529,9.029031303122595,-6.47544875391759e-05,0.0971632748842239,0,0,0
916,33225.11582524364,2010-10-29 19:11:22,1770.877285200037,7,3,-1.0993878841400146,3.589667797088623,2.902952952874494,2.480442898579459,11.638485578903529,9.061953858017322,-9.713172767078504e-05,0.0971632748842239,0,0,0
917,33255.13094690223,2010-10-29 19:11:52,1800.8924068686574,7,3,-1.0992072820663452,3.585944414138794,2.902952952874494,2.48960990588623,11.638485578903529,9.09484315558088,-0.0001295089750783,0.0971632748842239,0,0,0
918,33285.1460932674,2010-10-29 19:12:22,1830.9075532087663,7,3,-1.099568486213684,3.5825448036193848,2.902952952874494,2.49877691506946,11.638485578903529,9.127699756874218,-9.713172767078504e-05,0.0971632748842239,0,0,0
919,33315.16122099111,2010-10-29 19:12:52,1860.922680952528,7,3,-1.0993878841400146,3.5789833068847656,2.902952952874494,2.507943876259449,11.638485578903529,9.160524724693689,-6.47544875391759e-05,0.0971632748842239,0,0,0
920,33345.17637344646,2010-10-29 19:13:22,1890.9378333778031,7,3,-1.099568486213684,3.5755836963653564,2.902952952874494,2.517110960887838,11.638485578903529,9.193318695469763,-0.0001295089750783,0.0971632748842239,0,0,0
921,33375.19151492445,2010-10-29 19:13:52,1920.9529748557943,7,3,-1.0997490882873535,3.572345972061157,2.902952952874494,2.526277981167774,11.638485578903529,9.226081729452217,-9.713172767078504e-05,0.0971632748842239,0,0,0
922,33405.20684637592,2010-10-29 19:14:22,1950.9683063423456,7,3,-1.0993878841400146,3.569108247756958,2.902952952874494,2.535445055281147,11.638485578903529,9.258814612102263,-6.47544875391759e-05,0.0971632748842239,0,0,0
923,33435.22184718332,2010-10-29 19:14:52,1980.98330716478,7,3,-1.0993878841400146,3.565870523452759,2.902952952874494,2.544612074366507,11.638485578903529,9.291517107822315,-6.47544875391759e-05,0.0971632748842239,0,0,0
924,33465.23713062512,2010-10-29 19:15:22,2010.9985905765136,7,3,-1.099568486213684,3.56263279914856,2.902952952874494,2.553779141125257,11.638485578903529,9.32418986532771,-6.47544875391759e-05,0.0971632748842239,0,0,0
925,33495.252074485594,2010-10-29 19:15:52,2041.013534457032,7,3,-1.0993878841400146,3.5593950748443604,2.902952952874494,2.562946126721449,11.638485578903529,9.356833705595331,-6.47544875391759e-05,0.0971632748842239,0,0,0
926,33525.26718284103,2010-10-29 19:16:22,2071.0286427974333,7,3,-1.099568486213684,3.556319236755371,2.902952952874494,2.572113072347517,11.638485578903529,9.389448306368138,-6.47544875391759e-05,0.0971632748842239,0,0,0
927,33555.28231689552,2010-10-29 19:16:52,2101.043776861949,7,3,-1.099568486213684,3.552919626235962,2.902952952874494,2.581280117899599,11.638485578903529,9.422034384356554,-0.0001295089750783,0.0971632748842239,0,0,0
928,33585.29749004746,2010-10-29 19:17:22,2131.0589499687685,7,3,-1.0993878841400146,3.5500056743621826,2.902952952874494,2.590447164542969,11.638485578903529,9.454591888644948,-6.47544875391759e-05,0.0971632748842239,0,0,0
929,33615.315469267975,2010-10-29 19:17:52,2161.0769293346493,7,3,-1.0993878841400146,3.5470917224884038,2.902952952874494,2.599615052839978,11.638485578903529,9.487124046119588,0.0,0.0971632748842239,0,0,0
930,33645.3277808931,2010-10-29 19:18:22,2191.0892408444897,7,3,-1.099568486213684,3.543853998184204,2.902952952874494,2.608781250470145,11.638485578903529,9.51962193111832,-9.713172767078504e-05,0.0971632748842239,0,0,0
931,33675.3429914683,2010-10-29 19:18:52,2221.1044514096675,7,3,-1.099568486213684,3.540778160095215,2.902952952874494,2.617948204442533,11.638485578903529,9.552093800713973,-6.47544875391759e-05,0.0971632748842239,0,0,0
932,33705.35803754853,2010-10-29 19:19:22,2251.1194974748605,7,3,-1.099568486213684,3.5377023220062256,2.902952952874494,2.627115222042735,11.638485578903529,9.58453714868349,-6.47544875391759e-05,0.0971632748842239,0,0,0
933,33735.37317690624,2010-10-29 19:19:52,2281.13463683758,7,3,-1.099568486213684,3.5343027114868164,2.902952952874494,2.636282246524815,11.638485578903529,9.616951601369747,-9.713172767078504e-05,0.0971632748842239,0,0,0
934,33765.38827971786,2010-10-29 19:20:22,2311.1497396492027,7,3,-1.099568486213684,3.531064987182617,2.902952952874494,2.645449281360414,11.638485578903529,9.649337087969986,-9.713172767078504e-05,0.0971632748842239,0,0,0
935,33795.40343685989,2010-10-29 19:20:52,2341.164896811284,7,3,-1.099568486213684,3.527989149093628,2.902952952874494,2.654616290997746,11.638485578903529,9.6816929997044,-6.47544875391759e-05,0.0971632748842239,0,0,0
936,33825.41859104455,2010-10-29 19:21:22,2371.180051005969,7,3,-1.0993878841400146,3.5247514247894287,2.902952952874494,2.663783371829803,11.638485578903529,9.714019196276375,-6.47544875391759e-05,0.0971632748842239,0,0,0
937,33855.433815233686,2010-10-29 19:21:52,2401.1952751600143,7,3,-1.0993878841400146,3.5211899280548096,2.902952952874494,2.672950487245061,11.638485578903529,9.746314424665837,-9.713172767078504e-05,0.0971632748842239,0,0,0
938,33885.44882490317,2010-10-29 19:22:22,2431.210284869598,7,3,-1.0993878841400146,3.5177903175354004,2.902952952874494,2.682117468168067,11.638485578903529,9.778577931040108,-9.713172767078504e-05,0.0971632748842239,0,0,0
939,33915.463961739595,2010-10-29 19:22:52,2461.225421665921,7,3,-1.099568486213684,3.5140669345855717,2.902952952874494,2.69128454396294,11.638485578903529,9.810809491556029,-0.0001618862152099,0.0971632748842239,0,0,0
940,33945.4791165057,2010-10-29 19:23:22,2491.2405764270184,7,3,-1.0992072820663452,3.510667562484741,2.902952952874494,2.700451623250304,11.638485578903529,9.84300766058249,-6.47544875391759e-05,0.0971632748842239,0,0,0
941,33975.49423605404,2010-10-29 19:23:52,2521.255695975354,7,3,-1.099568486213684,3.506620407104492,2.902952952874494,2.709618694991196,11.638485578903529,9.875171659045966,-0.0001295089750783,0.0971632748842239,0,0,0
942,34005.50939485521,2010-10-29 19:24:22,2551.2708547815328,7,3,-1.099568486213684,3.502897024154663,2.902952952874494,2.718785743613318,11.638485578903529,9.90730024172024,-9.713172767078504e-05,0.0971632748842239,0,0,0
943,34035.52457374644,2010-10-29 19:24:52,2581.286033798081,7,3,-1.0993878841400146,3.498687982559204,2.902952952874494,2.727952859456624,11.638485578903529,9.939391812187212,-9.713172767078504e-05,0.0971632748842239,0,0,0
944,34065.539815795084,2010-10-29 19:25:22,2611.30127585675,7,3,-1.0997490882873535,3.494155168533325,2.902952952874494,2.737120001022739,11.638485578903529,9.971443764654008,-9.713172767078504e-05,0.0971632748842239,0,0,0
945,34095.55492035607,2010-10-29 19:25:52,2641.316380282396,7,3,-1.0993878841400146,3.4896223545074463,2.902952952874494,2.746287078559767,11.638485578903529,10.003453234323924,-9.713172767078504e-05,0.0971632748842239,0,0,0
946,34125.56992102813,2010-10-29 19:26:22,2671.331380954456,7,3,-1.099568486213684,3.4842801094055176,2.902952952874494,2.755454156303824,11.638485578903529,10.035417721961018,-0.0001618862152099,0.0971632748842239,0,0,0
947,34155.58518372824,2010-10-29 19:26:52,2701.3466436595822,7,3,-1.099568486213684,3.478614091873169,2.902952952874494,2.76462122717026,11.638485578903529,10.067332671791226,-0.0001295089750783,0.0971632748842239,0,0,0
948,34185.600339386576,2010-10-29 19:27:22,2731.361799342978,7,3,-1.099568486213684,3.4723005294799805,2.902952952874494,2.773788241296084,11.638485578903529,10.099192451228596,-0.0001942634553415,0.0971632748842239,0,0,0
949,34215.61554624252,2010-10-29 19:27:52,2761.377006213949,7,3,-1.099568486213684,3.465501308441162,2.902952952874494,2.782955309892298,11.638485578903529,10.13099225823369,-0.0001618862152099,0.0971632748842239,0,0,0
950,34245.63059707458,2010-10-29 19:28:23,2791.39205702096,7,3,-1.0993878841400146,3.457730770111084,2.902952952874494,2.792122332785775,11.638485578903529,10.162724482509994,-0.0001618862152099,0.0971632748842239,0,0,0
951,34275.64561816753,2010-10-29 19:28:53,2821.4070781189275,7,3,-1.099568486213684,3.448665142059326,2.902952952874494,2.801289366447544,11.638485578903529,10.19438068916724,-0.0002913951757363,0.0971632748842239,0,0,0
952,34305.66077634214,2010-10-29 19:29:23,2851.4222362734813,7,3,-1.099568486213684,3.438466310501098,2.902952952874494,2.810456403397593,11.638485578903529,10.225949089693623,-0.0002590179501567,0.0971632748842239,0,0,0
953,34335.67588469257,2010-10-29 19:29:53,2881.437344613884,7,3,-1.0993878841400146,3.4264869689941406,2.902952952874494,2.819623440474585,11.638485578903529,10.257414905637113,-0.0002913951757363,0.0971632748842239,0,0,0
954,34365.691025473825,2010-10-29 19:30:23,2911.452485400151,7,3,-1.0997490882873535,3.411593437194824,2.902952952874494,2.82879060180701,11.638485578903529,10.288759819795349,-0.0004532813909463,0.0971632748842239,0,0,0
955,34395.70616326262,2010-10-29 19:30:53,2941.4676231839358,7,3,-1.099568486213684,3.3941097259521484,2.902952952874494,2.837957032666216,11.638485578903529,10.319955309644254,-0.0004856586456298,0.0971632748842239,0,0,0
956,34425.72162052264,2010-10-29 19:31:23,2971.4830805391903,7,3,-1.099568486213684,3.371769428253174,2.902952952874494,2.847123524047021,11.638485578903529,10.350969159922942,-0.0006475448608398,0.0971632748842239,0,0,0
957,34455.73647680483,2010-10-29 19:31:53,3001.4979367361734,7,3,-1.099568486213684,3.3432776927948,2.902952952874494,2.856290567948681,11.638485578903529,10.3817542704108,-0.0009065627818927,0.0971632748842239,0,0,0
958,34485.75162138556,2010-10-29 19:32:23,3031.5130813469723,7,3,-1.0993878841400146,3.305881977081299,2.902952952874494,2.865457635901089,11.638485578903529,10.412239234965307,-0.0011008263099938,0.0971632748842239,0,0,0
959,34515.7667366432,2010-10-29 19:32:53,3061.528196594589,7,3,-1.099568486213684,3.2547261714935303,2.902952952874494,2.87462469049912,11.638485578903529,10.44232262615488,-0.0015864849556237,0.0971632748842239,0,0,0
960,34545.78189070254,2010-10-29 19:33:23,3091.543350633888,7,3,-1.099568486213684,3.1826870441436768,2.902952952874494,2.883791795151884,11.638485578903529,10.471849962837878,-0.0022663592826575,0.0971632748842239,0,0,0
961,34575.79707909246,2010-10-29 19:33:53,3121.5585390488604,7,3,-1.0993878841400146,3.073899745941162,2.902952952874494,2.89295901751548,11.638485578903529,10.500564767088788,-0.0034967423416674,0.0971632748842239,0,0,0
962,34605.67164507305,2010-10-29 19:34:23,3151.433105004395,7,3,-1.099568486213684,2.8738088607788086,2.902952952874494,2.902083220061424,11.638485578903529,10.527816260770486,-0.0073496340773999,0.0971632748842239,0,0,0
963,34620.811901856505,2010-10-29 19:34:38,3166.573361792853,7,3,-1.0997490882873535,2.699781894683838,2.902952952874494,2.906707309752971,11.638485578903529,10.540722773995876,-0.0101340292021632,0.0971632748842239,0,0,0
964,34680.82637593288,2010-10-29 19:35:38,60.01464490615072,8,3,0.0,3.370474338531494,2.902952952874494,2.906707309752971,11.638485578903529,10.540722773995876,0.0012950897216796,0.0971632748842239,0,0,0
965,34681.01445001092,2010-10-29 19:35:38,0.187263037107869,9,3,-1.9243103452026844e-05,3.370959997177124,2.902952952874494,2.906707310753949,11.638485578903529,10.540722777370132,0.0,0.0930307656526565,0,0,0
966,34685.84262326927,2010-10-29 19:35:43,5.015436260372004,9,3,0.0008838032954372,3.378730535507202,2.902953806792479,2.906707310838609,11.638488461270384,10.540722777655516,0.0011332035064697,0.0930307656526565,0,0,0
