Data_Point,Test_Time(s),Date_Time,Step_Time(s),Step_Index,Cycle_Index,Current(A),Voltage(V),Charge_Capacity(Ah),Discharge_Capacity(Ah),Charge_Energy(Wh),Discharge_Energy(Wh),dV/dt(V/s),Internal_Resistance(Ohm),Is_FC_Data,AC_Impedance(Ohm),ACI_Phase_Angle(Deg)
2275,80757.39291483369,2010-10-30 08:23:40,30.01527265993707,1,8,0.0,3.363675117492676,6.804015065964976,6.816760304502784,27.238000087765123,24.78496181623747,0.0007122993702068,0.0923885703086853,0,0,0
2276,80787.40799462295,2010-10-30 08:24:10,60.03035243915605,1,8,0.0,3.38763427734375,6.804015065964976,6.816760304502784,27.238000087765123,24.78496181623747,0.0005180359003134,0.0923885703086853,0,0,0
2277,80817.42321153896,2010-10-30 08:24:40,90.04556938523704,1,8,0.0,3.405927419662476,6.804015065964976,6.816760304502784,27.238000087765123,24.78496181623747,0.0004532813909463,0.0923885703086853,0,0,0
2278,80847.39146937348,2010-10-30 08:25:10,120.01382718467563,1,8,0.0,3.420497179031372,6.804015065964976,6.816760304502784,27.238000087765123,24.78496181623747,0.0004209041653666,0.0923885703086853,0,0,0
2279,80877.40739373214,2010-10-30 08:25:40,30.01515539267096,2,8,0.5501165986061096,3.5794689655303955,6.808601610861687,6.816760304502784,27.25424640257768,24.78496181623747,0.0016836166614666,0.0923885703086853,0,0,0
2280,80907.42259398663,2010-10-30 08:26:10,60.03035564715136,2,8,0.5501165986061096,3.630462884902954,6.813188119974265,6.816760304502784,27.27078764350477,24.78496181623747,0.0011655807029455,0.0923885703086853,0,0,0
2281,80937.43774804096,2010-10-30 08:26:40,90.04550970148678,2,8,0.5501165986061096,3.667534828186035,6.8177746138193,6.816760304502784,27.28752721818211,24.78496181623747,0.0008741855854168,0.0923885703086853,0,0,0
2282,80967.4530958582,2010-10-30 08:27:10,120.06085762400136,2,8,0.5501165986061096,3.696512222290039,6.822361150297193,6.816760304502784,27.304417027391224,24.78496181623747,0.0007446765666827,0.0923885703086853,0,0,0
2283,80997.46811544742,2010-10-30 08:27:40,150.07587710794596,2,8,0.5499359965324402,3.720147609710693,6.82694764802868,6.816760304502784,27.32142717699523,24.78496181623747,0.0005827903514727,0.0923885703086853,0,0,0
2284,81027.4832936369,2010-10-30 08:28:10,180.09105528239613,2,8,0.5499359965324402,3.7398977279663086,6.831534107391872,6.816760304502784,27.33853670498945,24.78496181623747,0.0004532813909463,0.0923885703086853,0,0,0
2285,81057.49847261336,2010-10-30 08:28:40,210.1062342688701,2,8,0.5501165986061096,3.7557623386383057,6.836120569683692,6.816760304502784,27.35572810406198,24.78496181623747,0.0003237724304199,0.0923885703086853,0,0,0
2286,81087.51367008088,2010-10-30 08:29:10,240.12143173640456,2,8,0.5501165986061096,3.766770601272583,6.840706999019345,6.816760304502784,27.3729812692532,24.78496181623747,0.0002266406954731,0.0923885703086853,0,0,0
2287,81117.52898025933,2010-10-30 08:29:40,270.13674202512414,2,8,0.5501165986061096,3.773246049880981,6.845293466746393,6.816760304502784,27.39027329616139,24.78496181623747,0.0001295089750783,0.0923885703086853,0,0,0
2288,81147.54414087,2010-10-30 08:30:10,300.1519025606126,2,8,0.5499359965324402,3.77745509147644,6.849880021066243,6.816760304502784,27.407589715251405,24.78496181623747,6.47544875391759e-05,0.0923885703086853,0,0,0
2289,81177.5592017421,2010-10-30 08:30:40,330.16696340764673,2,8,0.5499359965324402,3.78134036064148,6.854466548238119,6.816760304502784,27.424924640960977,24.78496181623747,9.713172767078504e-05,0.0923885703086853,0,0,0
2290,81207.57452366482,2010-10-30 08:31:10,360.1822853353743,2,8,0.5501165986061096,3.7850637435913086,6.859053035201437,6.816760304502784,27.44227661043271,24.78496181623747,6.47544875391759e-05,0.0923885703086853,0,0,0
2291,81237.58957784522,2010-10-30 08:31:40,390.1973395007558,2,8,0.5501165986061096,3.788625240325928,6.863639520960049,6.816760304502784,27.45964533028704,24.78496181623747,9.713172767078504e-05,0.0923885703086853,0,0,0
2292,81267.60473948347,2010-10-30 08:32:10,420.2125011790925,2,8,0.5499359965324402,3.792024850845337,6.868225988225682,6.816760304502784,27.47703026344669,24.78496181623747,9.713172767078504e-05,0.0923885703086853,0,0,0
2293,81297.62005159173,2010-10-30 08:32:40,450.2278132622844,2,8,0.5499359965324402,3.795748233795166,6.872812501002469,6.816760304502784,27.49443132396021,24.78496181623747,0.0001295089750783,0.0923885703086853,0,0,0
2294,81327.63512307526,2010-10-30 08:33:10,480.2428847408155,2,8,0.5497553944587708,3.7988240718841553,6.877398960228853,6.816760304502784,27.51184778313761,24.78496181623747,6.47544875391759e-05,0.0923885703086853,0,0,0
2295,81357.65046999027,2010-10-30 08:33:40,510.2582316608316,2,8,0.5501165986061096,3.8023855686187744,6.881985518001487,6.816760304502784,27.52927988213661,24.78496181623747,0.0001295089750783,0.0923885703086853,0,0,0
2296,81387.66571114669,2010-10-30 08:34:10,540.2734728172522,2,8,0.5501165986061096,3.805461406707764,6.886571997393605,6.816760304502784,27.54672666904404,24.78496181623747,6.47544875391759e-05,0.0923885703086853,0,0,0
2297,81417.68065573397,2010-10-30 08:34:40,570.2884174295938,2,8,0.5499359965324402,3.808699131011963,6.89115845055874,6.816760304502784,27.56418810967094,24.78496181623747,6.47544875391759e-05,0.0923885703086853,0,0,0
2298,81447.69604266871,2010-10-30 08:35:10,600.3038044144637,2,8,0.550297200679779,3.811936855316162,6.895745016641003,6.816760304502784,27.58166453479419,24.78496181623747,6.47544875391759e-05,0.0923885703086853,0,0,0
2299,81477.71102219808,2010-10-30 08:35:40,630.3187838586168,2,8,0.550297200679779,3.815174579620361,6.900331509469246,6.816760304502784,27.599155337046646,24.78496181623747,6.47544875391759e-05,0.0923885703086853,0,0,0
2300,81507.72652856048,2010-10-30 08:36:10,660.3342902560997,2,8,0.5501165986061096,3.818412303924561,6.904918060438752,6.816760304502784,27.61666088940899,24.78496181623747,0.0001295089750783,0.0923885703086853,0,0,0
2301,81537.74141809554,2010-10-30 08:36:40,690.3491797560844,2,8,0.550297200679779,3.82148814201355,6.909504542912379,6.816760304502784,27.634180664719057,24.78496181623747,9.713172767078504e-05,0.0923885703086853,0,0,0
2302,81567.75657363358,2010-10-30 08:37:10,720.3643353091552,2,8,0.5499359965324402,3.824563980102539,6.91409105161044,6.816760304502784,27.65171519320041,24.78496181623747,6.47544875391759e-05,0.0923885703086853,0,0,0
2303,81597.77436189316,2010-10-30 08:37:40,750.3821236689904,2,8,0.5501165986061096,3.828125476837158,6.918677987219168,6.816760304502784,27.669266341323805,24.78496181623747,9.713172767078504e-05,0.0923885703086853,0,0,0
2304,81627.7870341872,2010-10-30 08:38:10,780.3947958778031,2,8,0.5501165986061096,3.831363201141357,6.923264077663433,6.816760304502784,27.68682954223633,24.78496181623747,9.713172767078504e-05,0.0923885703086853,0,0,0
2305,81657.80211140504,2010-10-30 08:38:40,810.4098730856134,2,8,0.5501165986061096,3.834762573242188,6.927850577422683,6.816760304502784,27.70440990220809,24.78496181623747,0.0001295089750783,0.0923885703086853,0,0,0
2306,81687.81744217982,2010-10-30 08:39:10,840.4252038503654,2,8,0.5501165986061096,3.838324069976807,6.932437102827127,6.816760304502784,27.72200623738453,24.78496181623747,9.713172767078504e-05,0.0923885703086853,0,0,0
2307,81717.83247723756,2010-10-30 08:39:40,870.4402389482248,2,8,0.5501165986061096,3.841885566711426,6.937023539365571,6.816760304502784,27.73961819776962,24.78496181623747,0.0001295089750783,0.0923885703086853,0,0,0
2308,81747.84767667501,2010-10-30 08:40:10,900.4554383505814,2,8,0.5501165986061096,3.845123291015625,6.941610091841453,6.816760304502784,27.7572464977043,24.78496181623747,9.713172767078504e-05,0.0923885703086853,0,0,0
2309,81777.86283759646,2010-10-30 08:40:40,930.470599251982,2,8,0.550297200679779,3.848684787750244,6.94619658422342,6.816760304502784,27.77489037750847,24.78496181623747,9.713172767078504e-05,0.0923885703086853,0,0,0
2310,81807.87803014173,2010-10-30 08:41:10,960.485791792236,2,8,0.5499359965324402,3.8519225120544434,6.950783121260415,6.816760304502784,27.79255000477238,24.78496181623747,0.0001295089750783,0.0923885703086853,0,0,0
2311,81837.89332888667,2010-10-30 08:41:40,990.5010905522224,2,8,0.550297200679779,3.855322122573853,6.95536971274477,6.816760304502784,27.810225089366902,24.78496181623747,0.0001295089750783,0.0923885703086853,0,0,0
2312,81867.90838683648,2010-10-30 08:42:10,1020.5161484869984,2,8,0.5501165986061096,3.858559846878052,6.959956171648869,6.816760304502784,27.82791477312697,24.78496181623747,9.713172767078504e-05,0.0923885703086853,0,0,0
2313,81897.9235629107,2010-10-30 08:42:40,1050.531324601314,2,8,0.5501165986061096,3.861959457397461,6.964542636786684,6.816760304502784,27.84561916193744,24.78496181623747,0.0001618862152099,0.0923885703086853,0,0,0
2314,81927.9387643381,2010-10-30 08:43:10,1080.5465259886178,2,8,0.5499359965324402,3.86454963684082,6.969129181040065,6.816760304502784,27.863338294019897,24.78496181623747,3.237724376958795e-05,0.0923885703086853,0,0,0
2315,81957.95403212593,2010-10-30 08:43:40,1110.561793816512,2,8,0.5499359965324402,3.86778736114502,6.973715740100091,6.816760304502784,27.88107142225946,24.78496181623747,6.47544875391759e-05,0.0923885703086853,0,0,0
2316,81987.9691177096,2010-10-30 08:44:10,1140.576879355085,2,8,0.5499359965324402,3.870701313018799,6.978302284962321,6.816760304502784,27.898818035186736,24.78496181623747,6.47544875391759e-05,0.0923885703086853,0,0,0
2317,82017.9842943001,2010-10-30 08:44:40,1170.5920559656374,2,8,0.5501165986061096,3.873453378677368,6.982888858577561,6.816760304502784,27.91657773707808,24.78496181623747,3.237724376958795e-05,0.0923885703086853,0,0,0
2318,82047.99948691053,2010-10-30 08:45:10,1200.607248601129,2,8,0.550297200679779,3.8762054443359375,6.98747535905543,6.816760304502784,27.9343494531626,24.78496181623747,9.713172767078504e-05,0.0923885703086853,0,0,0
2319,82078.01478864292,2010-10-30 08:45:40,1230.6225503936737,2,8,0.5497553944587708,3.878471851348877,6.992061947069291,6.816760304502784,27.95213332931822,24.78496181623747,3.237724376958795e-05,0.0923885703086853,0,0,0
2320,82108.02983769054,2010-10-30 08:46:10,1260.637599351075,2,8,0.5499359965324402,3.8809001445770255,6.996648440615771,6.816760304502784,27.969927938541087,24.78496181623747,3.237724376958795e-05,0.0923885703086853,0,0,0
2321,82138.0450562757,2010-10-30 08:46:40,1290.6528180715784,2,8,0.5501165986061096,3.883328437805176,7.001234955759764,6.816760304502784,27.98773316064021,24.78496181623747,9.713172767078504e-05,0.0923885703086853,0,0,0
2322,82168.06024717687,2010-10-30 08:47:10,1320.6680088374103,2,8,0.5501165986061096,3.8852710723876953,7.005821494637448,6.816760304502784,28.00554830126592,24.78496181623747,6.47544875391759e-05,0.0923885703086853,0,0,0
2323,82198.07538834409,2010-10-30 08:47:40,1350.683150004627,2,8,0.5501165986061096,3.887213706970215,7.010407941458166,6.816760304502784,28.02337227152996,24.78496181623747,3.237724376958795e-05,0.0923885703086853,0,0,0
2324,82228.0905742879,2010-10-30 08:48:11,1380.6983359785156,2,8,0.5501165986061096,3.888994455337525,7.014994463891509,6.816760304502784,28.041205168449643,24.78496181623747,6.47544875391759e-05,0.0923885703086853,0,0,0
2325,82258.10574817668,2010-10-30 08:48:41,1410.713509827185,2,8,0.5499359965324402,3.890613317489624,7.019581072871731,6.816760304502784,28.059046431224424,24.78496181623747,3.237724376958795e-05,0.0923885703086853,0,0,0
2326,82288.12102824006,2010-10-30 08:49:11,1440.728789925661,2,8,0.5499359965324402,3.892232179641724,7.024167650936977,6.816760304502784,28.076895095553144,24.78496181623747,3.237724376958795e-05,0.0923885703086853,0,0,0
2327,82318.13623476517,2010-10-30 08:49:41,1470.7439964307198,2,8,0.5499359965324402,3.893689155578613,7.028754209578875,6.816760304502784,28.094750815748416,24.78496181623747,3.237724376958795e-05,0.0923885703086853,0,0,0
2328,82348.15144086423,2010-10-30 08:50:11,1500.759202524754,2,8,0.5499359965324402,3.894984245300293,7.033340801878738,6.816760304502784,28.112613317867822,24.78496181623747,0.0,0.0923885703086853,0,0,0
2329,82378.16652276873,2010-10-30 08:50:41,1530.7742844493198,2,8,0.5501165986061096,3.896441221237183,7.037927303184474,6.816760304502784,28.13048174720407,24.78496181623747,0.0,0.0923885703086853,0,0,0
2330,82408.18200635938,2010-10-30 08:51:11,1560.7897681051234,2,8,0.5497553944587708,3.897898197174072,7.042513924355196,6.816760304502784,28.14835714163091,24.78496181623747,0.0,0.0923885703086853,0,0,0
2331,82438.19684674195,2010-10-30 08:51:41,1590.8046084175176,2,8,0.5501165986061096,3.899355173110962,7.047100378383043,6.816760304502784,28.16623815353012,24.78496181623747,3.237724376958795e-05,0.0923885703086853,0,0,0
2332,82468.21201685129,2010-10-30 08:52:11,1620.8197785118296,2,8,0.550297200679779,3.900812149047852,7.051686982600984,6.816760304502784,28.18412588528061,24.78496181623747,6.47544875391759e-05,0.0923885703086853,0,0,0
2333,82498.22733588683,2010-10-30 08:52:41,1650.8350975473488,2,8,0.5501165986061096,3.901945352554321,7.056273489081918,6.816760304502784,28.202019405704444,24.78496181623747,0.0,0.0923885703086853,0,0,0
2334,82528.24239026773,2010-10-30 08:53:11,1680.8501519282677,2,8,0.5501165986061096,3.903240442276001,7.060859957152138,6.816760304502784,28.21991882229679,24.78496181623747,0.0,0.0923885703086853,0,0,0
2335,82558.25769362415,2010-10-30 08:53:41,1710.8654552847097,2,8,0.5501165986061096,3.9048593044281006,7.065446464085617,6.816760304502784,28.237824614446843,24.78496181623747,6.47544875391759e-05,0.0923885703086853,0,0,0
2336,82588.27289200398,2010-10-30 08:54:11,1740.8806536745426,2,8,0.550297200679779,3.90615439414978,7.070033077932715,6.816760304502784,28.255736811149667,24.78496181623747,6.47544875391759e-05,0.0923885703086853,0,0,0
2337,82618.28799073042,2010-10-30 08:54:41,1770.8957524059963,2,8,0.5501165986061096,3.90728759765625,7.074619527674895,6.816760304502784,28.27365453911543,24.78496181623747,3.237724376958795e-05,0.0923885703086853,0,0,0
2338,82648.30324469878,2010-10-30 08:55:11,1800.9110063593107,2,8,0.550297200679779,3.90874457359314,7.079206066165099,6.816760304502784,28.291578744222672,24.78496181623747,6.47544875391759e-05,0.0923885703086853,0,0,0
2339,82678.31828757602,2010-10-30 08:55:41,1830.926049246584,2,8,0.5501165986061096,3.9100396633148193,7.083792581083584,6.816760304502784,28.309509098422524,24.78496181623747,3.237724376958795e-05,0.0923885703086853,0,0,0
2340,82708.33344907891,2010-10-30 08:56:11,1860.9412107344456,2,8,0.5501165986061096,3.911496639251709,7.08837906713467,6.816760304502784,28.32744547938003,24.78496181623747,3.237724376958795e-05,0.0923885703086853,0,0,0
2341,82738.3486259,2010-10-30 08:56:41,1890.9563875555232,2,8,0.5499359965324402,3.9127917289733887,7.09296577562504,6.816760304502784,28.345388987483,24.78496181623747,6.47544875391759e-05,0.0923885703086853,0,0,0
2342,82768.3640085992,2010-10-30 08:57:11,1920.971770375012,2,8,0.550297200679779,3.914086580276489,7.097553052779381,6.816760304502784,28.36334106395947,24.78496181623747,0.0,0.0923885703086853,0,0,0
2343,82798.37915782147,2010-10-30 08:57:41,1950.986919482017,2,8,0.5499359965324402,3.915381669998169,7.102140068242162,6.816760304502784,28.381298429165327,24.78496181623747,0.0,0.0923885703086853,0,0,0
2344,82828.39420110975,2010-10-30 08:58:11,1981.0019627652764,2,8,0.5501165986061096,3.9168386459350586,7.106726551347643,6.816760304502784,28.399259828296508,24.78496181623747,6.47544875391759e-05,0.0923885703086853,0,0,0
2345,82858.40938227165,2010-10-30 08:58:41,2011.0171439271724,2,8,0.5499359965324402,3.9181337356567374,7.111313043906146,6.816760304502784,28.417227763669665,24.78496181623747,0.0,0.0923885703086853,0,0,0
2346,82888.42457672667,2010-10-30 08:59:11,2041.0323383872112,2,8,0.5501165986061096,3.919590711593628,7.115899515554228,6.816760304502784,28.43520207740601,24.78496181623747,0.0,0.0923885703086853,0,0,0
2347,82918.4397446556,2010-10-30 08:59:41,2071.0475063361764,2,8,0.550297200679779,3.9210476875305176,7.120485974833618,6.816760304502784,28.453182816052223,24.78496181623747,0.0,0.0923885703086853,0,0,0
2348,82948.45514080329,2010-10-30 09:00:11,2101.062902493908,2,8,0.5501165986061096,3.9225046634674072,7.125072430698404,6.816760304502784,28.471170065524277,24.78496181623747,3.237724376958795e-05,0.0923885703086853,0,0,0
2349,82978.4700668243,2010-10-30 09:00:41,2131.0778284798266,2,8,0.5499359965324402,3.923961639404297,7.129658430745599,6.816760304502784,28.48916208926,24.78496181623747,6.47544875391759e-05,0.0923885703086853,0,0,0
2350,83008.48526916398,2010-10-30 09:01:11,2161.0930308245165,2,8,0.5501165986061096,3.925580501556397,7.13424403653384,6.816760304502784,28.50715916121364,24.78496181623747,9.713172767078504e-05,0.0923885703086853,0,0,0
2351,83038.50057136254,2010-10-30 09:01:41,2191.10833305816,2,8,0.5497553944587708,3.926713705062866,7.138829808358705,6.816760304502784,28.52516345609133,24.78496181623747,0.0,0.0923885703086853,0,0,0
2352,83068.51578371217,2010-10-30 09:02:11,2221.1235462398595,2,8,0.5499359965324402,3.928170680999756,7.143415349999771,6.816760304502784,28.54317357290921,24.78496181623747,0.0,0.0923885703086853,0,0,0
2353,83098.53080841411,2010-10-30 09:02:41,2251.138570069635,2,8,0.5499359965324402,3.929789543151856,7.148000910703082,6.816760304502784,28.56119049479723,24.78496181623747,3.237724376958795e-05,0.0923885703086853,0,0,0
2354,83128.5461341764,2010-10-30 09:03:11,2281.153895851969,2,8,0.5499359965324402,3.931246519088745,7.152586572469003,6.816760304502784,28.57921462097624,24.78496181623747,6.47544875391759e-05,0.0923885703086853,0,0,0
2355,83158.56115877308,2010-10-30 09:03:41,2311.1689204887566,2,8,0.5501165986061096,3.9328653812408447,7.157172403215317,6.816760304502784,28.59724628812071,24.78496181623747,3.237724376958795e-05,0.0923885703086853,0,0,0
2356,83188.57633740871,2010-10-30 09:04:11,2341.1840990642063,2,8,0.550297200679779,3.9343223571777344,7.161758990278869,6.816760304502784,28.615287916806185,24.78496181623747,6.47544875391759e-05,0.0923885703086853,0,0,0
2357,83218.59153189379,2010-10-30 09:04:41,2371.1992935793824,2,8,0.550297200679779,3.935941219329834,7.166345514443211,6.816760304502784,28.63333623261412,24.78496181623747,6.47544875391759e-05,0.0923885703086853,0,0,0
2358,83248.60670858453,2010-10-30 09:05:11,2401.214470265122,2,8,0.5501165986061096,3.9372363090515137,7.170932068238511,6.816760304502784,28.65139155234682,24.78496181623747,0.0,0.0923885703086853,0,0,0
2359,83278.62198934967,2010-10-30 09:05:41,2431.2297510954227,2,8,0.550297200679779,3.9390170574188232,7.175518633892581,6.816760304502784,28.669454083885498,24.78496181623747,6.47544875391759e-05,0.0923885703086853,0,0,0
2360,83308.63727381403,2010-10-30 09:06:11,2461.2450355046426,2,8,0.5501165986061096,3.940474033355713,7.180105180414705,6.816760304502784,28.68752365389789,24.78496181623747,6.47544875391759e-05,0.0923885703086853,0,0,0
2361,83338.65226555883,2010-10-30 09:06:41,2491.26002722439,2,8,0.550297200679779,3.942092895507813,7.184691735297959,6.816760304502784,28.70560041265284,24.78496181623747,3.237724376958795e-05,0.0923885703086853,0,0,0
2362,83368.66767554604,2010-10-30 09:07:11,2521.275437321864,2,8,0.550297200679779,3.943711757659912,7.189278336274436,6.816760304502784,28.723684562569566,24.78496181623747,6.47544875391759e-05,0.0923885703086853,0,0,0
2363,83398.68264484992,2010-10-30 09:07:41,2551.290406595669,2,8,0.5501165986061096,3.945330619812012,7.193864852399058,6.816760304502784,28.74177560581847,24.78496181623747,6.47544875391759e-05,0.0923885703086853,0,0,0
2364,83428.69783811198,2010-10-30 09:08:11,2581.3055997975725,2,8,0.5501165986061096,3.946787595748901,7.198451477592794,6.816760304502784,28.759874461129705,24.78496181623747,3.237724376958795e-05,0.0923885703086853,0,0,0
2365,83458.71298026666,2010-10-30 09:08:41,2611.320741947238,2,8,0.5499359965324402,3.948244571685791,7.20303800434151,6.816760304502784,28.777980185539363,24.78496181623747,3.237724376958795e-05,0.0923885703086853,0,0,0
2366,83488.72817138337,2010-10-30 09:09:11,2641.335933063944,2,8,0.5501165986061096,3.9500253200531006,7.207624544431942,6.816760304502784,28.796093447577952,24.78496181623747,3.237724376958795e-05,0.0923885703086853,0,0,0
2367,83518.74595220941,2010-10-30 09:09:41,2671.35371398524,2,8,0.5499359965324402,3.9516441822052,7.212211487797401,6.816760304502784,28.81421583850817,24.78496181623747,6.47544875391759e-05,0.0923885703086853,0,0,0
2368,83548.75856088988,2010-10-30 09:10:11,2701.366322570483,2,8,0.550297200679779,3.9534249305725098,7.216797613603529,6.816760304502784,28.83234245651857,24.78496181623747,6.47544875391759e-05,0.0923885703086853,0,0,0
2369,83578.77370240798,2010-10-30 09:10:41,2731.381464073537,2,8,0.550297200679779,3.95504379272461,7.221384255184911,6.816760304502784,28.850478762624068,24.78496181623747,9.713172767078504e-05,0.0923885703086853,0,0,0
2370,83608.78913395392,2010-10-30 09:11:11,2761.3968956545546,2,8,0.5499359965324402,3.956500768661499,7.225970867155465,6.816760304502784,28.86862265177965,24.78496181623747,0.0,0.0923885703086853,0,0,0
2371,83638.80410096208,2010-10-30 09:11:41,2791.411862647676,2,8,0.5501165986061096,3.9582815170288086,7.230557443065314,6.816760304502784,28.88677397556121,24.78496181623747,3.237724376958795e-05,0.0923885703086853,0,0,0
2372,83668.8192484751,2010-10-30 09:12:11,2821.4270101607085,2,8,0.5501165986061096,3.959900379180908,7.23514401765687,6.816760304502784,28.904933108783624,24.78496181623747,-3.237724376958795e-05,0.0923885703086853,0,0,0
2373,83698.83443578733,2010-10-30 09:12:41,2851.44219744787,2,8,0.5501165986061096,3.961843013763428,7.23973058637407,6.816760304502784,28.923100049095684,24.78496181623747,6.47544875391759e-05,0.0923885703086853,0,0,0
2374,83728.849624483,2010-10-30 09:13:11,2881.457386163592,2,8,0.5501165986061096,3.963623762130737,7.244317186477837,6.816760304502784,28.941274982628325,24.78496181623747,6.47544875391759e-05,0.0923885703086853,0,0,0
2375,83758.86496661109,2010-10-30 09:13:41,2911.4727282966783,2,8,0.5499359965324402,3.965242624282837,7.248903809129105,6.816760304502784,28.959457974953512,24.78496181623747,6.47544875391759e-05,0.0923885703086853,0,0,0
2376,83788.87998017528,2010-10-30 09:14:11,2941.4877418307938,2,8,0.550297200679779,3.9670233726501465,7.253490407488722,6.816760304502784,28.977648945627955,24.78496181623747,6.47544875391759e-05,0.0923885703086853,0,0,0
2377,83818.89516112664,2010-10-30 09:14:41,2971.502922817252,2,8,0.5501165986061096,3.968804121017456,7.258076993408091,6.816760304502784,28.99584783234016,24.78496181623747,6.47544875391759e-05,0.0923885703086853,0,0,0
2378,83848.91036617308,2010-10-30 09:15:11,3001.518127863676,2,8,0.5501165986061096,3.970422983169556,7.262663598014433,6.816760304502784,29.01405493657868,24.78496181623747,3.237724376958795e-05,0.0923885703086853,0,0,0
2379,83878.92553682877,2010-10-30 09:15:41,3031.533298509362,2,8,0.5501165986061096,3.972365617752075,7.26725017280939,6.816760304502784,29.032270164606963,24.78496181623747,6.47544875391759e-05,0.0923885703086853,0,0,0
2380,83908.94071227142,2010-10-30 09:16:11,3061.548473926941,2,8,0.5501165986061096,3.9741463661193848,7.27183680346001,6.816760304502784,29.050493830467516,24.78496181623747,6.47544875391759e-05,0.0923885703086853,0,0,0
2381,83938.9559262852,2010-10-30 09:16:41,3091.5636879657764,2,8,0.550297200679779,3.976089000701904,7.276423503126101,6.816760304502784,29.068726140527552,24.78496181623747,6.47544875391759e-05,0.0923885703086853,0,0,0
2382,83968.97109163768,2010-10-30 09:17:11,3121.5788533182704,2,8,0.550297200679779,3.977707862854004,7.281010109569496,6.816760304502784,29.086966477984813,24.78496181623747,3.237724376958795e-05,0.0923885703086853,0,0,0
2383,83998.98638432755,2010-10-30 09:17:41,3151.594146098353,2,8,0.5499359965324402,3.9794886112213135,7.285596639621868,6.816760304502784,29.1052144849967,24.78496181623747,0.0,0.0923885703086853,0,0,0
2384,84029.00155709352,2010-10-30 09:18:11,3181.609318869336,2,8,0.5499359965324402,3.981593132019043,7.290183179516177,6.816760304502784,29.123471541919116,24.78496181623747,6.47544875391759e-05,0.0923885703086853,0,0,0
2385,84059.01664695787,2010-10-30 09:18:41,3211.624408608378,2,8,0.5501165986061096,3.9835357666015625,7.294769713093761,6.816760304502784,29.14173720803596,24.78496181623747,6.47544875391759e-05,0.0923885703086853,0,0,0
2386,84089.03181535297,2010-10-30 09:19:11,3241.6395770084678,2,8,0.5501165986061096,3.985478401184082,7.299356265017835,6.816760304502784,29.160011673563087,24.78496181623747,6.47544875391759e-05,0.0923885703086853,0,0,0
2387,84119.0471151455,2010-10-30 09:19:41,3271.6548768361145,2,8,0.550297200679779,3.987259149551392,7.303942816278116,6.816760304502784,29.178294923374946,24.78496181623747,3.237724376958795e-05,0.0923885703086853,0,0,0
2388,84149.06217588227,2010-10-30 09:20:12,3301.6699375377866,2,8,0.5499359965324402,3.989201784133911,7.308529374275066,6.816760304502784,29.19658701289013,24.78496181623747,9.713172767078504e-05,0.0923885703086853,0,0,0
2389,84179.07736303408,2010-10-30 09:20:42,3331.6851246896117,2,8,0.5501165986061096,3.991144418716431,7.313115891049043,6.816760304502784,29.214887919213133,24.78496181623747,6.47544875391759e-05,0.0923885703086853,0,0,0
2390,84209.09257153913,2010-10-30 09:21:12,3361.700333289892,2,8,0.5501165986061096,3.99308705329895,7.317702394142682,6.816760304502784,29.233197885882117,24.78496181623747,3.237724376958795e-05,0.0923885703086853,0,0,0
2391,84239.10772280653,2010-10-30 09:21:42,3391.7154844871066,2,8,0.5501165986061096,3.9951913356781006,7.322288886703841,6.816760304502784,29.251516940203125,24.78496181623747,6.47544875391759e-05,0.0923885703086853,0,0,0
2392,84269.12300660422,2010-10-30 09:22:12,3421.7307682647524,2,8,0.5501165986061096,3.99713397026062,7.326875458141943,6.816760304502784,29.26984562700683,24.78496181623747,6.47544875391759e-05,0.0923885703086853,0,0,0
2393,84299.13808267922,2010-10-30 09:22:42,3451.7458443447517,2,8,0.5501165986061096,3.9992384910583496,7.331462008707094,6.816760304502784,29.288183563176208,24.78496181623747,3.237724376958795e-05,0.0923885703086853,0,0,0
2394,84329.15328873815,2010-10-30 09:23:12,3481.761050418736,2,8,0.5501165986061096,4.001504898071289,7.3360485129041,6.816760304502784,29.30653086168789,24.78496181623747,6.47544875391759e-05,0.0923885703086853,0,0,0
2395,84359.16848166437,2010-10-30 09:23:42,3511.7762433499647,2,8,0.5501165986061096,4.003447532653809,7.340635039734389,6.816760304502784,29.32488789933527,24.78496181623747,6.47544875391759e-05,0.0923885703086853,0,0,0
2396,84389.18363470619,2010-10-30 09:24:12,3541.791396386764,2,8,0.5501165986061096,4.005552291870117,7.345221478937275,6.816760304502784,29.34325424663651,24.78496181623747,3.24249267578125e-05,0.0923885703086853,0,0,0
2397,84419.19882594819,2010-10-30 09:24:42,3571.80658760372,2,8,0.5501165986061096,4.007656574249268,7.349807895121574,6.816760304502784,29.36163039772763,24.78496181623747,6.47544875391759e-05,0.0923885703086853,0,0,0
2398,84449.21404163113,2010-10-30 09:25:12,3601.82180340194,2,8,0.5499359965324402,4.009761333465576,7.354394452977616,6.816760304502784,29.3800170685603,24.78496181623747,3.24249267578125e-05,0.0923885703086853,0,0,0
2399,84479.22921521915,2010-10-30 09:25:42,3631.836976874673,2,8,0.550297200679779,4.012351512908936,7.358980994503781,6.816760304502784,29.39841371174405,24.78496181623747,9.71794142969884e-05,0.0923885703086853,0,0,0
2400,84509.24437105292,2010-10-30 09:26:12,3661.852132708442,2,8,0.5501165986061096,4.014294147491455,7.363567492425995,6.816760304502784,29.41682039090992,24.78496181623747,3.24249267578125e-05,0.0923885703086853,0,0,0
2401,84539.25953560341,2010-10-30 09:26:42,3691.867297253925,2,8,0.5501165986061096,4.0165605545043945,7.368154036340991,6.816760304502784,29.435237593731717,24.78496181623747,3.24249267578125e-05,0.0923885703086853,0,0,0
2402,84569.27473725636,2010-10-30 09:27:12,3721.882498906891,2,8,0.550297200679779,4.018826961517334,7.372740606241703,6.816760304502784,29.453665298666287,24.78496181623747,3.24249267578125e-05,0.0923885703086853,0,0,0
2403,84599.28998377114,2010-10-30 09:27:42,3751.8977454567535,2,8,0.5499359965324402,4.021093368530273,7.377327168767968,6.816760304502784,29.47210339741045,24.78496181623747,6.47544875391759e-05,0.0923885703086853,0,0,0
2404,84629.30508776072,2010-10-30 09:28:12,3781.912849416238,2,8,0.5501165986061096,4.023521423339844,7.381913662049343,6.816760304502784,29.49055189805447,24.78496181623747,3.23295607813634e-05,0.0923885703086853,0,0,0
2405,84659.32027574461,2010-10-30 09:28:42,3811.928037425198,2,8,0.550297200679779,4.025949954986572,7.386500212935326,6.816760304502784,29.509011290933746,24.78496181623747,6.47544875391759e-05,0.0923885703086853,0,0,0
2406,84689.33559948186,2010-10-30 09:29:12,3841.9433611473983,2,8,0.5501165986061096,4.028216361999512,7.391086778717969,6.816760304502784,29.527481505841777,24.78496181623747,6.47544875391759e-05,0.0923885703086853,0,0,0
2407,84719.35063353712,2010-10-30 09:29:42,3871.958395217696,2,8,0.550297200679779,4.030644416809082,7.395673278030539,6.816760304502784,29.545962302783856,24.78496181623747,6.47544875391759e-05,0.0923885703086853,0,0,0
2408,84749.36595552499,2010-10-30 09:30:12,3901.973717215599,2,8,0.5499359965324402,4.0329108238220215,7.400259829974339,6.816760304502784,29.56445427604964,24.78496181623747,3.23295607813634e-05,0.0923885703086853,0,0,0
2409,84779.3810256752,2010-10-30 09:30:42,3931.9887873357447,2,8,0.5501165986061096,4.035501003265381,7.404846329423247,6.816760304502784,29.582957060949084,24.78496181623747,0.0001295089750783,0.0923885703086853,0,0,0
2410,84809.3963420892,2010-10-30 09:31:12,3962.0041037597553,2,8,0.550297200679779,4.037929058074951,7.409432893808781,6.816760304502784,29.6014711998631,24.78496181623747,6.47544875391759e-05,0.0923885703086853,0,0,0
2411,84839.4113644403,2010-10-30 09:31:42,3992.019126095808,2,8,0.550297200679779,4.04035758972168,7.414019434325803,6.816760304502784,29.619996437974788,24.78496181623747,9.71794142969884e-05,0.0923885703086853,0,0,0
2412,84869.42673165588,2010-10-30 09:32:12,4022.0344933565193,2,8,0.5501165986061096,4.042623996734619,7.418606029126082,6.816760304502784,29.63853317775668,24.78496181623747,0.0,0.0923885703086853,0,0,0
2413,84899.441908492,2010-10-30 09:32:42,4052.0496701475217,2,8,0.550297200679779,4.0452141761779785,7.423192543597942,6.816760304502784,29.657080941516103,24.78496181623747,6.47544875391759e-05,0.0923885703086853,0,0,0
2414,84929.45705293739,2010-10-30 09:33:12,4082.0648146079457,2,8,0.5501165986061096,4.047804355621338,7.427779074102604,6.816760304502784,29.675640288547704,24.78496181623747,6.47544875391759e-05,0.0923885703086853,0,0,0
2415,84959.47222657554,2010-10-30 09:33:42,4112.079988241077,2,8,0.5501165986061096,4.050394535064697,7.432365680746163,6.816760304502784,29.694211664917056,24.78496181623747,6.47544875391759e-05,0.0923885703086853,0,0,0
2416,84989.4874096522,2010-10-30 09:34:12,4142.095171312733,2,8,0.550297200679779,4.052822589874268,7.436952264195538,6.816760304502784,29.71279453565608,24.78496181623747,9.70840483205393e-05,0.0923885703086853,0,0,0
2417,85019.50245595799,2010-10-30 09:34:42,4172.110217638576,2,8,0.5501165986061096,4.055412769317627,7.441538807205669,6.816760304502784,29.731389017384565,24.78496181623747,6.47544875391759e-05,0.0923885703086853,0,0,0
2418,85049.51778109872,2010-10-30 09:35:12,4202.1255427642745,2,8,0.5501165986061096,4.058002948760986,7.446125455276612,6.816760304502784,29.74999584505877,24.78496181623747,6.47544875391759e-05,0.0923885703086853,0,0,0
2419,85079.53282309377,2010-10-30 09:35:42,4232.140584774361,2,8,0.5501165986061096,4.060755252838135,7.450711946848503,6.816760304502784,29.768614127615383,24.78496181623747,9.71794142969884e-05,0.0923885703086853,0,0,0
2420,85109.54802543847,2010-10-30 09:36:12,4262.155787124063,2,8,0.5499359965324402,4.063345432281494,7.455298497905736,6.816760304502784,29.787244393514897,24.78496181623747,0.0001295089750783,0.0923885703086853,0,0,0
2421,85139.56331898546,2010-10-30 09:36:42,4292.171080645994,2,8,0.5501165986061096,4.066097259521484,7.459885056605184,6.816760304502784,29.80588711887799,24.78496181623747,9.70840483205393e-05,0.0923885703086853,0,0,0
2422,85169.57839903035,2010-10-30 09:37:12,4322.186160710925,2,8,0.5501165986061096,4.068849563598633,7.464471612691418,6.816760304502784,29.824542214681266,24.78496181623747,9.71794142969884e-05,0.0923885703086853,0,0,0
2423,85199.5937210483,2010-10-30 09:37:42,4352.201482708829,2,8,0.5501165986061096,4.071439743041992,7.469058115633104,6.816760304502784,29.843209552871468,24.78496181623747,6.47544875391759e-05,0.0923885703086853,0,0,0
2424,85229.5939544157,2010-10-30 09:38:12,4382.201716106296,2,8,0.550297200679779,4.074353694915772,7.473642315998204,6.816760304502784,29.86188008507199,24.78496181623747,9.71794142969884e-05,0.0923885703086853,0,0,0
2425,85259.59430872451,2010-10-30 09:38:42,4412.202070400074,2,8,0.5499359965324402,4.076781749725342,7.478226538871378,6.816760304502784,29.880563409648403,24.78496181623747,0.0,0.0923885703086853,0,0,0
2426,85289.60808159651,2010-10-30 09:39:12,4442.21584325704,2,8,0.550297200679779,4.07985782623291,7.482812830774477,6.816760304502784,29.89926799074011,24.78496181623747,9.71794142969884e-05,0.0923885703086853,0,0,0
2427,85319.62304051449,2010-10-30 09:39:42,4472.2308021900735,2,8,0.5499359965324402,4.0826096534729,7.487399269187678,6.816760304502784,29.91798602251393,24.78496181623747,9.70840483205393e-05,0.0923885703086853,0,0,0
2428,85349.63822900466,2010-10-30 09:40:12,4502.245990695272,2,8,0.5499359965324402,4.08552360534668,7.491985773875149,6.816760304502784,29.936717329708777,24.78496181623747,9.70840483205393e-05,0.0923885703086853,0,0,0
2429,85379.65339994107,2010-10-30 09:40:42,4532.261161591582,2,8,0.550297200679779,4.088437557220459,7.496572365099052,6.816760304502784,29.955462290619757,24.78496181623747,3.23295607813634e-05,0.0923885703086853,0,0,0
2430,85409.66860693735,2010-10-30 09:41:12,4562.276368592878,2,8,0.5501165986061096,4.091351509094238,7.501158920497987,6.816760304502784,29.97422056746,24.78496181623747,6.47544875391759e-05,0.0923885703086853,0,0,0
2431,85439.68376591396,2010-10-30 09:41:42,4592.291527574494,2,8,0.5499359965324402,4.094103813171387,7.505745525520442,6.816760304502784,29.99299231217869,24.78496181623747,6.47544875391759e-05,0.0923885703086853,0,0,0
2432,85469.69896696543,2010-10-30 09:42:12,4622.306728625959,2,8,0.5501165986061096,4.097179412841797,7.510332069925318,6.816760304502784,30.011777302276293,24.78496181623747,9.70840483205393e-05,0.0923885703086853,0,0,0
2433,85499.71678095915,2010-10-30 09:42:42,4652.32454273497,2,8,0.5499359965324402,4.100093364715576,7.514919043247745,6.816760304502784,30.03057777575578,24.78496181623747,6.47544875391759e-05,0.0923885703086853,0,0,0
2434,85529.72941862185,2010-10-30 09:43:12,4682.337180457833,2,8,0.5499359965324402,4.1031694412231445,7.519505234591395,6.816760304502784,30.049388800868226,24.78496181623747,6.47544875391759e-05,0.0923885703086853,0,0,0
2435,85559.74449602516,2010-10-30 09:43:42,4712.352257675669,2,8,0.5499359965324402,4.106083393096924,7.524091786627408,6.816760304502784,30.06821524713743,24.78496181623747,3.24249267578125e-05,0.0923885703086853,0,0,0
2436,85589.75971039482,2010-10-30 09:44:12,4742.367472055354,2,8,0.550297200679779,4.109321117401123,7.528678357782209,6.816760304502784,30.08705577408292,24.78496181623747,9.71794142969884e-05,0.0923885703086853,0,0,0
2437,85619.77489260431,2010-10-30 09:44:42,4772.382654259847,2,8,0.5499359965324402,4.112396717071533,7.53326490968904,6.816760304502784,30.10591040178748,24.78496181623747,3.23295607813634e-05,0.0923885703086853,0,0,0
2438,85649.79004869875,2010-10-30 09:45:12,4802.397810364293,2,8,0.550297200679779,4.115634441375732,7.537851489325024,6.816760304502784,30.124779327810064,24.78496181623747,9.71794142969884e-05,0.0923885703086853,0,0,0
2439,85679.80535207523,2010-10-30 09:45:42,4832.413113745797,2,8,0.550297200679779,4.118548393249512,7.542438126070325,6.816760304502784,30.143662892014657,24.78496181623747,6.47544875391759e-05,0.0923885703086853,0,0,0
2440,85709.82041679192,2010-10-30 09:46:12,4862.428178447439,2,8,0.5501165986061096,4.121786117553711,7.547024706259726,6.816760304502784,30.162560585367213,24.78496181623747,6.47544875391759e-05,0.0923885703086853,0,0,0
2441,85739.83571633886,2010-10-30 09:46:42,4892.443478019449,2,8,0.5499359965324402,4.124861717224121,7.5516113165956,6.816760304502784,30.18147278279105,24.78496181623747,6.47544875391759e-05,0.0923885703086853,0,0,0
2442,85769.850774018,2010-10-30 09:47:12,4922.458535728662,2,8,0.5499359965324402,4.12809944152832,7.556197848785805,6.816760304502784,30.20039928057324,24.78496181623747,9.70840483205393e-05,0.0923885703086853,0,0,0
2443,85799.86594865864,2010-10-30 09:47:42,4952.47371031918,2,8,0.550297200679779,4.131499290466309,7.56078439170095,6.816760304502784,30.219340617682672,24.78496181623747,9.71794142969884e-05,0.0923885703086853,0,0,0
2444,85829.88116048697,2010-10-30 09:48:12,4982.488922142494,2,8,0.550297200679779,4.134898662567139,7.565370946244628,6.816760304502784,30.23829686940156,24.78496181623747,0.0001618385285837,0.0923885703086853,0,0,0
2445,85859.89638594928,2010-10-30 09:48:42,5012.504147609812,2,8,0.550297200679779,4.138136386871338,7.569957480166324,6.816760304502784,30.257268109142224,24.78496181623747,0.0001295089750783,0.0923885703086853,0,0,0
2446,85889.91150186857,2010-10-30 09:49:12,5042.519263529103,2,8,0.5501165986061096,4.141212463378906,7.574544004361519,6.816760304502784,30.276254464435315,24.78496181623747,6.47544875391759e-05,0.0923885703086853,0,0,0
2447,85919.92668743143,2010-10-30 09:49:42,5072.534449081943,2,8,0.5501165986061096,4.144611835479736,7.579130647311654,6.816760304502784,30.29525657611164,24.78496181623747,6.47544875391759e-05,0.0923885703086853,0,0,0
2448,85949.94188120475,2010-10-30 09:50:12,5102.549642885345,2,8,0.550297200679779,4.148173332214356,7.583717186145809,6.816760304502784,30.31427398404165,24.78496181623747,0.0001295089750783,0.0923885703086853,0,0,0
2449,85979.95717959381,2010-10-30 09:50:42,5132.564941374657,2,8,0.5501165986061096,4.151573181152344,7.588303706827379,6.816760304502784,30.33330685269941,24.78496181623747,0.0001295089750783,0.0923885703086853,0,0,0
2450,86009.97224009498,2010-10-30 09:51:12,5162.580001775579,2,8,0.5501165986061096,4.154810905456543,7.592890286126431,6.816760304502784,30.35235544349279,24.78496181623747,9.71794142969884e-05,0.0923885703086853,0,0,0
2451,86039.98749058467,2010-10-30 09:51:42,5192.595252275286,2,8,0.5501165986061096,4.158210277557373,7.597476800043189,6.816760304502784,30.371419450403927,24.78496181623747,6.47544875391759e-05,0.0923885703086853,0,0,0
2452,86070.00261936101,2010-10-30 09:52:12,5222.610381146858,2,8,0.5501165986061096,4.161771774291992,7.602063360533736,6.816760304502784,30.39049954729797,24.78496181623747,9.70840483205393e-05,0.0923885703086853,0,0,0
2453,86100.01778987636,2010-10-30 09:52:42,5252.625551556957,2,8,0.5499359965324402,4.165009498596191,7.606649873326678,6.816760304502784,30.40959531065563,24.78496181623747,6.47544875391759e-05,0.0923885703086853,0,0,0
2454,86130.0329763064,2010-10-30 09:53:13,5282.640737966934,2,8,0.5501165986061096,4.1687331199646,7.611236386716137,6.816760304502784,30.42870709086704,24.78496181623747,9.71794142969884e-05,0.0923885703086853,0,0,0
2455,86160.0481527014,2010-10-30 09:53:43,5312.655914351924,2,8,0.5501165986061096,4.172294616699219,7.615822957198491,6.816760304502784,30.44783526722509,24.78496181623747,6.47544875391759e-05,0.0923885703086853,0,0,0
2456,86190.06344255921,2010-10-30 09:54:13,5342.67120426486,2,8,0.550297200679779,4.175856113433838,7.620409561832014,6.816760304502784,30.466979840630515,24.78496181623747,9.71794142969884e-05,0.0923885703086853,0,0,0
2457,86220.0785214011,2010-10-30 09:54:43,5372.686283056618,2,8,0.5499359965324402,4.179255485534668,7.624996142087092,6.816760304502784,30.486140641056828,24.78496181623747,0.0,0.0923885703086853,0,0,0
2458,86250.09374008651,2010-10-30 09:55:13,5402.701501792159,2,8,0.5501165986061096,4.182979106903076,7.629582744750779,6.816760304502784,30.505317990125533,24.78496181623747,9.71794142969884e-05,0.0923885703086853,0,0,0
2459,86280.10889122859,2010-10-30 09:55:43,5432.716652884111,2,8,0.5501165986061096,4.186540603637695,7.63416928135264,6.816760304502784,30.524511567889824,24.78496181623747,9.71794142969884e-05,0.0923885703086853,0,0,0
2460,86310.12428213823,2010-10-30 09:56:13,5462.732043894012,2,8,0.5501165986061096,4.1901021003723145,7.638755863228735,6.816760304502784,30.54372212095663,24.78496181623747,9.71794142969884e-05,0.0923885703086853,0,0,0
2461,86340.1392594621,2010-10-30 09:56:43,5492.747021117631,2,8,0.5501165986061096,4.194149017333984,7.643342384115272,6.816760304502784,30.56294925792617,24.78496181623747,0.0001618385285837,0.0923885703086853,0,0,0
2462,86370.15444253376,2010-10-30 09:57:13,5522.762204199313,2,8,0.5501165986061096,4.197548389434815,7.647928901520985,6.816760304502784,30.58219314984652,24.78496181623747,9.70840483205393e-05,0.0923885703086853,0,0,0
2463,86389.12312318747,2010-10-30 09:57:32,5541.730884973318,2,8,0.5501165986061096,4.200138568878174,7.650827425803993,6.816760304502784,30.594363334479752,24.78496181623747,0.0001618385285837,0.0923885703086853,0,0,0
2464,86419.1426631413,2010-10-30 09:58:02,30.01528837410161,3,8,0.0,4.114663124084473,7.650827425803993,6.816760304502784,30.594363334479752,24.78496181623747,-0.0003885269106831,0.0923885703086853,0,0,0
2465,86449.15776756695,2010-10-30 09:58:32,60.03039267443475,3,8,0.0,4.104140758514404,7.650827425803993,6.816760304502784,30.594363334479752,24.78496181623747,-0.0002265930233988,0.0923885703086853,0,0,0
2466,86479.17293283423,2010-10-30 09:59:02,90.04555793169129,3,8,0.0,4.097826957702637,7.650827425803993,6.816760304502784,30.594363334479752,24.78496181623747,-0.0001619339018361,0.0923885703086853,0,0,0
2467,86509.14126184616,2010-10-30 09:59:32,120.0138869486258,3,8,0.0,4.093941688537598,7.650827425803993,6.816760304502784,30.594363334479752,24.78496181623747,-6.47544875391759e-05,0.0923885703086853,0,0,0
2468,86509.15529655431,2010-10-30 09:59:32,0.015642310450662,4,8,0.9917063117027284,4.199653148651123,7.650831734853619,6.816760304502784,30.59438143099358,24.78496181623747,0.0,0.0923885703086853,0,0,0
2469,86509.99911311481,2010-10-30 09:59:33,0.859458875967797,4,8,0.941316306591034,4.199653148651123,7.651056585605411,6.816760304502784,30.59532573024839,24.78496181623747,0.0,0.0923885703086853,0,0,0
2470,86512.10835506975,2010-10-30 09:59:35,2.968700785804621,4,8,0.8909263014793396,4.199653148651123,7.651592198820992,6.816760304502784,30.597575142370868,24.78496181623747,0.0,0.0923885703086853,0,0,0
2471,86515.31177160944,2010-10-30 09:59:38,6.17211738062556,4,8,0.84053635597229,4.199976921081543,7.652361354641515,6.816760304502784,30.600805351234737,24.78496181623747,6.47544875391759e-05,0.0923885703086853,0,0,0
2472,86519.73326616433,2010-10-30 09:59:42,10.59361188037879,4,8,0.7903269529342651,4.199653148651123,7.653361554725547,6.816760304502784,30.60500587861085,24.78496181623747,0.0,0.0923885703086853,0,0,0
2473,86525.48326857458,2010-10-30 09:59:48,16.343614295629106,4,8,0.7402982115745544,4.199653148651123,7.654582510179425,6.816760304502784,30.610133517632544,24.78496181623747,0.0,0.0923885703086853,0,0,0
2474,86533.04565130924,2010-10-30 09:59:56,23.905997055353343,4,8,0.690269410610199,4.199653148651123,7.656083065577596,6.816760304502784,30.61643538876183,24.78496181623747,-3.23295607813634e-05,0.0923885703086853,0,0,0
2475,86543.09226480132,2010-10-30 10:00:06,33.952610522378855,4,8,0.6400600075721741,4.199653148651123,7.657936299107814,6.816760304502784,30.6242184199648,24.78496181623747,-3.23295607813634e-05,0.0923885703086853,0,0,0
2476,86557.32642260732,2010-10-30 10:00:20,48.18676834842222,4,8,0.5900312662124634,4.199653148651123,7.660362472591409,6.816760304502784,30.634407634464928,24.78496181623747,0.0,0.0923885703086853,0,0,0
2477,86579.06046842689,2010-10-30 10:00:42,69.92081414294087,4,8,0.5400024652481079,4.199814796447754,7.663762419265193,6.816760304502784,30.648686398515096,24.78496181623747,0.0,0.0923885703086853,0,0,0
2478,86616.37242206598,2010-10-30 10:01:19,107.23276779203552,4,8,0.4899737238883972,4.199653148651123,7.669076770396492,6.816760304502784,30.67100512906371,24.78496181623747,-3.23295607813634e-05,0.0923885703086853,0,0,0
2479,86684.23079755719,2010-10-30 10:02:27,175.0911432832598,4,8,0.4399449527263641,4.199653148651123,7.677803432838194,6.816760304502784,30.70765455755852,24.78496181623747,-3.23295607813634e-05,0.0923885703086853,0,0,0
2480,86784.88568318792,2010-10-30 10:04:08,275.74602895909806,4,8,0.389916181564331,4.199491024017334,7.689379002269074,6.816760304502784,30.75626856483151,24.78496181623747,-6.47544875391759e-05,0.0923885703086853,0,0,0
2481,86911.7431156677,2010-10-30 10:06:15,402.6034613837565,4,8,0.339887410402298,4.199814796447754,7.702222896748311,6.816760304502784,30.81020918370493,24.78496181623747,0.0,0.0923885703086853,0,0,0
2482,87061.365918836,2010-10-30 10:08:44,552.2262645520374,4,8,0.2898586392402649,4.199653148651123,7.715290893339438,6.816760304502784,30.86509100484745,24.78496181623747,-3.23295607813634e-05,0.0923885703086853,0,0,0
2483,87241.3945173469,2010-10-30 10:11:44,732.2548630629415,4,8,0.239829882979393,4.199653148651123,7.728509585564347,6.816760304502784,30.92060576365799,24.78496181623747,0.0,0.0923885703086853,0,0,0
2484,87462.4537474716,2010-10-30 10:15:25,953.3140932227244,4,8,0.1898011118173599,4.199814796447754,7.741660729436624,6.816760304502784,30.975836766800477,24.78496181623747,3.23295607813634e-05,0.0923885703086853,0,0,0
2485,87762.23059876404,2010-10-30 10:20:25,1253.0909445101638,4,8,0.1397723406553268,4.199653148651123,7.755293662838884,6.816760304502784,31.033091219368053,24.78496181623747,-3.23295607813634e-05,0.0923885703086853,0,0,0
2486,88218.86450503622,2010-10-30 10:28:02,1709.7248507522593,4,8,0.0897435694932937,4.199653148651123,7.769614702191707,6.816760304502784,31.09323552812709,24.78496181623747,3.24249267578125e-05,0.0923885703086853,0,0,0
2487,88901.90132357819,2010-10-30 10:39:25,2392.761669324316,4,8,0.0498289167881011,4.199653148651123,7.782499718686994,6.816760304502784,31.147348862464373,24.78496181623747,-3.23295607813634e-05,0.0923885703086853,0,0,0
2488,88931.91883284779,2010-10-30 10:39:55,30.01515664078164,5,8,0.0,4.191720962524414,7.782499718686994,6.816760304502784,31.147348862464373,24.78496181623747,-3.23295607813634e-05,0.0923885703086853,0,0,0
2489,88961.91839348852,2010-10-30 10:40:25,60.01471725145747,5,8,0.0,4.190749645233154,7.782499718686994,6.816760304502784,31.147348862464373,24.78496181623747,0.0,0.0923885703086853,0,0,0
2490,88962.10926531832,2010-10-30 10:40:25,0.187620272448256,6,8,-1.9243103452026844e-05,4.190587520599365,7.782499718686994,6.816760305505673,31.147348862464373,24.78496182044016,0.0,0.0948198437690734,0,0,0
2491,88966.9372668186,2010-10-30 10:40:30,5.015621657438539,6,8,0.0003419754502829,4.190587520599365,7.782500554951088,6.816760305588771,31.14735236696424,24.784961820788386,-3.24249267578125e-05,0.0948198437690734,0,0,0
2492,88996.95585174423,2010-10-30 10:41:00,30.015337326105065,7,8,-1.0997490882873535,4.013322830200195,7.782500554951088,6.8259288813015,31.14735236696424,24.821955756758857,-0.0009065627818927,0.0948198437690734,0,0,0
2493,89026.9708179955,2010-10-30 10:41:30,60.03030359742744,7,8,-1.0997490882873535,3.986125946044922,7.782500554951088,6.835097900771366,31.14735236696424,24.85862023637231,-0.0006151676061563,0.0948198437690734,0,0,0
2494,89056.9859870372,2010-10-30 10:42:00,90.0454726140535,7,8,-1.099929690361023,3.967185258865357,7.782500554951088,6.84426718651819,31.14735236696424,24.895079605878056,-0.0004532813909463,0.0948198437690734,0,0,0
2495,89087.00115862023,2010-10-30 10:42:30,120.06064419206328,7,8,-1.0997490882873535,3.95261549949646,7.782500554951088,6.853436403096692,31.14735236696424,24.93138703611231,-0.0003237724304199,0.0948198437690734,0,0,0
2496,89117.01646859315,2010-10-30 10:43:00,150.07595418003334,7,8,-1.0997490882873535,3.940312147140503,7.782500554951088,6.862605714467251,31.14735236696424,24.96757189448908,-0.0003237724304199,0.0948198437690734,0,0,0
2497,89147.0315274803,2010-10-30 10:43:30,180.09101305214534,7,8,-1.099568486213684,3.9293038845062256,7.782500554951088,6.871774391879942,31.14735236696424,25.00364784350205,-0.0002590179501567,0.0948198437690734,0,0,0
2498,89177.04671940903,2010-10-30 10:44:00,210.1062050109504,7,8,-1.0997490882873535,3.919266939163208,7.782500554951088,6.88094274193905,31.14735236696424,25.03962597944694,-0.0002590179501567,0.0948198437690734,0,0,0
2499,89207.06452508201,2010-10-30 10:44:30,240.1240107390728,7,8,-1.099568486213684,3.9097158908844,7.782500554951088,6.890111965288425,31.14735236696424,25.075517825722866,-0.0001942634553415,0.0948198437690734,0,0,0
2500,89237.07711818868,2010-10-30 10:45:00,270.136604602625,7,8,-1.099568486213684,3.900488376617432,7.782500554951088,6.899279622597616,31.14735236696424,25.11131787060924,-0.0002590179501567,0.0948198437690734,0,0,0
2501,89267.09226567665,2010-10-30 10:45:30,300.1517512434837,7,8,-1.099568486213684,3.891584634780884,7.782500554951088,6.908447980779303,31.14735236696424,25.14703796249594,-0.0002590179501567,0.0948198437690734,0,0,0
2502,89297.10753039681,2010-10-30 10:46:00,330.16701596864493,7,8,-1.0997490882873535,3.883166551589966,7.782500554951088,6.917616349840422,31.14735236696424,25.18267873930953,-0.0001942634553415,0.0948198437690734,0,0,0
2503,89327.12263388513,2010-10-30 10:46:30,360.18211945194173,7,8,-1.0997490882873535,3.874586582183838,7.782500554951088,6.926784717364795,31.14735236696424,25.218241978416,-0.0002590179501567,0.0948198437690734,0,0,0
2504,89357.13795117628,2010-10-30 10:47:00,390.197436798251,7,8,-1.099568486213684,3.86649227142334,7.782500554951088,6.935953186530901,31.14735236696424,25.253729301799947,-0.0001942634553415,0.0948198437690734,0,0,0
2505,89387.15299903092,2010-10-30 10:47:30,420.21248462784166,7,8,-1.099568486213684,3.858397960662842,7.782500554951088,6.945121564346753,31.14735236696424,25.2891413760712,-0.0001942634553415,0.0948198437690734,0,0,0
2506,89417.16820890439,2010-10-30 10:48:00,450.2276944862581,7,8,-1.0997490882873535,3.850303649902344,7.782500554951088,6.954289962545083,31.14735236696424,25.3244798473097,-0.0002590179501567,0.0948198437690734,0,0,0
2507,89447.18350729343,2010-10-30 10:48:30,480.2429928903575,7,8,-1.0997490882873535,3.8428568840026855,7.782500554951088,6.963458478705577,31.14735236696424,25.35974713694925,-0.0001618862152099,0.0948198437690734,0,0,0
2508,89477.19855853154,2010-10-30 10:49:00,510.2580441284432,7,8,-1.0997490882873535,3.835086345672608,7.782500554951088,6.972626949325878,31.14735236696424,25.39494420401689,-0.0001942634553415,0.0948198437690734,0,0,0
2509,89507.213743533,2010-10-30 10:49:30,540.2732291299084,7,8,-1.0997490882873535,3.827639818191528,7.782500554951088,6.981795328482511,31.14735236696424,25.43007187573141,-0.0002266406954731,0.0948198437690734,0,0,0
2510,89537.22936013012,2010-10-30 10:50:00,570.2888457069928,7,8,-1.099568486213684,3.82035493850708,7.782500554951088,6.990963913998872,31.14735236696424,25.46513266372816,-0.0001942634553415,0.0948198437690734,0,0,0
2511,89567.24410728035,2010-10-30 10:50:30,600.3035928521855,7,8,-1.0997490882873535,3.812908172607422,7.782500554951088,7.000132285076052,31.14735236696424,25.500126342034783,-0.0002266406954731,0.0948198437690734,0,0,0
2512,89597.25937310826,2010-10-30 10:51:00,630.3188587803448,7,8,-1.0997490882873535,3.8059470653533936,7.782500554951088,7.009300138217991,31.14735236696424,25.53505154044058,-0.0001618862152099,0.0948198437690734,0,0,0
2513,89627.27452808988,2010-10-30 10:51:30,660.334013666754,7,8,-1.099568486213684,3.7988240718841553,7.782500554951088,7.018467826748707,31.14735236696424,25.569910548101063,-0.0001942634553415,0.0948198437690734,0,0,0
2514,89657.289639518,2010-10-30 10:52:00,690.3491251199143,7,8,-1.099568486213684,3.792024850845337,7.782500554951088,7.027635613558067,31.14735236696424,25.60470625278891,-0.0001618862152099,0.0948198437690734,0,0,0
2515,89687.30506589102,2010-10-30 10:52:30,720.3645514729017,7,8,-1.0997490882873535,3.785225629806519,7.782500554951088,7.036803348736646,31.14735236696424,25.63943972360786,-0.0001942634553415,0.0948198437690734,0,0,0
2516,89717.32004111467,2010-10-30 10:53:00,750.379526696536,7,8,-1.0997490882873535,3.77875018119812,7.782500554951088,7.045970956395109,31.14735236696424,25.674112077981025,-0.0001942634553415,0.0948198437690734,0,0,0
2517,89747.33519833689,2010-10-30 10:53:30,780.3946839137542,7,8,-1.0993878841400146,3.7725985050201416,7.782500554951088,7.055138619569546,31.14735236696424,25.70872531531269,-0.0001295089750783,0.0948198437690734,0,0,0
2518,89777.350421313,2010-10-30 10:54:00,810.4099069349763,7,8,-1.099568486213684,3.766123056411743,7.782500554951088,7.064306712132085,31.14735236696424,25.7432817163082,-0.0001618862152099,0.0948198437690734,0,0,0
2519,89807.36556297647,2010-10-30 10:54:30,840.4250485733676,7,8,-1.099568486213684,3.7598094940185542,7.782500554951088,7.073475063989161,31.14735236696424,25.77778153695781,-0.0001618862152099,0.0948198437690734,0,0,0
2520,89837.38090523987,2010-10-30 10:55:01,870.4403908568279,7,8,-1.0997490882873535,3.753819704055786,7.782500554951088,7.082643460783713,31.14735236696424,25.812225847990835,-0.0001942634553415,0.0948198437690734,0,0,0
2521,89867.39592085918,2010-10-30 10:55:31,900.4554064310281,7,8,-1.0997490882873535,3.7478301525115967,7.782500554951088,7.091811733635852,31.14735236696424,25.846614763771743,-0.0001942634553415,0.0948198437690734,0,0,0
2522,89897.41111749464,2010-10-30 10:56:01,930.4706030664886,7,8,-1.0997490882873535,3.741840362548828,7.782500554951088,7.10098003846211,31.14735236696424,25.880949794996667,-0.0001942634553415,0.0948198437690734,0,0,0
2523,89927.42639619464,2010-10-30 10:56:31,960.4858817865296,7,8,-1.0997490882873535,3.73617434501648,7.782500554951088,7.11014813346466,31.14735236696424,25.91523071732965,-0.0001618862152099,0.0948198437690734,0,0,0
2524,89957.44152102113,2010-10-30 10:57:01,990.5010067032448,7,8,-1.099568486213684,3.730670213699341,7.782500554951088,7.119316139516294,31.14735236696424,25.94945896158289,-0.0001295089750783,0.0948198437690734,0,0,0
2525,89987.45677685914,2010-10-30 10:57:31,1020.5162624359943,7,8,-1.099568486213684,3.725166082382202,7.782500554951088,7.128484121986666,31.14735236696424,25.983636717566892,-0.0001618862152099,0.0948198437690734,0,0,0
2526,90017.47204830605,2010-10-30 10:58:01,1050.531533882908,7,8,-1.0997490882873535,3.7198238372802734,7.782500554951088,7.137652195140721,31.14735236696424,26.017765013413783,-0.0001295089750783,0.0948198437690734,0,0,0
2527,90047.48703116873,2010-10-30 10:58:31,1080.546516740569,7,8,-1.099568486213684,3.7146434783935542,7.782500554951088,7.146820507689688,31.14735236696424,26.05184483579888,-0.0001295089750783,0.0948198437690734,0,0,0
2528,90077.50219104256,2010-10-30 10:59:01,1110.561676614408,7,8,-1.0993878841400146,3.709301233291626,7.782500554951088,7.155988826872391,31.14735236696424,26.08587605060944,-0.0001295089750783,0.0948198437690734,0,0,0
2529,90107.517390881,2010-10-30 10:59:31,1140.5768764578645,7,8,-1.099568486213684,3.703958988189697,7.782500554951088,7.165157208842192,31.14735236696424,26.119859067870408,-0.0001295089750783,0.0948198437690734,0,0,0
2530,90137.53257020332,2010-10-30 11:00:01,1170.5920558002251,7,8,-1.1001102924346924,3.698616743087769,7.782500554951088,7.174325606577968,31.14735236696424,26.153794440431227,-0.0001618862152099,0.0948198437690734,0,0,0
2531,90167.54787234674,2010-10-30 11:00:31,1200.607357963694,7,8,-1.099568486213684,3.6937601566314697,7.782500554951088,7.183493995670037,31.14735236696424,26.18768275843969,-0.0001295089750783,0.0948198437690734,0,0,0
2532,90197.56292103848,2010-10-30 11:01:01,1230.6224066103207,7,8,-1.099568486213684,3.688741683959961,7.782500554951088,7.192662381072826,31.14735236696424,26.221525202105795,-0.0001295089750783,0.0948198437690734,0,0,0
2533,90227.57823511162,2010-10-30 11:01:31,1260.6377207937476,7,8,-1.099568486213684,3.683885097503662,7.782500554951088,7.20183070566522,31.14735236696424,26.255322256177816,-9.713172767078504e-05,0.0948198437690734,0,0,0
2534,90257.59344680964,2010-10-30 11:02:01,1290.6529323965112,7,8,-1.099568486213684,3.6790285110473633,7.782500554951088,7.210999059342723,31.14735236696424,26.289074599671597,-0.0001295089750783,0.0948198437690734,0,0,0
2535,90287.60854662878,2010-10-30 11:02:31,1320.668032325951,7,8,-1.0997490882873535,3.674171924591065,7.782500554951088,7.220167355273629,31.14735236696424,26.32278190434808,-0.0001295089750783,0.0948198437690734,0,0,0
2536,90317.62365892406,2010-10-30 11:03:01,1350.6831445259725,7,8,-1.099568486213684,3.6694774627685542,7.782500554951088,7.229335701193286,31.14735236696424,26.356445510318867,-0.0001295089750783,0.0948198437690734,0,0,0
2537,90347.6388406674,2010-10-30 11:03:31,1380.6983262392423,7,8,-1.099568486213684,3.664620876312256,7.782500554951088,7.238504106315037,31.14735236696424,26.3900662618825,-9.713172767078504e-05,0.0948198437690734,0,0,0
2538,90377.65403871136,2010-10-30 11:04:01,1410.7135243183009,7,8,-1.0997490882873535,3.659926176071167,7.782500554951088,7.247672453386311,31.14735236696424,26.42364430436364,-0.0001618862152099,0.0948198437690734,0,0,0
2539,90407.66921088083,2010-10-30 11:04:31,1440.7286964526977,7,8,-1.0997490882873535,3.655555248260498,7.782500554951088,7.256840795977613,31.14735236696424,26.45718047109269,-0.0001295089750783,0.0948198437690734,0,0,0
2540,90437.68439025828,2010-10-30 11:05:01,1470.743875830146,7,8,-1.0997490882873535,3.651022434234619,7.782500554951088,7.266009183477679,31.14735236696424,26.49067590428719,-0.0001295089750783,0.0948198437690734,0,0,0
2541,90467.69960718432,2010-10-30 11:05:31,1500.7590927662018,7,8,-1.099568486213684,3.64665150642395,7.782500554951088,7.275177564659841,31.14735236696424,26.52413047007814,-0.0001295089750783,0.0948198437690734,0,0,0
2542,90497.71477043658,2010-10-30 11:06:01,1530.7742560084364,7,8,-1.0997490882873535,3.642280578613281,7.782500554951088,7.284345817674929,31.14735236696424,26.557544065780583,-0.0001618862152099,0.0948198437690734,0,0,0
2543,90527.72994479151,2010-10-30 11:06:31,1560.7894303884298,7,8,-1.099568486213684,3.6380715370178223,7.782500554951088,7.293514071591772,31.14735236696424,26.590918636630818,-0.0001295089750783,0.0948198437690734,0,0,0
2544,90557.74513242456,2010-10-30 11:07:01,1590.8046179913786,7,8,-1.099568486213684,3.634024381637573,7.782500554951088,7.302682328135408,31.14735236696424,26.62425469910475,-9.713172767078504e-05,0.0948198437690734,0,0,0
2545,90587.7603156215,2010-10-30 11:07:31,1620.8198012284463,7,8,-1.0997490882873535,3.629977226257324,7.782500554951088,7.311850676609494,31.14735236696424,26.6575531645043,-9.713172767078504e-05,0.0948198437690734,0,0,0
2546,90617.77558520378,2010-10-30 11:08:01,1650.8350708006878,7,8,-1.0993878841400146,3.625768184661865,7.782500554951088,7.32101905292928,31.14735236696424,26.690814881168155,-0.0001295089750783,0.0948198437690734,0,0,0
2547,90647.79080803452,2010-10-30 11:08:31,1680.8502936113855,7,8,-1.0993878841400146,3.622206687927246,7.782500554951088,7.330187426528326,31.14735236696424,26.72404062712434,-3.237724376958795e-05,0.0948198437690734,0,0,0
2548,90677.80589257562,2010-10-30 11:09:01,1710.8653781825471,7,8,-1.0997490882873535,3.617997646331787,7.782500554951088,7.339355762429197,31.14735236696424,26.75723085382776,-0.0001618862152099,0.0948198437690734,0,0,0
2549,90707.82104891563,2010-10-30 11:09:31,1740.880534517567,7,8,-1.0997490882873535,3.614436149597168,7.782500554951088,7.348524094797786,31.14735236696424,26.79038613118896,-9.713172767078504e-05,0.0948198437690734,0,0,0
2550,90737.8362452604,2010-10-30 11:10:01,1770.8957308572906,7,8,-1.099568486213684,3.610712766647339,7.782500554951088,7.357692410179375,31.14735236696424,26.82350742652842,-9.713172767078504e-05,0.0948198437690734,0,0,0
2551,90767.8514153146,2010-10-30 11:10:31,1800.9109008814276,7,8,-1.0997490882873535,3.6073131561279297,7.782500554951088,7.366860761776005,31.14735236696424,26.856595732507795,-6.47544875391759e-05,0.0948198437690734,0,0,0
2552,90797.86661383978,2010-10-30 11:11:01,1830.9260994116105,7,8,-1.0997490882873535,3.603751659393311,7.782500554951088,7.376029112611772,31.14735236696424,26.889651783874537,-9.713172767078504e-05,0.0948198437690734,0,0,0
2553,90827.88179285632,2010-10-30 11:11:31,1860.9412784582344,7,8,-1.0997490882873535,3.6001901626586914,7.782500554951088,7.385197535856088,31.14735236696424,26.922676550996837,-0.0001295089750783,0.0948198437690734,0,0,0
2554,90857.89698625873,2010-10-30 11:12:01,1890.9564718656493,7,8,-1.099568486213684,3.596952438354492,7.782500554951088,7.394365934001696,31.14735236696424,26.955670405971443,-6.47544875391759e-05,0.0948198437690734,0,0,0
2555,90887.9122017161,2010-10-30 11:12:31,1920.9716872929453,7,8,-1.0997490882873535,3.593714714050293,7.782500554951088,7.403534319666274,31.14735236696424,26.988634296794785,-9.713172767078504e-05,0.0948198437690734,0,0,0
2556,90917.92756686657,2010-10-30 11:13:01,1950.9870524534224,7,8,-1.0997490882873535,3.590477228164673,7.782500554951088,7.412702764820649,31.14735236696424,27.02156921623475,-9.713172767078504e-05,0.0948198437690734,0,0,0
2557,90947.9425296642,2010-10-30 11:13:31,1981.002015246075,7,8,-1.099568486213684,3.5875632762908936,7.782500554951088,7.421871082417015,31.14735236696424,27.05447447775152,-6.47544875391759e-05,0.0948198437690734,0,0,0
2558,90977.95797365614,2010-10-30 11:14:01,2011.017459363336,7,8,-1.099568486213684,3.5844874382019043,7.782500554951088,7.431039573059301,31.14735236696424,27.08735190018513,-6.47544875391759e-05,0.0948198437690734,0,0,0
2559,91007.97299223286,2010-10-30 11:14:31,2041.0324778046825,7,8,-1.0997490882873535,3.581411600112915,7.782500554951088,7.440207828479175,31.14735236696424,27.12020077472913,-6.47544875391759e-05,0.0948198437690734,0,0,0
2560,91037.98811809692,2010-10-30 11:15:01,2071.047603698834,7,8,-1.099568486213684,3.578335762023926,7.782500554951088,7.449376168976198,31.14735236696424,27.15302237079237,-9.713172767078504e-05,0.0948198437690734,0,0,0
2561,91068.00327025654,2010-10-30 11:15:31,2101.0627558534347,7,8,-1.0997490882873535,3.5754218101501465,7.782500554951088,7.45854453883006,31.14735236696424,27.18581657970772,-6.47544875391759e-05,0.0948198437690734,0,0,0
2562,91098.01848364374,2010-10-30 11:16:01,2131.0779692155834,7,8,-1.0997490882873535,3.572345972061157,7.782500554951088,7.467712897971131,31.14735236696424,27.2185834450738,-9.713172767078504e-05,0.0948198437690734,0,0,0
2563,91128.03626482569,2010-10-30 11:16:31,2161.0957505228416,7,8,-1.0997490882873535,3.569432020187378,7.782500554951088,7.476882108699076,31.14735236696424,27.251326199880456,-6.47544875391759e-05,0.0948198437690734,0,0,0
2564,91158.04885099508,2010-10-30 11:17:01,2191.1083365969803,7,8,-1.099568486213684,3.566518068313598,7.782500554951088,7.486049676785383,31.14735236696424,27.28403601718169,-6.47544875391759e-05,0.0948198437690734,0,0,0
2565,91188.06400534514,2010-10-30 11:17:31,2221.1234909470527,7,8,-1.0997490882873535,3.5634422302246094,7.782500554951088,7.495217972002225,31.14735236696424,27.31672111210208,-9.713172767078504e-05,0.0948198437690734,0,0,0
2566,91218.0792078803,2010-10-30 11:18:01,2251.1386934772045,7,8,-1.0997490882873535,3.56069016456604,7.782500554951088,7.504386223522257,31.14735236696424,27.34937947730409,-9.713172767078504e-05,0.0948198437690734,0,0,0
2567,91248.09437592952,2010-10-30 11:18:31,2281.1538614963447,7,8,-1.099929690361023,3.557452440261841,7.782500554951088,7.513554575803922,31.14735236696424,27.382010647264973,-0.0001295089750783,0.0948198437690734,0,0,0
2568,91278.10956746223,2010-10-30 11:19:01,2311.169053059163,7,8,-1.099568486213684,3.554538488388061,7.782500554951088,7.522722901859476,31.14735236696424,27.41461370314896,-9.713172767078504e-05,0.0948198437690734,0,0,0
2569,91308.12476591225,2010-10-30 11:19:31,2341.184251479071,7,8,-1.099568486213684,3.5514626502990723,7.782500554951088,7.531891194756695,31.14735236696424,27.447188241842333,-3.237724376958795e-05,0.0948198437690734,0,0,0
2570,91338.13998535956,2010-10-30 11:20:01,2371.1994709364108,7,8,-1.0997490882873535,3.548063039779663,7.782500554951088,7.541059537620081,31.14735236696424,27.47973434751995,-0.0001295089750783,0.0948198437690734,0,0,0
2571,91368.15523672642,2010-10-30 11:20:31,2401.214722308292,7,8,-1.0997490882873535,3.544825315475464,7.782500554951088,7.550227865190531,31.14735236696424,27.512251308001307,-0.0001295089750783,0.0948198437690734,0,0,0
2572,91398.1702976737,2010-10-30 11:21:01,2431.229783280638,7,8,-1.099568486213684,3.5417494773864746,7.782500554951088,7.559396156414951,31.14735236696424,27.54473854348412,-0.0001295089750783,0.0948198437690734,0,0,0
2573,91428.18547978296,2010-10-30 11:21:31,2461.24496537987,7,8,-1.0997490882873535,3.5385117530822754,7.782500554951088,7.568564500011517,31.14735236696424,27.5771957530749,-9.713172767078504e-05,0.0948198437690734,0,0,0
2574,91458.20068543588,2010-10-30 11:22:01,2491.260171012755,7,8,-1.099568486213684,3.534950256347656,7.782500554951088,7.577732879139118,31.14735236696424,27.609621700310704,-9.713172767078504e-05,0.0948198437690734,0,0,0
2575,91488.2158489037,2010-10-30 11:22:31,2521.2753345006017,7,8,-1.099568486213684,3.531388759613037,7.782500554951088,7.58690124650685,31.14735236696424,27.64201527531287,-9.713172767078504e-05,0.0948198437690734,0,0,0
2576,91518.23117749304,2010-10-30 11:23:01,2551.290663109982,7,8,-1.099568486213684,3.527665376663208,7.782500554951088,7.596069692580919,31.14735236696424,27.674375811375487,-9.713172767078504e-05,0.0948198437690734,0,0,0
2577,91548.2462115132,2010-10-30 11:23:31,2581.305697095068,7,8,-1.0997490882873535,3.523941993713379,7.782500554951088,7.605238693135806,31.14735236696424,27.706703643759585,-6.47544875391759e-05,0.0948198437690734,0,0,0
2578,91578.26141176268,2010-10-30 11:24:01,2611.3208973395235,7,8,-1.099929690361023,3.51973295211792,7.782500554951088,7.614407851328956,31.14735236696424,27.738996184691345,-0.0001295089750783,0.0948198437690734,0,0,0
2579,91608.27674202617,2010-10-30 11:24:31,2641.336227638113,7,8,-1.099568486213684,3.515847682952881,7.782500554951088,7.623576452546264,31.14735236696424,27.77124943988106,-9.713172767078504e-05,0.0948198437690734,0,0,0
2580,91638.29179562013,2010-10-30 11:25:01,2671.351281222046,7,8,-1.0997490882873535,3.511153221130371,7.782500554951088,7.632744793935431,31.14735236696424,27.80346230941344,-0.0001618385285837,0.0948198437690734,0,0,0
2581,91668.30701194968,2010-10-30 11:25:31,2701.366497561615,7,8,-1.0997490882873535,3.506620407104492,7.782500554951088,7.641913200835457,31.14735236696424,27.83563352132288,-0.0001295089750783,0.0948198437690734,0,0,0
2582,91698.3221693774,2010-10-30 11:26:01,2731.381654984345,7,8,-1.099568486213684,3.5012781620025635,7.782500554951088,7.651081630773796,31.14735236696424,27.86775984637574,-0.0001618862152099,0.0948198437690734,0,0,0
2583,91728.33736031366,2010-10-30 11:26:31,2761.396845890527,7,8,-1.0997490882873535,3.4959359169006348,7.782500554951088,7.66024997282716,31.14735236696424,27.89983729963414,-0.0001295089750783,0.0948198437690734,0,0,0
2584,91758.35265067773,2010-10-30 11:27:02,2791.412136269625,7,8,-1.099568486213684,3.489946126937866,7.782500554951088,7.669418429470263,31.14735236696424,27.931861832768817,-0.0001295089750783,0.0948198437690734,0,0,0
2585,91788.3677147478,2010-10-30 11:27:32,2821.4272003196425,7,8,-1.099568486213684,3.482823133468628,7.782500554951088,7.678586785236665,31.14735236696424,27.963826563272917,-0.0002266406954731,0.0948198437690734,0,0,0
2586,91818.38291606492,2010-10-30 11:28:02,2851.4424016417843,7,8,-1.0993878841400146,3.47521448135376,7.782500554951088,7.687755137690439,31.14735236696424,27.99572354390246,-0.0001942634553415,0.0948198437690734,0,0,0
2587,91848.39806276596,2010-10-30 11:28:32,2881.457548342793,7,8,-1.099929690361023,3.465825080871582,7.782500554951088,7.696923529892547,31.14735236696424,28.027543704255724,-0.0002913951757363,0.0948198437690734,0,0,0
2588,91878.41321977763,2010-10-30 11:29:02,2911.472705364524,7,8,-1.099568486213684,3.4554643630981445,7.782500554951088,7.706092000274644,31.14735236696424,28.059274777563797,-0.0003237724304199,0.0948198437690734,0,0,0
2589,91908.42845286394,2010-10-30 11:29:32,2941.4879384408064,7,8,-1.099568486213684,3.442837238311768,7.782500554951088,7.715260434326678,31.14735236696424,28.09089977155101,-0.0003561496851034,0.0948198437690734,0,0,0
2590,91938.4439011566,2010-10-30 11:30:02,2971.503386863799,7,8,-1.099568486213684,3.4274582862854004,7.782500554951088,7.724428926365524,31.14735236696424,28.12239665531481,-0.0004209041653666,0.0948198437690734,0,0,0
2591,91968.45901018872,2010-10-30 11:30:32,3001.5184957806377,7,8,-1.0997490882873535,3.407708168029785,7.782500554951088,7.733597326766255,31.14735236696424,28.15373401569573,-0.0006151676061563,0.0948198437690734,0,0,0
2592,91998.47415251886,2010-10-30 11:31:02,3031.53363818594,7,8,-1.0997490882873535,3.3824539184570312,7.782500554951088,7.742765740974694,31.14735236696424,28.1848680348587,-0.0007770538213662,0.0948198437690734,0,0,0
2593,92028.48924906486,2010-10-30 11:31:32,3061.548734646735,7,8,-1.0997490882873535,3.3484580516815186,7.782500554951088,7.751934158314373,31.14735236696424,28.21573319181143,-0.0011007785797119,0.0948198437690734,0,0,0
2594,92058.50447601089,2010-10-30 11:32:02,3091.563961582713,7,8,-1.099568486213684,3.30151104927063,7.782500554951088,7.761102569136306,31.14735236696424,28.24623080050232,-0.0014569759368896,0.0948198437690734,0,0,0
2595,92088.51963212033,2010-10-30 11:32:32,3121.5791177372835,7,8,-1.099568486213684,3.234814167022705,7.782500554951088,7.770271010906622,31.14735236696424,28.27621374390725,-0.0021045207977294,0.0948198437690734,0,0,0
2596,92118.534791929,2010-10-30 11:33:02,3151.5942775008484,7,8,-1.099568486213684,3.136873245239258,7.782500554951088,7.779439504948788,31.14735236696424,28.30545546291544,-0.0031082152854651,0.0948198437690734,0,0,0
2597,92148.55000204303,2010-10-30 11:33:32,3181.6094876299394,7,8,-1.0997490882873535,2.9689977169036865,7.782500554951088,7.788607978681189,31.14735236696424,28.33353836247247,-0.006184053607285,0.0948198437690734,0,0,0
2598,92166.37799541306,2010-10-30 11:33:50,3199.4374809999536,7,8,-1.099568486213684,2.768745183944702,7.782500554951088,7.794053704653351,31.14735236696424,28.349211898801418,-0.0108787063509225,0.0948198437690734,0,0,0
2599,92171.1121386948,2010-10-30 11:33:54,3204.171624271646,7,8,-1.0997490882873535,2.699943780899048,7.782500554951088,7.79549980357674,31.14735236696424,28.353166637830192,-0.0116881374269723,0.0948198437690734,0,0,0
2600,92231.13033067384,2010-10-30 11:34:54,60.01469703106204,8,8,0.0,3.3202898502349854,7.782500554951088,7.79549980357674,31.14735236696424,28.353166637830192,0.0012950897216796,0.0948198437690734,0,0,0
2601,92231.31441158331,2010-10-30 11:34:55,0.187526333323051,9,8,-1.9243103452026844e-05,3.3202898502349854,7.782500554951088,7.795499804579126,31.14735236696424,28.353166641158403,0.0,0.0920556336641311,0,0,0
2602,92236.14260614476,2010-10-30 11:35:00,5.0157208947685,9,8,0.0007031940040178,3.328222274780273,7.782501437011804,7.795499804746217,31.147355299769057,28.35316664171319,0.0011332035064697,0.0920556336641311,0,0,0
