Data_Point,Test_Time(s),Date_Time,Step_Time(s),Step_Index,Cycle_Index,Current(A),Voltage(V),Charge_Capacity(Ah),Discharge_Capacity(Ah),Charge_Energy(Wh),Discharge_Energy(Wh),dV/dt(V/s),Internal_Resistance(Ohm),Is_FC_Data,AC_Impedance(Ohm),ACI_Phase_Angle(Deg)
2931,103776.94260543912,2010-10-30 14:47:22,30.015160324963755,1,10,0.0,3.360437393188477,8.761232579308007,8.77464790735873,35.057368725412466,31.923630506433565,0.0008094310760498,0.0930307656526565,0,0,0
2932,103806.95779359849,2010-10-30 14:47:52,60.03034847928684,1,10,0.0,3.384396553039551,8.761232579308007,8.77464790735873,35.057368725412466,31.923630506433565,0.0005504131549969,0.0930307656526565,0,0,0
2933,103836.97303449924,2010-10-30 14:48:22,90.04558938007034,1,10,0.0,3.4025278091430664,8.761232579308007,8.77464790735873,35.057368725412466,31.923630506433565,0.0004532813909463,0.0930307656526565,0,0,0
2934,103866.94133871436,2010-10-30 14:48:52,120.01389360521608,1,10,0.0,3.417259454727173,8.761232579308007,8.77464790735873,35.057368725412466,31.923630506433565,0.0003885269106831,0.0930307656526565,0,0,0
2935,103896.95908704768,2010-10-30 14:49:22,30.015198986319756,2,10,0.5499359965324402,3.576555013656616,8.765819143604054,8.77464790735873,35.07360018737081,31.923630506433565,0.0017159938579425,0.0930307656526565,0,0,0
2936,103926.9742532974,2010-10-30 14:49:52,60.0303652611123,2,10,0.5501165986061096,3.627548933029175,8.770405758403074,8.77464790735873,35.09012874759889,31.923630506433565,0.0011332035064697,0.0930307656526565,0,0,0
2937,103956.98943552696,2010-10-30 14:50:22,90.0455474605941,2,10,0.5499359965324402,3.664944648742676,8.774992355186995,8.77464790735873,35.106857173523714,31.923630506433565,0.0008418083307333,0.0930307656526565,0,0,0
2938,103987.00463875385,2010-10-30 14:50:52,120.06075069249516,2,10,0.5501165986061096,3.6942458152771,8.779578882038898,8.77464790735873,35.12373673043682,31.923630506433565,0.0006799221155233,0.0930307656526565,0,0,0
2939,104017.01995191976,2010-10-30 14:51:22,150.07606389347296,2,10,0.5501165986061096,3.718366861343384,8.784165413795403,8.77464790735873,35.1407378986276,31.923630506433565,0.0006151676061563,0.0930307656526565,0,0,0
2940,104047.03504259112,2010-10-30 14:51:52,180.0911546600759,2,10,0.5501165986061096,3.738278865814209,8.788751861205693,8.77464790735873,35.15783923630129,31.923630506433565,0.0004532813909463,0.0930307656526565,0,0,0
2941,104077.05019728704,2010-10-30 14:52:22,210.10630922568555,2,10,0.5499359965324402,3.754467248916626,8.793338365991238,8.77464790735873,35.175023788308934,31.923630506433565,0.0003884792386088,0.0930307656526565,0,0,0
2942,104107.06540926574,2010-10-30 14:52:52,240.1215212043863,2,10,0.5501165986061096,3.7657992839813232,8.797924873715765,8.77464790735873,35.19227174953671,31.923630506433565,0.0002266406954731,0.0930307656526565,0,0,0
2943,104137.08057321474,2010-10-30 14:53:22,270.13668515338225,2,10,0.5499359965324402,3.772436618804932,8.80251138168693,8.77464790735873,35.20955984528955,31.923630506433565,0.0001618862152099,0.0930307656526565,0,0,0
2944,104167.09588979917,2010-10-30 14:53:52,300.1520017478176,2,10,0.5501165986061096,3.7768075466156006,8.807097917226343,8.77464790735873,35.22687268850055,31.923630506433565,9.713172767078504e-05,0.0930307656526565,0,0,0
2945,104197.1109447916,2010-10-30 14:54:22,330.16705673023534,2,10,0.5499359965324402,3.78069281578064,8.811684475731765,8.77464790735873,35.24420442408605,31.923630506433565,9.713172767078504e-05,0.0930307656526565,0,0,0
2946,104227.1262693208,2010-10-30 14:54:52,360.1823812744841,2,10,0.5501165986061096,3.784578084945679,8.816271027157457,8.77464790735873,35.26155328390545,31.923630506433565,0.0001295089750783,0.0930307656526565,0,0,0
2947,104257.14244062544,2010-10-30 14:55:22,390.19855271947006,2,10,0.5501165986061096,3.787977695465088,8.820857625904281,8.77464790735873,35.27891901043591,31.923630506433565,9.713172767078504e-05,0.0930307656526565,0,0,0
2948,104287.1567776986,2010-10-30 14:55:52,420.2128896773498,2,10,0.550297200679779,3.791377305984497,8.825443952640443,8.77464790735873,35.296299980991265,31.923630506433565,6.47544875391759e-05,0.0930307656526565,0,0,0
2949,104317.17172834098,2010-10-30 14:56:22,450.2278402796199,2,10,0.5501165986061096,3.794776916503906,8.830030391214429,8.77464790735873,35.31369719608807,31.923630506433565,6.47544875391759e-05,0.0930307656526565,0,0,0
2950,104347.18709930591,2010-10-30 14:56:52,480.2432112495759,2,10,0.5497553944587708,3.7980146408081055,8.834616885758154,8.77464790735873,35.33111017963822,31.923630506433565,3.237724376958795e-05,0.0930307656526565,0,0,0
2951,104377.20211912067,2010-10-30 14:57:22,510.2582310593325,2,10,0.5499359965324402,3.801414251327514,8.8392030341887,8.77464790735873,35.34853705499337,31.923630506433565,6.47544875391759e-05,0.0930307656526565,0,0,0
2952,104407.21725485937,2010-10-30 14:57:52,540.2733667980198,2,10,0.5499359965324402,3.804490089416504,8.843788506542603,8.77464790735873,35.365976131946915,31.923630506433565,3.237724376958795e-05,0.0930307656526565,0,0,0
2953,104437.23245166024,2010-10-30 14:58:22,570.2885636440051,2,10,0.5501165986061096,3.808051586151123,8.848374018199996,8.77464790735873,35.38343007299822,31.923630506433565,9.713172767078504e-05,0.0930307656526565,0,0,0
2954,104467.24764803004,2010-10-30 14:58:52,600.3037599686911,2,10,0.5497553944587708,3.8109655380249023,8.852959519502996,8.77464790735873,35.40089852136131,31.923630506433565,6.47544875391759e-05,0.0930307656526565,0,0,0
2955,104497.26543991368,2010-10-30 14:59:22,630.3215518773712,2,10,0.550297200679779,3.814365148544312,8.857545804035468,8.77464790735873,35.41838447015434,31.923630506433565,6.47544875391759e-05,0.0930307656526565,0,0,0
2956,104527.2780791503,2010-10-30 14:59:52,660.3341911290447,2,10,0.5501165986061096,3.817279100418091,8.862131879392619,8.77464790735873,35.43588427930171,31.923630506433565,6.47544875391759e-05,0.0930307656526565,0,0,0
2957,104557.29320902436,2010-10-30 15:00:22,690.349320988078,2,10,0.5499359965324402,3.8206787109375,8.866718339817787,8.77464790735873,35.45339999362897,31.923630506433565,6.47544875391759e-05,0.0930307656526565,0,0,0
2958,104587.3084068879,2010-10-30 15:00:52,720.3645188315494,2,10,0.5501165986061096,3.823754549026489,8.871304826283438,8.77464790735873,35.47093039693708,31.923630506433565,9.713172767078504e-05,0.0930307656526565,0,0,0
2959,104617.32371290096,2010-10-30 15:01:22,750.3798248847127,2,10,0.5501165986061096,3.8271541595458975,8.875891355774558,8.77464790735873,35.48847586223351,31.923630506433565,9.713172767078504e-05,0.0930307656526565,0,0,0
2960,104647.33890849884,2010-10-30 15:01:52,780.3950204424874,2,10,0.5501165986061096,3.8303918838500977,8.88047786962636,8.77464790735873,35.5060364449217,31.923630506433565,9.713172767078504e-05,0.0930307656526565,0,0,0
2961,104677.3539636166,2010-10-30 15:02:22,810.4100755853048,2,10,0.5501165986061096,3.833791255950928,8.885064365471832,8.77464790735873,35.52361251138318,31.923630506433565,6.47544875391759e-05,0.0930307656526565,0,0,0
2962,104707.36937349851,2010-10-30 15:02:52,840.4254855374163,2,10,0.5499359965324402,3.837352752685547,8.889650922869658,8.77464790735873,35.54120463929252,31.923630506433565,3.237724376958795e-05,0.0930307656526565,0,0,0
2963,104737.38449797414,2010-10-30 15:03:22,870.4406099378451,2,10,0.550297200679779,3.840914249420166,8.894237394261852,8.77464790735873,35.558812358279205,31.923630506433565,9.713172767078504e-05,0.0930307656526565,0,0,0
2964,104767.39953115222,2010-10-30 15:03:52,900.4556430908572,2,10,0.5501165986061096,3.844313859939575,8.898823925963843,8.77464790735873,35.57643624399482,31.923630506433565,9.713172767078504e-05,0.0930307656526565,0,0,0
2965,104797.41471390308,2010-10-30 15:04:22,930.4708258667756,2,10,0.5501165986061096,3.847713470458984,8.903410454414939,8.77464790735873,35.594075868001525,31.923630506433565,9.713172767078504e-05,0.0930307656526565,0,0,0
2966,104827.42991799212,2010-10-30 15:04:52,960.4860299558128,2,10,0.5501165986061096,3.850951194763184,8.90799695931147,8.77464790735873,35.61173094833012,31.923630506433565,6.47544875391759e-05,0.0930307656526565,0,0,0
2967,104857.44510191088,2010-10-30 15:05:22,990.5012138495172,2,10,0.5499359965324402,3.8543508052825928,8.91258346522551,8.77464790735873,35.62940136259259,31.923630506433565,6.47544875391759e-05,0.0930307656526565,0,0,0
2968,104887.46028774942,2010-10-30 15:05:52,1020.5163997381936,2,10,0.5501165986061096,3.857750415802002,8.917169925380009,8.77464790735873,35.64708665098537,31.923630506433565,9.713172767078504e-05,0.0930307656526565,0,0,0
2969,104917.4754646457,2010-10-30 15:06:22,1050.5315765893456,2,10,0.5501165986061096,3.860826253890991,8.921756465680875,8.77464790735873,35.66478702732559,31.923630506433565,6.47544875391759e-05,0.0930307656526565,0,0,0
2970,104947.49080768102,2010-10-30 15:06:52,1080.5469196397175,2,10,0.5501165986061096,3.8637402057647705,8.926342984521966,8.77464790735873,35.68250167336493,31.923630506433565,6.47544875391759e-05,0.0930307656526565,0,0,0
2971,104977.5059718656,2010-10-30 15:07:22,1110.5620838142756,2,10,0.5501165986061096,3.86681604385376,8.93092950662105,8.77464790735873,35.700230243765915,31.923630506433565,6.47544875391759e-05,0.0930307656526565,0,0,0
2972,105007.52105668238,2010-10-30 15:07:52,1140.577168646087,2,10,0.5501165986061096,3.869729995727539,8.935516044296557,8.77464790735873,35.717972428011215,31.923630506433565,6.47544875391759e-05,0.0930307656526565,0,0,0
2973,105037.53641446448,2010-10-30 15:08:22,1170.5925265133872,2,10,0.5499359965324402,3.872482061386109,8.940102599391325,8.77464790735873,35.73572765903007,31.923630506433565,3.237724376958795e-05,0.0930307656526565,0,0,0
2974,105067.55143833936,2010-10-30 15:08:52,1200.6075503030631,2,10,0.550297200679779,3.8752341270446777,8.944689151546509,8.77464790735873,35.753495271659794,31.923630506433565,6.47544875391759e-05,0.0930307656526565,0,0,0
2975,105097.56661035848,2010-10-30 15:09:22,1230.6227222920973,2,10,0.5501165986061096,3.877662420272827,8.949275671595412,8.77464790735873,35.77127456833901,31.923630506433565,9.713172767078504e-05,0.0930307656526565,0,0,0
2976,105127.581785756,2010-10-30 15:09:53,1260.6378976896265,2,10,0.550297200679779,3.880090713500977,8.953862267865356,8.77464790735873,35.78906540615519,31.923630506433565,6.47544875391759e-05,0.0930307656526565,0,0,0
2977,105157.59699711316,2010-10-30 15:10:23,1290.6531090818655,2,10,0.550297200679779,3.882357120513916,8.958448806413887,8.77464790735873,35.80686654647168,31.923630506433565,9.713172767078504e-05,0.0930307656526565,0,0,0
2978,105187.61230870512,2010-10-30 15:10:53,1320.668420658796,2,10,0.5499359965324402,3.884299755096436,8.96303545002911,8.77464790735873,35.824678022920544,31.923630506433565,0.0,0.0930307656526565,0,0,0
2979,105217.6273580134,2010-10-30 15:11:23,1350.6834699770966,2,10,0.5501165986061096,3.886404275894165,8.967621983007925,8.77464790735873,35.84249821646321,31.923630506433565,9.713172767078504e-05,0.0930307656526565,0,0,0
2980,105247.64255553106,2010-10-30 15:11:53,1380.6986674797186,2,10,0.5501165986061096,3.8881850242614746,8.972208609009657,8.77464790735873,35.86032742508544,31.923630506433565,9.713172767078504e-05,0.0930307656526565,0,0,0
2981,105277.6577703318,2010-10-30 15:12:23,1410.7138823055152,2,10,0.550297200679779,3.889803886413574,8.97679520205077,8.77464790735873,35.87816457701785,31.923630506433565,3.237724376958795e-05,0.0930307656526565,0,0,0
2982,105307.67293370437,2010-10-30 15:12:53,1440.7290456680498,2,10,0.5501165986061096,3.891422748565674,8.98138183734533,8.77464790735873,35.89600942538036,31.923630506433565,3.237724376958795e-05,0.0930307656526565,0,0,0
2983,105337.68812365815,2010-10-30 15:13:23,1470.74423562687,2,10,0.550297200679779,3.893041610717773,8.985968406101179,8.77464790735873,35.91386117765214,31.923630506433565,3.237724376958795e-05,0.0930307656526565,0,0,0
2984,105367.70341695452,2010-10-30 15:13:53,1500.7595290134643,2,10,0.5501165986061096,3.894498586654663,8.99055505540253,8.77464790735873,35.931720089774366,31.923630506433565,3.237724376958795e-05,0.0930307656526565,0,0,0
2985,105397.71849954576,2010-10-30 15:14:23,1530.774611484392,2,10,0.5501165986061096,3.895631790161133,8.995141707064848,8.77464790735873,35.94958513335504,31.923630506433565,3.237724376958795e-05,0.0930307656526565,0,0,0
2986,105427.73384353846,2010-10-30 15:14:53,1560.7899554921496,2,10,0.5499359965324402,3.8970887660980233,8.999728280536754,8.77464790735873,35.96745629753519,31.923630506433565,3.237724376958795e-05,0.0930307656526565,0,0,0
2987,105457.7489989913,2010-10-30 15:15:23,1590.805110960008,2,10,0.5501165986061096,3.898545742034912,9.004314834120557,8.77464790735873,35.98533359993219,31.923630506433565,6.47544875391759e-05,0.0930307656526565,0,0,0
2988,105487.7641817622,2010-10-30 15:15:53,1620.8202937158765,2,10,0.5501165986061096,3.899840831756592,9.008901386642195,8.77464790735873,36.00321710485688,31.923630506433565,0.0,0.0930307656526565,0,0,0
2989,105517.77938097907,2010-10-30 15:16:23,1650.8354931232457,2,10,0.550297200679779,3.901135921478272,9.013487994537424,8.77464790735873,36.02110687092637,31.923630506433565,6.47544875391759e-05,0.0930307656526565,0,0,0
2990,105547.79445173082,2010-10-30 15:16:53,1680.850563669453,2,10,0.5501165986061096,3.902431011199951,9.0180745059672,8.77464790735873,36.03900236490263,31.923630506433565,6.47544875391759e-05,0.0930307656526565,0,0,0
2991,105577.80963474732,2010-10-30 15:17:23,1710.865746685971,2,10,0.5501165986061096,3.903564214706421,9.022661020096283,8.77464790735873,36.05690394103164,31.923630506433565,0.0,0.0930307656526565,0,0,0
2992,105607.82481627012,2010-10-30 15:17:53,1740.8809282187915,2,10,0.5501165986061096,3.905021190643311,9.027247591708646,8.77464790735873,36.074811948703015,31.923630506433565,0.0,0.0930307656526565,0,0,0
2993,105637.83999920145,2010-10-30 15:18:23,1770.8961111651347,2,10,0.5501165986061096,3.9063162803649902,9.03183417746588,8.77464790735873,36.09272592340174,31.923630506433565,0.0,0.0930307656526565,0,0,0
2994,105667.85523418747,2010-10-30 15:18:53,1800.9113461511768,2,10,0.5499359965324402,3.90761137008667,9.03642075592798,8.77464790735873,36.11064606152771,31.923630506433565,0.0,0.0930307656526565,0,0,0
2995,105697.87036955524,2010-10-30 15:19:23,1830.9264814888647,2,10,0.5501165986061096,3.90906834602356,9.041007900352136,8.77464790735873,36.12857461278632,31.923630506433565,3.237724376958795e-05,0.0930307656526565,0,0,0
2996,105727.88553168972,2010-10-30 15:19:53,1860.941643628351,2,10,0.550297200679779,3.9103634357452393,9.045595178901582,8.77464790735873,36.14650989541861,31.923630506433565,3.237724376958795e-05,0.0930307656526565,0,0,0
2997,105757.90085401844,2010-10-30 15:20:23,1890.95696596209,2,10,0.5501165986061096,3.911820411682129,9.050182358509156,8.77464790735873,36.16445090815937,31.923630506433565,3.237724376958795e-05,0.0930307656526565,0,0,0
2998,105787.91595000806,2010-10-30 15:20:53,1920.972061946698,2,10,0.5501165986061096,3.9131155014038086,9.054769635084472,8.77464790735873,36.18239862851158,31.923630506433565,0.0,0.0930307656526565,0,0,0
2999,105817.93123809143,2010-10-30 15:21:23,1950.9873500350875,2,10,0.550297200679779,3.914734125137329,9.05935698312392,8.77464790735873,36.2003529340414,31.923630506433565,9.713172767078504e-05,0.0930307656526565,0,0,0
3000,105847.946288718,2010-10-30 15:21:53,1981.0024006566368,2,10,0.550297200679779,3.915867328643799,9.063944328352443,8.77464790735873,36.21831354679896,31.923630506433565,0.0,0.0930307656526565,0,0,0
3001,105877.96148688727,2010-10-30 15:22:23,2011.0175988509825,2,10,0.5501165986061096,3.917324304580689,9.068531232676085,8.77464790735873,36.23627876861373,31.923630506433565,0.0,0.0930307656526565,0,0,0
3002,105907.97668847008,2010-10-30 15:22:53,2041.032800408711,2,10,0.5501165986061096,3.918619394302368,9.073117863407267,8.77464790735873,36.2542493339114,31.923630506433565,0.0,0.0930307656526565,0,0,0
3003,105937.99199333528,2010-10-30 15:23:23,2071.0481053039885,2,10,0.5501165986061096,3.920238256454468,9.077704602000011,8.77464790735873,36.27222688491461,31.923630506433565,6.47544875391759e-05,0.0930307656526565,0,0,0
3004,105968.00705078384,2010-10-30 15:23:53,2101.063162752552,2,10,0.5501165986061096,3.921695232391357,9.082291283702467,8.77464790735873,36.2902106658224,31.923630506433565,6.47544875391759e-05,0.0930307656526565,0,0,0
3005,105998.02228508818,2010-10-30 15:24:23,2131.078397056896,2,10,0.5501165986061096,3.922990322113037,9.086877956867063,8.77464790735873,36.308200969567,31.923630506433565,6.47544875391759e-05,0.0930307656526565,0,0,0
3006,106028.03743887183,2010-10-30 15:24:53,2161.093550815494,2,10,0.550297200679779,3.9246091842651367,9.091464681936484,8.77464790735873,36.32619807226228,31.923630506433565,6.47544875391759e-05,0.0930307656526565,0,0,0
3007,106058.05262255,2010-10-30 15:25:23,2191.108734513711,2,10,0.5501165986061096,3.925904273986816,9.096051411036298,8.77464790735873,36.34420188937632,31.923630506433565,3.237724376958795e-05,0.0930307656526565,0,0,0
3008,106088.06781053892,2010-10-30 15:25:53,2221.123922502622,2,10,0.5499359965324402,3.927199363708496,9.100638070198006,8.77464790735873,36.36221199853442,31.923630506433565,0.0,0.0930307656526565,0,0,0
3009,106118.08298847276,2010-10-30 15:26:23,2251.1391004214347,2,10,0.5501165986061096,3.928818225860596,9.105224716018514,8.77464790735873,36.38022888196234,31.923630506433565,6.47544875391759e-05,0.0930307656526565,0,0,0
3010,106148.09833305696,2010-10-30 15:26:53,2281.154445010642,2,10,0.5501165986061096,3.9304370880126953,9.109811437119786,8.77464790735873,36.39825283910938,31.923630506433565,9.713172767078504e-05,0.0930307656526565,0,0,0
3011,106178.1135285546,2010-10-30 15:27:23,2311.169640518292,2,10,0.5499359965324402,3.931732177734375,9.114398177313284,8.77464790735873,36.416283733552135,31.923630506433565,0.0,0.0930307656526565,0,0,0
3012,106208.12879881856,2010-10-30 15:27:53,2341.18491076722,2,10,0.5499359965324402,3.9331891536712646,9.118984955926988,8.77464790735873,36.43432170119165,31.923630506433565,0.0,0.0930307656526565,0,0,0
3013,106238.14388343484,2010-10-30 15:28:23,2371.199995388507,2,10,0.5501165986061096,3.934808015823364,9.12357172319886,8.77464790735873,36.45236651524693,31.923630506433565,3.237724376958795e-05,0.0930307656526565,0,0,0
3014,106268.15896451728,2010-10-30 15:28:53,2401.2150764609487,2,10,0.550297200679779,3.936264991760254,9.128158499650624,8.77464790735873,36.47041834314199,31.923630506433565,0.0,0.0930307656526565,0,0,0
3015,106298.17426368831,2010-10-30 15:29:23,2431.2303756419847,2,10,0.5499359965324402,3.9378838539123535,9.132745198849982,8.77464790735873,36.48847680311992,31.923630506433565,3.237724376958795e-05,0.0930307656526565,0,0,0
3016,106328.18930720715,2010-10-30 15:29:53,2461.245419140782,2,10,0.5501165986061096,3.939502716064453,9.13733184541592,8.77464790735873,36.506542216871566,31.923630506433565,6.47544875391759e-05,0.0930307656526565,0,0,0
3017,106358.20449700556,2010-10-30 15:30:23,2491.2606089442147,2,10,0.550297200679779,3.9411215782165527,9.14191852593754,8.77464790735873,36.52461489604976,31.923630506433565,6.47544875391759e-05,0.0930307656526565,0,0,0
3018,106388.21969514478,2010-10-30 15:30:53,2521.2758070834234,2,10,0.5501165986061096,3.942740440368652,9.1465052153148,8.77464790735873,36.54269475927671,31.923630506433565,0.0001295089750783,0.0930307656526565,0,0,0
3019,106418.237495294,2010-10-30 15:31:23,2551.293607267729,2,10,0.5501165986061096,3.944197416305542,9.151092255457437,8.77464790735873,36.560783259562605,31.923630506433565,3.237724376958795e-05,0.0930307656526565,0,0,0
3020,106448.25007570905,2010-10-30 15:31:53,2581.3061876476754,2,10,0.5499359965324402,3.945654392242432,9.15567859931217,8.77464790735873,36.57887635971009,31.923630506433565,3.237724376958795e-05,0.0930307656526565,0,0,0
3021,106478.26537769708,2010-10-30 15:32:23,2611.32148964072,2,10,0.5499359965324402,3.9472732543945312,9.16026532816488,8.77464790735873,36.59697824200318,31.923630506433565,3.237724376958795e-05,0.0930307656526565,0,0,0
3022,106508.28045211291,2010-10-30 15:32:53,2641.336564056572,2,10,0.550297200679779,3.949054002761841,9.164851998511445,8.77464790735873,36.61508730330994,31.923630506433565,3.237724376958795e-05,0.0930307656526565,0,0,0
3023,106538.29575872248,2010-10-30 15:33:23,2671.351870676147,2,10,0.550297200679779,3.950672864913941,9.169438737764972,8.77464790735873,36.63320407116692,31.923630506433565,3.237724376958795e-05,0.0930307656526565,0,0,0
3024,106568.31082040658,2010-10-30 15:33:53,2701.366932360267,2,10,0.5501165986061096,3.95229172706604,9.174025415418296,8.77464790735873,36.65132810231994,31.923630506433565,0.0,0.0930307656526565,0,0,0
3025,106598.32600678648,2010-10-30 15:34:23,2731.38211872513,2,10,0.5499359965324402,3.95391058921814,9.178612169218214,8.77464790735873,36.669460030482185,31.923630506433565,3.237724376958795e-05,0.0930307656526565,0,0,0
3026,106628.34122761224,2010-10-30 15:34:53,2761.397339575943,2,10,0.5501165986061096,3.955691337585449,9.18319888561949,8.77464790735873,36.68759945791142,31.923630506433565,3.237724376958795e-05,0.0930307656526565,0,0,0
3027,106658.35651101897,2010-10-30 15:35:23,2791.412622997702,2,10,0.5499359965324402,3.956986427307129,9.187785633315665,8.77464790735873,36.70574667143564,31.923630506433565,0.0,0.0930307656526565,0,0,0
3028,106688.37159182072,2010-10-30 15:35:53,2821.427703784432,2,10,0.5501165986061096,3.9590909481048575,9.192372284793253,8.77464790735873,36.72390118998624,31.923630506433565,6.47544875391759e-05,0.0930307656526565,0,0,0
3029,106718.38677237612,2010-10-30 15:36:23,2851.4428843498413,2,10,0.5499359965324402,3.960709810256958,9.196958990064129,8.77464790735873,36.74206381001963,31.923630506433565,3.237724376958795e-05,0.0930307656526565,0,0,0
3030,106748.40196971332,2010-10-30 15:36:53,2881.4580816569755,2,10,0.5501165986061096,3.962490558624268,9.201545699656226,8.77464790735873,36.7602343067556,31.923630506433565,6.47544875391759e-05,0.0930307656526565,0,0,0
3031,106778.41724976667,2010-10-30 15:37:23,2911.473361765477,2,10,0.550297200679779,3.964271306991577,9.2061324214021,8.77464790735873,36.77841279827742,31.923630506433565,6.47544875391759e-05,0.0930307656526565,0,0,0
3032,106808.43233460352,2010-10-30 15:37:53,2941.488446547164,2,10,0.5499359965324402,3.9658901691436768,9.2107191033694,8.77464790735873,36.79659914958648,31.923630506433565,3.237724376958795e-05,0.0930307656526565,0,0,0
3033,106838.44754038675,2010-10-30 15:38:23,2971.5036523254107,2,10,0.5501165986061096,3.967509031295776,9.215305801283275,8.77464790735873,36.814793619984506,31.923630506433565,3.237724376958795e-05,0.0930307656526565,0,0,0
3034,106868.46272463136,2010-10-30 15:38:53,3001.518836595053,2,10,0.550297200679779,3.969451665878296,9.219892404278406,8.77464790735873,36.832995753096085,31.923630506433565,6.47544875391759e-05,0.0930307656526565,0,0,0
3035,106898.47801721594,2010-10-30 15:39:23,3031.534129179648,2,10,0.5499359965324402,3.9712324142456055,9.224478256234722,8.77464790735873,36.85120299213622,31.923630506433565,6.47544875391759e-05,0.0930307656526565,0,0,0
3036,106928.49307921586,2010-10-30 15:39:53,3061.5491911745426,2,10,0.5499359965324402,3.973013162612915,9.229064028238858,8.77464790735873,36.86941818590197,31.923630506433565,6.47544875391759e-05,0.0930307656526565,0,0,0
3037,106958.50833322931,2010-10-30 15:40:23,3091.5644452180823,2,10,0.5501165986061096,3.9749557971954346,9.233650623299646,8.77464790735873,36.88764503299466,31.923630506433565,6.47544875391759e-05,0.0930307656526565,0,0,0
3038,106988.52346338407,2010-10-30 15:40:53,3121.57957534779,2,10,0.5501165986061096,3.976574659347534,9.238237255160271,8.77464790735873,36.90588040251857,31.923630506433565,3.237724376958795e-05,0.0930307656526565,0,0,0
3039,107018.53864328282,2010-10-30 15:41:23,3151.5947552565626,2,10,0.5501165986061096,3.978355407714844,9.242823929451836,8.77464790735873,36.924123989040375,31.923630506433565,6.47544875391759e-05,0.0930307656526565,0,0,0
3040,107048.55385875022,2010-10-30 15:41:54,3181.609970683858,2,10,0.5501165986061096,3.9802980422973633,9.247410459657695,8.77464790735873,36.94237601392823,31.923630506433565,0.0,0.0930307656526565,0,0,0
3041,107078.56903425803,2010-10-30 15:42:24,3211.6251462267496,2,10,0.5501165986061096,3.982240676879883,9.251997089893065,8.77464790735873,36.96063710908914,31.923630506433565,3.237724376958795e-05,0.0930307656526565,0,0,0
3042,107108.58422960028,2010-10-30 15:42:54,3241.6403415389123,2,10,0.5501165986061096,3.9841833114624015,9.2565837389347,8.77464790735873,36.97890693950101,31.923630506433565,3.237724376958795e-05,0.0930307656526565,0,0,0
3043,107138.59940489252,2010-10-30 15:43:24,3271.6555168361915,2,10,0.5501165986061096,3.986287832260132,9.261170408314772,8.77464790735873,36.99718567453619,31.923630506433565,6.47544875391759e-05,0.0930307656526565,0,0,0
3044,107168.61459666086,2010-10-30 15:43:54,3301.670708599509,2,10,0.5501165986061096,3.9880685806274414,9.265756999488229,8.77464790735873,37.01547298895517,31.923630506433565,0.0,0.0930307656526565,0,0,0
3045,107198.62991110997,2010-10-30 15:44:24,3331.686023058623,2,10,0.5501165986061096,3.990011215209961,9.270343654505064,8.77464790735873,37.0337694524733,31.923630506433565,3.237724376958795e-05,0.0930307656526565,0,0,0
3046,107228.64519035631,2010-10-30 15:44:54,3361.7013022949504,2,10,0.5501165986061096,3.9921157360076895,9.274930235804815,8.77464790735873,37.0520747616358,31.923630506433565,6.47544875391759e-05,0.0930307656526565,0,0,0
3047,107258.66020321372,2010-10-30 15:45:24,3391.71631515238,2,10,0.550297200679779,3.994058132171631,9.27951684670954,8.77464790735873,37.0703893733627,31.923630506433565,3.23295607813634e-05,0.0930307656526565,0,0,0
3048,107288.67541899192,2010-10-30 15:45:54,3421.7315309506,2,10,0.550297200679779,3.99616265296936,9.28410349585276,8.77464790735873,37.08871341667264,31.923630506433565,9.713172767078504e-05,0.0930307656526565,0,0,0
3049,107318.69054256528,2010-10-30 15:46:24,3451.7466544989047,2,10,0.5501165986061096,3.99826717376709,9.288690147653528,8.77464790735873,37.10704690162148,31.923630506433565,6.47544875391759e-05,0.0930307656526565,0,0,0
3050,107348.70573997768,2010-10-30 15:46:54,3481.7618519163148,2,10,0.550297200679779,4.000371932983398,9.293276784983366,8.77464790735873,37.12538967456163,31.923630506433565,9.71794142969884e-05,0.0930307656526565,0,0,0
3051,107378.7209228388,2010-10-30 15:47:24,3511.777034777446,2,10,0.5499359965324402,4.002314567565918,9.297863393147882,8.77464790735873,37.1437420245965,31.923630506433565,6.47544875391759e-05,0.0930307656526565,0,0,0
3052,107408.73610386034,2010-10-30 15:47:54,3541.792215824053,2,10,0.5501165986061096,4.004418849945068,9.302450010162588,8.77464790735873,37.16210411792128,31.923630506433565,6.47544875391759e-05,0.0930307656526565,0,0,0
3053,107438.75129181416,2010-10-30 15:48:24,3571.8074037528145,2,10,0.5499359965324402,4.006523609161377,9.30703662318937,8.77464790735873,37.18047603297513,31.923630506433565,3.24249267578125e-05,0.0930307656526565,0,0,0
3054,107468.7665035974,2010-10-30 15:48:54,3601.822615536028,2,10,0.5501165986061096,4.008790016174316,9.31162322560402,8.77464790735873,37.19885787305344,31.923630506433565,6.47544875391759e-05,0.0930307656526565,0,0,0
3055,107498.78167751122,2010-10-30 15:49:24,3631.83778944986,2,10,0.5501165986061096,4.010894298553467,9.316209902358484,8.77464790735873,37.217249969231695,31.923630506433565,6.47544875391759e-05,0.0930307656526565,0,0,0
3056,107528.79687184596,2010-10-30 15:49:54,3661.8529837795736,2,10,0.5501165986061096,4.013322830200195,9.320796535509484,8.77464790735873,37.23565204924114,31.923630506433565,6.47544875391759e-05,0.0930307656526565,0,0,0
3057,107558.81204954922,2010-10-30 15:50:24,3691.8681615179366,2,10,0.5501165986061096,4.015427112579346,9.325383184476872,8.77464790735873,37.254064487474366,31.923630506433565,9.70840483205393e-05,0.0930307656526565,0,0,0
3058,107588.82725361318,2010-10-30 15:50:54,3721.883365576899,2,10,0.550297200679779,4.017855644226074,9.329969873914068,8.77464790735873,37.27248749260976,31.923630506433565,6.47544875391759e-05,0.0930307656526565,0,0,0
3059,107618.84261793658,2010-10-30 15:51:24,3751.898729995527,2,10,0.550297200679779,4.020122051239014,9.33455659255131,8.77464790735873,37.29092100287803,31.923630506433565,9.71794142969884e-05,0.0930307656526565,0,0,0
3060,107648.85763527016,2010-10-30 15:51:54,3781.9137472439,2,10,0.5501165986061096,4.022388458251953,9.339143154376478,8.77464790735873,37.309364515010415,31.923630506433565,3.24249267578125e-05,0.0930307656526565,0,0,0
3061,107678.87283016129,2010-10-30 15:52:24,3811.9289421049375,2,10,0.5501165986061096,4.024492740631104,9.343729806683726,8.77464790735873,37.32781902850611,31.923630506433565,3.23295607813634e-05,0.0930307656526565,0,0,0
3062,107708.88812268071,2010-10-30 15:52:54,3841.9442346343967,2,10,0.5499359965324402,4.027082920074463,9.348316345267015,8.77464790735873,37.34628388970506,31.923630506433565,6.47544875391759e-05,0.0930307656526565,0,0,0
3063,107738.90320935711,2010-10-30 15:53:24,3871.959321295768,2,10,0.550297200679779,4.029511451721191,9.352902991349692,8.77464790735873,37.36476007183053,31.923630506433565,6.47544875391759e-05,0.0930307656526565,0,0,0
3064,107768.91839864929,2010-10-30 15:53:54,3901.974510612989,2,10,0.5501165986061096,4.031777858734131,9.3574896378647,8.77464790735873,37.38324709765202,31.923630506433565,6.47544875391759e-05,0.0930307656526565,0,0,0
3065,107798.93358810183,2010-10-30 15:54:24,3931.989700065548,2,10,0.550297200679779,4.034367561340332,9.362076277040352,8.77464790735873,37.401745184505664,31.923630506433565,9.70840483205393e-05,0.0930307656526565,0,0,0
3066,107828.948792642,2010-10-30 15:54:54,3962.0049046057097,2,10,0.550297200679779,4.0367960929870605,9.36666291348692,8.77464790735873,37.420254374577006,31.923630506433565,9.71794142969884e-05,0.0930307656526565,0,0,0
3067,107858.96409511124,2010-10-30 15:55:24,3992.020207049879,2,10,0.5501165986061096,4.0390625,9.371249598337888,8.77464790735873,37.43877501165562,31.923630506433565,6.47544875391759e-05,0.0930307656526565,0,0,0
3068,107888.97917916613,2010-10-30 15:55:54,4022.0352911047535,2,10,0.5501165986061096,4.04181432723999,9.375836262876652,8.77464790735873,37.45730671568767,31.923630506433565,0.0001295089750783,0.0930307656526565,0,0,0
3069,107918.99434203742,2010-10-30 15:56:24,4052.050453981076,2,10,0.550297200679779,4.04408073425293,9.38042292358096,8.77464790735873,37.47584974106538,31.923630506433565,9.70840483205393e-05,0.0930307656526565,0,0,0
3070,107949.00962039156,2010-10-30 15:56:54,4082.0657324655294,2,10,0.5501165986061096,4.046509265899658,9.385009646439826,8.77464790735873,37.49440454777324,31.923630506433565,3.24249267578125e-05,0.0930307656526565,0,0,0
3071,107979.02472085232,2010-10-30 15:57:24,4112.080832790956,2,10,0.5501165986061096,4.049099445343018,9.389596323192398,8.77464790735873,37.51297075453205,31.923630506433565,6.47544875391759e-05,0.0930307656526565,0,0,0
3072,108009.04013925548,2010-10-30 15:57:54,4142.0962512392425,2,10,0.5499359965324402,4.051527500152588,9.394183046984752,8.77464790735873,37.53154885697443,31.923630506433565,3.23295607813634e-05,0.0930307656526565,0,0,0
3073,108039.05510173236,2010-10-30 15:58:24,4172.111213670995,2,10,0.5499359965324402,4.054117679595947,9.398769642804792,8.77464790735873,37.550138226846734,31.923630506433565,3.23295607813634e-05,0.0930307656526565,0,0,0
3074,108069.07029839788,2010-10-30 15:58:54,4202.126410331518,2,10,0.5501165986061096,4.056869983673096,9.40335633104842,8.77464790735873,37.56873986364167,31.923630506433565,6.47544875391759e-05,0.0930307656526565,0,0,0
3075,108099.08550295308,2010-10-30 15:59:24,4232.1416149167935,2,10,0.550297200679779,4.059460163116455,9.407943049668566,8.77464790735873,37.58735365078326,31.923630506433565,9.71794142969884e-05,0.0930307656526565,0,0,0
3076,108129.1008812864,2010-10-30 15:59:54,4262.156993265138,2,10,0.550297200679779,4.062211990356445,9.412529770039528,8.77464790735873,37.60597918924021,31.923630506433565,9.70840483205393e-05,0.0930307656526565,0,0,0
3077,108159.1159798374,2010-10-30 16:00:24,4292.17209179108,2,10,0.5501165986061096,4.064640522003174,9.417116421846174,8.77464790735873,37.624616578716775,31.923630506433565,6.47544875391759e-05,0.0930307656526565,0,0,0
3078,108189.13124675302,2010-10-30 16:00:54,4322.18735868665,2,10,0.550297200679779,4.067392349243164,9.421703095555683,8.77464790735873,37.6432664317226,31.923630506433565,3.23295607813634e-05,0.0930307656526565,0,0,0
3079,108219.14640778476,2010-10-30 16:01:24,4352.20251974845,2,10,0.5501165986061096,4.0701446533203125,9.426289797663715,8.77464790735873,37.66192891761492,31.923630506433565,6.47544875391759e-05,0.0930307656526565,0,0,0
3080,108249.16144434124,2010-10-30 16:01:54,4382.217556279882,2,10,0.550297200679779,4.073058605194092,9.430876475842547,8.77464790735873,37.68060391098415,31.923630506433565,0.0001295089750783,0.0930307656526565,0,0,0
3081,108279.176689648,2010-10-30 16:02:24,4412.232801586647,2,10,0.5501165986061096,4.075810432434082,9.435463199117464,8.77464790735873,37.69929175292732,31.923630506433565,9.70840483205393e-05,0.0930307656526565,0,0,0
3082,108309.1918251862,2010-10-30 16:02:54,4442.247937124835,2,10,0.5501165986061096,4.078562736511231,9.440049841374774,8.77464790735873,37.71799197348631,31.923630506433565,9.71794142969884e-05,0.0930307656526565,0,0,0
3083,108339.20960019274,2010-10-30 16:03:24,4472.265712261714,2,10,0.5501165986061096,4.081314563751221,9.44463690017021,8.77464790735873,37.73670683130669,31.923630506433565,9.70840483205393e-05,0.0930307656526565,0,0,0
3084,108369.22218982074,2010-10-30 16:03:54,4502.278301784448,2,10,0.5501165986061096,4.084066867828369,9.449223203621935,8.77464790735873,37.75543153385034,31.923630506433565,6.47544875391759e-05,0.0930307656526565,0,0,0
3085,108399.23737596508,2010-10-30 16:04:24,4532.293487903698,2,10,0.550297200679779,4.087142467498779,9.453809929604256,8.77464790735873,37.77417118420379,31.923630506433565,9.70840483205393e-05,0.0930307656526565,0,0,0
3086,108429.25257764308,2010-10-30 16:04:54,4562.308689591751,2,10,0.5501165986061096,4.090056419372559,9.458396591792868,8.77464790735873,37.79292386336818,31.923630506433565,9.70840483205393e-05,0.0930307656526565,0,0,0
3087,108459.26775374236,2010-10-30 16:05:24,4592.323865686017,2,10,0.5501165986061096,4.092970371246338,9.462983203327772,8.77464790735873,37.81168974490591,31.923630506433565,9.70840483205393e-05,0.0930307656526565,0,0,0
3088,108489.28293942552,2010-10-30 16:05:54,4622.339051394244,2,10,0.5501165986061096,4.095884323120117,9.467569831877384,8.77464790735873,37.8304692746348,31.923630506433565,9.70840483205393e-05,0.0930307656526565,0,0,0
3089,108519.29815470244,2010-10-30 16:06:24,4652.354266636077,2,10,0.5501165986061096,4.0989603996276855,9.472156538010983,8.77464790735873,37.84926277343315,31.923630506433565,9.71794142969884e-05,0.0930307656526565,0,0,0
3090,108549.31333499718,2010-10-30 16:06:54,4682.369446960887,2,10,0.5499359965324402,4.101712226867676,9.476743224956184,8.77464790735873,37.86806991718029,31.923630506433565,3.23295607813634e-05,0.0930307656526565,0,0,0
3091,108579.32863315064,2010-10-30 16:07:24,4712.384745084287,2,10,0.550297200679779,4.104949951171875,9.481329922508277,8.77464790735873,37.88689088352605,31.923630506433565,6.47544875391759e-05,0.0930307656526565,0,0,0
3092,108609.34377584168,2010-10-30 16:07:54,4742.399887900614,2,10,0.5501165986061096,4.108026027679443,9.485916527875329,8.77464790735873,37.90572558146308,31.923630506433565,9.71794142969884e-05,0.0930307656526565,0,0,0
3093,108639.35891639737,2010-10-30 16:08:24,4772.415028371094,2,10,0.550297200679779,4.1111016273498535,9.49050317525446,8.77464790735873,37.92457454574911,31.923630506433565,9.70840483205393e-05,0.0930307656526565,0,0,0
3094,108669.37408781495,2010-10-30 16:08:54,4802.430199753617,2,10,0.5499359965324402,4.114177703857422,9.495089843359674,8.77464790735873,37.9434377591344,31.923630506433565,9.71794142969884e-05,0.0930307656526565,0,0,0
3095,108699.38928390908,2010-10-30 16:09:24,4832.44539587279,2,10,0.5501165986061096,4.117577075958252,9.49967641272806,8.77464790735873,37.962314868004725,31.923630506433565,0.0001295089750783,0.0930307656526565,0,0,0
3096,108729.40447844432,2010-10-30 16:09:54,4862.460590408017,2,10,0.5501165986061096,4.120491027832031,9.504263070054243,8.77464790735873,37.98120677478316,31.923630506433565,9.71794142969884e-05,0.0930307656526565,0,0,0
3097,108759.41964119032,2010-10-30 16:10:24,4892.475753128952,2,10,0.5501165986061096,4.123566627502441,9.508849794526643,8.77464790735873,38.0001135152156,31.923630506433565,9.70840483205393e-05,0.0930307656526565,0,0,0
3098,108789.43485283818,2010-10-30 16:10:54,4922.490964801891,2,10,0.5501165986061096,4.126804351806641,9.513436462534871,8.77464790735873,38.019034648712186,31.923630506433565,6.47544875391759e-05,0.0930307656526565,0,0,0
3099,108819.45015334252,2010-10-30 16:11:24,4952.506265286174,2,10,0.5501165986061096,4.13004207611084,9.518023149473326,8.77464790735873,38.037970749287545,31.923630506433565,3.23295607813634e-05,0.0930307656526565,0,0,0
3100,108849.46522197896,2010-10-30 16:11:54,4982.521333952698,2,10,0.5501165986061096,4.133279800415039,9.5226097967822,8.77464790735873,38.05692162724927,31.923630506433565,6.47544875391759e-05,0.0930307656526565,0,0,0
3101,108879.48040169226,2010-10-30 16:12:24,5012.536513625882,2,10,0.5501165986061096,4.136679649353027,9.5271964294013,8.77464790735873,38.07588740074763,31.923630506433565,9.71794142969884e-05,0.0930307656526565,0,0,0
3102,108909.49560484396,2010-10-30 16:12:54,5042.55171678761,2,10,0.5501165986061096,4.139917373657227,9.531783148333764,8.77464790735873,38.09486864079848,31.923630506433565,9.71794142969884e-05,0.0930307656526565,0,0,0
3103,108939.5108768322,2010-10-30 16:13:24,5072.566988770859,2,10,0.5499359965324402,4.143316745758057,9.536369869840236,8.77464790735873,38.11386522891205,31.923630506433565,0.0001295089750783,0.0930307656526565,0,0,0
3104,108969.5259721652,2010-10-30 16:13:55,5102.582084103843,2,10,0.5501165986061096,4.146878242492676,9.540956522556163,8.77464790735873,38.13287711001771,31.923630506433565,9.70840483205393e-05,0.0930307656526565,0,0,0
3105,108999.54116272552,2010-10-30 16:14:25,5132.597274664163,2,10,0.5501165986061096,4.150115966796875,9.545543104628903,8.77464790735873,38.15190429299236,31.923630506433565,9.70840483205393e-05,0.0930307656526565,0,0,0
3106,109029.55651756527,2010-10-30 16:14:55,5162.612629533992,2,10,0.5501165986061096,4.153515815734863,9.550129812137603,8.77464790735873,38.17094757440785,31.923630506433565,6.47544875391759e-05,0.0930307656526565,0,0,0
3107,109059.57154773084,2010-10-30 16:15:25,5192.627659669484,2,10,0.5501165986061096,4.157077312469482,9.554716432412668,8.77464790735873,38.19000619858372,31.923630506433565,0.0001295089750783,0.0930307656526565,0,0,0
3108,109089.58685548324,2010-10-30 16:15:55,5222.642967456969,2,10,0.5501165986061096,4.1604766845703125,9.5593030359237,8.77464790735873,38.20908066807975,31.923630506433565,9.70840483205393e-05,0.0930307656526565,0,0,0
3109,109119.6019268114,2010-10-30 16:16:25,5252.658038775101,2,10,0.5499359965324402,4.164038181304932,9.563889709563483,8.77464790735873,38.22817136484758,31.923630506433565,0.0001295089750783,0.0930307656526565,0,0,0
3110,109149.61734453788,2010-10-30 16:16:55,5282.673456566751,2,10,0.5501165986061096,4.167275905609131,9.568476411555444,8.77464790735873,38.24727807490872,31.923630506433565,6.47544875391759e-05,0.0930307656526565,0,0,0
3111,109179.63231071396,2010-10-30 16:17:25,5312.688422657624,2,10,0.5501165986061096,4.170999526977539,9.573063050095122,8.77464790735873,38.26640066259287,31.923630506433565,9.71794142969884e-05,0.0930307656526565,0,0,0
3112,109209.64750009635,2010-10-30 16:17:55,5342.703612060057,2,10,0.5501165986061096,4.174398899078369,9.57764967128462,8.77464790735873,38.28553941618965,31.923630506433565,6.47544875391759e-05,0.0930307656526565,0,0,0
3113,109239.66270058644,2010-10-30 16:18:25,5372.718812525063,2,10,0.5501165986061096,4.178122520446777,9.582236331715247,8.77464790735873,38.30469464689632,31.923630506433565,6.47544875391759e-05,0.0930307656526565,0,0,0
3114,109269.67797355712,2010-10-30 16:18:55,5402.734085520837,2,10,0.550297200679779,4.181845664978027,9.586823039677212,8.77464790735873,38.3238666140465,31.923630506433565,0.0001295089750783,0.0930307656526565,0,0,0
3115,109299.69309843876,2010-10-30 16:19:25,5432.749210382415,2,10,0.5501165986061096,4.185245513916016,9.591409730574014,8.77464790735873,38.34305493611175,31.923630506433565,9.71794142969884e-05,0.0930307656526565,0,0,0
3116,109329.7082493653,2010-10-30 16:19:55,5462.764361329004,2,10,0.5501165986061096,4.188807010650635,9.595996337526566,8.77464790735873,38.36225961896678,31.923630506433565,9.71794142969884e-05,0.0930307656526565,0,0,0
3117,109359.72345204584,2010-10-30 16:20:25,5492.779563984469,2,10,0.5501165986061096,4.192692279815674,9.600582966846256,8.77464790735873,38.381481198804906,31.923630506433565,9.71794142969884e-05,0.0930307656526565,0,0,0
3118,109389.73863617012,2010-10-30 16:20:55,5522.7947481087485,2,10,0.5501165986061096,4.196577072143555,9.6051696287108,8.77464790735873,38.40071973534922,31.923630506433565,0.0001618385285837,0.0930307656526565,0,0,0
3119,109418.78519336804,2010-10-30 16:21:24,5551.84130533175,2,10,0.5501165986061096,4.200138568878174,9.609608243323947,8.77464790735873,38.41935338985241,31.923630506433565,0.0001295089750783,0.0930307656526565,0,0,0
3120,109448.79757947348,2010-10-30 16:21:54,30.01521429447238,3,10,0.0,4.114986896514893,9.609608243323947,8.77464790735873,38.41935338985241,31.923630506433565,-0.0003885269106831,0.0930307656526565,0,0,0
3121,109478.81281391316,2010-10-30 16:22:24,60.03044865896542,3,10,0.0,4.104626178741455,9.609608243323947,8.77464790735873,38.41935338985241,31.923630506433565,-0.0001942634553415,0.0930307656526565,0,0,0
3122,109508.82788389796,2010-10-30 16:22:54,90.04551860868627,3,10,0.0,4.098312854766846,9.609608243323947,8.77464790735873,38.41935338985241,31.923630506433565,-0.0001618385285837,0.0930307656526565,0,0,0
3123,109538.79618324092,2010-10-30 16:23:24,120.01381794665166,3,10,0.0,4.094265460968018,9.609608243323947,8.77464790735873,38.41935338985241,31.923630506433565,-0.0001295089750783,0.0930307656526565,0,0,0
3124,109538.8110182084,2010-10-30 16:23:24,0.015816289058885,4,10,0.9852043390274048,4.199814796447754,9.609612590384014,8.77464790735873,38.419371646347166,31.923630506433565,3.23295607813634e-05,0.0930307656526565,0,0,0
3125,109539.87329244264,2010-10-30 16:23:25,1.07809043809186,4,10,0.9344531297683716,4.199814796447754,9.609894276299078,8.77464790735873,38.42055463345621,31.923630506433565,3.23295607813634e-05,0.0930307656526565,0,0,0
3126,109542.07638716255,2010-10-30 16:23:27,3.281185163021685,4,10,0.8844243884086609,4.199653148651123,9.61044969786576,8.77464790735873,38.422887209871085,31.923630506433565,0.0,0.0930307656526565,0,0,0
3127,109545.4366049141,2010-10-30 16:23:31,6.641403029859033,4,10,0.8340343832969666,4.199653148651123,9.611250494882102,8.77464790735873,38.42625029700327,31.923630506433565,0.0,0.0930307656526565,0,0,0
3128,109549.98250268008,2010-10-30 16:23:35,11.187300675529782,4,10,0.7838250398635864,4.199653148651123,9.612270810826155,8.77464790735873,38.430535320390575,31.923630506433565,0.0,0.0930307656526565,0,0,0
3129,109555.99805546856,2010-10-30 16:23:41,17.202853489080475,4,10,0.7336156368255615,4.199814796447754,9.613537068754615,8.77464790735873,38.43585322229615,31.923630506433565,0.0,0.0930307656526565,0,0,0
3130,109563.77941824889,2010-10-30 16:23:49,24.984216464881705,4,10,0.6835868954658508,4.199653148651123,9.615066515723871,8.77464790735873,38.44227643755462,31.923630506433565,0.0,0.0930307656526565,0,0,0
3131,109574.31058310204,2010-10-30 16:24:00,35.515381132592,4,10,0.6335580945014954,4.199653148651123,9.616989319557032,8.77464790735873,38.45035164044023,31.923630506433565,0.0,0.0930307656526565,0,0,0
3132,109589.02882154594,2010-10-30 16:24:14,50.23361956645794,4,10,0.5835293531417847,4.199653148651123,9.619471283461062,8.77464790735873,38.46077516239071,31.923630506433565,0.0,0.0930307656526565,0,0,0
3133,109612.09097611115,2010-10-30 16:24:37,73.29577410661956,4,10,0.5335005521774292,4.199814796447754,9.62303734322948,8.77464790735873,38.47575157280029,31.923630506433565,3.23295607813634e-05,0.0930307656526565,0,0,0
3134,109652.29352666216,2010-10-30 16:25:18,113.4983246576082,4,10,0.4834717810153961,4.199653148651123,9.628688427193746,8.77464790735873,38.49948442853461,31.923630506433565,0.0,0.0930307656526565,0,0,0
3135,109724.29249244844,2010-10-30 16:26:30,185.49729043886305,4,10,0.433443009853363,4.199814796447754,9.637817746391768,8.77464790735873,38.5378248223957,31.923630506433565,3.23295607813634e-05,0.0930307656526565,0,0,0
3136,109828.6036029014,2010-10-30 16:28:14,289.80840090186314,4,10,0.3834142386913299,4.199491024017334,9.649627080261029,8.77464790735873,38.587420549881735,31.923630506433565,-3.24249267578125e-05,0.0930307656526565,0,0,0
3137,109956.83611334358,2010-10-30 16:30:22,418.040911384142,4,10,0.3333854675292969,4.199653148651123,9.662375314208289,8.77464790735873,38.64095940568541,31.923630506433565,0.0,0.0930307656526565,0,0,0
3138,110108.95881250688,2010-10-30 16:32:54,570.1636105023289,4,10,0.2831760942935943,4.199814796447754,9.675387314736644,8.77464790735873,38.695606026752365,31.923630506433565,0.0,0.0930307656526565,0,0,0
3139,110291.0343984854,2010-10-30 16:35:56,752.2391964908694,4,10,0.2331473380327224,4.199814796447754,9.688424056853911,8.77464790735873,38.750356569472665,31.923630506433565,3.23295607813634e-05,0.0930307656526565,0,0,0
3140,110517.62483594066,2010-10-30 16:39:43,978.8296340463924,4,10,0.1831185668706894,4.199653148651123,9.701487576109027,8.77464790735873,38.805219572014856,31.923630506433565,0.0,0.0930307656526565,0,0,0
3141,110827.16715342963,2010-10-30 16:44:52,1288.3719514752152,4,10,0.1330897957086563,4.199491024017334,9.714993483612073,8.77464790735873,38.861940441530685,31.923630506433565,-3.24249267578125e-05,0.0930307656526565,0,0,0
3142,111319.300780489,2010-10-30 16:53:05,1780.505578499491,4,10,0.0830610245466232,4.199653148651123,9.729489812554675,8.77464790735873,38.922820850158026,31.923630506433565,0.0,0.0930307656526565,0,0,0
3143,111914.5576402545,2010-10-30 17:03:00,2375.762438280021,4,10,0.0496483072638511,4.199653148651123,9.7402649253552,8.77464790735873,38.96807324284626,31.923630506433565,0.0,0.0930307656526565,0,0,0
3144,111944.57505287466,2010-10-30 17:03:30,30.01523087078565,5,10,0.0,4.191720962524414,9.7402649253552,8.77464790735873,38.96807324284626,31.923630506433565,-3.23295607813634e-05,0.0930307656526565,0,0,0
3145,111974.5746322872,2010-10-30 17:04:00,60.014810273296526,5,10,0.0,4.190263748168945,9.7402649253552,8.77464790735873,38.96807324284626,31.923630506433565,-6.47544875391759e-05,0.0930307656526565,0,0,0
3146,111974.76504718124,2010-10-30 17:04:00,0.187427121055554,6,10,-1.9243103452026844e-05,4.190587520599365,9.7402649253552,8.774647908360585,38.96807324284626,31.923630510631927,0.0,0.0955438911914825,0,0,0
3147,111979.59309752326,2010-10-30 17:04:05,5.015477498149234,6,10,0.0005225847125984,4.190587520599365,9.740265759917142,8.774647908527747,38.96807674025551,31.923630511332437,-3.24249267578125e-05,0.0955438911914825,0,0,0
3148,112009.61138080971,2010-10-30 17:04:35,30.015160304913785,7,10,-1.0997490882873535,4.014455795288086,9.740265759917142,8.783816555515745,38.96807674025551,31.96063444616853,-0.0009065627818927,0.0955438911914825,0,0,0
3149,112039.62657489382,2010-10-30 17:05:05,60.030354419090656,7,10,-1.0997490882873535,3.987582921981812,9.740265759917142,8.792985150417048,38.96807674025551,31.997309361904417,-0.0005827903514727,0.0955438911914825,0,0,0
3150,112069.64175925872,2010-10-30 17:05:35,90.04553878898176,7,10,-1.0997490882873535,3.968804121017456,9.740265759917142,8.802153648171187,38.96807674025551,32.03377976775392,-0.0004856586456298,0.0955438911914825,0,0,0
3151,112099.65704780322,2010-10-30 17:06:05,120.06082741872052,7,10,-1.0997490882873535,3.9543962478637695,9.740265759917142,8.811322155024536,38.96807674025551,32.07009987042726,-0.0003561496851034,0.0955438911914825,0,0,0
3152,112129.67226597737,2010-10-30 17:06:35,150.07604552769982,7,10,-1.099568486213684,3.942092895507813,9.740265759917142,8.82049069262058,38.96807674025551,32.10629799806086,-0.0002913951757363,0.0955438911914825,0,0,0
3153,112159.68733295969,2010-10-30 17:07:05,180.09111248997502,7,10,-1.0997490882873535,3.931084632873535,9.740265759917142,8.829659250021885,38.96807674025551,32.14239022382092,-0.0003237724304199,0.0955438911914825,0,0,0
3154,112189.70254106371,2010-10-30 17:07:35,210.10632059401897,7,10,-1.0997490882873535,3.920885801315308,9.740265759917142,8.838827874137332,38.96807674025551,32.178386562118256,-0.0002590179501567,0.0955438911914825,0,0,0
3155,112219.7177719646,2010-10-30 17:08:05,240.12155148485456,7,10,-1.099568486213684,3.911658525466919,9.740265759917142,8.847996389650474,38.96807674025551,32.21429314089644,-0.0002266406954731,0.0955438911914825,0,0,0
3156,112249.73290110684,2010-10-30 17:08:35,270.1366806271014,7,10,-1.0993878841400146,3.902592897415161,9.740265759917142,8.857164862243595,38.96807674025551,32.25011459229777,-0.0001942634553415,0.0955438911914825,0,0,0
3157,112279.7480889554,2010-10-30 17:09:05,300.1518684756624,7,10,-1.0997490882873535,3.8935272693634033,9.740265759917142,8.86633339705826,38.96807674025551,32.2858536163436,-0.0002590179501567,0.0955438911914825,0,0,0
3158,112309.76328284905,2010-10-30 17:09:35,330.1670623392147,7,10,-1.099568486213684,3.8849472999572754,9.740265759917142,8.875501950555737,38.96807674025551,32.32151293694602,-0.0002590179501567,0.0955438911914825,0,0,0
3159,112339.7784831436,2010-10-30 17:10:05,360.1822626337949,7,10,-1.099568486213684,3.876691102981568,9.740265759917142,8.884670578166913,38.96807674025551,32.357094462396816,-0.0002266406954731,0.0955438911914825,0,0,0
3160,112369.79379244988,2010-10-30 17:10:35,390.1975719551035,7,10,-1.099568486213684,3.868596792221069,9.740265759917142,8.89383923055446,38.96807674025551,32.392599908366854,-0.0001942634553415,0.0955438911914825,0,0,0
3161,112399.80889415374,2010-10-30 17:11:05,420.2126737792652,7,10,-1.0997490882873535,3.860178709030152,9.740265759917142,8.90300785073191,38.96807674025551,32.428030121513665,-0.0002266406954731,0.0955438911914825,0,0,0
3162,112429.82405245364,2010-10-30 17:11:35,450.2278319438447,7,10,-1.099568486213684,3.852570056915283,9.740265759917142,8.912176387843484,38.96807674025551,32.46338698775498,-0.0001618862152099,0.0955438911914825,0,0,0
3163,112459.8394129876,2010-10-30 17:12:05,480.2431925178908,7,10,-1.099568486213684,3.844637632369995,9.740265759917142,8.921344998715574,38.96807674025551,32.49867228284008,-0.0001942634553415,0.0955438911914825,0,0,0
3164,112489.854431449,2010-10-30 17:12:35,510.2582109492119,7,10,-1.099929690361023,3.836867094039917,9.740265759917142,8.930513543184677,38.96807674025551,32.5338866026188,-0.0001942634553415,0.0955438911914825,0,0,0
3165,112519.86961831512,2010-10-30 17:13:06,540.2733978403868,7,10,-1.099568486213684,3.829582452774048,9.740265759917142,8.939682108076296,38.96807674025551,32.56903196906603,-0.0001942634553415,0.0955438911914825,0,0,0
3166,112549.88480430403,2010-10-30 17:13:36,570.2885838042506,7,10,-1.099568486213684,3.8222975730896,9.740265759917142,8.948850712749266,38.96807674025551,32.60410936910597,-0.0001295089750783,0.0955438911914825,0,0,0
3167,112579.90003883895,2010-10-30 17:14:06,600.3038183491934,7,10,-1.099568486213684,3.814850807189941,9.740265759917142,8.95801930905346,38.96807674025551,32.63911938970805,-0.0001618862152099,0.0955438911914825,0,0,0
3168,112609.9152215046,2010-10-30 17:14:36,630.3190010348869,7,10,-1.099568486213684,3.807565927505493,9.740265759917142,8.9671878239993,38.96807674025551,32.674062092319446,-0.0001618862152099,0.0955438911914825,0,0,0
3169,112639.93038270676,2010-10-30 17:15:06,660.334162227012,7,10,-1.099568486213684,3.800604820251465,9.740265759917142,8.976356332155808,38.96807674025551,32.708939551694264,-0.0001618862152099,0.0955438911914825,0,0,0
3170,112669.94557057034,2010-10-30 17:15:36,690.3493500655479,7,10,-1.099568486213684,3.793643712997437,9.740265759917142,8.98552495138484,38.96807674025551,32.743753914985945,-0.0002266406954731,0.0955438911914825,0,0,0
3171,112699.96110842624,2010-10-30 17:16:06,720.3648880166724,7,10,-1.099568486213684,3.787168264389038,9.740265759917142,8.994693677905989,38.96807674025551,32.778506155926344,-0.0001618862152099,0.0955438911914825,0,0,0
3172,112729.97596122976,2010-10-30 17:16:36,750.3797407249607,7,10,-1.0997490882873535,3.78036904335022,9.740265759917142,9.003862129553148,38.96807674025551,32.813196469665776,-0.0001618862152099,0.0955438911914825,0,0,0
3173,112759.99113998566,2010-10-30 17:17:06,780.3949195159475,7,10,-1.0997490882873535,3.773893594741821,9.740265759917142,9.013030660999224,38.96807674025551,32.847827824350695,-0.0001618862152099,0.0955438911914825,0,0,0
3174,112790.0063456436,2010-10-30 17:17:36,810.4101251337948,7,10,-1.099568486213684,3.7677419185638423,9.740265759917142,9.022199227373664,38.96807674025551,32.88240032426925,-0.0001618862152099,0.0955438911914825,0,0,0
3175,112820.0215895218,2010-10-30 17:18:06,840.4253690571115,7,10,-1.099568486213684,3.7614283561706543,9.740265759917142,9.031367850459592,38.96807674025551,32.91691559234157,-0.0001618862152099,0.0955438911914825,0,0,0
3176,112850.0367124987,2010-10-30 17:18:36,870.44049198888,7,10,-1.0997490882873535,3.755276679992676,9.740265759917142,9.04053653840108,38.96807674025551,32.95137505612837,-0.0001618862152099,0.0955438911914825,0,0,0
3177,112880.05190031718,2010-10-30 17:19:06,900.4556798123785,7,10,-1.099568486213684,3.749610900878906,9.740265759917142,9.049705235823287,38.96807674025551,32.98577969960343,-9.713172767078504e-05,0.0955438911914825,0,0,0
3178,112910.06709361932,2010-10-30 17:19:36,930.470873119544,7,10,-1.099568486213684,3.7436211109161377,9.740265759917142,9.05887390745024,38.96807674025551,33.02013019957424,-0.0001295089750783,0.0955438911914825,0,0,0
3179,112940.08244525109,2010-10-30 17:20:06,960.4862247813784,7,10,-1.099568486213684,3.737955093383789,9.740265759917142,9.068042682830832,38.96807674025551,33.05442816727306,-0.0001295089750783,0.0955438911914825,0,0,0
3180,112970.0974846246,2010-10-30 17:20:36,990.5012641198064,7,10,-1.0997490882873535,3.73228907585144,9.740265759917142,9.077211320895932,38.96807674025551,33.08867350775544,-0.0001618862152099,0.0955438911914825,0,0,0
3181,113000.1126630998,2010-10-30 17:21:06,1020.516442595006,7,10,-1.0997490882873535,3.726946830749512,9.740265759917142,9.08637995429822,38.96807674025551,33.122868056574355,-0.0001295089750783,0.0955438911914825,0,0,0
3182,113030.1278721562,2010-10-30 17:21:36,1050.5316516514235,7,10,-1.099568486213684,3.721442699432373,9.740265759917142,9.095548619940928,38.96807674025551,33.15701298502686,-9.713172767078504e-05,0.0955438911914825,0,0,0
3183,113060.14313437013,2010-10-30 17:22:06,1080.5469139956506,7,10,-1.099568486213684,3.716100454330444,9.740265759917142,9.104717315526406,38.96807674025551,33.19110848298698,-0.0001618862152099,0.0955438911914825,0,0,0
3184,113090.15823351762,2010-10-30 17:22:36,1110.5620130128166,7,10,-1.0997490882873535,3.710758209228516,9.740265759917142,9.113885985433528,38.96807674025551,33.225154898559786,-0.0001295089750783,0.0955438911914825,0,0,0
3185,113120.17342561675,2010-10-30 17:23:06,1140.5772051119714,7,10,-1.099929690361023,3.705254077911377,9.740265759917142,9.123054682794994,38.96807674025551,33.25915353073296,-0.0001618862152099,0.0955438911914825,0,0,0
3186,113150.18862090388,2010-10-30 17:23:36,1170.5924003990715,7,10,-1.0997490882873535,3.700397491455078,9.740265759917142,9.132223376258109,38.96807674025551,33.29310459111519,-0.0001295089750783,0.0955438911914825,0,0,0
3187,113180.20390994965,2010-10-30 17:24:06,1200.6076894799346,7,10,-1.0997490882873535,3.69521713256836,9.740265759917142,9.141392028495725,38.96807674025551,33.32700853615884,-0.0001618862152099,0.0955438911914825,0,0,0
3188,113210.21900416983,2010-10-30 17:24:36,1230.6227836600451,7,10,-1.099929690361023,3.6900367736816406,9.740265759917142,9.150560746118936,38.96807674025551,33.36086663616347,-0.0001618862152099,0.0955438911914825,0,0,0
3189,113240.23420411858,2010-10-30 17:25:06,1260.6379836137758,7,10,-1.0997490882873535,3.685342073440552,9.740265759917142,9.159729406943406,38.96807674025551,33.39467872618874,-0.0001295089750783,0.0955438911914825,0,0,0
3190,113270.24937897475,2010-10-30 17:25:36,1290.653158469956,7,10,-1.0997490882873535,3.680323600769043,9.740265759917142,9.168898111734622,38.96807674025551,33.428445756407164,-0.0001618862152099,0.0955438911914825,0,0,0
3191,113300.26459012138,2010-10-30 17:26:06,1320.6683696215953,7,10,-1.0993878841400146,3.675790786743164,9.740265759917142,9.178066798841632,38.96807674025551,33.46216791345174,-9.713172767078504e-05,0.0955438911914825,0,0,0
3192,113330.27988667588,2010-10-30 17:26:36,1350.6836661760851,7,10,-1.0997490882873535,3.670934438705444,9.740265759917142,9.187235524247804,38.96807674025551,33.49584656603167,-0.0001295089750783,0.0955438911914825,0,0,0
3193,113360.2949581494,2010-10-30 17:27:06,1380.6987376445911,7,10,-1.099568486213684,3.666401624679565,9.740265759917142,9.19640415542174,38.96807674025551,33.52948191729179,-6.47544875391759e-05,0.0955438911914825,0,0,0
3194,113390.3101434516,2010-10-30 17:27:36,1410.7139229818931,7,10,-1.099929690361023,3.6615450382232666,9.740265759917142,9.205572842445813,38.96807674025551,33.5630753289481,-0.0001618862152099,0.0955438911914825,0,0,0
3195,113420.32536464828,2010-10-30 17:28:06,1440.7291441835805,7,10,-1.0997490882873535,3.6568503379821777,9.740265759917142,9.214741531586172,38.96807674025551,33.59662682393567,-0.0001618862152099,0.0955438911914825,0,0,0
3196,113450.34056167472,2010-10-30 17:28:36,1470.7443412150285,7,10,-1.0997490882873535,3.652641296386719,9.740265759917142,9.223910282881874,38.96807674025551,33.63013712359501,-9.713172767078504e-05,0.0955438911914825,0,0,0
3197,113480.35575930768,2010-10-30 17:29:06,1500.759538832937,7,10,-1.0997490882873535,3.64827036857605,9.740265759917142,9.233079068630234,38.96807674025551,33.66360663976146,-9.713172767078504e-05,0.0955438911914825,0,0,0
3198,113510.3709136076,2010-10-30 17:29:36,1530.7746931078227,7,10,-1.0997490882873535,3.643899440765381,9.740265759917142,9.242247730664348,38.96807674025551,33.697035529518146,-9.713172767078504e-05,0.0955438911914825,0,0,0
3199,113540.38611344104,2010-10-30 17:30:06,1560.7898929613034,7,10,-1.0997490882873535,3.639690399169922,9.740265759917142,9.25141643503526,38.96807674025551,33.73042546591984,-9.713172767078504e-05,0.0955438911914825,0,0,0
3200,113570.40148056642,2010-10-30 17:30:36,1590.8052600766523,7,10,-1.0997490882873535,3.635319471359253,9.740265759917142,9.260585132735642,38.96807674025551,33.76377638567999,-9.713172767078504e-05,0.0955438911914825,0,0,0
3201,113600.4167380736,2010-10-30 17:31:06,1620.8205175838243,7,10,-1.099568486213684,3.631272315979004,9.740265759917142,9.26975380616523,38.96807674025551,33.79708933330766,-0.0001295089750783,0.0955438911914825,0,0,0
3202,113630.43165572874,2010-10-30 17:31:36,1650.8354352289552,7,10,-1.0997490882873535,3.627225160598755,9.740265759917142,9.278922127838962,38.96807674025551,33.830363989859435,-0.0001618862152099,0.0955438911914825,0,0,0
3203,113660.4468749505,2010-10-30 17:32:06,1680.8506544557204,7,10,-1.0993878841400146,3.623663663864136,9.740265759917142,9.288090497713776,38.96807674025551,33.863602618917234,-6.47544875391759e-05,0.0955438911914825,0,0,0
3204,113690.46199139109,2010-10-30 17:32:36,1710.8657708912983,7,10,-1.0997490882873535,3.619616508483887,9.740265759917142,9.297259574018328,38.96807674025551,33.89680858821372,-0.0001295089750783,0.0955438911914825,0,0,0
3205,113720.4771052302,2010-10-30 17:33:06,1740.880884725393,7,10,-1.0997490882873535,3.615731239318848,9.740265759917142,9.3064289917311,38.96807674025551,33.92998123686598,-9.713172767078504e-05,0.0955438911914825,0,0,0
3206,113750.49239746392,2010-10-30 17:33:36,1770.8961769541013,7,10,-1.0997490882873535,3.612169742584229,9.740265759917142,9.315598305483338,38.96807674025551,33.96311976707908,-0.0001295089750783,0.0955438911914825,0,0,0
3207,113780.50760516696,2010-10-30 17:34:06,1800.9113846671703,7,10,-1.0997490882873535,3.60860824584961,9.740265759917142,9.324767809332352,38.96807674025551,33.99622590896967,-9.713172767078504e-05,0.0955438911914825,0,0,0
3208,113810.52541473464,2010-10-30 17:34:36,1830.9291943401247,7,10,-1.0997490882873535,3.6052086353302,9.740265759917142,9.333938083265986,38.96807674025551,34.029302344108416,-6.47544875391759e-05,0.0955438911914825,0,0,0
3209,113840.53797508468,2010-10-30 17:35:06,1860.9417546650884,7,10,-1.0997490882873535,3.601809024810791,9.740265759917142,9.343106677976612,38.96807674025551,34.0623412324213,-6.47544875391759e-05,0.0955438911914825,0,0,0
3210,113870.55318259724,2010-10-30 17:35:36,1890.9569621024707,7,10,-1.099929690361023,3.598409414291382,9.740265759917142,9.352275752418732,38.96807674025551,34.09535123901655,-9.713172767078504e-05,0.0955438911914825,0,0,0
3211,113900.5683644258,2010-10-30 17:36:06,1920.9721439210032,7,10,-1.0997490882873535,3.5953335762023926,9.740265759917142,9.361444317646844,38.96807674025551,34.12832953518217,-6.47544875391759e-05,0.0955438911914825,0,0,0
3212,113930.583664875,2010-10-30 17:36:36,1950.987444385237,7,10,-1.099568486213684,3.5922577381134038,9.740265759917142,9.37061290238278,38.96807674025551,34.161278659247834,-3.237724376958795e-05,0.0955438911914825,0,0,0
3213,113960.59873404278,2010-10-30 17:37:06,1981.002513542984,7,10,-1.099568486213684,3.589020252227783,9.740265759917142,9.379781440673971,38.96807674025551,34.19419893468726,-6.47544875391759e-05,0.0955438911914825,0,0,0
3214,113990.61391595152,2010-10-30 17:37:36,2011.0176954467288,7,10,-1.0997490882873535,3.586106300354004,9.740265759917142,9.388950043545403,38.96807674025551,34.227091324186624,-6.47544875391759e-05,0.0955438911914825,0,0,0
3215,114020.6291293237,2010-10-30 17:38:06,2041.0329088590024,7,10,-1.099568486213684,3.5831923484802246,9.740265759917142,9.398118660307489,38.96807674025551,34.25995604299114,-9.713172767078504e-05,0.0955438911914825,0,0,0
3216,114050.6444260787,2010-10-30 17:38:36,2071.0482055989546,7,10,-1.099568486213684,3.5799546241760254,9.740265759917142,9.407287277739549,38.96807674025551,34.29279347718008,-9.713172767078504e-05,0.0955438911914825,0,0,0
3217,114080.65950767243,2010-10-30 17:39:06,2101.0632872027204,7,10,-1.099568486213684,3.577040672302246,9.740265759917142,9.416455832269042,38.96807674025551,34.325603359520734,-9.713172767078504e-05,0.0955438911914825,0,0,0
3218,114110.6747558263,2010-10-30 17:39:36,2131.078535346556,7,10,-1.099568486213684,3.573964834213257,9.740265759917142,9.42562446619498,38.96807674025551,34.35838605941149,-0.0001295089750783,0.0955438911914825,0,0,0
3219,114140.6900057997,2010-10-30 17:40:06,2161.093785299902,7,10,-1.0997490882873535,3.571050882339477,9.740265759917142,9.434793083359338,38.96807674025551,34.39114152079914,-9.713172767078504e-05,0.0955438911914825,0,0,0
3220,114170.70506103776,2010-10-30 17:40:36,2191.108840537956,7,10,-1.099568486213684,3.5681369304656982,9.740265759917142,9.44396159535475,38.96807674025551,34.423869511460246,-6.47544875391759e-05,0.0955438911914825,0,0,0
3221,114200.72024854044,2010-10-30 17:41:06,2221.1240280356424,7,10,-1.0997490882873535,3.565222978591919,9.740265759917142,9.453130171940726,38.96807674025551,34.456570526284125,-6.47544875391759e-05,0.0955438911914825,0,0,0
3222,114230.73561416708,2010-10-30 17:41:36,2251.1393938026317,7,10,-1.099568486213684,3.5621471405029297,9.740265759917142,9.462298798747568,38.96807674025551,34.48924429833133,-0.0001295089750783,0.0955438911914825,0,0,0
3223,114260.75063904948,2010-10-30 17:42:06,2281.154418579768,7,10,-1.099568486213684,3.5592331886291504,9.740265759917142,9.471467275503748,38.96807674025551,34.52189039042371,-6.47544875391759e-05,0.0955438911914825,0,0,0
3224,114290.76595975416,2010-10-30 17:42:36,2311.169739254373,7,10,-1.0997490882873535,3.555995464324951,9.740265759917142,9.480635907412491,38.96807674025551,34.554509191507925,-0.0001295089750783,0.0955438911914825,0,0,0
3225,114320.78101656112,2010-10-30 17:43:06,2341.1847960813875,7,10,-1.099568486213684,3.552919626235962,9.740265759917142,9.489804445938033,38.96807674025551,34.58709961862647,-0.0001295089750783,0.0955438911914825,0,0,0
3226,114350.79620246484,2010-10-30 17:43:36,2371.199981990114,7,10,-1.099568486213684,3.5500056743621826,9.740265759917142,9.498973035683994,38.96807674025551,34.619661942872646,-6.47544875391759e-05,0.0955438911914825,0,0,0
3227,114380.81138266434,2010-10-30 17:44:06,2401.215162194624,7,10,-1.0997490882873535,3.546606063842773,9.740265759917142,9.508141660118122,38.96807674025551,34.652195371847874,-0.0001295089750783,0.0955438911914825,0,0,0
3228,114410.82669475254,2010-10-30 17:44:36,2431.2304742928527,7,10,-1.0997490882873535,3.543530225753784,9.740265759917142,9.517310333415328,38.96807674025551,34.68469946007463,-9.713172767078504e-05,0.0955438911914825,0,0,0
3229,114440.84175654192,2010-10-30 17:45:07,2461.2455360621857,7,10,-1.099929690361023,3.540130615234375,9.740265759917142,9.526478891999243,38.96807674025551,34.71717305739748,-9.713172767078504e-05,0.0955438911914825,0,0,0
3230,114470.85693618504,2010-10-30 17:45:37,2491.2607156852464,7,10,-1.099568486213684,3.536731004714966,9.740265759917142,9.53564748635498,38.96807674025551,34.749616160181546,-9.713172767078504e-05,0.0955438911914825,0,0,0
3231,114500.87229741072,2010-10-30 17:46:07,2521.276076900891,7,10,-1.099929690361023,3.5331695079803467,9.740265759917142,9.54481617778039,38.96807674025551,34.78202783097649,-9.713172767078504e-05,0.0955438911914825,0,0,0
3232,114530.887327862,2010-10-30 17:46:37,2551.2911073571827,7,10,-1.099568486213684,3.5296080112457275,9.740265759917142,9.55398475983448,38.96807674025551,34.81440618011323,-9.713172767078504e-05,0.0955438911914825,0,0,0
3233,114560.90264100782,2010-10-30 17:47:07,2581.306420508035,7,10,-1.0997490882873535,3.5257227420806885,9.740265759917142,9.563153395857857,38.96807674025551,34.84675058097338,-0.0001295089750783,0.0955438911914825,0,0,0
3234,114590.91771851137,2010-10-30 17:47:37,2611.32149800657,7,10,-1.0997490882873535,3.5216755867004395,9.740265759917142,9.572321971145827,38.96807674025551,34.87905887802995,-0.0001295089750783,0.0955438911914825,0,0,0
3235,114620.93326207148,2010-10-30 17:48:07,2641.337041666924,7,10,-1.0997490882873535,3.5174665451049805,9.740265759917142,9.58149064645074,38.96807674025551,34.91133020096702,-0.0001295089750783,0.0955438911914825,0,0,0
3236,114650.9481192058,2010-10-30 17:48:37,2671.351898731068,7,10,-1.0997490882873535,3.513257503509521,9.740265759917142,9.590659178678711,38.96807674025551,34.943561538585826,-9.713172767078504e-05,0.0955438911914825,0,0,0
3237,114680.963358668,2010-10-30 17:49:07,2701.367138288504,7,10,-1.099568486213684,3.508563041687012,9.740265759917142,9.599827785581684,38.96807674025551,34.9757514321513,-9.713172767078504e-05,0.0955438911914825,0,0,0
3238,114710.97859450616,2010-10-30 17:49:37,2731.382374031432,7,10,-1.0997490882873535,3.503544569015503,9.740265759917142,9.608996413395069,38.96807674025551,35.007896772284106,-0.0001295089750783,0.0955438911914825,0,0,0
3239,114740.99368890682,2010-10-30 17:50:07,2761.397468432092,7,10,-1.0997490882873535,3.4978785514831543,9.740265759917142,9.618165033145862,38.96807674025551,35.0399938848497,-0.0001618862152099,0.0955438911914825,0,0,0
3240,114771.00894076492,2010-10-30 17:50:37,2791.41272028016,7,10,-1.0997490882873535,3.4918887615203857,9.740265759917142,9.627333651320196,38.96807674025551,35.07203823939119,-0.0001618862152099,0.0955438911914825,0,0,0
3241,114801.02406911516,2010-10-30 17:51:07,2821.4278486354456,7,10,-1.0997490882873535,3.4850895404815674,9.740265759917142,9.63650221434893,38.96807674025551,35.10402396601232,-0.0002266406954731,0.0955438911914825,0,0,0
3242,114831.03923009176,2010-10-30 17:51:37,2851.443009637096,7,10,-1.0997490882873535,3.4773190021514893,9.740265759917142,9.645670779386135,38.96807674025551,35.13594331478185,-0.0002590179501567,0.0955438911914825,0,0,0
3243,114861.05443013571,2010-10-30 17:52:07,2881.458209635939,7,10,-1.099568486213684,3.468577146530152,9.740265759917142,9.654839353924956,38.96807674025551,35.1677865504666,-0.0002590179501567,0.0955438911914825,0,0,0
3244,114891.06960972372,2010-10-30 17:52:37,2911.473389223912,7,10,-1.0997490882873535,3.458054542541504,9.740265759917142,9.664007962167236,38.96807674025551,35.19954186694344,-0.0003237724304199,0.0955438911914825,0,0,0
3245,114921.08482190792,2010-10-30 17:53:07,2941.4886014031126,7,10,-1.099568486213684,3.445751190185547,9.740265759917142,9.673176607231902,38.96807674025551,35.23119326393972,-0.0003885269106831,0.0955438911914825,0,0,0
3246,114951.09999040826,2010-10-30 17:53:37,2971.5037699034515,7,10,-1.099568486213684,3.4305341243743896,9.740265759917142,9.682344722265748,38.96807674025551,35.26271702862426,-0.0004856109735555,0.0955438911914825,0,0,0
3247,114981.11519047729,2010-10-30 17:54:07,3001.5189699724697,7,10,-1.099568486213684,3.411593437194824,9.740265759917142,9.691512723048143,38.96807674025551,35.29408471106954,-0.0005504131549969,0.0955438911914825,0,0,0
3248,115011.41139961236,2010-10-30 17:54:37,3031.8151792428826,7,10,-1.099568486213684,3.397347450256348,9.740265759917142,9.697120720022658,38.96807674025551,35.31317742248942,-0.0006799221155233,0.0955438911914825,0,0,0
