Data_Point,Test_Time(s),Date_Time,Step_Time(s),Step_Index,Cycle_Index,Current(A),Voltage(V),Charge_Capacity(Ah),Discharge_Capacity(Ah),Charge_Energy(Wh),Discharge_Energy(Wh),dV/dt(V/s),Internal_Resistance(Ohm),Is_FC_Data,AC_Impedance(Ohm),ACI_Phase_Angle(Deg)
2874,104183.17639319034,2011-01-04 15:34:32,30.012995509577717,1,12,0.0,3.5496819019317627,8.263095239934502,9.040090794283834,33.2163344825814,32.63352764231887,0.0007446765666827,0.1004020571708679,0,0,0
2875,104213.19158334464,2011-01-04 15:35:02,60.02818568393534,1,12,0.0,3.572831630706787,8.263095239934502,9.040090794283834,33.2163344825814,32.63352764231887,0.0004856586456298,0.1004020571708679,0,0,0
2876,104243.20663688346,2011-01-04 15:35:32,90.04323919268022,1,12,0.0,3.590153455734253,8.263095239934502,9.040090794283834,33.2163344825814,32.63352764231887,0.0004856586456298,0.1004020571708679,0,0,0
2877,104273.1748924674,2011-01-04 15:36:02,120.011494816697,1,12,0.0,3.603104114532471,8.263095239934502,9.040090794283834,33.2163344825814,32.63352764231887,0.0003237724304199,0.1004020571708679,0,0,0
2878,104303.19203967204,2011-01-04 15:36:32,30.01514444538696,2,12,0.5501165986061096,3.7353649139404297,8.267681455513314,9.040090794283834,33.23335738494289,32.63352764231887,0.0010036944877356,0.1004020571708679,0,0,0
2879,104333.20713822804,2011-01-04 15:37:02,60.03024298636602,2,12,0.5501165986061096,3.7643423080444336,8.272267694811658,9.040090794283834,33.25056059008109,32.63352764231887,0.0005827903514727,0.1004020571708679,0,0,0
2880,104363.2222667287,2011-01-04 15:37:32,90.04537150706375,2,12,0.550297200679779,3.782797336578369,8.276853901418807,9.040090794283834,33.267870290833145,32.63352764231887,0.0004209041653666,0.1004020571708679,0,0,0
2881,104393.23740177564,2011-01-04 15:38:02,120.06050654901446,2,12,0.5501165986061096,3.794291257858277,8.28144010304609,9.040090794283834,33.285247048326006,32.63352764231887,0.0002266406954731,0.1004020571708679,0,0,0
2882,104423.25251486288,2011-01-04 15:38:32,150.07561963624727,2,12,0.550297200679779,3.802547454833984,8.286026228454812,9.040090794283834,33.30266789521411,32.63352764231887,0.0001942634553415,0.1004020571708679,0,0,0
2883,104453.26763880716,2011-01-04 15:39:02,180.09074356048922,2,12,0.5499359965324402,3.8095085620880127,8.290612408367167,9.040090794283834,33.320123609777,32.63352764231887,0.0001942634553415,0.1004020571708679,0,0,0
2884,104483.2827742852,2011-01-04 15:39:32,210.1058790385268,2,12,0.5499359965324402,3.815984010696411,8.295198610174074,9.040090794283834,33.337610173121405,32.63352764231887,0.0001618862152099,0.1004020571708679,0,0,0
2885,104513.29791037478,2011-01-04 15:40:02,240.1210151531509,2,12,0.5499359965324402,3.82197380065918,8.29978478446629,9.040090794283834,33.35512513608403,32.63352764231887,0.0001295089750783,0.1004020571708679,0,0,0
2886,104543.31301015885,2011-01-04 15:40:32,270.1361149121657,2,12,0.5499359965324402,3.827639818191528,8.304370886173695,9.040090794283834,33.372666280654755,32.63352764231887,0.0001295089750783,0.1004020571708679,0,0,0
2887,104573.3281347247,2011-01-04 15:41:02,300.1512395181067,2,12,0.5501165986061096,3.832982063293457,8.308957027744388,9.040090794283834,33.39023282441596,32.63352764231887,0.0001295089750783,0.1004020571708679,0,0,0
2888,104603.34530808176,2011-01-04 15:41:32,330.1684129553657,2,12,0.5501165986061096,3.8381621837615967,8.313543406277244,9.040090794283834,33.40782432079683,32.63352764231887,0.0001295089750783,0.1004020571708679,0,0,0
2889,104633.35854125868,2011-01-04 15:42:02,360.1816460220087,2,12,0.5499359965324402,3.843018770217896,8.318129241391235,9.040090794283834,33.425436912924745,32.63352764231887,9.713172767078504e-05,0.1004020571708679,0,0,0
2890,104663.3735124272,2011-01-04 15:42:32,390.19661720557394,2,12,0.5499359965324402,3.847713470458984,8.3227152821636,9.040090794283834,33.44307262776327,32.63352764231887,3.237724376958795e-05,0.1004020571708679,0,0,0
2891,104693.38866019588,2011-01-04 15:43:02,420.211764949181,2,12,0.5501165986061096,3.852731943130493,8.327301410638713,9.040090794283834,33.460730612961804,32.63352764231887,0.0001618862152099,0.1004020571708679,0,0,0
2892,104723.40379582928,2011-01-04 15:43:32,450.2269006076683,2,12,0.5501165986061096,3.857264757156372,8.331887544122566,9.040090794283834,33.47841003079152,32.63352764231887,0.0001295089750783,0.1004020571708679,0,0,0
2893,104753.4191713506,2011-01-04 15:44:02,480.2422761239551,2,12,0.5499359965324402,3.861635684967041,8.33647372589675,9.040090794283834,33.49611072122252,32.63352764231887,6.47544875391759e-05,0.1004020571708679,0,0,0
2894,104783.43414613312,2011-01-04 15:44:32,510.2572508914525,2,12,0.5501165986061096,3.86616849899292,8.341059829179564,9.040090794283834,33.51383171661295,32.63352764231887,9.713172767078504e-05,0.1004020571708679,0,0,0
2895,104813.44915188786,2011-01-04 15:45:02,540.2722566411672,2,12,0.5501165986061096,3.870863199234009,8.345645855737004,9.040090794283834,33.531572745056785,32.63352764231887,0.0001295089750783,0.1004020571708679,0,0,0
2896,104843.46450386048,2011-01-04 15:45:32,570.2876086187885,2,12,0.5501165986061096,3.875072240829468,8.350232018918414,9.040090794283834,33.54933434412271,32.63352764231887,0.0001295089750783,0.1004020571708679,0,0,0
2897,104873.47959681253,2011-01-04 15:46:02,600.3027015808631,2,12,0.5501165986061096,3.879281282424927,8.354818391977641,9.040090794283834,33.56711644239177,32.63352764231887,9.713172767078504e-05,0.1004020571708679,0,0,0
2898,104903.49447440282,2011-01-04 15:46:32,630.3175791511151,2,12,0.5501165986061096,3.883328437805176,8.359405376013006,9.040090794283834,33.58492025718579,32.63352764231887,9.713172767078504e-05,0.1004020571708679,0,0,0
2899,104933.5097878394,2011-01-04 15:47:02,660.3328926929424,2,12,0.5501165986061096,3.8875374794006343,8.363992346280249,9.040090794283834,33.6027426702525,32.63352764231887,0.0001295089750783,0.1004020571708679,0,0,0
2900,104963.52475638136,2011-01-04 15:47:32,690.3478611396865,2,12,0.550297200679779,3.891260862350464,8.368579380549448,9.040090794283834,33.62058356184218,32.63352764231887,6.47544875391759e-05,0.1004020571708679,0,0,0
2901,104993.53999381851,2011-01-04 15:48:02,720.3630985918752,2,12,0.5501165986061096,3.894822359085083,8.373166475645265,9.040090794283834,33.6384422358093,32.63352764231887,3.237724376958795e-05,0.1004020571708679,0,0,0
2902,105023.55493870654,2011-01-04 15:48:32,750.3780434598538,2,12,0.5499359965324402,3.898707628250122,8.377753488798673,9.040090794283834,33.65631711734742,32.63352764231887,9.713172767078504e-05,0.1004020571708679,0,0,0
2903,105053.5700994275,2011-01-04 15:49:02,780.3932042008544,2,12,0.5499359965324402,3.901945352554321,8.382340382498038,9.040090794283834,33.67420775899076,32.63352764231887,6.47544875391759e-05,0.1004020571708679,0,0,0
2904,105083.58523398323,2011-01-04 15:49:32,810.4083387365433,2,12,0.5501165986061096,3.9053449630737305,8.386926575145209,9.040090794283834,33.69211098017988,32.63352764231887,9.713172767078504e-05,0.1004020571708679,0,0,0
2905,105113.60035820822,2011-01-04 15:50:02,840.4234629815847,2,12,0.5499359965324402,3.90842080116272,8.391512838721917,9.040090794283834,33.710029047317136,32.63352764231887,9.713172767078504e-05,0.1004020571708679,0,0,0
2906,105143.61547800718,2011-01-04 15:50:32,870.438582785558,2,12,0.5501165986061096,3.911496639251709,8.396099011519992,9.040090794283834,33.72796066470963,32.63352764231887,6.47544875391759e-05,0.1004020571708679,0,0,0
2907,105173.6307314342,2011-01-04 15:51:02,900.4538361925106,2,12,0.5501165986061096,3.914248466491699,8.400685295260553,9.040090794283834,33.745905901396,32.63352764231887,9.713172767078504e-05,0.1004020571708679,0,0,0
2908,105203.64824650293,2011-01-04 15:51:32,930.4713513464328,2,12,0.5501165986061096,3.9168386459350586,8.405271982950989,9.040090794283834,33.7638651800259,32.63352764231887,6.47544875391759e-05,0.1004020571708679,0,0,0
2909,105233.66087142384,2011-01-04 15:52:02,960.4839761771644,2,12,0.5501165986061096,3.919428825378418,8.40985785501136,9.040090794283834,33.78183308703457,32.63352764231887,6.47544875391759e-05,0.1004020571708679,0,0,0
2910,105263.67597630565,2011-01-04 15:52:32,990.4990810840094,2,12,0.5501165986061096,3.921857118606568,8.414444178861824,9.040090794283834,33.79981416786537,32.63352764231887,6.47544875391759e-05,0.1004020571708679,0,0,0
2911,105293.6912211262,2011-01-04 15:53:02,1020.5143259095746,2,12,0.5501165986061096,3.924285411834717,8.419030538957887,9.040090794283834,33.81780640274296,32.63352764231887,6.47544875391759e-05,0.1004020571708679,0,0,0
2912,105323.70816361786,2011-01-04 15:53:32,1050.5312683761838,2,12,0.5499359965324402,3.9263899326324463,8.423617182131217,9.040090794283834,33.835810470701894,32.63352764231887,3.237724376958795e-05,0.1004020571708679,0,0,0
2913,105353.72141151146,2011-01-04 15:54:02,1080.5445162848175,2,12,0.5501165986061096,3.9286563396453857,8.428203145741687,9.040090794283834,33.853822263134425,32.63352764231887,3.237724376958795e-05,0.1004020571708679,0,0,0
2914,105383.73650860382,2011-01-04 15:54:32,1110.5596133571362,2,12,0.5501165986061096,3.930922746658325,8.432789367981643,9.040090794283834,33.8718453950634,32.63352764231887,3.237724376958795e-05,0.1004020571708679,0,0,0
2915,105413.75163714458,2011-01-04 15:55:02,1140.574741897884,2,12,0.5501165986061096,3.9331891536712646,8.437375660897086,9.040090794283834,33.8898789820607,32.63352764231887,6.47544875391759e-05,0.1004020571708679,0,0,0
2916,105443.76677002112,2011-01-04 15:55:32,1170.589874774438,2,12,0.550297200679779,3.935455560684204,8.441961955971763,9.040090794283834,33.90792262904624,32.63352764231887,6.47544875391759e-05,0.1004020571708679,0,0,0
2917,105473.78188616598,2011-01-04 15:56:02,1200.6049909142787,2,12,0.5501165986061096,3.9375600814819336,8.446548256900364,9.040090794283834,33.92597612793997,32.63352764231887,6.47544875391759e-05,0.1004020571708679,0,0,0
2918,105503.79701078696,2011-01-04 15:56:32,1230.6201155402696,2,12,0.5499359965324402,3.939664602279663,8.451134503361445,9.040090794283834,33.944039295547974,32.63352764231887,6.47544875391759e-05,0.1004020571708679,0,0,0
2919,105533.81214958828,2011-01-04 15:57:02,1260.6352543466023,2,12,0.5499359965324402,3.941607236862183,8.455720762182203,9.040090794283834,33.9621123264129,32.63352764231887,3.237724376958795e-05,0.1004020571708679,0,0,0
2920,105563.82727990346,2011-01-04 15:57:33,1290.6503846818223,2,12,0.5501165986061096,3.943873643875122,8.460307066579372,9.040090794283834,33.98019529210132,32.63352764231887,3.237724376958795e-05,0.1004020571708679,0,0,0
2921,105593.84253053348,2011-01-04 15:58:03,1320.6656353018293,2,12,0.5501165986061096,3.9458162784576416,8.46489329432656,9.040090794283834,33.99828759216262,32.63352764231887,3.237724376958795e-05,0.1004020571708679,0,0,0
2922,105623.85750592253,2011-01-04 15:58:33,1350.6806106758384,2,12,0.5501165986061096,3.948082685470581,8.469479551201545,9.040090794283834,34.01638957130021,32.63352764231887,6.47544875391759e-05,0.1004020571708679,0,0,0
2923,105653.87264316496,2011-01-04 15:59:03,1380.6957479182734,2,12,0.5501165986061096,3.950187206268311,8.47406578992092,9.040090794283834,34.034501093196354,32.63352764231887,9.713172767078504e-05,0.1004020571708679,0,0,0
2924,105683.88777225208,2011-01-04 15:59:33,1410.7108770053826,2,12,0.550297200679779,3.95229172706604,8.478652047111376,9.040090794283834,34.05262230037171,32.63352764231887,9.713172767078504e-05,0.1004020571708679,0,0,0
2925,105713.90288255738,2011-01-04 16:00:03,1440.725987310682,2,12,0.5501165986061096,3.95455813407898,8.483238306230582,9.040090794283834,34.0707531155598,32.63352764231887,9.713172767078504e-05,0.1004020571708679,0,0,0
2926,105743.91800925854,2011-01-04 16:00:33,1470.7411140068325,2,12,0.5499359965324402,3.956500768661499,8.487824571605453,9.040090794283834,34.08889345823854,32.63352764231887,6.47544875391759e-05,0.1004020571708679,0,0,0
2927,105773.93314935308,2011-01-04 16:01:03,1500.7562541114007,2,12,0.550297200679779,3.9584434032440186,8.492410836512448,9.040090794283834,34.1070432257002,32.63352764231887,3.237724376958795e-05,0.1004020571708679,0,0,0
2928,105803.95041755652,2011-01-04 16:01:33,1530.7735223399086,2,12,0.5499359965324402,3.960386037826538,8.496997484350196,9.040090794283834,34.12520397775365,32.63352764231887,3.237724376958795e-05,0.1004020571708679,0,0,0
2929,105833.9635461127,2011-01-04 16:02:03,1560.7866508760294,2,12,0.5501165986061096,3.9626524448394775,8.501583507026346,9.040090794283834,34.143371649083,32.63352764231887,9.713172767078504e-05,0.1004020571708679,0,0,0
2930,105863.97864031787,2011-01-04 16:02:33,1590.8017450862153,2,12,0.5499359965324402,3.964433193206787,8.506169791604286,9.040090794283834,34.161549699753735,32.63352764231887,0.0,0.1004020571708679,0,0,0
2931,105893.99376664811,2011-01-04 16:03:03,1620.816871421466,2,12,0.5501165986061096,3.966699600219727,8.510756075432488,9.040090794283834,34.17973703791848,32.63352764231887,6.47544875391759e-05,0.1004020571708679,0,0,0
2932,105924.00883244748,2011-01-04 16:03:33,1650.8319372007927,2,12,0.5501165986061096,3.968642234802246,8.515342367364521,9.040090794283834,34.19793361560401,32.63352764231887,9.713172767078504e-05,0.1004020571708679,0,0,0
2933,105954.02402537872,2011-01-04 16:04:03,1680.8471301420464,2,12,0.5499359965324402,3.9705848693847656,8.519928661913557,9.040090794283834,34.21613948911966,32.63352764231887,3.237724376958795e-05,0.1004020571708679,0,0,0
2934,105984.03903346426,2011-01-04 16:04:33,1710.8621382175577,2,12,0.5501165986061096,3.972689390182495,8.524514935721458,9.040090794283834,34.23435459380831,32.63352764231887,3.237724376958795e-05,0.1004020571708679,0,0,0
2935,106014.0542937634,2011-01-04 16:05:03,1740.8773986169376,2,12,0.5499359965324402,3.9747939109802246,8.529101337745749,9.040090794283834,34.25257946203753,32.63352764231887,6.47544875391759e-05,0.1004020571708679,0,0,0
2936,106044.07162843748,2011-01-04 16:05:33,1770.894733195811,2,12,0.5501165986061096,3.976736545562744,8.533687984116597,9.040090794283834,34.27081457665134,32.63352764231887,6.47544875391759e-05,0.1004020571708679,0,0,0
2937,106074.08439302152,2011-01-04 16:06:03,1800.9074977748387,2,12,0.550297200679779,3.978679180145264,8.538274015763959,9.040090794283834,34.28905618130009,32.63352764231887,9.713172767078504e-05,0.1004020571708679,0,0,0
2938,106104.09952255976,2011-01-04 16:06:33,1830.9226273230977,2,12,0.5501165986061096,3.980783700942993,8.542860190523378,9.040090794283834,34.30730794374754,32.63352764231887,3.237724376958795e-05,0.1004020571708679,0,0,0
2939,106134.114638058,2011-01-04 16:07:03,1860.937742806302,2,12,0.5501165986061096,3.982888221740722,8.547446454565442,9.040090794283834,34.32556933333344,32.63352764231887,9.713172767078504e-05,0.1004020571708679,0,0,0
2940,106164.12978059363,2011-01-04 16:07:33,1890.9528853469417,2,12,0.5499359965324402,3.984668970108032,8.55203275596969,9.040090794283834,34.34383996606345,32.63352764231887,0.0,0.1004020571708679,0,0,0
2941,106194.14502771992,2011-01-04 16:08:03,1920.9681324882783,2,12,0.5499359965324402,3.9867734909057617,8.556618985351301,9.040090794283834,34.36211952438724,32.63352764231887,6.47544875391759e-05,0.1004020571708679,0,0,0
2942,106224.16002739452,2011-01-04 16:08:33,1950.983132152827,2,12,0.5497553944587708,3.988716125488281,8.561205276471295,9.040090794283834,34.38040851642591,32.63352764231887,6.47544875391759e-05,0.1004020571708679,0,0,0
2943,106254.17541018892,2011-01-04 16:09:03,1980.9985151327155,2,12,0.5499359965324402,3.990658760070801,8.565791570167582,9.040090794283834,34.39870675759045,32.63352764231887,3.237724376958795e-05,0.1004020571708679,0,0,0
2944,106284.190271233,2011-01-04 16:09:33,2011.0133759913167,2,12,0.550297200679779,3.99292516708374,8.570377760886934,9.040090794283834,34.417013842492715,32.63352764231887,9.713172767078504e-05,0.1004020571708679,0,0,0
2945,106314.2053839944,2011-01-04 16:10:03,2041.0284887477253,2,12,0.5501165986061096,3.9948675632476807,8.574963995900621,9.040090794283834,34.435330453574096,32.63352764231887,6.47544875391759e-05,0.1004020571708679,0,0,0
2946,106344.22048087124,2011-01-04 16:10:33,2071.043585654631,2,12,0.5499359965324402,3.9968101978302,8.579550231423129,9.040090794283834,34.4536564451531,32.63352764231887,6.47544875391759e-05,0.1004020571708679,0,0,0
2947,106374.23563379778,2011-01-04 16:11:03,2101.058738546069,2,12,0.5501165986061096,3.99875283241272,8.584136444838634,9.040090794283834,34.47199166333644,32.63352764231887,3.237724376958795e-05,0.1004020571708679,0,0,0
2948,106404.25271603272,2011-01-04 16:11:33,2131.075820816111,2,12,0.5499359965324402,4.001019477844238,8.588722872212067,9.040090794283834,34.49033720066253,32.63352764231887,6.47544875391759e-05,0.1004020571708679,0,0,0
2949,106434.2658857114,2011-01-04 16:12:03,2161.0889904646965,2,12,0.5501165986061096,4.002962112426758,8.593308676120976,9.040090794283834,34.508689674136306,32.63352764231887,3.24249267578125e-05,0.1004020571708679,0,0,0
2950,106464.28098123484,2011-01-04 16:12:33,2191.104085988155,2,12,0.5501165986061096,4.005228519439697,8.597894896379689,9.040090794283834,34.5270533502611,32.63352764231887,6.47544875391759e-05,0.1004020571708679,0,0,0
2951,106494.29614326908,2011-01-04 16:13:03,2221.119248022379,2,12,0.5501165986061096,4.007332801818848,8.602481167544202,9.040090794283834,34.54542696864756,32.63352764231887,6.47544875391759e-05,0.1004020571708679,0,0,0
2952,106524.31127012565,2011-01-04 16:13:33,2251.134374873917,2,12,0.5501165986061096,4.009275436401367,8.607067382501178,9.040090794283834,34.56381002635886,32.63352764231887,6.47544875391759e-05,0.1004020571708679,0,0,0
2953,106554.32651115172,2011-01-04 16:14:03,2281.149615910037,2,12,0.5497553944587708,4.011541843414307,8.611653673948737,9.040090794283834,34.582203208649226,32.63352764231887,9.70840483205393e-05,0.1004020571708679,0,0,0
2954,106584.34153102162,2011-01-04 16:14:33,2311.164635769919,2,12,0.5499359965324402,4.013646602630615,8.616239887270515,9.040090794283834,34.600605862904466,32.63352764231887,6.47544875391759e-05,0.1004020571708679,0,0,0
2955,106614.35668205844,2011-01-04 16:15:03,2341.179786826784,2,12,0.5501165986061096,4.015913009643555,8.62082621217281,9.040090794283834,34.61901891790341,32.63352764231887,3.24249267578125e-05,0.1004020571708679,0,0,0
2956,106644.37178490516,2011-01-04 16:15:33,2371.1948896835192,2,12,0.5501165986061096,4.018179416656494,8.625412497910219,9.040090794283834,34.637441911879,32.63352764231887,6.47544875391759e-05,0.1004020571708679,0,0,0
2957,106674.38715574476,2011-01-04 16:16:03,2401.2102605281625,2,12,0.5501165986061096,4.0202836990356445,8.629998842972446,9.040090794283834,34.65587525164133,32.63352764231887,6.47544875391759e-05,0.1004020571708679,0,0,0
2958,106704.4021323268,2011-01-04 16:16:33,2431.2252371753443,2,12,0.5501165986061096,4.022550106048584,8.634585067667336,9.040090794283834,34.67431844670863,32.63352764231887,6.47544875391759e-05,0.1004020571708679,0,0,0
2959,106734.41713146504,2011-01-04 16:17:03,2461.240236213332,2,12,0.5499359965324402,4.024816513061523,8.63917127894171,9.040090794283834,34.69277196348575,32.63352764231887,6.47544875391759e-05,0.1004020571708679,0,0,0
2960,106764.43248656543,2011-01-04 16:17:33,2491.255591348823,2,12,0.5499359965324402,4.027082920074463,8.643757469239878,9.040090794283834,34.71123584804547,32.63352764231887,6.47544875391759e-05,0.1004020571708679,0,0,0
2961,106794.44751933248,2011-01-04 16:18:03,2521.270624100836,2,12,0.5501165986061096,4.029511451721191,8.648343757517228,9.040090794283834,34.72971082003807,32.63352764231887,3.24249267578125e-05,0.1004020571708679,0,0,0
2962,106824.46252745311,2011-01-04 16:18:33,2551.285632211435,2,12,0.5499359965324402,4.031615734100342,8.652929998365574,9.040090794283834,34.748196212258755,32.63352764231887,3.23295607813634e-05,0.1004020571708679,0,0,0
2963,106854.47764733728,2011-01-04 16:19:03,2581.300752185832,2,12,0.5501165986061096,4.034367561340332,8.65751617108668,9.040090794283834,34.76669225498439,32.63352764231887,6.46591215627268e-05,0.1004020571708679,0,0,0
2964,106884.4927739382,2011-01-04 16:19:33,2611.315878691508,2,12,0.5499359965324402,4.036472320556641,8.662102408802978,9.040090794283834,34.78519953447189,32.63352764231887,3.24249267578125e-05,0.1004020571708679,0,0,0
2965,106914.50788441392,2011-01-04 16:20:03,2641.330989167232,2,12,0.5499359965324402,4.0390625,8.666688645930078,9.040090794283834,34.80371790248942,32.63352764231887,9.71794142969884e-05,0.1004020571708679,0,0,0
2966,106944.52301694962,2011-01-04 16:20:33,2671.3461217029367,2,12,0.5501165986061096,4.04149055480957,8.671274941103167,9.040090794283834,34.82224765766959,32.63352764231887,6.47544875391759e-05,0.1004020571708679,0,0,0
2967,106974.53827269742,2011-01-04 16:21:03,2701.3613774607484,2,12,0.5499359965324402,4.043919086456299,8.675861249702415,9.040090794283834,34.84078885516298,32.63352764231887,3.24249267578125e-05,0.1004020571708679,0,0,0
2968,107004.55523948964,2011-01-04 16:21:33,2731.3783443432094,2,12,0.5501165986061096,4.046509265899658,8.680447795034404,9.040090794283834,34.859342538549086,32.63352764231887,6.47544875391759e-05,0.1004020571708679,0,0,0
2969,107034.56840859188,2011-01-04 16:22:03,2761.391513360221,2,12,0.5499359965324402,4.0489373207092285,8.685033751424639,9.040090794283834,34.87790549564602,32.63352764231887,3.23295607813634e-05,0.1004020571708679,0,0,0
2970,107064.58352869158,2011-01-04 16:22:33,2791.4066334499066,2,12,0.5501165986061096,4.051527500152588,8.689619988770225,9.040090794283834,34.896481243707555,32.63352764231887,3.23295607813634e-05,0.1004020571708679,0,0,0
2971,107094.59876642447,2011-01-04 16:23:03,2821.4218711827943,2,12,0.5497553944587708,4.053956031799316,8.694206271911233,9.040090794283834,34.91506904864254,32.63352764231887,0.0,0.1004020571708679,0,0,0
2972,107124.61609443196,2011-01-04 16:23:33,2851.4391992805145,2,12,0.5501165986061096,4.056707859039307,8.698792837485659,9.040090794283834,34.93366998973461,32.63352764231887,3.23295607813634e-05,0.1004020571708679,0,0,0
2973,107154.62902139068,2011-01-04 16:24:03,2881.452126164055,2,12,0.5501165986061096,4.059460163116455,8.70337880016381,9.040090794283834,34.952280687657925,32.63352764231887,6.47544875391759e-05,0.1004020571708679,0,0,0
2974,107184.64402720558,2011-01-04 16:24:33,2911.467131963894,2,12,0.5501165986061096,4.062050342559815,8.707965059576091,9.040090794283834,34.97090451024391,32.63352764231887,6.47544875391759e-05,0.1004020571708679,0,0,0
2975,107214.65918983128,2011-01-04 16:25:03,2941.482294674805,2,12,0.5501165986061096,4.064964294433594,8.712551220309496,9.040090794283834,34.98954023628925,32.63352764231887,9.71794142969884e-05,0.1004020571708679,0,0,0
2976,107244.67622356034,2011-01-04 16:25:33,2971.499328333693,2,12,0.5499359965324402,4.067392349243164,8.717137738143883,9.040090794283834,35.00818983603432,32.63352764231887,6.47544875391759e-05,0.1004020571708679,0,0,0
2977,107274.68938581548,2011-01-04 16:26:03,3001.512490568802,2,12,0.5501165986061096,4.070306301116943,8.721723627678413,9.040090794283834,35.02684949136244,32.63352764231887,9.70840483205393e-05,0.1004020571708679,0,0,0
2978,107304.70450396536,2011-01-04 16:26:33,3031.5276087186526,2,12,0.5501165986061096,4.073058605194092,8.726309787400018,9.040090794283834,35.045522883800615,32.63352764231887,9.71794142969884e-05,0.1004020571708679,0,0,0
2979,107334.71975928708,2011-01-04 16:27:03,3061.542864060428,2,12,0.5501165986061096,4.075972557067871,8.730896000055182,9.040090794283834,35.064209326354714,32.63352764231887,6.47544875391759e-05,0.1004020571708679,0,0,0
2980,107364.73477899157,2011-01-04 16:27:33,3091.5578837498847,2,12,0.550297200679779,4.078724384307861,8.735482145974148,9.040090794283834,35.082908443272835,32.63352764231887,6.47544875391759e-05,0.1004020571708679,0,0,0
2981,107394.74987993854,2011-01-04 16:28:03,3121.57298469686,2,12,0.5501165986061096,4.08147668838501,8.740068415911342,9.040090794283834,35.10162115334179,32.63352764231887,6.47544875391759e-05,0.1004020571708679,0,0,0
2982,107424.76500312092,2011-01-04 16:28:33,3151.588107869228,2,12,0.5499359965324402,4.084390640258789,8.744654604162255,9.040090794283834,35.12034666914999,32.63352764231887,6.47544875391759e-05,0.1004020571708679,0,0,0
2983,107454.78015784694,2011-01-04 16:29:03,3181.6032626052624,2,12,0.5499359965324402,4.087466239929199,8.749240860271229,9.040090794283834,35.139085839735635,32.63352764231887,0.0001295089750783,0.1004020571708679,0,0,0
2984,107484.79526911463,2011-01-04 16:29:34,3211.618373862935,2,12,0.5501165986061096,4.0903801918029785,8.753827027309951,9.040090794283834,35.15783806377289,32.63352764231887,9.70840483205393e-05,0.1004020571708679,0,0,0
2985,107514.81038336978,2011-01-04 16:30:04,3241.633488128104,2,12,0.550297200679779,4.093456268310547,8.758413297347156,9.040090794283834,35.1766041706598,32.63352764231887,0.0001295089750783,0.1004020571708679,0,0,0
2986,107544.8255021562,2011-01-04 16:30:34,3271.648606909529,2,12,0.5501165986061096,4.096370220184326,8.76299946159336,9.040090794283834,35.19538351512045,32.63352764231887,9.71794142969884e-05,0.1004020571708679,0,0,0
2987,107574.84066905758,2011-01-04 16:31:04,3301.663773815895,2,12,0.5501165986061096,4.099445819854736,8.767585732546204,9.040090794283834,35.214177178904215,32.63352764231887,6.47544875391759e-05,0.1004020571708679,0,0,0
2988,107604.85778233992,2011-01-04 16:31:34,3331.680887183442,2,12,0.5497553944587708,4.102198123931885,8.772171783803287,9.040090794283834,35.23298370253196,32.63352764231887,6.47544875391759e-05,0.1004020571708679,0,0,0
2989,107634.87088658549,2011-01-04 16:32:04,3361.6939913387982,2,12,0.5499359965324402,4.105435848236084,8.776756918305015,9.040090794283834,35.251800513888774,32.63352764231887,6.47544875391759e-05,0.1004020571708679,0,0,0
2990,107664.88617739566,2011-01-04 16:32:34,3391.709282153984,2,12,0.5501165986061096,4.108673572540283,8.78134295743615,9.040090794283834,35.27063543234373,32.63352764231887,9.71794142969884e-05,0.1004020571708679,0,0,0
2991,107694.90115662428,2011-01-04 16:33:04,3421.7242613775875,2,12,0.5501165986061096,4.111749172210693,8.785929172515301,9.040090794283834,35.2894855576486,32.63352764231887,9.70840483205393e-05,0.1004020571708679,0,0,0
2992,107724.916539143,2011-01-04 16:33:34,3451.7396439013387,2,12,0.5501165986061096,4.114986896514893,8.79051546804886,9.040090794283834,35.30835055135542,32.63352764231887,9.70840483205393e-05,0.1004020571708679,0,0,0
2993,107754.93153220612,2011-01-04 16:34:04,3481.754636979472,2,12,0.550297200679779,4.118224620819092,8.795101647746048,9.040090794283834,35.32722977517422,32.63352764231887,9.71794142969884e-05,0.1004020571708679,0,0,0
2994,107784.94664853142,2011-01-04 16:34:34,3511.769753304775,2,12,0.5501165986061096,4.121462345123291,8.799687832800531,9.040090794283834,35.34612383566662,32.63352764231887,9.71794142969884e-05,0.1004020571708679,0,0,0
2995,107814.96177845562,2011-01-04 16:35:04,3541.7848832289706,2,12,0.5501165986061096,4.12470006942749,8.804274060373194,9.040090794283834,35.365032910397744,32.63352764231887,9.71794142969884e-05,0.1004020571708679,0,0,0
2996,107844.976788892,2011-01-04 16:35:34,3571.7998936503286,2,12,0.5499359965324402,4.1279377937316895,8.808860300289364,9.040090794283834,35.38395712615454,32.63352764231887,6.47544875391759e-05,0.1004020571708679,0,0,0
2997,107874.99191748288,2011-01-04 16:36:04,3601.8150222361887,2,12,0.5501165986061096,4.13133716583252,8.813446541179554,9.040090794283834,35.40289659032576,32.63352764231887,0.0001295089750783,0.1004020571708679,0,0,0
2998,107905.00705381304,2011-01-04 16:36:34,3631.8301585713625,2,12,0.5501165986061096,4.134737014770508,8.818032806121943,9.040090794283834,35.42185148105116,32.63352764231887,6.47544875391759e-05,0.1004020571708679,0,0,0
2999,107935.02215085027,2011-01-04 16:37:04,3661.845255603582,2,12,0.5499359965324402,4.137974739074707,8.822619061232947,9.040090794283834,35.440821732462275,32.63352764231887,9.71794142969884e-05,0.1004020571708679,0,0,0
3000,107965.03960594953,2011-01-04 16:37:34,3691.8627107028287,2,12,0.5499359965324402,4.141374111175537,8.827205703877793,9.040090794283834,35.459809138785374,32.63352764231887,0.0001295089750783,0.1004020571708679,0,0,0
3001,107995.05253294334,2011-01-04 16:38:04,3721.875637706669,2,12,0.550297200679779,4.144935607910156,8.831791612416112,9.040090794283834,35.47880921196733,32.63352764231887,9.70840483205393e-05,0.1004020571708679,0,0,0
3002,108025.06755145486,2011-01-04 16:38:34,3751.890656203153,2,12,0.5499359965324402,4.1483354568481445,8.836377788136948,9.040090794283834,35.49782654222803,32.63352764231887,6.47544875391759e-05,0.1004020571708679,0,0,0
3003,108055.08265739428,2011-01-04 16:39:04,3781.905762147583,2,12,0.5501165986061096,4.151896953582764,8.840963970613751,9.040090794283834,35.516859798414224,32.63352764231887,9.71794142969884e-05,0.1004020571708679,0,0,0
3004,108085.09786703714,2011-01-04 16:39:34,3811.9209719007376,2,12,0.5501165986061096,4.155458450317383,8.845550201682144,9.040090794283834,35.535909338824986,32.63352764231887,9.71794142969884e-05,0.1004020571708679,0,0,0
3005,108115.11290650089,2011-01-04 16:40:04,3841.9360112592153,2,12,0.5501165986061096,4.158857822418213,8.850136371712317,9.040090794283834,35.55497480233469,32.63352764231887,6.47544875391759e-05,0.1004020571708679,0,0,0
3006,108145.12802879608,2011-01-04 16:40:34,3871.951133549385,2,12,0.5501165986061096,4.162419319152832,8.854722559892785,9.040090794283834,35.574056699375845,32.63352764231887,6.47544875391759e-05,0.1004020571708679,0,0,0
3007,108175.14312869545,2011-01-04 16:41:04,3901.966233473812,2,12,0.550297200679779,4.166304588317871,8.85930883463336,9.040090794283834,35.59315544724335,32.63352764231887,9.70840483205393e-05,0.1004020571708679,0,0,0
3008,108205.16016412376,2011-01-04 16:41:34,3931.983268907122,2,12,0.5501165986061096,4.16986608505249,8.863895392556026,9.040090794283834,35.61227200823566,32.63352764231887,0.0001295089750783,0.1004020571708679,0,0,0
3009,108235.17341823784,2011-01-04 16:42:04,3961.99652299616,2,12,0.5499359965324402,4.173427581787109,8.868481422624452,9.040090794283834,35.63140320501783,32.63352764231887,6.47544875391759e-05,0.1004020571708679,0,0,0
3010,108265.18851266858,2011-01-04 16:42:34,3992.011617446945,2,12,0.5499359965324402,4.177151203155518,8.87306774489086,9.040090794283834,35.65055246972733,32.63352764231887,9.71794142969884e-05,0.1004020571708679,0,0,0
3011,108295.20366472293,2011-01-04 16:43:04,4022.026769476233,2,12,0.550297200679779,4.181036472320557,8.877654011948263,9.040090794283834,35.66971851010911,32.63352764231887,0.0001295089750783,0.1004020571708679,0,0,0
3012,108325.2187779856,2011-01-04 16:43:34,4052.0418827338913,2,12,0.5501165986061096,4.184759616851807,8.882240271148207,9.040090794283834,35.688901670338225,32.63352764231887,0.0001295089750783,0.1004020571708679,0,0,0
3013,108355.23388621071,2011-01-04 16:44:04,4082.0569909690303,2,12,0.5501165986061096,4.188483238220215,8.88682656686,9.040090794283834,35.70810220822325,32.63352764231887,0.0001295089750783,0.1004020571708679,0,0,0
3014,108385.24891372466,2011-01-04 16:44:34,4112.072018482988,2,12,0.5501165986061096,4.192206382751465,8.891412818200633,9.040090794283834,35.727319912171104,32.63352764231887,9.70840483205393e-05,0.1004020571708679,0,0,0
3015,108415.26412248536,2011-01-04 16:45:04,4142.087227263719,2,12,0.5501165986061096,4.196091651916504,8.895999158217858,9.040090794283834,35.74655533150464,32.63352764231887,0.0001295089750783,0.1004020571708679,0,0,0
3016,108445.27920960786,2011-01-04 16:45:34,4172.102314371202,2,12,0.5501165986061096,4.199814796447754,8.900585414866729,9.040090794283834,35.76580795255421,32.63352764231887,0.0001295089750783,0.1004020571708679,0,0,0
3017,108446.21676066358,2011-01-04 16:45:35,4173.039865421898,2,12,0.550297200679779,4.200138568878174,8.900728673967116,9.040090794283834,35.76640962043278,32.63352764231887,0.0001295089750783,0.1004020571708679,0,0,0
3018,108476.23319193968,2011-01-04 16:46:05,30.015239126361084,3,12,0.0,4.101550579071045,8.900728673967116,9.040090794283834,35.76640962043278,32.63352764231887,-0.0004856109735555,0.1004020571708679,0,0,0
3019,108506.24829883146,2011-01-04 16:46:35,60.03034602316542,3,12,0.0,4.088923454284668,8.900728673967116,9.040090794283834,35.76640962043278,32.63352764231887,-0.0002913475036621,0.1004020571708679,0,0,0
3020,108536.26367602192,2011-01-04 16:47:05,90.0457232236497,3,12,0.0,4.081314563751221,8.900728673967116,9.040090794283834,35.76640962043278,32.63352764231887,-0.0001619339018361,0.1004020571708679,0,0,0
3021,108566.2316651668,2011-01-04 16:47:35,120.01371235348098,3,12,0.0,4.076134204864502,8.900728673967116,9.040090794283834,35.76640962043278,32.63352764231887,-0.0001295089750783,0.1004020571708679,0,0,0
3022,108566.23483027004,2011-01-04 16:47:35,2.636571147e-06,4,12,1.016088604927063,4.199653148651123,8.90072867471128,9.040090794283834,35.76640962355801,32.63352764231887,0.0,0.1004020571708679,0,0,0
3023,108567.04731309724,2011-01-04 16:47:36,0.812485478808723,4,12,0.965698540210724,4.199814796447754,8.900950810037502,9.040090794283834,35.7673425516626,32.63352764231887,3.23295607813634e-05,0.1004020571708679,0,0,0
3024,108569.000415745,2011-01-04 16:47:38,2.765588121549092,4,12,0.9153085947036744,4.199814796447754,8.90145991946309,9.040090794283834,35.76948073687004,32.63352764231887,3.23295607813634e-05,0.1004020571708679,0,0,0
3025,108571.93786681187,2011-01-04 16:47:41,5.703039193451371,4,12,0.8652797937393188,4.199814796447754,8.90218528422,9.040090794283834,35.77252716144063,32.63352764231887,0.0,0.1004020571708679,0,0,0
3026,108575.93791951904,2011-01-04 16:47:45,9.703091920632962,4,12,0.8152510523796082,4.199976921081543,8.903117829122566,9.040090794283834,35.7764437206113,32.63352764231887,3.24249267578125e-05,0.1004020571708679,0,0,0
3027,108581.25033680748,2011-01-04 16:47:50,15.015509204093275,4,12,0.7650416493415833,4.199976921081543,8.904282458550727,9.040090794283834,35.781335016479154,32.63352764231887,3.24249267578125e-05,0.1004020571708679,0,0,0
3028,108588.09411917892,2011-01-04 16:47:57,21.859291570529628,4,12,0.7150129079818726,4.199814796447754,8.905687309300486,9.040090794283834,35.787235212422395,32.63352764231887,0.0,0.1004020571708679,0,0,0
3029,108597.15632163084,2011-01-04 16:48:06,30.92149402742219,4,12,0.6648035049438477,4.199976921081543,8.907421043181511,9.040090794283834,35.7945166639971,32.63352764231887,3.24249267578125e-05,0.1004020571708679,0,0,0
3030,108609.59348615663,2011-01-04 16:48:19,43.35865853820291,4,12,0.614774763584137,4.199814796447754,8.909626908314708,9.040090794283834,35.80378101151302,32.63352764231887,0.0,0.1004020571708679,0,0,0
3031,108628.3432526138,2011-01-04 16:48:37,62.108424995373085,4,12,0.5647459626197815,4.199814796447754,8.912689541665495,9.040090794283834,35.81664368037317,32.63352764231887,0.0,0.1004020571708679,0,0,0
3032,108660.39144019324,2011-01-04 16:49:09,94.1566125748018,4,12,0.5147172212600708,4.199653148651123,8.917473581584755,9.040090794283834,35.83673604192369,32.63352764231887,-3.23295607813634e-05,0.1004020571708679,0,0,0
3033,108723.20101056863,2011-01-04 16:50:12,156.96618303541132,4,12,0.4646884202957153,4.199814796447754,8.925972074635482,9.040090794283834,35.87242857909523,32.63352764231887,-3.24249267578125e-05,0.1004020571708679,0,0,0
3034,108827.16798974056,2011-01-04 16:51:56,260.9331621221352,4,12,0.4146596491336822,4.199814796447754,8.938635588831643,9.040090794283834,35.92561367189717,32.63352764231887,0.0,0.1004020571708679,0,0,0
3035,108961.27527496412,2011-01-04 16:54:10,395.0404473557173,4,12,0.3646308779716491,4.199814796447754,8.953132906558043,9.040090794283834,35.98650048846291,32.63352764231887,0.0,0.1004020571708679,0,0,0
3036,109121.3837506597,2011-01-04 16:56:50,555.1489230512971,4,12,0.3146021068096161,4.199814796447754,8.968223739777505,9.040090794283834,36.04988004435873,32.63352764231887,0.0,0.1004020571708679,0,0,0
3037,109317.17549236365,2011-01-04 17:00:06,750.9406647452112,4,12,0.264573335647583,4.199814796447754,8.983951236122838,9.040090794283834,36.11593352426403,32.63352764231887,0.0,0.1004020571708679,0,0,0
3038,109561.04646631294,2011-01-04 17:04:10,994.8116387145656,4,12,0.2145445793867111,4.199976921081543,9.000130118802248,9.040090794283834,36.18388277241428,32.63352764231887,3.24249267578125e-05,0.1004020571708679,0,0,0
3039,109879.58801860404,2011-01-04 17:09:29,1313.353190980598,4,12,0.164515808224678,4.199976921081543,9.016817450730615,9.040090794283834,36.2539675253622,32.63352764231887,0.0,0.1004020571708679,0,0,0
3040,110339.14291394474,2011-01-04 17:17:08,1772.9080863212932,4,12,0.1144870370626449,4.199653148651123,9.034471363264148,9.040090794283834,36.32811191923824,32.63352764231887,-6.47544875391759e-05,0.1004020571708679,0,0,0
3041,111148.95765626636,2011-01-04 17:30:38,2582.722828868488,4,12,0.0644582659006118,4.199814796447754,9.054051712067452,9.040090794283834,36.410346813222525,32.63352764231887,-3.24249267578125e-05,0.1004020571708679,0,0,0
3042,111540.29478543368,2011-01-04 17:37:09,2974.059957815248,4,12,0.0498289167881011,4.199814796447754,9.060285195695228,9.040090794283834,36.43652660552223,32.63352764231887,-6.47544875391759e-05,0.1004020571708679,0,0,0
3043,111570.30782826802,2011-01-04 17:37:39,30.01513468105124,5,12,0.0,4.190425872802734,9.060285195695228,9.040090794283834,36.43652660552223,32.63352764231887,-9.70840483205393e-05,0.1004020571708679,0,0,0
3044,111600.30733344555,2011-01-04 17:38:09,60.01463987360806,5,12,0.0,4.1892924308776855,9.060285195695228,9.040090794283834,36.43652660552223,32.63352764231887,0.0,0.1004020571708679,0,0,0
3045,111600.49374259597,2011-01-04 17:38:10,0.187516423625035,6,12,-1.9243103452026844e-05,4.188968658447266,9.060285195695228,9.040090795286169,36.43652660552223,32.63352764651761,0.0,0.10382841527462,0,0,0
3046,111605.32181303808,2011-01-04 17:38:15,5.015586750439558,6,12,0.0010644125286489,4.189130783081055,9.060286087849246,9.040090795369457,36.43653034295111,32.6335276468665,-6.47544875391759e-05,0.10382841527462,0,0,0
3047,111631.42961542156,2011-01-04 17:38:41,26.10893446320059,7,12,-1.099568486213684,3.989039897918701,9.060286087920227,9.048065761419888,36.43653034324847,32.66553351744315,-0.0012950419913977,0.10382841527462,0,0,0
3048,111661.44492130428,2011-01-04 17:39:11,56.12424045120146,7,12,-1.0997490882873535,3.95132040977478,9.060286087920227,9.057233838657524,36.43653034324847,32.70192341885425,-0.0008418083307333,0.10382841527462,0,0,0
3049,111691.4598519418,2011-01-04 17:39:41,86.13917097843857,7,12,-1.099568486213684,3.924285411834717,9.060286087920227,9.066401704265749,36.43653034324847,32.738017431790645,-0.0006151676061563,0.10382841527462,0,0,0
3050,111721.47497853768,2011-01-04 17:40:11,116.15429757433913,7,12,-1.0993878841400146,3.903726100921631,9.060286087920227,9.075569696420176,36.43653034324847,32.773896600171696,-0.0004856586456298,0.10382841527462,0,0,0
3051,111751.49022487202,2011-01-04 17:40:41,146.1695440289645,7,12,-1.099568486213684,3.886728048324585,9.060286087920227,9.084737742290413,36.43653034324847,32.80960599830527,-0.0004209041653666,0.10382841527462,0,0,0
3052,111781.50534232012,2011-01-04 17:41:11,176.18466145701595,7,12,-1.099568486213684,3.872158288955689,9.060286087920227,9.093905719332245,36.43653034324847,32.845171463028095,-0.0003561496851034,0.10382841527462,0,0,0
3053,111811.52036378902,2011-01-04 17:41:41,206.1996828206453,7,12,-1.099568486213684,3.858883619308472,9.060286087920227,9.103073703082202,36.43653034324847,32.880608858036744,-0.0003237724304199,0.10382841527462,0,0,0
3054,111841.5354906656,2011-01-04 17:42:11,236.2148097223079,7,12,-1.099568486213684,3.846256494522095,9.060286087920227,9.11224158604072,36.43653034324847,32.915927636790194,-0.0003237724304199,0.10382841527462,0,0,0
3055,111871.55076421778,2011-01-04 17:42:41,266.2300832794812,7,12,-1.0997490882873535,3.834438800811768,9.060286087920227,9.121409616452873,36.43653034324847,32.95113582474478,-0.0003237724304199,0.10382841527462,0,0,0
3056,111901.56572730617,2011-01-04 17:43:11,296.24504635283324,7,12,-1.0997490882873535,3.8231070041656494,9.060286087920227,9.130577544870953,36.43653034324847,32.98623773646508,-0.0002913951757363,0.10382841527462,0,0,0
3057,111931.58084945095,2011-01-04 17:43:41,326.26016849262777,7,12,-1.0997490882873535,3.812098741531372,9.060286087920227,9.139745499614929,36.43653034324847,33.02123814425621,-0.0003237724304199,0.10382841527462,0,0,0
3058,111961.59604726938,2011-01-04 17:44:11,356.2753663310868,7,12,-1.099568486213684,3.801738023757935,9.060286087920227,9.14891342610899,36.43653034324847,33.05613976456555,-0.0002590179501567,0.10382841527462,0,0,0
3059,111991.6111521261,2011-01-04 17:44:41,386.2904711577316,7,12,-1.099568486213684,3.791539192199707,9.060286087920227,9.158081351871916,36.43653034324847,33.09094714166129,-0.0002913951757363,0.10382841527462,0,0,0
3060,112021.62630226069,2011-01-04 17:45:11,416.3056212973103,7,12,-1.099568486213684,3.781826019287109,9.060286087920227,9.167249382134647,36.43653034324847,33.12566357722448,-0.0002590179501567,0.10382841527462,0,0,0
3061,112051.6415455875,2011-01-04 17:45:41,446.3208646391776,7,12,-1.099568486213684,3.772436618804932,9.060286087920227,9.17641734566932,36.43653034324847,33.16029158675598,-0.0002590179501567,0.10382841527462,0,0,0
3062,112081.656562886,2011-01-04 17:46:11,476.3358819527129,7,12,-1.099568486213684,3.763047218322754,9.060286087920227,9.185585278984606,36.43653034324847,33.19483375143079,-0.0002913951757363,0.10382841527462,0,0,0
3063,112111.67181642327,2011-01-04 17:46:41,506.3511354799654,7,12,-1.0997490882873535,3.754143476486206,9.060286087920227,9.194753289184568,36.43653034324847,33.22929322181651,-0.0002590179501567,0.10382841527462,0,0,0
3064,112141.68681936098,2011-01-04 17:47:11,536.3661384176718,7,12,-1.099568486213684,3.7454018592834473,9.060286087920227,9.203921278166732,36.43653034324847,33.26367109193007,-0.0002590179501567,0.10382841527462,0,0,0
3065,112171.70230182885,2011-01-04 17:47:41,566.3816208905272,7,12,-1.0997490882873535,3.7368218898773193,9.060286087920227,9.21308941709899,36.43653034324847,33.29797034938447,-0.0002590179501567,0.10382841527462,0,0,0
3066,112201.71702682885,2011-01-04 17:48:11,596.3963458704771,7,12,-1.099568486213684,3.728727579116821,9.060286087920227,9.22225731220008,36.43653034324847,33.33219235686351,-0.0001618862152099,0.10382841527462,0,0,0
3067,112231.73215513398,2011-01-04 17:48:41,626.4114741656127,7,12,-1.099568486213684,3.7206332683563232,9.060286087920227,9.231425271888194,36.43653034324847,33.36634080814382,-0.0002266406954731,0.10382841527462,0,0,0
3068,112261.747500445,2011-01-04 17:49:11,656.4268194866437,7,12,-1.099568486213684,3.713024616241455,9.060286087920227,9.240593282020948,36.43653034324847,33.40041681590403,-0.0001942634553415,0.10382841527462,0,0,0
3069,112291.76266501052,2011-01-04 17:49:41,686.4419840722262,7,12,-1.099929690361023,3.705092191696167,9.060286087920227,9.249761345910214,36.43653034324847,33.43442168358077,-0.0002266406954731,0.10382841527462,0,0,0
3070,112321.77753065604,2011-01-04 17:50:11,716.4568496977082,7,12,-1.0997490882873535,3.697483539581299,9.060286087920227,9.258929315734653,36.43653034324847,33.46835617663285,-0.0002266406954731,0.10382841527462,0,0,0
3071,112351.79298669302,2011-01-04 17:50:41,746.4723059502144,7,12,-1.0993878841400146,3.690360546112061,9.060286087920227,9.26809744086252,36.43653034324847,33.50222290166153,-0.0001942634553415,0.10382841527462,0,0,0
3072,112381.8078090958,2011-01-04 17:51:11,776.4871282226472,7,12,-1.0997490882873535,3.6829137802124015,9.060286087920227,9.277265391987836,36.43653034324847,33.53602170537836,-0.0002266406954731,0.10382841527462,0,0,0
3073,112411.82303241274,2011-01-04 17:51:41,806.502351464419,7,12,-1.099568486213684,3.675952672958374,9.060286087920227,9.286433452933077,36.43653034324847,33.569754782899885,-0.0001618862152099,0.10382841527462,0,0,0
3074,112441.83803146576,2011-01-04 17:52:11,836.5173505074185,7,12,-1.099568486213684,3.668829917907715,9.060286087920227,9.295601455407423,36.43653034324847,33.60342324907534,-0.0001942634553415,0.10382841527462,0,0,0
3075,112471.85316327968,2011-01-04 17:52:41,866.5324823112988,7,12,-1.099568486213684,3.662030696868897,9.060286087920227,9.304769513845184,36.43653034324847,33.637028255300855,-0.0001942634553415,0.10382841527462,0,0,0
3076,112501.8683160508,2011-01-04 17:53:11,896.5476350924613,7,12,-1.099568486213684,3.655231475830078,9.060286087920227,9.313937541803176,36.43653034324847,33.67057069544537,-0.0001618862152099,0.10382841527462,0,0,0
3077,112531.88341057676,2011-01-04 17:53:41,926.5627296084086,7,12,-1.099568486213684,3.6485941410064697,9.060286087920227,9.323105516634932,36.43653034324847,33.70405194266867,-0.0002266406954731,0.10382841527462,0,0,0
3078,112561.89864632972,2011-01-04 17:54:11,956.5779653914371,7,12,-1.099568486213684,3.6421186923980713,9.060286087920227,9.332273436767986,36.43653034324847,33.73747266185045,-0.0001942634553415,0.10382841527462,0,0,0
3079,112591.9136638989,2011-01-04 17:54:41,986.5929829355472,7,12,-1.099568486213684,3.635643243789673,9.060286087920227,9.3414413834415,36.43653034324847,33.770833808670176,-0.0001618862152099,0.10382841527462,0,0,0
3080,112621.93102583096,2011-01-04 17:55:11,1016.6103450680928,7,12,-1.0997490882873535,3.629329681396485,9.060286087920227,9.350610019973066,36.43653034324847,33.80413911138841,-0.0001942634553415,0.10382841527462,0,0,0
3081,112651.9439297974,2011-01-04 17:55:41,1046.6232488290043,7,12,-1.099568486213684,3.623178005218506,9.060286087920227,9.359777330022142,36.43653034324847,33.837382215461616,-0.0001942634553415,0.10382841527462,0,0,0
3082,112681.95913089396,2011-01-04 17:56:11,1076.6384499506462,7,12,-1.099568486213684,3.617188215255737,9.060286087920227,9.368945499236997,36.43653034324847,33.870571888748714,-0.0001618862152099,0.10382841527462,0,0,0
3083,112711.9741530295,2011-01-04 17:56:41,1106.6534720611369,7,12,-1.0997490882873535,3.611036539077759,9.060286087920227,9.3781141966543,36.43653034324847,33.903707998347464,-0.0001942634553415,0.10382841527462,0,0,0
3084,112741.98919758092,2011-01-04 17:57:11,1136.6685166476448,7,12,-1.0997490882873535,3.6050467491149902,9.060286087920227,9.387282780808796,36.43653034324847,33.93678964852245,-0.0001295089750783,0.10382841527462,0,0,0
3085,112771.99057750088,2011-01-04 17:57:41,1166.6698965475491,7,12,-1.0997490882873535,3.599542617797852,9.060286087920227,9.39644724845548,36.43653034324847,33.969802929780684,-0.0001295089750783,0.10382841527462,0,0,0
3086,112802.00393006034,2011-01-04 17:58:11,1196.6832491019927,7,12,-1.0997490882873535,3.593876600265503,9.060286087920227,9.405615422535188,36.43653034324847,34.002777142406025,-0.0001295089750783,0.10382841527462,0,0,0
3087,112832.01903851602,2011-01-04 17:58:41,1226.6983575727195,7,12,-1.0997490882873535,3.5882108211517334,9.060286087920227,9.4147840439157,36.43653034324847,34.03570170956824,-0.0001618862152099,0.10382841527462,0,0,0
3088,112862.03402540876,2011-01-04 17:59:11,1256.7133444654369,7,12,-1.099568486213684,3.583030462265014,9.060286087920227,9.423952668542158,36.43653034324847,34.06857616858592,-0.0001618862152099,0.10382841527462,0,0,0
3089,112892.04941728582,2011-01-04 17:59:41,1286.7287363424998,7,12,-1.0997490882873535,3.577688217163086,9.060286087920227,9.43312067617703,36.43653034324847,34.10140022054748,-0.0001295089750783,0.10382841527462,0,0,0
3090,112922.06440251438,2011-01-04 18:00:11,1316.7437215760815,7,12,-1.0997490882873535,3.572507858276367,9.060286087920227,9.442288533679436,36.43653034324847,34.13417632634829,-0.0001295089750783,0.10382841527462,0,0,0
3091,112952.07959454836,2011-01-04 18:00:41,1346.7589135900243,7,12,-1.0993878841400146,3.5678131580352783,9.060286087920227,9.451456463255004,36.43653034324847,34.16690690624501,-9.713172767078504e-05,0.10382841527462,0,0,0
3092,112982.09464265866,2011-01-04 18:01:11,1376.773961695302,7,12,-1.099929690361023,3.562794685363769,9.060286087920227,9.460624315885095,36.43653034324847,34.19959282899102,-0.0001295089750783,0.10382841527462,0,0,0
3093,113012.10979584084,2011-01-04 18:01:42,1406.7891148824765,7,12,-1.0997490882873535,3.5580999851226807,9.060286087920227,9.469792185251231,36.43653034324847,34.23223601121572,-0.0001942634553415,0.10382841527462,0,0,0
3094,113042.1249134393,2011-01-04 18:02:12,1436.80423247594,7,12,-1.099568486213684,3.5535671710968018,9.060286087920227,9.478960138086547,36.43653034324847,34.264836704765465,-0.0001618862152099,0.10382841527462,0,0,0
3095,113072.1400635087,2011-01-04 18:02:42,1466.8193825553687,7,12,-1.099568486213684,3.5493581295013428,9.060286087920227,9.488128048147884,36.43653034324847,34.297396145646445,-9.713172767078504e-05,0.10382841527462,0,0,0
3096,113102.15518918732,2011-01-04 18:03:12,1496.8345082490207,7,12,-1.099568486213684,3.544987201690674,9.060286087920227,9.497295993714989,36.43653034324847,34.329915683562376,-0.0001295089750783,0.10382841527462,0,0,0
3097,113132.17030907652,2011-01-04 18:03:42,1526.849628118156,7,12,-1.0997490882873535,3.540616273880005,9.060286087920227,9.50646393132062,36.43653034324847,34.36239606370122,-9.713172767078504e-05,0.10382841527462,0,0,0
3098,113162.18554264402,2011-01-04 18:04:12,1556.86486172075,7,12,-1.099568486213684,3.536407232284546,9.060286087920227,9.515631856604696,36.43653034324847,34.39483778283248,-0.0001295089750783,0.10382841527462,0,0,0
3099,113192.20055109546,2011-01-04 18:04:42,1586.8798701571611,7,12,-1.099929690361023,3.532198190689087,9.060286087920227,9.524799785120331,36.43653034324847,34.42724087413442,-0.0001618862152099,0.10382841527462,0,0,0
3100,113222.21566662376,2011-01-04 18:05:12,1616.8949856854776,7,12,-1.0993878841400146,3.528312921524048,9.060286087920227,9.533967787600744,36.43653034324847,34.459606331328175,-9.713172767078504e-05,0.10382841527462,0,0,0
3101,113252.230985539,2011-01-04 18:05:42,1646.910304580647,7,12,-1.099568486213684,3.524265766143799,9.060286087920227,9.543135797329608,36.43653034324847,34.49193446917893,-9.713172767078504e-05,0.10382841527462,0,0,0
3102,113282.2460469324,2011-01-04 18:06:12,1676.9253659790554,7,12,-1.0997490882873535,3.52021861076355,9.060286087920227,9.552303705526704,36.43653034324847,34.524225601386675,-9.713172767078504e-05,0.10382841527462,0,0,0
3103,113312.26103395042,2011-01-04 18:06:42,1706.9403530121224,7,12,-1.0993878841400146,3.516171455383301,9.060286087920227,9.561471509199327,36.43653034324847,34.556479390380744,-9.713172767078504e-05,0.10382841527462,0,0,0
3104,113342.276206165,2011-01-04 18:07:12,1736.955525206669,7,12,-1.0997490882873535,3.511962413787842,9.060286087920227,9.570639506467954,36.43653034324847,34.58869631510433,-0.0001295089750783,0.10382841527462,0,0,0
3105,113372.29145818352,2011-01-04 18:07:42,1766.9707772552365,7,12,-1.099568486213684,3.507915496826172,9.060286087920227,9.579807538508089,36.43653034324847,34.620875930003656,-0.0001295089750783,0.10382841527462,0,0,0
3106,113402.30644682558,2011-01-04 18:08:12,1796.9857658672383,7,12,-1.099568486213684,3.504030227661133,9.060286087920227,9.588975546580103,36.43653034324847,34.653017843589225,-9.713172767078504e-05,0.10382841527462,0,0,0
3107,113432.32163253882,2011-01-04 18:08:42,1827.00095160554,7,12,-1.099568486213684,3.499821186065674,9.060286087920227,9.598143539715217,36.43653034324847,34.68512246776126,-9.713172767078504e-05,0.10382841527462,0,0,0
3108,113462.33670573664,2011-01-04 18:09:12,1857.0160247732813,7,12,-1.0997490882873535,3.495612144470215,9.060286087920227,9.60731146002877,36.43653034324847,34.717189174100376,-0.0001295089750783,0.10382841527462,0,0,0
3109,113492.35402894716,2011-01-04 18:09:42,1887.0333479838216,7,12,-1.0993878841400146,3.491403102874756,9.060286087920227,9.616480129941255,36.43653034324847,34.74921984111085,-9.713172767078504e-05,0.10382841527462,0,0,0
3110,113522.36695803622,2011-01-04 18:10:12,1917.0462770778709,7,12,-1.099929690361023,3.487032175064087,9.060286087920227,9.625647392497187,36.43653034324847,34.7812065086054,-0.0001295089750783,0.10382841527462,0,0,0
3111,113552.38209735382,2011-01-04 18:10:42,1947.061416415528,7,12,-1.0997490882873535,3.482661247253418,9.060286087920227,9.634815381332649,36.43653034324847,34.8131558669842,-9.713172767078504e-05,0.10382841527462,0,0,0
3112,113582.39720977438,2011-01-04 18:11:12,1977.076528811037,7,12,-1.099568486213684,3.477966547012329,9.060286087920227,9.643983293089072,36.43653034324847,34.84506262406209,-9.713172767078504e-05,0.10382841527462,0,0,0
3113,113612.4123446359,2011-01-04 18:11:42,2007.0916636976,7,12,-1.099568486213684,3.4731099605560303,9.060286087920227,9.653151255106632,36.43653034324847,34.876926161935586,-0.0001618862152099,0.10382841527462,0,0,0
3114,113642.42745773816,2011-01-04 18:12:12,2037.106776774808,7,12,-1.099568486213684,3.468091487884521,9.060286087920227,9.662319153067958,36.43653034324847,34.908744251566986,-0.0001295089750783,0.10382841527462,0,0,0
3115,113672.44273308982,2011-01-04 18:12:42,2067.122052141491,7,12,-1.0993878841400146,3.4629111289978027,9.060286087920227,9.671487121168752,36.43653034324847,34.94051527564361,-9.713172767078504e-05,0.10382841527462,0,0,0
3116,113702.45772684464,2011-01-04 18:13:12,2097.137045906336,7,12,-1.0997490882873535,3.457083225250244,9.060286087920227,9.680654978134394,36.43653034324847,34.97223598815998,-0.0001942634553415,0.10382841527462,0,0,0
3117,113732.47296764016,2011-01-04 18:13:42,2127.152286691832,7,12,-1.099929690361023,3.4509315490722656,9.060286087920227,9.68982295398844,36.43653034324847,35.003903273947614,-0.0001942634553415,0.10382841527462,0,0,0
3118,113762.48795438248,2011-01-04 18:14:12,2157.1672734391877,7,12,-1.099568486213684,3.444294214248657,9.060286087920227,9.69899081892199,36.43653034324847,35.03551094833556,-0.0001618862152099,0.10382841527462,0,0,0
3119,113792.50308083804,2011-01-04 18:14:42,2187.182399874688,7,12,-1.099568486213684,3.436685562133789,9.060286087920227,9.708158663987351,36.43653034324847,35.067053675907154,-0.0002266406954731,0.10382841527462,0,0,0
3120,113822.51834308205,2011-01-04 18:15:12,2217.1976622339525,7,12,-1.0993878841400146,3.42842960357666,9.060286087920227,9.717325896777565,36.43653034324847,35.098521473857296,-0.0001942634553415,0.10382841527462,0,0,0
3121,113852.53336861104,2011-01-04 18:15:42,2247.2126876476755,7,12,-1.099568486213684,3.4187164306640625,9.060286087920227,9.726493267600482,36.43653034324847,35.12990660051408,-0.0002266406954731,0.10382841527462,0,0,0
3122,113882.5484778587,2011-01-04 18:16:12,2277.2277969103766,7,12,-1.099568486213684,3.4072225093841557,9.060286087920227,9.73566123492038,36.43653034324847,35.161196863142976,-0.0002913951757363,0.10382841527462,0,0,0
3123,113912.56362607348,2011-01-04 18:16:42,2307.242945135183,7,12,-1.099568486213684,3.3937859535217285,9.060286087920227,9.744829238622378,36.43653034324847,35.19237447694461,-0.0003885269106831,0.10382841527462,0,0,0
3124,113942.57872934623,2011-01-04 18:17:12,2337.258048382893,7,12,-1.0993878841400146,3.3777592182159424,9.060286087920227,9.753997248919914,36.43653034324847,35.22341675533196,-0.0004209041653666,0.10382841527462,0,0,0
3125,113972.59388983162,2011-01-04 18:17:42,2367.2732088933185,7,12,-1.099568486213684,3.358009099960327,9.060286087920227,9.763165263128318,36.43653034324847,35.25429557841227,-0.0005504131549969,0.10382841527462,0,0,0
3126,114002.6091044068,2011-01-04 18:18:12,2397.2884234484404,7,12,-1.0997490882873535,3.3332407474517822,9.060286087920227,9.77233333509474,36.43653034324847,35.284972682714994,-0.0007446765666827,0.10382841527462,0,0,0
3127,114032.6241086728,2011-01-04 18:18:42,2427.303427714458,7,12,-1.0993878841400146,3.30199670791626,9.060286087920227,9.781501256259668,36.43653034324847,35.3153946119557,-0.0009065627818927,0.10382841527462,0,0,0
3128,114062.63936808972,2011-01-04 18:19:12,2457.3186871414136,7,12,-1.0993878841400146,3.2615253925323486,9.060286087920227,9.79066929900078,36.43653034324847,35.345490295348014,-0.0012303352123126,0.10382841527462,0,0,0
3129,114092.65441032538,2011-01-04 18:19:42,2487.333729387088,7,12,-1.099568486213684,3.207941055297852,9.060286087920227,9.799837201624754,36.43653034324847,35.37515718500643,-0.0016188621520996,0.10382841527462,0,0,0
3130,114122.66978465872,2011-01-04 18:20:12,2517.349103700376,7,12,-1.0997490882873535,3.1347687244415283,9.060286087920227,9.809005280036578,36.43653034324847,35.404250700054554,-0.0022664070129394,0.10382841527462,0,0,0
3131,114152.68462867536,2011-01-04 18:20:42,2547.3639477370525,7,12,-1.099568486213684,3.0308380126953125,9.060286087920227,9.818173196137732,36.43653034324847,35.43254489054814,-0.003270101500675,0.10382841527462,0,0,0
3132,114182.69974391292,2011-01-04 18:21:12,2577.379062949582,7,12,-1.099568486213684,2.868466854095459,9.060286087920227,9.827341173459088,36.43653034324847,35.45964254270129,-0.0051803113892674,0.10382841527462,0,0,0
3133,114205.0431117154,2011-01-04 18:21:34,2599.722430752028,7,12,-1.099929690361023,2.699943780899048,9.060286087920227,9.834165888294184,36.43653034324847,35.478661968743175,-0.0064430236816406,0.10382841527462,0,0,0
3134,114265.06092690535,2011-01-04 18:22:35,60.01470896580709,8,12,0.0,3.5098581314086914,9.060286087920227,9.834165888294184,36.43653034324847,35.478661968743175,0.0013598442310467,0.10382841527462,0,0,0
3135,114265.25251829808,2011-01-04 18:22:35,0.18760916476449,9,12,-1.9243103452026844e-05,3.5098581314086914,9.060286087920227,9.834165889297012,36.43653034324847,35.47866197226296,0.0,0.1005837768316268,0,0,0
3136,114270.08044657588,2011-01-04 18:22:40,5.015537427511645,9,12,0.0005225847125984,3.5179522037506104,9.060286887935158,9.8341658893804,36.436533155032045,35.47866197255564,0.0011332035064697,0.1005837768316268,0,0,0
