Data_Point,Test_Time(s),Date_Time,Step_Time(s),Step_Index,Cycle_Index,Current(A),Voltage(V),Charge_Capacity(Ah),Discharge_Capacity(Ah),Charge_Energy(Wh),Discharge_Energy(Wh),dV/dt(V/s),Internal_Resistance(Ohm),Is_FC_Data,AC_Impedance(Ohm),ACI_Phase_Angle(Deg)
3398,124420.04357382595,2011-01-04 21:11:51,30.01525444453869,1,14,0.0,3.554376602172852,9.852972353913312,10.624828765632833,39.639979442468295,38.307963487586754,0.0007770538213662,0.0995923578739166,0,0,0
3399,124450.0585818764,2011-01-04 21:12:21,60.03026248496252,1,14,0.0,3.577202558517456,9.852972353913312,10.624828765632833,39.639979442468295,38.307963487586754,0.0005504131549969,0.0995923578739166,0,0,0
3400,124480.07401210406,2011-01-04 21:12:51,90.0456927276443,1,14,0.0,3.593876600265503,9.852972353913312,10.624828765632833,39.639979442468295,38.307963487586754,0.0003884792386088,0.0995923578739166,0,0,0
3401,124510.04212671662,2011-01-04 21:13:21,120.01380732016716,1,14,0.0,3.6068274974823,9.852972353913312,10.624828765632833,39.639979442468295,38.307963487586754,0.0003885269106831,0.0995923578739166,0,0,0
3402,124540.0605045832,2011-01-04 21:13:51,30.0151260846263,2,14,0.550297200679779,3.736983776092529,9.85755889002592,10.624828765632833,39.65701358998421,38.307963487586754,0.0010036944877356,0.0995923578739166,0,0,0
3403,124570.07565220652,2011-01-04 21:14:21,60.03027373299608,2,14,0.5501165986061096,3.7651517391204834,9.862145470262629,10.624828765632833,39.67422367813761,38.307963487586754,0.0005827903514727,0.0995923578739166,0,0,0
3404,124600.09079189002,2011-01-04 21:14:51,90.04541348668991,2,14,0.5501165986061096,3.782635450363159,9.8667319365378,10.624828765632833,39.6915359634271,38.307963487586754,0.0003561496851034,0.0995923578739166,0,0,0
3405,124630.1059252979,2011-01-04 21:15:21,120.06054679933064,2,14,0.5501165986061096,3.793643712997437,9.87131842194706,10.624828765632833,39.7089122400162,38.307963487586754,0.0002590179501567,0.0995923578739166,0,0,0
3406,124660.121039934,2011-01-04 21:15:51,150.07566143542368,2,14,0.5501165986061096,3.801899909973145,9.875904969791042,10.624828765632833,39.72633177850487,38.307963487586754,0.0001942634553415,0.0995923578739166,0,0,0
3407,124690.13630352632,2011-01-04 21:16:21,180.09092505282396,2,14,0.5501165986061096,3.808861017227173,9.880491487294789,10.624828765632833,39.743785574440295,38.307963487586754,0.0001942634553415,0.0995923578739166,0,0,0
3408,124720.15131186752,2011-01-04 21:16:51,210.10593336893487,2,14,0.5501165986061096,3.815174579620361,9.88507800132052,10.624828765632833,39.76126989891328,38.307963487586754,0.0001295089750783,0.0995923578739166,0,0,0
3409,124750.16883020436,2011-01-04 21:17:21,240.12345181105212,2,14,0.5501165986061096,3.82116436958313,9.889664828288296,10.624828765632833,39.77878363898182,38.307963487586754,0.0001618862152099,0.0995923578739166,0,0,0
3410,124780.18167595068,2011-01-04 21:17:51,270.13629747717385,2,14,0.5501165986061096,3.8268303871154794,9.894250943260047,10.624828765632833,39.79632097984975,38.307963487586754,0.0001618862152099,0.0995923578739166,0,0,0
3411,124810.196731695,2011-01-04 21:18:21,300.15135319642803,2,14,0.5501165986061096,3.8321726322174072,9.898837446311132,10.624828765632833,39.81388489273606,38.307963487586754,0.0001618862152099,0.0995923578739166,0,0,0
3412,124840.21186637606,2011-01-04 21:18:51,330.16648787747926,2,14,0.5499359965324402,3.837352752685547,9.903423906334485,10.624828765632833,39.83147256075745,38.307963487586754,0.0001618862152099,0.0995923578739166,0,0,0
3413,124870.22872402628,2011-01-04 21:19:21,360.1833455327123,2,14,0.5501165986061096,3.8422093391418457,9.908010596741343,10.624828765632833,39.84908423140897,38.307963487586754,0.0001295089750783,0.0995923578739166,0,0,0
3414,124900.24227391252,2011-01-04 21:19:51,390.1968954340048,2,14,0.5501165986061096,3.846904039382935,9.912596783407812,10.624828765632833,39.86671622452536,38.307963487586754,9.713172767078504e-05,0.0995923578739166,0,0,0
3415,124930.25728087526,2011-01-04 21:20:21,420.2119023817051,2,14,0.5501165986061096,3.851598739624024,9.91718325126526,10.624828765632833,39.884371031634586,38.307963487586754,0.0001295089750783,0.0995923578739166,0,0,0
3416,124960.2725629286,2011-01-04 21:20:51,450.2271844551035,2,14,0.5501165986061096,3.8561315536499023,9.92176972653186,10.624828765632833,39.90204699330539,38.307963487586754,0.0001295089750783,0.0995923578739166,0,0,0
3417,124990.287628733,2011-01-04 21:21:21,480.2422502645054,2,14,0.5501165986061096,3.860664367675781,9.926356189704338,10.624828765632833,39.91974378660496,38.307963487586754,9.713172767078504e-05,0.0995923578739166,0,0,0
3418,125020.302715244,2011-01-04 21:21:51,510.25733674542704,2,14,0.550297200679779,3.86519718170166,9.930942615449206,10.624828765632833,39.93746091206595,38.307963487586754,0.0001295089750783,0.0995923578739166,0,0,0
3419,125050.31784098776,2011-01-04 21:22:21,540.2724624992289,2,14,0.5499359965324402,3.869406223297119,9.935529019519493,10.624828765632833,39.95519813031076,38.307963487586754,9.713172767078504e-05,0.0995923578739166,0,0,0
3420,125080.3331118332,2011-01-04 21:22:51,570.2877333496562,2,14,0.550297200679779,3.873777151107788,9.940115460869396,10.624828765632833,39.97295528068285,38.307963487586754,9.713172767078504e-05,0.0995923578739166,0,0,0
3421,125110.34815641468,2011-01-04 21:23:22,600.3027779211264,2,14,0.550297200679779,3.877986192703247,9.94470187968005,10.624828765632833,39.99073166080392,38.307963487586754,9.713172767078504e-05,0.0995923578739166,0,0,0
3422,125140.36339232304,2011-01-04 21:23:52,630.3180138595422,2,14,0.5499359965324402,3.882033348083496,9.94928830726295,10.624828765632833,40.00852699221939,38.307963487586754,0.0001295089750783,0.0995923578739166,0,0,0
3423,125170.37840452883,2011-01-04 21:24:22,660.3330260352725,2,14,0.5501165986061096,3.885918617248535,9.953874754433716,10.624828765632833,40.02634089714353,38.307963487586754,9.713172767078504e-05,0.0995923578739166,0,0,0
3424,125200.39370081264,2011-01-04 21:24:52,690.3483223241001,2,14,0.5499359965324402,3.889803886413574,9.958461291150158,10.624828765632833,40.04417299212314,38.307963487586754,9.713172767078504e-05,0.0995923578739166,0,0,0
3425,125230.40870277293,2011-01-04 21:25:22,720.3633242743452,2,14,0.5501165986061096,3.8935272693634033,9.963047769016432,10.624828765632833,40.06202205257089,38.307963487586754,9.713172767078504e-05,0.0995923578739166,0,0,0
3426,125260.4238321257,2011-01-04 21:25:52,750.3784536371419,2,14,0.550297200679779,3.896926879882813,9.967634792579892,10.624828765632833,40.07988947722783,38.307963487586754,6.47544875391759e-05,0.0995923578739166,0,0,0
3427,125290.4389718493,2011-01-04 21:26:22,780.3935933607607,2,14,0.5501165986061096,3.9003264904022217,9.972222041136613,10.624828765632833,40.09777342349739,38.307963487586754,9.713172767078504e-05,0.0995923578739166,0,0,0
3428,125320.45424354685,2011-01-04 21:26:52,810.4088650633117,2,14,0.550297200679779,3.903564214706421,9.976809209377816,10.624828765632833,40.11567205113074,38.307963487586754,9.713172767078504e-05,0.0995923578739166,0,0,0
3429,125350.46947533994,2011-01-04 21:27:22,840.4240968513834,2,14,0.550297200679779,3.90664005279541,9.9813964459907,10.624828765632833,40.13358511859941,38.307963487586754,0.0001295089750783,0.0995923578739166,0,0,0
3430,125380.48454476334,2011-01-04 21:27:52,870.4391662798049,2,14,0.5501165986061096,3.90939211845398,9.985983091397928,10.624828765632833,40.15150929583896,38.307963487586754,9.713172767078504e-05,0.0995923578739166,0,0,0
3431,125410.49957450284,2011-01-04 21:28:22,900.4541960142972,2,14,0.5501165986061096,3.911982297897339,9.990569569625515,10.624828765632833,40.1694456389772,38.307963487586754,6.47544875391759e-05,0.0995923578739166,0,0,0
3432,125440.51469917396,2011-01-04 21:28:52,930.4693206854004,2,14,0.550297200679779,3.914734125137329,9.995156010358585,10.624828765632833,40.18739407488636,38.307963487586754,9.713172767078504e-05,0.0995923578739166,0,0,0
3433,125470.5298529576,2011-01-04 21:29:22,960.4844744690614,2,14,0.5501165986061096,3.9171624183654794,9.999742433604602,10.624828765632833,40.205354057601646,38.307963487586754,6.47544875391759e-05,0.0995923578739166,0,0,0
3434,125500.54487698789,2011-01-04 21:29:52,990.4994984993368,2,14,0.5499359965324402,3.919428825378418,10.004328814247303,10.624828765632833,40.22332514750919,38.307963487586754,3.237724376958795e-05,0.0995923578739166,0,0,0
3435,125530.56008919216,2011-01-04 21:30:22,1020.5147107136248,2,14,0.5499359965324402,3.921857118606568,10.008914721716682,10.624828765632833,40.24130521866729,38.307963487586754,3.237724376958795e-05,0.0995923578739166,0,0,0
3436,125560.57515049532,2011-01-04 21:30:52,1050.5297720218082,2,14,0.5499359965324402,3.924123525619507,10.013500344761502,10.624828765632833,40.259294789568415,38.307963487586754,6.47544875391759e-05,0.0995923578739166,0,0,0
3437,125590.59287311132,2011-01-04 21:31:22,1080.5474947079645,2,14,0.5499359965324402,3.926551818847656,10.01808655964122,10.624828765632833,40.27729714661785,38.307963487586754,9.713172767078504e-05,0.0995923578739166,0,0,0
3438,125620.60571790024,2011-01-04 21:31:52,1110.5603394217126,2,14,0.5499359965324402,3.928494453430176,10.022671846626569,10.624828765632833,40.29530609398032,38.307963487586754,3.237724376958795e-05,0.0995923578739166,0,0,0
3439,125650.62084553372,2011-01-04 21:32:22,1140.5754670551992,2,14,0.5499359965324402,3.930922746658325,10.027257485246944,10.624828765632833,40.313326575717326,38.307963487586754,6.47544875391759e-05,0.0995923578739166,0,0,0
3440,125680.63602121695,2011-01-04 21:32:52,1170.5906427234029,2,14,0.5501165986061096,3.933027267456055,10.031843206696871,10.624828765632833,40.331357337103135,38.307963487586754,3.237724376958795e-05,0.0995923578739166,0,0,0
3441,125710.65101974868,2011-01-04 21:33:22,1200.605641255128,2,14,0.5501165986061096,3.935293674468994,10.036429220732352,10.624828765632833,40.349399273525336,38.307963487586754,9.713172767078504e-05,0.0995923578739166,0,0,0
3442,125740.6663204836,2011-01-04 21:33:52,1230.620942025124,2,14,0.5501165986061096,3.9372363090515137,10.041015822868443,10.624828765632833,40.367453385408346,38.307963487586754,3.237724376958795e-05,0.0995923578739166,0,0,0
3443,125770.68131432864,2011-01-04 21:34:22,1260.6359358400937,2,14,0.5501165986061096,3.939502716064453,10.045602319544066,10.624828765632833,40.3855168803648,38.307963487586754,6.47544875391759e-05,0.0995923578739166,0,0,0
3444,125800.6965736754,2011-01-04 21:34:52,1290.6511952119126,2,14,0.5499359965324402,3.9414453506469727,10.050188868162213,10.624828765632833,40.40359036884592,38.307963487586754,3.237724376958795e-05,0.0995923578739166,0,0,0
3445,125830.71161518926,2011-01-04 21:35:22,1320.6662366906753,2,14,0.5501165986061096,3.943549871444702,10.054775351338249,10.624828765632833,40.42167321943824,38.307963487586754,3.237724376958795e-05,0.0995923578739166,0,0,0
3446,125860.72673548444,2011-01-04 21:35:52,1350.6813570159472,2,14,0.5499359965324402,3.9458162784576416,10.059361912195277,10.624828765632833,40.43976600931544,38.307963487586754,6.47544875391759e-05,0.0995923578739166,0,0,0
3447,125890.74188345864,2011-01-04 21:36:22,1380.6965049600542,2,14,0.5499359965324402,3.947758913040161,10.063948447975688,10.624828765632833,40.45786820169919,38.307963487586754,3.237724376958795e-05,0.0995923578739166,0,0,0
3448,125920.75704240016,2011-01-04 21:36:52,1410.71166390157,2,14,0.5501165986061096,3.94986343383789,10.068535033671182,10.624828765632833,40.47598015976474,38.307963487586754,3.237724376958795e-05,0.0995923578739166,0,0,0
3449,125950.7721955021,2011-01-04 21:37:22,1440.7268169985196,2,14,0.5501165986061096,3.95196795463562,10.073121513448902,10.624828765632833,40.494101183164105,38.307963487586754,3.237724376958795e-05,0.0995923578739166,0,0,0
3450,125980.78733262925,2011-01-04 21:37:52,1470.741954135692,2,14,0.5501165986061096,3.9540724754333496,10.077708108252564,10.624828765632833,40.512232148569325,38.307963487586754,6.47544875391759e-05,0.0995923578739166,0,0,0
3451,126010.80260460248,2011-01-04 21:38:22,1500.757226144005,2,14,0.5501165986061096,3.956015110015869,10.082294648253818,10.624828765632833,40.53037231467193,38.307963487586754,3.237724376958795e-05,0.0995923578739166,0,0,0
3452,126040.81763632694,2011-01-04 21:38:52,1530.7722578283567,2,14,0.5501165986061096,3.958119630813599,10.086881205650872,10.624828765632833,40.54852186814996,38.307963487586754,6.47544875391759e-05,0.0995923578739166,0,0,0
3453,126070.83291217985,2011-01-04 21:39:22,1560.7875337063142,2,14,0.5501165986061096,3.960224151611328,10.09146778034845,10.624828765632833,40.56668081948471,38.307963487586754,6.47544875391759e-05,0.0995923578739166,0,0,0
3454,126100.84807737192,2011-01-04 21:39:52,1590.8026989034208,2,14,0.5501165986061096,3.962166786193848,10.09605430444996,10.624828765632833,40.58484894391096,38.307963487586754,6.47544875391759e-05,0.0995923578739166,0,0,0
3455,126130.86318816344,2011-01-04 21:40:22,1620.8178096849072,2,14,0.5501165986061096,3.964109420776367,10.100640811798431,10.624828765632833,40.60302619787353,38.307963487586754,3.237724376958795e-05,0.0995923578739166,0,0,0
3456,126160.87822048938,2011-01-04 21:40:52,1650.832842000833,2,14,0.550297200679779,3.9662139415740967,10.105227291966896,10.624828765632833,40.621212596747306,38.307963487586754,3.237724376958795e-05,0.0995923578739166,0,0,0
3457,126190.8933757016,2011-01-04 21:41:22,1680.8479972030293,2,14,0.5501165986061096,3.968318462371826,10.109813822104543,10.624828765632833,40.63940838499109,38.307963487586754,9.713172767078504e-05,0.0995923578739166,0,0,0
3458,126220.90873364912,2011-01-04 21:41:52,1710.863355180604,2,14,0.5501165986061096,3.9702610969543457,10.114400434644066,10.624828765632833,40.6576136833499,38.307963487586754,3.237724376958795e-05,0.0995923578739166,0,0,0
3459,126250.92367876269,2011-01-04 21:42:22,1740.8783002891823,2,14,0.550297200679779,3.972365617752075,10.11898696492744,10.624828765632833,40.67582780691128,38.307963487586754,6.47544875391759e-05,0.0995923578739166,0,0,0
3460,126280.93880376464,2011-01-04 21:42:52,1770.89342527106,2,14,0.5501165986061096,3.973984479904175,10.123573535077336,10.624828765632833,40.694051151679545,38.307963487586754,3.237724376958795e-05,0.0995923578739166,0,0,0
3461,126310.95416533116,2011-01-04 21:43:22,1800.908786832567,2,14,0.5499359965324402,3.976089000701904,10.128160184703647,10.624828765632833,40.71228399326782,38.307963487586754,0.0,0.0995923578739166,0,0,0
3462,126340.9692300328,2011-01-04 21:43:52,1830.923851569296,2,14,0.5499359965324402,3.977869749069214,10.132746832100056,10.624828765632833,40.730525817325606,38.307963487586754,3.237724376958795e-05,0.0995923578739166,0,0,0
3463,126370.98425324602,2011-01-04 21:44:22,1860.93887475246,2,14,0.550297200679779,3.9802980422973633,10.137333294804831,10.624828765632833,40.74877602143064,38.307963487586754,3.237724376958795e-05,0.0995923578739166,0,0,0
3464,126400.99940119512,2011-01-04 21:44:52,1890.9540226965669,2,14,0.5499359965324402,3.982078790664673,10.141919810985408,10.624828765632833,40.76703576994096,38.307963487586754,3.237724376958795e-05,0.0995923578739166,0,0,0
3465,126431.0146918399,2011-01-04 21:45:22,1920.9693133764151,2,14,0.5499359965324402,3.9841833114624015,10.146506306799132,10.624828765632833,40.78530455216484,38.307963487586754,3.237724376958795e-05,0.0995923578739166,0,0,0
3466,126461.02977873686,2011-01-04 21:45:52,1950.984400333524,2,14,0.5499359965324402,3.986125946044922,10.151092778896974,10.624828765632833,40.80358240654458,38.307963487586754,3.237724376958795e-05,0.0995923578739166,0,0,0
3467,126491.04519683927,2011-01-04 21:46:22,1980.9998184509857,2,14,0.5501165986061096,3.9880685806274414,10.155679332809015,10.624828765632833,40.82186981981572,38.307963487586754,0.0,0.0995923578739166,0,0,0
3468,126521.06001147268,2011-01-04 21:46:52,2011.0146329741049,2,14,0.5501165986061096,3.990173101425171,10.160265699964356,10.624828765632833,40.84016560560071,38.307963487586754,3.237724376958795e-05,0.0995923578739166,0,0,0
3469,126551.0751641586,2011-01-04 21:47:22,2041.029785665042,2,14,0.5501165986061096,3.9921157360076895,10.164852145876017,10.624828765632833,40.85847104855421,38.307963487586754,3.237724376958795e-05,0.0995923578739166,0,0,0
3470,126581.09029975696,2011-01-04 21:47:52,2071.044921288442,2,14,0.5499359965324402,3.994220018386841,10.16943857319182,10.624828765632833,40.876785701577774,38.307963487586754,3.237724376958795e-05,0.0995923578739166,0,0,0
3471,126611.10545353558,2011-01-04 21:48:22,2101.060075062078,2,14,0.5501165986061096,3.9963245391845694,10.174024993150312,10.624828765632833,40.89510970507482,38.307963487586754,6.47544875391759e-05,0.0995923578739166,0,0,0
3472,126641.12060211628,2011-01-04 21:48:52,2131.0752236227213,2,14,0.5501165986061096,3.9984290599823,10.17861150023374,10.624828765632833,40.91344358216046,38.307963487586754,9.713172767078504e-05,0.0995923578739166,0,0,0
3473,126671.1379340235,2011-01-04 21:49:22,2161.092555549986,2,14,0.550297200679779,4.000533580780029,10.183198223503624,10.624828765632833,40.93178763383938,38.307963487586754,6.47544875391759e-05,0.0995923578739166,0,0,0
3474,126701.15094482618,2011-01-04 21:49:52,2191.1055664278665,2,14,0.5501165986061096,4.002476215362549,10.187784364087488,10.624828765632833,40.95013901396639,38.307963487586754,3.23295607813634e-05,0.0995923578739166,0,0,0
3475,126731.1660547756,2011-01-04 21:50:22,2221.120676307104,2,14,0.5499359965324402,4.004580974578857,10.192370810250948,10.624828765632833,40.968501204546,38.307963487586754,3.24249267578125e-05,0.0995923578739166,0,0,0
3476,126761.1811966596,2011-01-04 21:50:52,2251.135818161032,2,14,0.550297200679779,4.006847381591797,10.196957245287392,10.624828765632833,40.98687298669536,38.307963487586754,9.71794142969884e-05,0.0995923578739166,0,0,0
3477,126791.19815097074,2011-01-04 21:51:22,2281.1527725022365,2,14,0.5499359965324402,4.008790016174316,10.201544006533934,10.624828765632833,41.00525589544797,38.307963487586754,3.24249267578125e-05,0.0995923578739166,0,0,0
3478,126821.21148159052,2011-01-04 21:51:52,2311.1661031169992,2,14,0.5501165986061096,4.011218070983887,10.206130203438883,10.624828765632833,41.02364634035565,38.307963487586754,6.47544875391759e-05,0.0995923578739166,0,0,0
3479,126851.22663624134,2011-01-04 21:52:22,2341.181257767821,2,14,0.550297200679779,4.013322830200195,10.210716703494692,10.624828765632833,41.0420480478376,38.307963487586754,9.71794142969884e-05,0.0995923578739166,0,0,0
3480,126881.24181811,2011-01-04 21:52:52,2371.1964396364788,2,14,0.5501165986061096,4.015427112579346,10.215303161345656,10.624828765632833,41.060459657702616,38.307963487586754,3.23295607813634e-05,0.0995923578739166,0,0,0
3481,126911.25695184368,2011-01-04 21:53:22,2401.211573370169,2,14,0.5501165986061096,4.017855644226074,10.219889678447514,10.624828765632833,41.07888175026505,38.307963487586754,9.71794142969884e-05,0.0995923578739166,0,0,0
3482,126941.27208263504,2011-01-04 21:53:52,2431.2267041314503,2,14,0.5501165986061096,4.019959926605225,10.224476164312737,10.624828765632833,41.09731395423873,38.307963487586754,6.47544875391759e-05,0.0995923578739166,0,0,0
3483,126971.287246168,2011-01-04 21:54:22,2461.2418676744346,2,14,0.5501165986061096,4.022226333618164,10.229062618030042,10.624828765632833,41.11575649680511,38.307963487586754,9.70840483205393e-05,0.0995923578739166,0,0,0
3484,127001.30239467853,2011-01-04 21:54:52,2491.257016210016,2,14,0.5501165986061096,4.024492740631104,10.2336490575265,10.624828765632833,41.13420955774572,38.307963487586754,3.23295607813634e-05,0.0995923578739166,0,0,0
3485,127031.31755144964,2011-01-04 21:55:23,2521.2721729761097,2,14,0.5501165986061096,4.026921272277832,10.238235522351498,10.624828765632833,41.15267337616622,38.307963487586754,3.24249267578125e-05,0.0995923578739166,0,0,0
3486,127061.33269774464,2011-01-04 21:55:53,2551.2873192711063,2,14,0.5499359965324402,4.029187679290772,10.24282200050074,10.624828765632833,41.17114804070805,38.307963487586754,3.24249267578125e-05,0.0995923578739166,0,0,0
3487,127091.3479022898,2011-01-04 21:56:23,2581.302523826306,2,14,0.5499359965324402,4.031454086303711,10.247408451957622,10.624828765632833,41.1896334179875,38.307963487586754,0.0,0.0995923578739166,0,0,0
3488,127121.36352906228,2011-01-04 21:56:53,2611.31815057875,2,14,0.5499359965324402,4.03404426574707,10.251994934601935,10.624828765632833,41.2081299805931,38.307963487586754,6.47544875391759e-05,0.0995923578739166,0,0,0
3489,127151.37817318572,2011-01-04 21:57:23,2641.3327946821305,2,14,0.5499359965324402,4.036472320556641,10.256581349758104,10.624828765632833,41.22663736556862,38.307963487586754,3.24249267578125e-05,0.0995923578739166,0,0,0
3490,127181.39342113907,2011-01-04 21:57:53,2671.3480426555416,2,14,0.5501165986061096,4.038900375366211,10.2611678348148,10.624828765632833,41.245156279742815,38.307963487586754,6.47544875391759e-05,0.0995923578739166,0,0,0
3491,127211.40844562047,2011-01-04 21:58:23,2701.363067121904,2,14,0.5501165986061096,4.04149055480957,10.265754337473526,10.624828765632833,41.26368658827148,38.307963487586754,6.47544875391759e-05,0.0995923578739166,0,0,0
3492,127241.42360305323,2011-01-04 21:58:53,2731.3782245546595,2,14,0.5501165986061096,4.043919086456299,10.270340817125245,10.624828765632833,41.28222836982925,38.307963487586754,6.47544875391759e-05,0.0995923578739166,0,0,0
3493,127271.43896280022,2011-01-04 21:59:23,2761.393584296632,2,14,0.5499359965324402,4.046509265899658,10.274927352067778,10.624828765632833,41.30078200756543,38.307963487586754,9.71794142969884e-05,0.0995923578739166,0,0,0
3494,127301.45408947632,2011-01-04 21:59:53,2791.408711002807,2,14,0.5501165986061096,4.049099445343018,10.279513747715516,10.624828765632833,41.31934686221649,38.307963487586754,6.47544875391759e-05,0.0995923578739166,0,0,0
3495,127331.4690287253,2011-01-04 22:00:23,2821.4236502567937,2,14,0.5501165986061096,4.051689624786377,10.28410013131658,10.624828765632833,41.33792352234279,38.307963487586754,3.24249267578125e-05,0.0995923578739166,0,0,0
3496,127361.48418161672,2011-01-04 22:00:53,2851.4388031131434,2,14,0.5501165986061096,4.054279804229736,10.288686554795598,10.624828765632833,41.35651235110543,38.307963487586754,6.47544875391759e-05,0.0995923578739166,0,0,0
3497,127391.49934153567,2011-01-04 22:01:23,2881.4539630621703,2,14,0.5499359965324402,4.056869983673096,10.293272969202478,10.624828765632833,41.3751132330016,38.307963487586754,3.24249267578125e-05,0.0995923578739166,0,0,0
3498,127421.51443021708,2011-01-04 22:01:53,2911.4690517485888,2,14,0.550297200679779,4.059621810913086,10.29785944845514,10.624828765632833,41.39372664627224,38.307963487586754,6.47544875391759e-05,0.0995923578739166,0,0,0
3499,127451.5297444757,2011-01-04 22:02:23,2941.484366007203,2,14,0.5501165986061096,4.062374114990234,10.302445995538529,10.624828765632833,41.41235234371397,38.307963487586754,9.71794142969884e-05,0.0995923578739166,0,0,0
3500,127481.5448329967,2011-01-04 22:02:53,2971.499454528209,2,14,0.550297200679779,4.065125942230225,10.307032470502635,10.624828765632833,41.43099026467112,38.307963487586754,9.70840483205393e-05,0.0995923578739166,0,0,0
3501,127511.56215908442,2011-01-04 22:03:23,3001.5167806008826,2,14,0.5499359965324402,4.067716121673584,10.311619255711378,10.624828765632833,41.449642029253184,38.307963487586754,6.47544875391759e-05,0.0995923578739166,0,0,0
3502,127541.57512888491,2011-01-04 22:03:53,3031.5297503963725,2,14,0.5501165986061096,4.070630073547363,10.31620535842356,10.624828765632833,41.46830379757623,38.307963487586754,9.70840483205393e-05,0.0995923578739166,0,0,0
3503,127571.59026078404,2011-01-04 22:04:23,3061.54488231554,2,14,0.5501165986061096,4.073544025421143,10.320791724918632,10.624828765632833,41.48697942275764,38.307963487586754,9.70840483205393e-05,0.0995923578739166,0,0,0
3504,127601.60541586594,2011-01-04 22:04:53,3091.5600373974366,2,14,0.5501165986061096,4.076296329498291,10.32537814413424,10.624828765632833,41.50566831885971,38.307963487586754,6.47544875391759e-05,0.0995923578739166,0,0,0
3505,127631.62059002038,2011-01-04 22:05:23,3121.575211551868,2,14,0.550297200679779,4.07921028137207,10.329964601982486,10.624828765632833,41.52437047709194,38.307963487586754,9.71794142969884e-05,0.0995923578739166,0,0,0
3506,127661.63581665058,2011-01-04 22:05:53,3151.5904381570226,2,14,0.5501165986061096,4.08212423324585,10.334551130544863,10.624828765632833,41.54308607964947,38.307963487586754,9.71794142969884e-05,0.0995923578739166,0,0,0
3507,127691.65086547768,2011-01-04 22:06:23,3181.6054869840987,2,14,0.5501165986061096,4.08487606048584,10.339137591391133,10.624828765632833,41.56181464481893,38.307963487586754,9.70840483205393e-05,0.0995923578739166,0,0,0
3508,127721.66603569228,2011-01-04 22:06:53,3211.620657213748,2,14,0.550297200679779,4.087790012359619,10.343724101546323,10.624828765632833,41.58055681377997,38.307963487586754,6.47544875391759e-05,0.0995923578739166,0,0,0
3509,127751.68118101484,2011-01-04 22:07:23,3241.6358025413338,2,14,0.5501165986061096,4.090866088867188,10.348310606291172,10.624828765632833,41.59931244759888,38.307963487586754,9.71794142969884e-05,0.0995923578739166,0,0,0
3510,127781.69631058816,2011-01-04 22:07:53,3271.650932114655,2,14,0.5499359965324402,4.093617916107178,10.352897098173807,10.624828765632833,41.61808168060188,38.307963487586754,6.47544875391759e-05,0.0995923578739166,0,0,0
3511,127811.71146147962,2011-01-04 22:08:23,3301.666082981045,2,14,0.5499359965324402,4.096855640411377,10.357483575666617,10.624828765632833,41.63686474681862,38.307963487586754,9.70840483205393e-05,0.0995923578739166,0,0,0
3512,127841.72663526313,2011-01-04 22:08:53,3331.681256804652,2,14,0.550297200679779,4.100093364715576,10.362070087702836,10.624828765632833,41.65566198034379,38.307963487586754,0.0001295089750783,0.0995923578739166,0,0,0
3513,127871.74178161829,2011-01-04 22:09:23,3361.696403144761,2,14,0.5501165986061096,4.102845668792725,10.366656604656846,10.624828765632833,41.67447327617518,38.307963487586754,3.24249267578125e-05,0.0995923578739166,0,0,0
3514,127901.75696057468,2011-01-04 22:09:53,3391.71158210116,2,14,0.5501165986061096,4.106083393096924,10.371243110169216,10.624828765632833,41.69329882442872,38.307963487586754,6.47544875391759e-05,0.0995923578739166,0,0,0
3515,127931.7721392604,2011-01-04 22:10:23,3421.7267607969093,2,14,0.5501165986061096,4.109321117401123,10.375829539815264,10.624828765632833,41.71213835085492,38.307963487586754,9.71794142969884e-05,0.0995923578739166,0,0,0
3516,127961.78723730012,2011-01-04 22:10:53,3451.741858826614,2,14,0.5501165986061096,4.112558841705322,10.380416015516223,10.624828765632833,41.7309926495336,38.307963487586754,9.71794142969884e-05,0.0995923578739166,0,0,0
3517,127991.80239696846,2011-01-04 22:11:23,3481.7570184949413,2,14,0.550297200679779,4.115796089172363,10.385002481630387,10.624828765632833,41.74986150546706,38.307963487586754,0.0001618385285837,0.0995923578739166,0,0,0
3518,128021.81765910216,2011-01-04 22:11:53,3511.772280608594,2,14,0.5501165986061096,4.118872165679932,10.389588946832871,10.624828765632833,41.76874517987452,38.307963487586754,9.71794142969884e-05,0.0995923578739166,0,0,0
3519,128051.83268194448,2011-01-04 22:12:23,3541.7873034709587,2,14,0.550297200679779,4.122109889984131,10.394175426346846,10.624828765632833,41.78764379376226,38.307963487586754,6.47544875391759e-05,0.0995923578739166,0,0,0
3520,128081.84787613383,2011-01-04 22:12:53,3571.8024976603224,2,14,0.5501165986061096,4.12534761428833,10.398761922306925,10.624828765632833,41.80655746718824,38.307963487586754,6.47544875391759e-05,0.0995923578739166,0,0,0
3521,128111.86302813306,2011-01-04 22:13:23,3601.817649659536,2,14,0.5499359965324402,4.128585338592529,10.403348415304947,10.624828765632833,41.82548627948618,38.307963487586754,9.71794142969884e-05,0.0995923578739166,0,0,0
3522,128141.87843926813,2011-01-04 22:13:53,3631.833060784571,2,14,0.5501165986061096,4.132146835327148,10.407934896152206,10.624828765632833,41.84443041789008,38.307963487586754,9.71794142969884e-05,0.0995923578739166,0,0,0
3523,128171.89342492272,2011-01-04 22:14:23,3661.8480464692766,2,14,0.5499359965324402,4.1355462074279785,10.412521387331472,10.624828765632833,41.86339003064283,38.307963487586754,0.0001295089750783,0.0995923578739166,0,0,0
3524,128201.90844808586,2011-01-04 22:14:53,3691.863069612341,2,14,0.550297200679779,4.138946056365967,10.417107809465367,10.624828765632833,41.88236487647944,38.307963487586754,0.0001295089750783,0.0995923578739166,0,0,0
3525,128231.923952338,2011-01-04 22:15:23,3721.878573854453,2,14,0.5501165986061096,4.142345428466797,10.421694418610045,10.624828765632833,41.90135614644744,38.307963487586754,0.0001295089750783,0.0995923578739166,0,0,0
3526,128261.93888528126,2011-01-04 22:15:53,3751.8935067977113,2,14,0.550297200679779,4.145906925201416,10.42628085733269,10.624828765632833,41.92036259692103,38.307963487586754,9.70840483205393e-05,0.0995923578739166,0,0,0
3527,128291.9539109105,2011-01-04 22:16:23,3781.9085324369967,2,14,0.550297200679779,4.149468421936035,10.430867312119677,10.624828765632833,41.939385334218606,38.307963487586754,9.70840483205393e-05,0.0995923578739166,0,0,0
3528,128321.96919368564,2011-01-04 22:16:53,3811.923815197106,2,14,0.5501165986061096,4.152868270874023,10.435453762469518,10.624828765632833,41.95842411265647,38.307963487586754,6.47544875391759e-05,0.0995923578739166,0,0,0
3529,128351.98423712431,2011-01-04 22:17:23,3841.9388586457785,2,14,0.5499359965324402,4.156105995178223,10.44004017593134,10.624828765632833,41.97747879756461,38.307963487586754,3.24249267578125e-05,0.0995923578739166,0,0,0
3530,128381.99949218538,2011-01-04 22:17:53,3871.9541137068554,2,14,0.5501165986061096,4.159829139709473,10.444626637961496,10.624828765632833,41.99654989411556,38.307963487586754,6.47544875391759e-05,0.0995923578739166,0,0,0
3531,128412.01452351383,2011-01-04 22:18:23,3901.969145040331,2,14,0.5501165986061096,4.163552761077881,10.44921311983892,10.624828765632833,42.015637479423305,38.307963487586754,0.0001295089750783,0.0995923578739166,0,0,0
3532,128442.02961173913,2011-01-04 22:18:53,3931.9842333558254,2,14,0.550297200679779,4.1671142578125,10.453799522233338,10.624828765632833,42.03474114561481,38.307963487586754,9.71794142969884e-05,0.0995923578739166,0,0,0
3533,128472.04482637443,2011-01-04 22:19:23,3961.999447875859,2,14,0.5501165986061096,4.17083740234375,10.458385988617984,10.624828765632833,42.053861746829554,38.307963487586754,0.0001295089750783,0.0995923578739166,0,0,0
3534,128502.05991170248,2011-01-04 22:19:53,3992.014533208921,2,14,0.5499359965324402,4.174237251281738,10.462972460367792,10.624828765632833,42.07299919693335,38.307963487586754,6.47544875391759e-05,0.0995923578739166,0,0,0
3535,128532.07520220189,2011-01-04 22:20:23,4022.0298237935312,2,14,0.550297200679779,4.178284168243408,10.467558922592374,10.624828765632833,42.09215348735876,38.307963487586754,0.0001295089750783,0.0995923578739166,0,0,0
3536,128562.09033682276,2011-01-04 22:20:53,4052.044958344258,2,14,0.5501165986061096,4.181845664978027,10.47214538794103,10.624828765632833,42.11132485679348,38.307963487586754,9.70840483205393e-05,0.0995923578739166,0,0,0
3537,128592.10547843113,2011-01-04 22:21:23,4082.060099957587,2,14,0.5501165986061096,4.185569286346436,10.476731892945168,10.624828765632833,42.13051351310223,38.307963487586754,0.0001295089750783,0.0995923578739166,0,0,0
3538,128622.1071942432,2011-01-04 22:21:53,4112.061815789737,2,14,0.5501165986061096,4.1896162033081055,10.481316220977607,10.624828765632833,42.149710386632506,38.307963487586754,0.0001618385285837,0.0995923578739166,0,0,0
3539,128652.12021960216,2011-01-04 22:22:23,4142.074841148709,2,14,0.5499359965324402,4.193177700042725,10.485902318635407,10.624828765632833,42.1689320546076,38.307963487586754,9.70840483205393e-05,0.0995923578739166,0,0,0
3540,128682.13530603296,2011-01-04 22:22:53,4172.089927559456,2,14,0.5501165986061096,4.196900844573975,10.490488819365014,10.624828765632833,42.188172871924806,38.307963487586754,6.47544875391759e-05,0.0995923578739166,0,0,0
3541,128705.0880807299,2011-01-04 22:23:16,4195.042702261405,2,14,0.550297200679779,4.200138568878174,10.493996129321127,10.624828765632833,42.20289823090275,38.307963487586754,0.0001295089750783,0.0995923578739166,0,0,0
3542,128735.10310911835,2011-01-04 22:23:46,30.015293762531236,3,14,0.0,4.104464530944824,10.493996129321127,10.624828765632833,42.20289823090275,38.307963487586754,-0.0004532813909463,0.0995923578739166,0,0,0
3543,128765.11827074156,2011-01-04 22:24:16,60.03045539575557,3,14,0.0,4.092322826385498,10.493996129321127,10.624828765632833,42.20289823090275,38.307963487586754,-0.0002590179501567,0.0995923578739166,0,0,0
3544,128795.13327280208,2011-01-04 22:24:46,90.04545745627564,3,14,0.0,4.08487606048584,10.493996129321127,10.624828765632833,42.20289823090275,38.307963487586754,-0.0001942634553415,0.0995923578739166,0,0,0
3545,128825.10156355868,2011-01-04 22:25:16,120.01374821786608,3,14,0.0,4.080343246459961,10.493996129321127,10.624828765632833,42.20289823090275,38.307963487586754,-6.47544875391759e-05,0.0995923578739166,0,0,0
3546,128825.10319081454,2011-01-04 22:25:17,2.636571147e-06,4,14,1.024396538734436,4.199976921081543,10.493996130071377,10.624828765632833,42.20289823405378,38.307963487586754,0.0,0.0995923578739166,0,0,0
3547,128825.66568296809,2011-01-04 22:25:17,0.562494830192171,4,14,0.973284125328064,4.199653148651123,10.49415065385965,10.624828765632833,42.20354719915655,38.307963487586754,-6.47544875391759e-05,0.0995923578739166,0,0,0
3548,128827.40014690088,2011-01-04 22:25:19,2.296958783043894,4,14,0.9230747818946838,4.199814796447754,10.494606332792353,10.624828765632833,42.20546095460737,38.307963487586754,-3.24249267578125e-05,0.0995923578739166,0,0,0
3549,128830.11909269037,2011-01-04 22:25:22,5.015904572550048,4,14,0.8725041747093201,4.199814796447754,10.49528323731772,10.624828765632833,42.208303812531504,38.307963487586754,0.0,0.0995923578739166,0,0,0
3550,128833.85304870768,2011-01-04 22:25:25,8.749860544742281,4,14,0.8222947716712952,4.199814796447754,10.496161243735765,10.624828765632833,42.2119912709125,38.307963487586754,-3.24249267578125e-05,0.0995923578739166,0,0,0
3551,128838.88421861111,2011-01-04 22:25:30,13.781030473256424,4,14,0.7722660303115845,4.199653148651123,10.497274257230895,10.624828765632833,42.216665708496905,38.307963487586754,-3.23295607813634e-05,0.0995923578739166,0,0,0
3552,128845.3061300554,2011-01-04 22:25:37,20.20294193759832,4,14,0.722237229347229,4.199814796447754,10.498605432417245,10.624828765632833,42.2222563713289,38.307963487586754,3.23295607813634e-05,0.0995923578739166,0,0,0
3553,128853.77483783595,2011-01-04 22:25:45,28.67164979834357,4,14,0.6722084879875183,4.199814796447754,10.500243406244092,10.624828765632833,42.22913555184522,38.307963487586754,0.0,0.0995923578739166,0,0,0
3554,128865.47756129366,2011-01-04 22:25:57,40.374373160800765,4,14,0.6219990849494934,4.199814796447754,10.50234303251166,10.624828765632833,42.2379536007897,38.307963487586754,3.23295607813634e-05,0.0995923578739166,0,0,0
3555,128882.61813435072,2011-01-04 22:26:14,57.5149462078565,4,14,0.5719703435897827,4.199814796447754,10.505177438618231,10.624828765632833,42.24985760229684,38.307963487586754,-3.24249267578125e-05,0.0995923578739166,0,0,0
3556,128911.32060939008,2011-01-04 22:26:43,86.21742122713532,4,14,0.5219415426254272,4.199814796447754,10.509519654648695,10.624828765632833,42.26809409446351,38.307963487586754,0.0,0.0995923578739166,0,0,0
3557,128966.14799753128,2011-01-04 22:27:38,141.04480938839876,4,14,0.4719128012657165,4.199653148651123,10.517047458146072,10.624828765632833,42.29970965062811,38.307963487586754,-3.23295607813634e-05,0.0995923578739166,0,0,0
3558,129059.2089373725,2011-01-04 22:29:11,234.10574920956844,4,14,0.4218840301036834,4.199653148651123,10.528564126707852,10.624828765632833,42.34807769300564,38.307963487586754,-3.23295607813634e-05,0.0995923578739166,0,0,0
3559,129184.2850865011,2011-01-04 22:31:16,359.18189833816587,4,14,0.3718552589416504,4.199976921081543,10.542332337879134,10.624828765632833,42.40590165612826,38.307963487586754,6.47544875391759e-05,0.0995923578739166,0,0,0
3560,129332.76714817056,2011-01-04 22:33:44,507.6639600326969,4,14,0.3218264877796173,4.199814796447754,10.556623749540076,10.624828765632833,42.46592308708576,38.307963487586754,0.0,0.0995923578739166,0,0,0
3561,129513.8267855225,2011-01-04 22:36:45,688.7235973645857,4,14,0.2717977166175842,4.199814796447754,10.571537880517353,10.624828765632833,42.52855959770284,38.307963487586754,0.0,0.0995923578739166,0,0,0
3562,129740.85449879366,2011-01-04 22:40:32,915.7513106307258,4,14,0.2217689454555511,4.199814796447754,10.587060851209806,10.624828765632833,42.59375294811094,38.307963487586754,0.0,0.0995923578739166,0,0,0
3563,130030.80307259952,2011-01-04 22:45:22,1205.6998844365958,4,14,0.171740174293518,4.199814796447754,10.602839212768531,10.624828765632833,42.66001930492899,38.307963487586754,0.0,0.0995923578739166,0,0,0
3564,130445.796582702,2011-01-04 22:52:17,1620.693394539082,4,14,0.1217114105820655,4.199653148651123,10.619607127119131,10.624828765632833,42.7304415378732,38.307963487586754,-3.23295607813634e-05,0.0995923578739166,0,0,0
3565,131144.2388351905,2011-01-04 23:03:56,2319.135647027592,4,14,0.0715020298957824,4.199653148651123,10.637914362082554,10.624828765632833,42.80732855021667,38.307963487586754,-6.47544875391759e-05,0.0995923578739166,0,0,0
3566,131675.05870058428,2011-01-04 23:12:47,2849.9555124313674,4,14,0.0498289167881011,4.199814796447754,10.64682400305202,10.624828765632833,42.84474738445526,38.307963487586754,-3.24249267578125e-05,0.0995923578739166,0,0,0
3567,131705.0830976011,2011-01-04 23:13:17,30.017338553780192,5,14,0.0,4.190911293029785,10.64682400305202,10.624828765632833,42.84474738445526,38.307963487586754,-3.24249267578125e-05,0.0995923578739166,0,0,0
3568,131735.08260168592,2011-01-04 23:13:47,60.01684263857614,5,14,0.0,4.1896162033081055,10.64682400305202,10.624828765632833,42.84474738445526,38.307963487586754,0.0,0.0995923578739166,0,0,0
3569,131735.2763582783,2011-01-04 23:13:47,0.187912295258953,6,14,-1.9243103452026844e-05,4.189454555511475,10.64682400305202,10.624828766637282,42.84474738445526,38.30796349179485,0.0,0.10283113270998,0,0,0
3570,131740.103985205,2011-01-04 23:13:52,5.01553920193405,6,14,0.0007031940040178,4.1892924308776855,10.646824786311624,10.624828766802189,42.84475066600423,38.30796349248571,-6.47544875391759e-05,0.10283113270998,0,0,0
3571,131770.1272385677,2011-01-04 23:14:22,30.01517005922453,7,14,-1.0997490882873535,3.9921157360076895,10.646824786311624,10.633997816717043,42.84475066600423,38.34480088298321,-0.0011655330890789,0.10283113270998,0,0,0
3572,131800.14250782915,2011-01-04 23:14:52,60.03043932570407,7,14,-1.0997490882873535,3.9582815170288086,10.646824786311624,10.64316680951355,42.84475066600423,38.38124097026163,-0.0007446765666827,0.10283113270998,0,0,0
3573,131830.15754475156,2011-01-04 23:15:22,90.04547623808568,7,14,-1.099568486213684,3.933836698532105,10.646824786311624,10.6523356984686,42.84475066600423,38.41741551788292,-0.0005504131549969,0.10283113270998,0,0,0
3574,131860.17273104624,2011-01-04 23:15:52,120.06066253778648,7,14,-1.0997490882873535,3.915219783782959,10.646824786311624,10.661504690979449,42.84475066600423,38.45339639422128,-0.0004532813909463,0.10283113270998,0,0,0
3575,131890.18802865836,2011-01-04 23:16:22,150.07596017497454,7,14,-1.0997490882873535,3.899517059326172,10.646824786311624,10.670673664032254,42.84475066600423,38.48922143370044,-0.0004209041653666,0.10283113270998,0,0,0
3576,131920.20321944426,2011-01-04 23:16:52,180.0911509508313,7,14,-1.099568486213684,3.885756731033325,10.646824786311624,10.67984259244594,42.84475066600423,38.52491210547654,-0.0003561496851034,0.10283113270998,0,0,0
3577,131950.2181647884,2011-01-04 23:17:22,210.1060962749468,7,14,-1.0997490882873535,3.8729677200317374,10.646824786311624,10.68901142303456,42.84475066600423,38.5604807535516,-0.0003237724304199,0.10283113270998,0,0,0
3578,131980.23331952444,2011-01-04 23:17:52,240.1212510210062,7,14,-1.0997490882873535,3.860664367675781,10.646824786311624,10.698180372542271,42.84475066600423,38.595935649126616,-0.0003561496851034,0.10283113270998,0,0,0
3579,132010.2488342527,2011-01-04 23:18:22,270.136765769302,7,14,-1.099568486213684,3.849170446395874,10.646824786311624,10.707349422761087,42.84475066600423,38.63128171712855,-0.0002913951757363,0.10283113270998,0,0,0
3580,132040.26379787244,2011-01-04 23:18:52,300.1517293789907,7,14,-1.099568486213684,3.8380002975463863,10.646824786311624,10.716518326913503,42.84475066600423,38.66652280734598,-0.0002913951757363,0.10283113270998,0,0,0
3581,132070.27883026353,2011-01-04 23:19:22,330.166761750054,7,14,-1.0997490882873535,3.8271541595458975,10.646824786311624,10.72568723320576,42.84475066600423,38.70166382910608,-0.0003237724304199,0.10283113270998,0,0,0
3582,132100.29398962107,2011-01-04 23:19:52,360.1819211126192,7,14,-1.099568486213684,3.816955327987671,10.646824786311624,10.734856246415042,42.84475066600423,38.736708441747886,-0.0002590179501567,0.10283113270998,0,0,0
3583,132130.30915461268,2011-01-04 23:20:22,390.1970861042135,7,14,-1.0997490882873535,3.8067564964294434,10.646824786311624,10.744025256557723,42.84475066600423,38.77165881432005,-0.0002913951757363,0.10283113270998,0,0,0
3584,132160.3243012686,2011-01-04 23:20:52,420.2122327651224,7,14,-1.0997490882873535,3.796881437301636,10.646824786311624,10.753194253608608,42.84475066600423,38.8065176363928,-0.0002913951757363,0.10283113270998,0,0,0
3585,132190.33947372378,2011-01-04 23:21:22,450.22740522533087,7,14,-1.0997490882873535,3.787330150604248,10.646824786311624,10.762363214631533,42.84475066600423,38.84128737202629,-0.0002590179501567,0.10283113270998,0,0,0
3586,132220.3547539676,2011-01-04 23:21:52,480.2426854892192,7,14,-1.0997490882873535,3.77810263633728,10.646824786311624,10.771532218595944,42.84475066600423,38.87597139316101,-0.0002266406954731,0.10283113270998,0,0,0
3587,132250.36980242375,2011-01-04 23:22:22,510.25773391529657,7,14,-1.0997490882873535,3.7690370082855225,10.646824786311624,10.78070122300173,42.84475066600423,38.910572096861216,-0.0002590179501567,0.10283113270998,0,0,0
3588,132280.38496568103,2011-01-04 23:22:52,540.2728971976311,7,14,-1.0997490882873535,3.7604570388793945,10.646824786311624,10.789870247278277,42.84475066600423,38.94509164584851,-0.0002590179501567,0.10283113270998,0,0,0
3589,132310.40012920395,2011-01-04 23:23:22,570.2880607907399,7,14,-1.0997490882873535,3.7518773078918457,10.646824786311624,10.799039311445537,42.84475066600423,38.97953212836286,-0.0002265930233988,0.10283113270998,0,0,0
3590,132340.41528721317,2011-01-04 23:23:52,600.3032187046948,7,14,-1.099568486213684,3.743782997131348,10.646824786311624,10.808208275291763,42.84475066600423,39.01389520266409,-0.0001618862152099,0.10283113270998,0,0,0
3591,132370.4326254762,2011-01-04 23:24:22,630.3205570730127,7,14,-1.099568486213684,3.7356886863708496,10.646824786311624,10.817377939561,42.84475066600423,39.04818647044482,-0.0002266406954731,0.10283113270998,0,0,0
3592,132400.44561032925,2011-01-04 23:24:52,660.3335418207687,7,14,-1.0997490882873535,3.727918148040772,10.646824786311624,10.826546334417351,42.84475066600423,39.08240071173943,-0.0001942634553415,0.10283113270998,0,0,0
3593,132430.46078671922,2011-01-04 23:25:22,690.348718215784,7,14,-1.0997490882873535,3.7203094959259033,10.646824786311624,10.83571525736206,42.84475066600423,39.11654647688445,-0.0001942634553415,0.10283113270998,0,0,0
3594,132460.47593273854,2011-01-04 23:25:52,720.363864230081,7,14,-1.099568486213684,3.712862730026245,10.646824786311624,10.844884234527685,42.84475066600423,39.1506228168279,-0.0001618862152099,0.10283113270998,0,0,0
3595,132490.49283584708,2011-01-04 23:26:22,750.3807673636602,7,14,-1.0997490882873535,3.705415964126587,10.646824786311624,10.854053750648232,42.84475066600423,39.18463287588894,-0.0001942634553415,0.10283113270998,0,0,0
3596,132520.50625358397,2011-01-04 23:26:52,780.3941850805084,7,14,-1.0997490882873535,3.6981310844421382,10.646824786311624,10.86322227648198,42.84475066600423,39.218572468888944,-0.0001618862152099,0.10283113270998,0,0,0
3597,132550.52141575853,2011-01-04 23:27:22,810.4093472550819,7,14,-1.099568486213684,3.691008090972901,10.646824786311624,10.872391330215972,42.84475066600423,39.25244854040007,-0.0001618862152099,0.10283113270998,0,0,0
3598,132580.5367178418,2011-01-04 23:27:52,840.424649358401,7,14,-1.0997490882873535,3.684046983718872,10.646824786311624,10.881560382199684,42.84475066600423,39.28625996052462,-0.0001942634553415,0.10283113270998,0,0,0
3599,132610.55176640322,2011-01-04 23:28:22,870.4396978947531,7,14,-1.0997490882873535,3.6772477626800537,10.646824786311624,10.89072937767974,42.84475066600423,39.32000807237512,-0.0001942634553415,0.10283113270998,0,0,0
3600,132640.56690873334,2011-01-04 23:28:52,900.4548402298807,7,14,-1.099568486213684,3.670610666275024,10.646824786311624,10.899898434401845,42.84475066600423,39.353694677594,-0.0001942634553415,0.10283113270998,0,0,0
3601,132670.58207501314,2011-01-04 23:29:22,930.4700065096856,7,14,-1.099568486213684,3.663973331451416,10.646824786311624,10.909067508208755,42.84475066600423,39.38732050151925,-0.0001942634553415,0.10283113270998,0,0,0
3602,132700.59726724762,2011-01-04 23:29:52,960.4851987642278,7,14,-1.0997490882873535,3.6574978828430176,10.646824786311624,10.918236556601812,42.84475066600423,39.42088679220898,-0.0001942634553415,0.10283113270998,0,0,0
3603,132730.61241735713,2011-01-04 23:30:23,990.5003488536814,7,14,-1.0997490882873535,3.651346206665039,10.646824786311624,10.92740558002298,42.84475066600423,39.45439477991549,-0.0001618862152099,0.10283113270998,0,0,0
3604,132760.62758089008,2011-01-04 23:30:53,1020.5155123866406,7,14,-1.0997490882873535,3.6450326442718506,10.646824786311624,10.936574637206558,42.84475066600423,39.48784570450496,-0.0001942634553415,0.10283113270998,0,0,0
3605,132790.6427317164,2011-01-04 23:31:23,1050.530663212931,7,14,-1.0997490882873535,3.639042854309082,10.646824786311624,10.9457436213375,42.84475066600423,39.521239855790256,-0.0001618862152099,0.10283113270998,0,0,0
3606,132820.65798940902,2011-01-04 23:31:53,1080.545921091027,7,14,-1.0997490882873535,3.6330530643463135,10.646824786311624,10.954912653534738,42.84475066600423,39.55457884053878,-0.0001618862152099,0.10283113270998,0,0,0
3607,132850.6730821405,2011-01-04 23:32:23,1110.5610136420771,7,14,-1.0997490882873535,3.627225160598755,10.646824786311624,10.964081710419933,42.84475066600423,39.58786363211123,-0.0001618862152099,0.10283113270998,0,0,0
3608,132880.68823598934,2011-01-04 23:32:53,1140.5761674909004,7,14,-1.0997490882873535,3.6215591430664062,10.646824786311624,10.973250747473124,42.84475066600423,39.62109522122628,-0.0001295089750783,0.10283113270998,0,0,0
3609,132910.70340882547,2011-01-04 23:33:23,1170.5913403220334,7,14,-1.0997490882873535,3.6158931255340576,10.646824786311624,10.982419845258647,42.84475066600423,39.65427505191228,-0.0001295089750783,0.10283113270998,0,0,0
3610,132940.71857620304,2011-01-04 23:33:53,1200.6065076995744,7,14,-1.0997490882873535,3.610388994216919,10.646824786311624,10.991588908767696,42.84475066600423,39.68740365443538,-0.0001295089750783,0.10283113270998,0,0,0
3611,132970.73395766414,2011-01-04 23:34:23,1230.62188916569,7,14,-1.0997490882873535,3.60488486289978,10.646824786311624,11.000758035118787,42.84475066600423,39.72048230896147,-0.0001618862152099,0.10283113270998,0,0,0
3612,133000.749025674,2011-01-04 23:34:53,1260.6369571856012,7,14,-1.0997490882873535,3.599704504013061,10.646824786311624,11.009927036940496,42.84475066600423,39.75351170360887,-0.0001295089750783,0.10283113270998,0,0,0
3613,133030.76405803507,2011-01-04 23:35:23,1290.6519895265894,7,14,-1.099929690361023,3.5945241451263428,10.646824786311624,11.019096050388034,42.84475066600423,39.78649359398936,-0.0001618862152099,0.10283113270998,0,0,0
3614,133060.7792308712,2011-01-04 23:35:53,1320.6671623627349,7,14,-1.099929690361023,3.589505910873413,10.646824786311624,11.028265153247531,42.84475066600423,39.81942968197061,-0.0001942634553415,0.10283113270998,0,0,0
3615,133090.7944146045,2011-01-04 23:36:23,1350.682346101052,7,14,-1.0997490882873535,3.5846493244171143,10.646824786311624,11.037434199636849,42.84475066600423,39.85232066822019,-0.0001618862152099,0.10283113270998,0,0,0
3616,133120.80957561618,2011-01-04 23:36:53,1380.697507132777,7,14,-1.0997490882873535,3.5799546241760254,10.646824786311624,11.046603654775446,42.84475066600423,39.885169001961344,-0.0001295089750783,0.10283113270998,0,0,0
3617,133150.8247678707,2011-01-04 23:37:23,1410.712699397344,7,14,-1.0997490882873535,3.5754218101501465,10.646824786311624,11.055773521067028,42.84475066600423,39.917976136178105,-0.0001295089750783,0.10283113270998,0,0,0
3618,133180.84007915691,2011-01-04 23:37:53,1440.7280106735248,7,14,-1.0997490882873535,3.570888996124268,10.646824786311624,11.064943028441524,42.84475066600423,39.95074052045267,-0.0001618862152099,0.10283113270998,0,0,0
3619,133210.8572839423,2011-01-04 23:38:23,1470.745215448888,7,14,-1.0997490882873535,3.5666799545288086,10.646824786311624,11.07411273703894,42.84475066600423,39.98346567366998,-6.47544875391759e-05,0.10283113270998,0,0,0
3620,133240.87025659994,2011-01-04 23:38:53,1500.758188091474,7,14,-1.0997490882873535,3.56263279914856,10.646824786311624,11.083281110547103,42.84475066600423,40.0161469203618,-6.47544875391759e-05,0.10283113270998,0,0,0
3621,133270.88542802757,2011-01-04 23:39:23,1530.7733595191091,7,14,-1.099929690361023,3.55826187133789,10.646824786311624,11.092450121559205,42.84475066600423,40.04879285401742,-0.0001295089750783,0.10283113270998,0,0,0
3622,133300.90072654196,2011-01-04 23:39:53,1560.7886580535337,7,14,-1.0993878841400146,3.554538488388061,10.646824786311624,11.10161923775213,42.84475066600423,40.08140161437196,-6.47544875391759e-05,0.10283113270998,0,0,0
3623,133330.9157972686,2011-01-04 23:40:23,1590.803728785203,7,14,-1.0997490882873535,3.5503294467926025,10.646824786311624,11.110788336036832,42.84475066600423,40.113973562199874,-0.0001295089750783,0.10283113270998,0,0,0
3624,133360.93093167897,2011-01-04 23:40:53,1620.8188631705175,7,14,-1.0997490882873535,3.546606063842773,10.646824786311624,11.119957428139552,42.84475066600423,40.14650961794668,-9.713172767078504e-05,0.10283113270998,0,0,0
3625,133390.94609367813,2011-01-04 23:41:23,1650.8340251746663,7,14,-1.099568486213684,3.5427207946777344,10.646824786311624,11.1291265413284,42.84475066600423,40.1790102006133,-6.47544875391759e-05,0.10283113270998,0,0,0
3626,133420.96129609298,2011-01-04 23:41:53,1680.849227589531,7,14,-1.099568486213684,3.5388355255126958,10.646824786311624,11.138295663990124,42.84475066600423,40.2114759132649,-9.713172767078504e-05,0.10283113270998,0,0,0
3627,133450.9764421925,2011-01-04 23:42:23,1710.8643736890403,7,14,-1.0997490882873535,3.534950256347656,10.646824786311624,11.147464787682791,42.84475066600423,40.24390695521576,-0.0001295089750783,0.10283113270998,0,0,0
3628,133480.9916060613,2011-01-04 23:42:53,1740.8795375478114,7,14,-1.0997490882873535,3.531064987182617,10.646824786311624,11.15663390579129,42.84475066600423,40.27630320290388,-0.0001942634553415,0.10283113270998,0,0,0
3629,133511.00677666688,2011-01-04 23:43:23,1770.89470815841,7,14,-1.0997490882873535,3.527665376663208,10.646824786311624,11.165803068370062,42.84475066600423,40.308664900129976,-6.47544875391759e-05,0.10283113270998,0,0,0
3630,133541.02196368837,2011-01-04 23:43:53,1800.9098952049724,7,14,-1.0997490882873535,3.523618221282959,10.646824786311624,11.174972264682424,42.84475066600423,40.34099197469575,-0.0001295089750783,0.10283113270998,0,0,0
3631,133571.03712605342,2011-01-04 23:44:23,1830.9250575449585,7,14,-1.0997490882873535,3.51973295211792,10.646824786311624,11.184141411602864,42.84475066600423,40.37328375967428,-0.0001295089750783,0.10283113270998,0,0,0
3632,133601.0522813208,2011-01-04 23:44:53,1860.9402128123168,7,14,-1.0997490882873535,3.516009569168091,10.646824786311624,11.193310547424735,42.84475066600423,40.40554013859175,-9.713172767078504e-05,0.10283113270998,0,0,0
3633,133631.06744823215,2011-01-04 23:45:23,1890.955379733721,7,14,-1.0997490882873535,3.512124300003052,10.646824786311624,11.202479775365454,42.84475066600423,40.43776107870805,-9.713172767078504e-05,0.10283113270998,0,0,0
3634,133661.08275356854,2011-01-04 23:45:53,1920.970685090148,7,14,-1.0997490882873535,3.508239269256592,10.646824786311624,11.211648961383656,42.84475066600423,40.46994560956236,-9.713172767078504e-05,0.10283113270998,0,0,0
3635,133691.09780071143,2011-01-04 23:46:23,1950.985732202952,7,14,-1.099929690361023,3.503868341445923,10.646824786311624,11.220818060475388,42.84475066600423,40.50209259868564,-0.0001295089750783,0.10283113270998,0,0,0
3636,133721.112982159,2011-01-04 23:46:53,1981.0009136756223,7,14,-1.099929690361023,3.499659299850464,10.646824786311624,11.229987295227051,42.84475066600423,40.53420185648815,-9.713172767078504e-05,0.10283113270998,0,0,0
3637,133751.1281227548,2011-01-04 23:47:23,2011.016054271415,7,14,-1.0997490882873535,3.495288372039795,10.646824786311624,11.23915618620794,42.84475066600423,40.56627054707226,-0.0001295089750783,0.10283113270998,0,0,0
3638,133781.14329109475,2011-01-04 23:47:53,2041.031222596317,7,14,-1.099568486213684,3.490755558013916,10.646824786311624,11.248325089125844,42.84475066600423,40.59829890570586,-0.0001295089750783,0.10283113270998,0,0,0
3639,133811.15846026177,2011-01-04 23:48:23,2071.046391758305,7,14,-1.0997490882873535,3.486222743988037,10.646824786311624,11.257494002723268,42.84475066600423,40.63028515103108,-9.713172767078504e-05,0.10283113270998,0,0,0
3640,133841.17393700033,2011-01-04 23:48:53,2101.061868526944,7,14,-1.099929690361023,3.4810423851013184,10.646824786311624,11.26666298389408,42.84475066600423,40.66222712931378,-0.0001618862152099,0.10283113270998,0,0,0
3641,133871.18879392912,2011-01-04 23:49:23,2131.0767254206635,7,14,-1.099929690361023,3.4757001399993896,10.646824786311624,11.275831954716752,42.84475066600423,40.6941209852409,-0.0001618862152099,0.10283113270998,0,0,0
3642,133901.2040949347,2011-01-04 23:49:53,2161.092026446297,7,14,-1.0997490882873535,3.470034122467041,10.646824786311624,11.285001107660744,42.84475066600423,40.725964423685255,-0.0001618862152099,0.10283113270998,0,0,0
3643,133931.21936177014,2011-01-04 23:50:23,2191.10729328673,7,14,-1.099568486213684,3.4635586738586426,10.646824786311624,11.294170317984912,42.84475066600423,40.75775260868522,-0.0001942634553415,0.10283113270998,0,0,0
3644,133961.23446862685,2011-01-04 23:50:53,2221.1224001484466,7,14,-1.0997490882873535,3.4565975666046143,10.646824786311624,11.303339410575688,42.84475066600423,40.78947910136806,-0.0001942634553415,0.10283113270998,0,0,0
3645,133991.249486201,2011-01-04 23:51:23,2251.137417697569,7,14,-1.0997490882873535,3.448665142059326,10.646824786311624,11.312508471544234,42.84475066600423,40.82113678619869,-0.0001942634553415,0.10283113270998,0,0,0
3646,134021.2647838382,2011-01-04 23:51:53,2281.1527153648326,7,14,-1.0997490882873535,3.4395995140075684,10.646824786311624,11.321677677232284,42.84475066600423,40.85271644060927,-0.0002266406954731,0.10283113270998,0,0,0
3647,134051.27984148226,2011-01-04 23:52:23,2311.167772978809,7,14,-1.099568486213684,3.42859148979187,10.646824786311624,11.330846792362504,42.84475066600423,40.88420500775495,-0.0003237724304199,0.10283113270998,0,0,0
3648,134081.29513887383,2011-01-04 23:52:53,2341.183070385422,7,14,-1.099568486213684,3.416126251220703,10.646824786311624,11.340015930348365,42.84475066600423,40.91558658990187,-0.0003237724304199,0.10283113270998,0,0,0
3649,134111.31019762566,2011-01-04 23:53:23,2371.198129127209,7,14,-1.099568486213684,3.400423288345337,10.646824786311624,11.349185023179308,42.84475066600423,40.94683913486728,-0.0004209041653666,0.10283113270998,0,0,0
3650,134141.3253554594,2011-01-04 23:53:53,2401.213286950939,7,14,-1.0993878841400146,3.381320714950561,10.646824786311624,11.358354111386186,42.84475066600423,40.97793392007975,-0.0005827903514727,0.10283113270998,0,0,0
3651,134171.3405492578,2011-01-04 23:54:23,2431.2284807844167,7,14,-1.0997490882873535,3.3571996688842773,10.646824786311624,11.367523260698526,42.84475066600423,41.00883188124814,-0.0007122993702068,0.10283113270998,0,0,0
3652,134201.35569809913,2011-01-04 23:54:53,2461.243629590672,7,14,-1.0997490882873535,3.326117753982544,10.646824786311624,11.376692427715232,42.84475066600423,41.03947858706911,-0.0009065627818927,0.10283113270998,0,0,0
3653,134231.3708805392,2011-01-04 23:55:23,2491.258812035766,7,14,-1.099568486213684,3.285484313964844,10.646824786311624,11.385861535688305,42.84475066600423,41.06979796943765,-0.0011979580158367,0.10283113270998,0,0,0
3654,134261.3860424682,2011-01-04 23:55:53,2521.273973964728,7,14,-1.0997490882873535,3.230767011642456,10.646824786311624,11.395030617646018,42.84475066600423,41.09968355433999,-0.0016188621520996,0.10283113270998,0,0,0
3655,134291.4034848357,2011-01-04 23:56:23,2551.291416517706,7,14,-1.099568486213684,3.1554901599884038,10.646824786311624,11.404200434711328,42.84475066600423,41.12898265947547,-0.0022987842094153,0.10283113270998,0,0,0
3656,134321.416396772,2011-01-04 23:56:53,2581.3043282635185,7,14,-1.099568486213684,3.046217203140259,10.646824786311624,11.413368917456744,42.84475066600423,41.15744558631098,-0.0034643649123609,0.10283113270998,0,0,0
3657,134351.4315637836,2011-01-04 23:57:23,2611.319495275148,7,14,-1.0997490882873535,2.86911416053772,10.646824786311624,11.42253806035955,42.84475066600423,41.184633762461466,-0.0057631493546068,0.10283113270998,0,0,0
3658,134371.8062941809,2011-01-04 23:57:44,2631.694225677458,7,14,-1.099929690361023,2.699943780899048,10.646824786311624,11.428762162598868,42.84475066600423,41.2019777092399,-0.006896304897964,0.10283113270998,0,0,0
3659,134431.8224289263,2011-01-04 23:58:44,60.01478181737561,8,14,0.0,3.482985019683838,10.646824786311624,11.428762162598868,42.84475066600423,41.2019777092399,0.0014245987404137,0.10283113270998,0,0,0
3660,134432.01229804492,2011-01-04 23:58:44,0.187650021592276,9,14,-1.9243103452026844e-05,3.482985019683838,10.646824790015772,11.428762162598868,42.844750678905726,41.2019777092399,0.0,0.0987826660275459,0,0,0
3661,134436.82465096412,2011-01-04 23:58:49,5.00000302600327,9,14,0.0001613661734154,3.491564989089966,10.646825509376754,11.428762162837089,42.8447531880188,41.20197771006995,0.0011979580158367,0.0987826660275459,0,0,0
