Data_Point,Test_Time(s),Date_Time,Step_Time(s),Step_Index,Cycle_Index,Current(A),Voltage(V),Charge_Capacity(Ah),Discharge_Capacity(Ah),Charge_Energy(Wh),Discharge_Energy(Wh),dV/dt(V/s),Internal_Resistance(Ohm),Is_FC_Data,AC_Impedance(Ohm),ACI_Phase_Angle(Deg)
3662,134466.8580024734,2011-01-04 23:59:19,30.015431936904285,1,15,0.0,3.528312921524048,10.646825509376754,11.428762162837089,42.8447531880188,41.20197771006995,0.0007770538213662,0.0987826660275459,0,0,0
3663,134496.8729011262,2011-01-04 23:59:49,60.03033058970048,1,15,0.0,3.552919626235962,10.646825509376754,11.428762162837089,42.8447531880188,41.20197771006995,0.0005827903514727,0.0987826660275459,0,0,0
3664,134526.88807627308,2011-01-05 00:00:19,90.0455057165551,1,15,0.0,3.571050882339477,10.646825509376754,11.428762162837089,42.8447531880188,41.20197771006995,0.0004532813909463,0.0987826660275459,0,0,0
3665,134556.85664816535,2011-01-05 00:00:49,120.01407773913446,1,15,0.0,3.585296869277954,10.646825509376754,11.428762162837089,42.8447531880188,41.20197771006995,0.0003237724304199,0.0987826660275459,0,0,0
3666,134586.87576947367,2011-01-05 00:01:19,30.015218514991208,2,15,0.5499359965324402,3.7198238372802734,10.651412005981946,11.428762162837089,42.86169887276339,41.20197771006995,0.0011008263099938,0.0987826660275459,0,0,0
3667,134616.89093172844,2011-01-05 00:01:49,60.03038077978963,2,15,0.5501165986061096,3.750744104385376,10.655998509716234,11.428762162837089,42.87883616504384,41.20197771006995,0.0006799221155233,0.0987826660275459,0,0,0
3668,134646.9061071711,2011-01-05 00:02:19,90.04555623746877,2,15,0.5501165986061096,3.770817756652832,10.660585024414054,11.428762162837089,42.89608892330054,41.20197771006995,0.0004209041653666,0.0987826660275459,0,0,0
3669,134676.92125890966,2011-01-05 00:02:49,120.06070795097013,2,15,0.5501165986061096,3.783768653869629,10.665171480918074,11.428762162837089,42.913416244222645,41.20197771006995,0.0002590179501567,0.0987826660275459,0,0,0
3670,134706.93644754516,2011-01-05 00:03:19,150.07589667671735,2,15,0.5501165986061096,3.7926723957061768,10.669757916613587,11.428762162837089,42.93079161055185,41.20197771006995,0.0002266406954731,0.0987826660275459,0,0,0
3671,134736.9516064516,2011-01-05 00:03:49,180.09105549793333,2,15,0.5501165986061096,3.799633502960205,10.674344394165097,11.428762162837089,42.9482026426908,41.20197771006995,0.0001618862152099,0.0987826660275459,0,0,0
3672,134766.9689872306,2011-01-05 00:04:19,210.108436472439,2,15,0.5499359965324402,3.805785179138184,10.678931167237833,11.428762162837089,42.965645089091765,41.20197771006995,0.0001295089750783,0.0987826660275459,0,0,0
3673,134796.98195485066,2011-01-05 00:04:49,240.12140389702023,2,15,0.5501165986061096,3.811613082885742,10.683517274564746,11.428762162837089,42.98311267496519,41.20197771006995,0.0001618862152099,0.0987826660275459,0,0,0
3674,134826.99712882465,2011-01-05 00:05:19,270.13657786598907,2,15,0.5501165986061096,3.817279100418091,10.688103678092403,11.428762162837089,43.00060750795689,41.20197771006995,0.0001295089750783,0.0987826660275459,0,0,0
3675,134857.0123242872,2011-01-05 00:05:49,300.15177334857646,2,15,0.5501165986061096,3.8224594593048096,10.692690113989098,11.428762162837089,43.018127149028906,41.20197771006995,0.0001295089750783,0.0987826660275459,0,0,0
3676,134887.02929586638,2011-01-05 00:06:19,330.16874492273047,2,15,0.550297200679779,3.8274779319763184,10.697276845034448,11.428762162837089,43.0356713139541,41.20197771006995,0.0001295089750783,0.0987826660275459,0,0,0
3677,134917.04268313732,2011-01-05 00:06:49,360.1821321836732,2,15,0.5501165986061096,3.8321726322174072,10.701863032353293,11.428762162837089,43.05323594716435,41.20197771006995,9.713172767078504e-05,0.0987826660275459,0,0,0
3678,134947.05782831454,2011-01-05 00:07:19,390.1972773558715,2,15,0.5499359965324402,3.837028980255127,10.706449440049806,11.428762162837089,43.07082315944768,41.20197771006995,0.0001295089750783,0.0987826660275459,0,0,0
3679,134977.07300377224,2011-01-05 00:07:49,420.2124528135507,2,15,0.5499359965324402,3.841399908065796,10.711035869643895,11.428762162837089,43.08843179093108,41.20197771006995,9.713172767078504e-05,0.0987826660275459,0,0,0
3680,135007.08821873338,2011-01-05 00:08:19,450.22766777969713,2,15,0.5501165986061096,3.8460946083068848,10.715622295277669,11.428762162837089,43.10606120781419,41.20197771006995,0.0001618862152099,0.0987826660275459,0,0,0
3681,135037.10335494822,2011-01-05 00:08:49,480.2428039895586,2,15,0.5501165986061096,3.8504655361175537,10.72020877082726,11.428762162837089,43.12371127506603,41.20197771006995,0.0001295089750783,0.0987826660275459,0,0,0
3682,135067.1185500248,2011-01-05 00:09:19,510.2579990911965,2,15,0.5501165986061096,3.854836463928223,10.724795263261864,11.428762162837089,43.14138163637272,41.20197771006995,9.713172767078504e-05,0.0987826660275459,0,0,0
3683,135097.13383713076,2011-01-05 00:09:49,540.2732861921249,2,15,0.5501165986061096,3.859207391738892,10.729381721625357,11.428762162837089,43.15907191674023,41.20197771006995,0.0001295089750783,0.0987826660275459,0,0,0
3684,135127.14891713555,2011-01-05 00:10:20,570.288366196906,2,15,0.550297200679779,3.863578319549561,10.733968171973808,11.428762162837089,43.176781953229565,41.20197771006995,0.0001295089750783,0.0987826660275459,0,0,0
3685,135157.1640667438,2011-01-05 00:10:50,600.3035158051605,2,15,0.5501165986061096,3.86778736114502,10.738554543626774,11.428762162837089,43.19451103235326,41.20197771006995,9.713172767078504e-05,0.0987826660275459,0,0,0
3686,135187.17923461256,2011-01-05 00:11:20,630.3186836538758,2,15,0.5501165986061096,3.8719964027404794,10.743140944812705,11.428762162837089,43.21225933937191,41.20197771006995,0.0001295089750783,0.0987826660275459,0,0,0
3687,135217.19442759894,2011-01-05 00:11:50,660.3338766402418,2,15,0.5501165986061096,3.8758816719055176,10.747727357938471,11.428762162837089,43.23002637302992,41.20197771006995,0.0001295089750783,0.0987826660275459,0,0,0
3688,135247.20960439494,2011-01-05 00:12:20,690.349053441269,2,15,0.5501165986061096,3.8797669410705566,10.752313780189116,11.428762162837089,43.24781162851328,41.20197771006995,9.713172767078504e-05,0.0987826660275459,0,0,0
3689,135277.2247044747,2011-01-05 00:12:50,720.3641535461458,2,15,0.550297200679779,3.883652210235596,10.756900218544168,11.428762162837089,43.26561459184047,41.20197771006995,9.713172767078504e-05,0.0987826660275459,0,0,0
3690,135307.23990077936,2011-01-05 00:13:20,750.379349820707,2,15,0.550297200679779,3.887213706970215,10.761487560772162,11.428762162837089,43.28343810100377,41.20197771006995,0.0001295089750783,0.0987826660275459,0,0,0
3691,135337.25503544038,2011-01-05 00:13:50,780.3944844867208,2,15,0.5501165986061096,3.890613317489624,10.76607478736106,11.428762162837089,43.30127737189346,41.20197771006995,0.0001295089750783,0.0987826660275459,0,0,0
3692,135367.27046655523,2011-01-05 00:14:20,810.4099155965637,2,15,0.550297200679779,3.894012928009033,10.770662037508629,11.428762162837089,43.319132279168045,41.20197771006995,0.0001295089750783,0.0987826660275459,0,0,0
3693,135397.2856944987,2011-01-05 00:14:50,840.4251435550912,2,15,0.550297200679779,3.8970887660980233,10.775249320088882,11.428762162837089,43.33700176069651,41.20197771006995,9.713172767078504e-05,0.0987826660275459,0,0,0
3694,135427.3006583891,2011-01-05 00:15:20,870.4401074354544,2,15,0.550297200679779,3.9000027179718018,10.779836566640109,11.428762162837089,43.35488511705184,41.20197771006995,6.47544875391759e-05,0.0987826660275459,0,0,0
3695,135457.31584395198,2011-01-05 00:15:50,900.4552929933064,2,15,0.5501165986061096,3.902754783630371,10.784423777927886,11.428762162837089,43.37278160156136,41.20197771006995,6.47544875391759e-05,0.0987826660275459,0,0,0
3696,135487.33104106365,2011-01-05 00:16:20,930.4704901099664,2,15,0.5501165986061096,3.905506849288941,10.789010404259352,11.428762162837089,43.390688428408026,41.20197771006995,0.0001295089750783,0.0987826660275459,0,0,0
3697,135517.3461700154,2011-01-05 00:16:50,960.4856190617386,2,15,0.5501165986061096,3.9080970287323,10.793596922214029,11.428762162837089,43.408606799053054,41.20197771006995,9.713172767078504e-05,0.0987826660275459,0,0,0
3698,135547.361495903,2011-01-05 00:17:20,990.5009450445726,2,15,0.5501165986061096,3.910525321960449,10.798183472883055,11.428762162837089,43.42653681195527,41.20197771006995,6.47544875391759e-05,0.0987826660275459,0,0,0
3699,135577.37649424924,2011-01-05 00:17:50,1020.5159433256732,2,15,0.5499359965324402,3.9127917289733887,10.802769946993138,11.428762162837089,43.44447756998427,41.20197771006995,6.47544875391759e-05,0.0987826660275459,0,0,0
3700,135607.39386844184,2011-01-05 00:18:20,1050.5333174882014,2,15,0.5499359965324402,3.915219783782959,10.807356878483043,11.428762162837089,43.46243089296039,41.20197771006995,6.47544875391759e-05,0.0987826660275459,0,0,0
3701,135637.40706003012,2011-01-05 00:18:50,1080.54650910153,2,15,0.550297200679779,3.9174861907958975,10.811943167152195,11.428762162837089,43.480392030386376,41.20197771006995,6.47544875391759e-05,0.0987826660275459,0,0,0
3702,135667.4221484158,2011-01-05 00:19:20,1110.5615974771738,2,15,0.550297200679779,3.919590711593628,10.816529713777731,11.428762162837089,43.49836442939463,41.20197771006995,0.0,0.0987826660275459,0,0,0
3703,135697.4374829349,2011-01-05 00:19:50,1140.5769320012955,2,15,0.5499359965324402,3.921695232391357,10.821116322844826,11.428762162837089,43.51634719393952,41.20197771006995,0.0,0.0987826660275459,0,0,0
3704,135727.45248587264,2011-01-05 00:20:20,1170.591934918952,2,15,0.5501165986061096,3.923961639404297,10.825702907029235,11.428762162837089,43.53433980732376,41.20197771006995,6.47544875391759e-05,0.0987826660275459,0,0,0
3705,135757.46772839746,2011-01-05 00:20:50,1200.607177453808,2,15,0.5499359965324402,3.925904273986816,10.830289489816586,11.428762162837089,43.55234225983258,41.20197771006995,0.0,0.0987826660275459,0,0,0
3706,135787.48282779555,2011-01-05 00:21:20,1230.6222768418982,2,15,0.5499359965324402,3.928170680999756,10.834876062038216,11.428762162837089,43.57035434972163,41.20197771006995,6.47544875391759e-05,0.0987826660275459,0,0,0
3707,135817.49800771437,2011-01-05 00:21:50,1260.6374567556834,2,15,0.5501165986061096,3.930275201797485,10.83946270360754,11.428762162837089,43.588376475026585,41.20197771006995,0.0,0.0987826660275459,0,0,0
3708,135847.51319450527,2011-01-05 00:22:20,1290.6526435516207,2,15,0.5501165986061096,3.932379722595215,10.8440492727422,11.428762162837089,43.6064079648549,41.20197771006995,6.47544875391759e-05,0.0987826660275459,0,0,0
3709,135877.52849558103,2011-01-05 00:22:50,1320.6679446424164,2,15,0.5501165986061096,3.934484243392944,10.848636005618596,11.428762162837089,43.62444972015444,41.20197771006995,6.47544875391759e-05,0.0987826660275459,0,0,0
3710,135907.54356451824,2011-01-05 00:23:20,1350.6830135645764,2,15,0.550297200679779,3.936588764190674,10.853222635981751,11.428762162837089,43.64250056713757,41.20197771006995,6.47544875391759e-05,0.0987826660275459,0,0,0
3711,135937.55884472196,2011-01-05 00:23:50,1380.6982937833525,2,15,0.5501165986061096,3.9386932849884033,10.857809255092944,11.428762162837089,43.66056088700444,41.20197771006995,6.47544875391759e-05,0.0987826660275459,0,0,0
3712,135967.57390872185,2011-01-05 00:24:20,1410.7133577932696,2,15,0.5499359965324402,3.940635919570923,10.862395850869513,11.428762162837089,43.67863062767912,41.20197771006995,3.237724376958795e-05,0.0987826660275459,0,0,0
3713,135997.5892285293,2011-01-05 00:24:50,1440.7286775906875,2,15,0.550297200679779,3.9429023265838623,10.866982501147616,11.428762162837089,43.69671004597325,41.20197771006995,9.713172767078504e-05,0.0987826660275459,0,0,0
3714,136027.60425646434,2011-01-05 00:25:20,1470.7437055056448,2,15,0.550297200679779,3.944844961166382,10.871569068253407,11.428762162837089,43.714798521726856,41.20197771006995,6.47544875391759e-05,0.0987826660275459,0,0,0
3715,136057.6195630789,2011-01-05 00:25:50,1500.7590121402573,2,15,0.5501165986061096,3.946787595748901,10.876155706937553,11.428762162837089,43.73289664268776,41.20197771006995,3.237724376958795e-05,0.0987826660275459,0,0,0
3716,136087.63463701855,2011-01-05 00:26:20,1530.7740860648848,2,15,0.5501165986061096,3.948892116546631,10.880742311750142,11.428762162837089,43.75100394125419,41.20197771006995,6.47544875391759e-05,0.0987826660275459,0,0,0
3717,136117.64993823465,2011-01-05 00:26:50,1560.7893873010428,2,15,0.5499359965324402,3.950672864913941,10.885328928000018,11.428762162837089,43.76912061670512,41.20197771006995,0.0,0.0987826660275459,0,0,0
3718,136147.66501365803,2011-01-05 00:27:20,1590.804462699343,2,15,0.5501165986061096,3.95277738571167,10.889915456526031,11.428762162837089,43.78724620163904,41.20197771006995,3.237724376958795e-05,0.0987826660275459,0,0,0
3719,136177.68018117087,2011-01-05 00:27:50,1620.8196302222464,2,15,0.5499359965324402,3.9548819065094,10.894502047170455,11.428762162837089,43.80538131559542,41.20197771006995,3.237724376958795e-05,0.0987826660275459,0,0,0
3720,136207.69536508966,2011-01-05 00:28:20,1650.8348141710878,2,15,0.5501165986061096,3.956824541091919,10.899088716188356,11.428762162837089,43.82352602765712,41.20197771006995,3.237724376958795e-05,0.0987826660275459,0,0,0
3721,136237.71081163295,2011-01-05 00:28:50,1680.850260729433,2,15,0.5501165986061096,3.958929061889648,10.90367539716449,11.428762162837089,43.841679801135975,41.20197771006995,3.237724376958795e-05,0.0987826660275459,0,0,0
3722,136267.72570679206,2011-01-05 00:29:20,1710.8651558383974,2,15,0.5499359965324402,3.960709810256958,10.908261971198232,11.428762162837089,43.85984237883422,41.20197771006995,3.237724376958795e-05,0.0987826660275459,0,0,0
3723,136297.74088829482,2011-01-05 00:29:50,1740.8803373461549,2,15,0.5501165986061096,3.962814331054688,10.912848595967573,11.428762162837089,43.87801427151916,41.20197771006995,3.237724376958795e-05,0.0987826660275459,0,0,0
3724,136327.75635443197,2011-01-05 00:30:20,1770.8958036837964,2,15,0.550297200679779,3.964918851852417,10.917435264446748,11.428762162837089,43.89619546255061,41.20197771006995,6.47544875391759e-05,0.0987826660275459,0,0,0
3725,136357.77148794007,2011-01-05 00:30:50,1800.9109370064623,2,15,0.5501165986061096,3.966861486434937,10.922021882380418,11.428762162837089,43.9143855775611,41.20197771006995,6.47544875391759e-05,0.0987826660275459,0,0,0
3726,136387.78642464773,2011-01-05 00:31:20,1830.9258736890404,2,15,0.5501165986061096,3.968804121017456,10.926608471372637,11.428762162837089,43.93258470856658,41.20197771006995,3.237724376958795e-05,0.0987826660275459,0,0,0
3727,136417.80161035093,2011-01-05 00:31:50,1860.9410593922544,2,15,0.5499359965324402,3.970746755599976,10.931195034863636,11.428762162837089,43.95079288847276,41.20197771006995,3.237724376958795e-05,0.0987826660275459,0,0,0
3728,136447.8169222687,2011-01-05 00:32:20,1890.956371325072,2,15,0.5501165986061096,3.972851276397705,10.935781717350974,11.428762162837089,43.96901070806908,41.20197771006995,6.47544875391759e-05,0.0987826660275459,0,0,0
3729,136477.8320894257,2011-01-05 00:32:50,1920.971538482063,2,15,0.5501165986061096,3.9747939109802246,10.940368281899866,11.428762162837089,43.987237221071965,41.20197771006995,3.237724376958795e-05,0.0987826660275459,0,0,0
3730,136507.84715657844,2011-01-05 00:33:20,1950.9866056197752,2,15,0.5499359965324402,3.976898431777954,10.944954940553954,11.428762162837089,44.00547331500085,41.20197771006995,3.237724376958795e-05,0.0987826660275459,0,0,0
3731,136537.86234581048,2011-01-05 00:33:50,1981.0017948618097,2,15,0.5499359965324402,3.9788410663604736,10.949541559932234,11.428762162837089,44.0237181083819,41.20197771006995,0.0,0.0987826660275459,0,0,0
3732,136567.87752359893,2011-01-05 00:34:20,2011.0169726402728,2,15,0.5499359965324402,3.980945587158203,10.954128145175671,11.428762162837089,44.041972362597946,41.20197771006995,6.47544875391759e-05,0.0987826660275459,0,0,0
3733,136597.89281411338,2011-01-05 00:34:50,2041.0322631747583,2,15,0.5501165986061096,3.9830501079559326,10.958714626820932,11.428762162837089,44.06023550937164,41.20197771006995,9.713172767078504e-05,0.0987826660275459,0,0,0
3734,136627.90794052885,2011-01-05 00:35:20,2071.0473897556217,2,15,0.5501165986061096,3.984992742538452,10.96330111505026,11.428762162837089,44.07850788943748,41.20197771006995,6.47544875391759e-05,0.0987826660275459,0,0,0
3735,136657.92319359494,2011-01-05 00:35:50,2101.0626426613253,2,15,0.5501165986061096,3.9870972633361816,10.967887670239218,11.428762162837089,44.09678986733677,41.20197771006995,6.47544875391759e-05,0.0987826660275459,0,0,0
3736,136687.94042255057,2011-01-05 00:36:20,2131.079871606928,2,15,0.5499359965324402,3.988878011703491,10.972474480812137,11.428762162837089,44.1150822085356,41.20197771006995,3.237724376958795e-05,0.0987826660275459,0,0,0
3737,136717.95356067058,2011-01-05 00:36:50,2161.0930097319474,2,15,0.5501165986061096,3.9909825325012207,10.977060633261074,11.428762162837089,44.13338129137492,41.20197771006995,3.237724376958795e-05,0.0987826660275459,0,0,0
3738,136747.96862158278,2011-01-05 00:37:20,2191.108070649156,2,15,0.5501165986061096,3.99308705329895,10.981647052868873,11.428762162837089,44.15169096540547,41.20197771006995,3.237724376958795e-05,0.0987826660275459,0,0,0
3739,136777.98390647818,2011-01-05 00:37:50,2221.123355544588,2,15,0.550297200679779,3.995353221893311,10.986233638410338,11.428762162837089,44.17001086929604,41.20197771006995,6.47544875391759e-05,0.0987826660275459,0,0,0
3740,136807.99900003173,2011-01-05 00:38:20,2251.1384490831,2,15,0.5501165986061096,3.99729585647583,10.99082015386788,11.428762162837089,44.18834015713658,41.20197771006995,6.47544875391759e-05,0.0987826660275459,0,0,0
3741,136838.00029937588,2011-01-05 00:38:50,2281.139748417209,2,15,0.5499359965324402,3.99940037727356,10.995404583046463,11.428762162837089,44.20667079657218,41.20197771006995,3.237724376958795e-05,0.0987826660275459,0,0,0
3742,136868.01372728313,2011-01-05 00:39:20,2311.1531763244548,2,15,0.550297200679779,4.001828670501709,10.999990843793157,11.428762162837089,44.22501862918554,41.20197771006995,6.47544875391759e-05,0.0987826660275459,0,0,0
3743,136898.02890832972,2011-01-05 00:39:50,2341.168357396126,2,15,0.550297200679779,4.003933429718018,11.00457736495718,11.428762162837089,44.24337747217637,41.20197771006995,6.47544875391759e-05,0.0987826660275459,0,0,0
3744,136928.04406336654,2011-01-05 00:40:20,2371.183512407847,2,15,0.5499359965324402,4.006037712097168,11.009163936971657,11.428762162837089,44.26174654205373,41.20197771006995,3.23295607813634e-05,0.0987826660275459,0,0,0
3745,136958.05926402198,2011-01-05 00:40:50,2401.198713063327,2,15,0.5501165986061096,4.008304119110107,11.013750544716649,11.428762162837089,44.28012587937804,41.20197771006995,6.47544875391759e-05,0.0987826660275459,0,0,0
3746,136988.07442498356,2011-01-05 00:41:20,2431.2138740499395,2,15,0.5501165986061096,4.010570526123047,11.018337043366577,11.428762162837089,44.298514878120606,41.20197771006995,6.47544875391759e-05,0.0987826660275459,0,0,0
3747,137018.0897346006,2011-01-05 00:41:50,2461.22918365696,2,15,0.5501165986061096,4.012999057769775,11.022923568380207,11.428762162837089,44.316914263230125,41.20197771006995,0.0001295089750783,0.0987826660275459,0,0,0
3748,137048.10492148675,2011-01-05 00:42:20,2491.2443705581604,2,15,0.5501165986061096,4.014941692352295,11.027510105586842,11.428762162837089,44.33532416060266,41.20197771006995,3.24249267578125e-05,0.0987826660275459,0,0,0
3749,137078.11999395775,2011-01-05 00:42:51,2521.25944299909,2,15,0.5501165986061096,4.017208099365234,11.032096627933967,11.428762162837089,44.353744489801386,41.20197771006995,3.24249267578125e-05,0.0987826660275459,0,0,0
3750,137108.13517934017,2011-01-05 00:43:21,2551.2746284015548,2,15,0.5501165986061096,4.019636154174805,11.036683167011915,11.428762162837089,44.37217551308807,41.20197771006995,6.47544875391759e-05,0.0987826660275459,0,0,0
3751,137138.15033754986,2011-01-05 00:43:51,2581.2897865962086,2,15,0.5501165986061096,4.022064685821533,11.041269676559072,11.428762162837089,44.39061722553947,41.20197771006995,9.71794142969884e-05,0.0987826660275459,0,0,0
3752,137168.16565316686,2011-01-05 00:44:21,2611.305102233258,2,15,0.5501165986061096,4.024331092834473,11.045856267456186,11.428762162837089,44.40907021256304,41.20197771006995,3.24249267578125e-05,0.0987826660275459,0,0,0
3753,137198.18070962295,2011-01-05 00:44:51,2641.3201586642867,2,15,0.5501165986061096,4.026921272277832,11.050442800035462,11.428762162837089,44.42753391991814,41.20197771006995,6.47544875391759e-05,0.0987826660275459,0,0,0
3754,137228.19589287005,2011-01-05 00:45:21,2671.335341916392,2,15,0.5501165986061096,4.029349327087402,11.055029344348402,11.428762162837089,44.44600880093526,41.20197771006995,9.70840483205393e-05,0.0987826660275459,0,0,0
3755,137258.21118899848,2011-01-05 00:45:51,2701.350638059857,2,15,0.5499359965324402,4.031615734100342,11.059615915987,11.428762162837089,44.4644949732669,41.20197771006995,0.0,0.0987826660275459,0,0,0
3756,137288.22625238184,2011-01-05 00:46:21,2731.365701423162,2,15,0.550297200679779,4.034367561340332,11.064202467512125,11.428762162837089,44.48299247853038,41.20197771006995,6.46591215627268e-05,0.0987826660275459,0,0,0
3757,137318.24145301725,2011-01-05 00:46:51,2761.38090209368,2,15,0.5501165986061096,4.0367960929870605,11.068789009303316,11.428762162837089,44.50150148370358,41.20197771006995,9.71794142969884e-05,0.0987826660275459,0,0,0
3758,137348.2567547196,2011-01-05 00:47:21,2791.396203770937,2,15,0.550297200679779,4.039547920227051,11.073375530607084,11.428762162837089,44.52002208678258,41.20197771006995,0.0001295089750783,0.0987826660275459,0,0,0
3759,137378.27179423848,2011-01-05 00:47:51,2821.411243309865,2,15,0.550297200679779,4.041976451873779,11.077962054963535,11.428762162837089,44.53855438422449,41.20197771006995,9.71794142969884e-05,0.0987826660275459,0,0,0
3760,137408.28698571108,2011-01-05 00:48:21,2851.426434762408,2,15,0.5501165986061096,4.044566631317139,11.082548586366569,11.428762162837089,44.55709863801212,41.20197771006995,6.47544875391759e-05,0.0987826660275459,0,0,0
3761,137438.3023107766,2011-01-05 00:48:51,2881.441759837981,2,15,0.5501165986061096,4.047156810760498,11.08713517439566,11.428762162837089,44.57565509804678,41.20197771006995,6.47544875391759e-05,0.0987826660275459,0,0,0
3762,137468.31735533805,2011-01-05 00:49:21,2911.456804389401,2,15,0.5501165986061096,4.049746990203857,11.09172175666338,11.428762162837089,44.59422362766707,41.20197771006995,3.24249267578125e-05,0.0987826660275459,0,0,0
3763,137498.3327231702,2011-01-05 00:49:51,2941.4721723368243,2,15,0.5501165986061096,4.052337169647217,11.09630837534866,11.428762162837089,44.612804414823245,41.20197771006995,6.47544875391759e-05,0.0987826660275459,0,0,0
3764,137528.34773411282,2011-01-05 00:50:21,2971.487183184244,2,15,0.5501165986061096,4.055088996887207,11.100894909200552,11.428762162837089,44.63139707825892,41.20197771006995,6.47544875391759e-05,0.0987826660275459,0,0,0
3765,137558.36521870558,2011-01-05 00:50:51,3001.50466786221,2,15,0.5501165986061096,4.057841300964356,11.105481819274289,11.428762162837089,44.65000365653968,41.20197771006995,6.47544875391759e-05,0.0987826660275459,0,0,0
3766,137588.37808528385,2011-01-05 00:51:21,3031.517534335189,2,15,0.5501165986061096,4.060593128204346,11.110068044524883,11.428762162837089,44.66862006455029,41.20197771006995,0.0001295089750783,0.0987826660275459,0,0,0
3767,137618.3934008457,2011-01-05 00:51:51,3061.5328499120883,2,15,0.5499359965324402,4.063183307647705,11.114654576148457,11.428762162837089,44.68724988275254,41.20197771006995,6.47544875391759e-05,0.0987826660275459,0,0,0
3768,137648.40845296095,2011-01-05 00:52:21,3091.5479020022976,2,15,0.5501165986061096,4.0659356117248535,11.119241091213931,11.428762162837089,44.70589255834653,41.20197771006995,3.24249267578125e-05,0.0987826660275459,0,0,0
3769,137678.42364817287,2011-01-05 00:52:51,3121.563097219223,2,15,0.5501165986061096,4.069011211395264,11.123827612775177,11.428762162837089,44.72454819380087,41.20197771006995,9.70840483205393e-05,0.0987826660275459,0,0,0
3770,137708.43884142992,2011-01-05 00:53:21,3151.5782904712514,2,15,0.5501165986061096,4.071763515472412,11.128414161183017,11.428762162837089,44.74321699025644,41.20197771006995,9.71794142969884e-05,0.0987826660275459,0,0,0
3771,137738.4540566116,2011-01-05 00:53:51,3181.5935056779977,2,15,0.5501165986061096,4.074677467346191,11.133000692590766,11.428762162837089,44.76189891811106,41.20197771006995,9.71794142969884e-05,0.0987826660275459,0,0,0
3772,137768.46918628016,2011-01-05 00:54:21,3211.6086353214937,2,15,0.5499359965324402,4.077591419219971,11.137587181684289,11.428762162837089,44.78059392833232,41.20197771006995,9.71794142969884e-05,0.0987826660275459,0,0,0
3773,137798.4845102179,2011-01-05 00:54:51,3241.623959279281,2,15,0.5501165986061096,4.08050537109375,11.142173724689354,11.428762162837089,44.79930263543569,41.20197771006995,9.71794142969884e-05,0.0987826660275459,0,0,0
3774,137828.49956557126,2011-01-05 00:55:21,3271.6390146125727,2,15,0.5501165986061096,4.083419322967529,11.146760188025684,11.428762162837089,44.81802443677076,41.20197771006995,6.47544875391759e-05,0.0987826660275459,0,0,0
3775,137858.51474260786,2011-01-05 00:55:51,3301.6541916491874,2,15,0.5501165986061096,4.08649492263794,11.151346672599075,11.428762162837089,44.83676002604141,41.20197771006995,9.70840483205393e-05,0.0987826660275459,0,0,0
3776,137888.5299232384,2011-01-05 00:56:21,3331.6693722847717,2,15,0.550297200679779,4.089570999145508,11.155933214497006,11.428762162837089,44.85550960156447,41.20197771006995,0.0001295089750783,0.0987826660275459,0,0,0
3777,137918.54524862478,2011-01-05 00:56:51,3361.684697686156,2,15,0.5499359965324402,4.092484951019287,11.160519765031935,11.428762162837089,44.87427312115563,41.20197771006995,6.47544875391759e-05,0.0987826660275459,0,0,0
3778,137948.56030694552,2011-01-05 00:57:21,3391.699756016919,2,15,0.5501165986061096,4.095560550689697,11.165106228821957,11.428762162837089,44.89305020282764,41.20197771006995,9.70840483205393e-05,0.0987826660275459,0,0,0
3779,137978.57559870306,2011-01-05 00:57:51,3421.715047769441,2,15,0.5501165986061096,4.098636627197266,11.169692846666155,11.428762162837089,44.91184198459201,41.20197771006995,6.47544875391759e-05,0.0987826660275459,0,0,0
3780,138008.5907857095,2011-01-05 00:58:21,3451.730234765878,2,15,0.5501165986061096,4.101550579071045,11.174279433071442,11.428762162837089,44.93064793474685,41.20197771006995,3.24249267578125e-05,0.0987826660275459,0,0,0
3781,138038.60585288232,2011-01-05 00:58:51,3481.7453019236405,2,15,0.5501165986061096,4.104788303375244,11.178865954093627,11.428762162837089,44.94946779693959,41.20197771006995,6.47544875391759e-05,0.0987826660275459,0,0,0
3782,138068.62115940163,2011-01-05 00:59:21,3511.760608447978,2,15,0.5501165986061096,4.108026027679443,11.183452463942237,11.428762162837089,44.96830212509905,41.20197771006995,9.71794142969884e-05,0.0987826660275459,0,0,0
3783,138098.6362205845,2011-01-05 00:59:51,3541.7756696308493,2,15,0.5501165986061096,4.111263751983643,11.188038949866858,11.428762162837089,44.98715098539586,41.20197771006995,9.71794142969884e-05,0.0987826660275459,0,0,0
3784,138128.65169819526,2011-01-05 01:00:21,3571.791147261637,2,15,0.5501165986061096,4.114501476287842,11.192625576884282,11.428762162837089,45.006015117766495,41.20197771006995,0.0001295089750783,0.0987826660275459,0,0,0
3785,138158.6666201762,2011-01-05 01:00:51,3601.806069242574,2,15,0.550297200679779,4.117738723754883,11.197212077614228,11.428762162837089,45.024893622061406,41.20197771006995,9.70840483205393e-05,0.0987826660275459,0,0,0
3786,138188.6820537722,2011-01-05 01:01:21,3631.821502818563,2,15,0.550297200679779,4.121138572692871,11.201798656664227,11.428762162837089,45.04378746234877,41.20197771006995,0.0001619339018361,0.0987826660275459,0,0,0
3787,138218.6969930563,2011-01-05 01:01:51,3661.836442102625,2,15,0.5501165986061096,4.12437629699707,11.206385187337505,11.428762162837089,45.062696158157806,41.20197771006995,6.47544875391759e-05,0.0987826660275459,0,0,0
3788,138248.71221913013,2011-01-05 01:02:21,3691.8516681965048,2,15,0.5501165986061096,4.1276140213012695,11.21097116296004,11.428762162837089,45.081617728314136,41.20197771006995,9.71794142969884e-05,0.0987826660275459,0,0,0
3789,138278.7275110731,2011-01-05 01:02:51,3721.8669601545394,2,15,0.5501165986061096,4.1310133934021,11.21555697322365,11.428762162837089,45.10055399403623,41.20197771006995,9.70840483205393e-05,0.0987826660275459,0,0,0
3790,138308.7427283851,2011-01-05 01:03:21,3751.8821774314447,2,15,0.5501165986061096,4.134574890136719,11.220142849929672,11.428762162837089,45.11950611528329,41.20197771006995,9.70840483205393e-05,0.0987826660275459,0,0,0
3791,138338.7576698446,2011-01-05 01:03:51,3781.897118895941,2,15,0.5497553944587708,4.137650966644287,11.22472864957213,11.428762162837089,45.13847353824367,41.20197771006995,3.24249267578125e-05,0.0987826660275459,0,0,0
3792,138368.7729016828,2011-01-05 01:04:21,3811.912350749176,2,15,0.5501165986061096,4.141374111175537,11.229314456777274,11.428762162837089,45.15745675044662,41.20197771006995,0.0001295089750783,0.0987826660275459,0,0,0
3793,138398.7880521532,2011-01-05 01:04:51,3841.9275012195785,2,15,0.5499359965324402,4.144773960113525,11.233900237613575,11.428762162837089,45.17645577238193,41.20197771006995,9.71794142969884e-05,0.0987826660275459,0,0,0
3794,138428.8031338071,2011-01-05 01:05:21,3871.942582863445,2,15,0.5501165986061096,4.1483354568481445,11.238486434762928,11.428762162837089,45.19547290201903,41.20197771006995,6.47544875391759e-05,0.0987826660275459,0,0,0
3795,138458.8183897253,2011-01-05 01:05:51,3901.957838771631,2,15,0.5501165986061096,4.151896953582764,11.243072990291743,11.428762162837089,45.214507631432895,41.20197771006995,0.0001295089750783,0.0987826660275459,0,0,0
3796,138488.83366572857,2011-01-05 01:06:21,3931.9731147899374,2,15,0.5501165986061096,4.155458450317383,11.247659506595602,11.428762162837089,45.23355837279871,41.20197771006995,0.0001295089750783,0.0987826660275459,0,0,0
3797,138518.84873590886,2011-01-05 01:06:51,3961.9881849451713,2,15,0.5501165986061096,4.159019947052002,11.25224594227318,11.428762162837089,45.25262512957856,41.20197771006995,0.0001295089750783,0.0987826660275459,0,0,0
3798,138548.86438552328,2011-01-05 01:07:21,3992.0038346748825,2,15,0.5499359965324402,4.162581443786621,11.25683255559905,11.428762162837089,45.27170910587839,41.20197771006995,6.47544875391759e-05,0.0987826660275459,0,0,0
3799,138578.87919790103,2011-01-05 01:07:51,4022.018647052655,2,15,0.5501165986061096,4.166304588317871,11.2614191160885,11.428762162837089,45.29080951397472,41.20197771006995,6.47544875391759e-05,0.0987826660275459,0,0,0
3800,138608.89442186462,2011-01-05 01:08:21,4052.0338709310126,2,15,0.5501165986061096,4.170028209686279,11.266005650324992,11.428762162837089,45.30992658709864,41.20197771006995,9.71794142969884e-05,0.0987826660275459,0,0,0
3801,138638.91167457445,2011-01-05 01:08:51,4082.0511237060055,2,15,0.550297200679779,4.173751354217529,11.270592571037472,11.428762162837089,45.32906215464983,41.20197771006995,0.0001295089750783,0.0987826660275459,0,0,0
3802,138668.92479491013,2011-01-05 01:09:21,4112.064243966502,2,15,0.5501165986061096,4.177312850952148,11.275178925652774,11.428762162837089,45.34821233478986,41.20197771006995,9.70840483205393e-05,0.0987826660275459,0,0,0
3803,138698.93985157175,2011-01-05 01:09:51,4142.079300608054,2,15,0.5501165986061096,4.181198120117188,11.27976556900134,11.428762162837089,45.3673808029992,41.20197771006995,9.70840483205393e-05,0.0987826660275459,0,0,0
3804,138728.95503712457,2011-01-05 01:10:21,4172.094486190968,2,15,0.5501165986061096,4.184759616851807,11.284352237073714,11.428762162837089,45.38656658436567,41.20197771006995,9.70840483205393e-05,0.0987826660275459,0,0,0
3805,138758.9702415394,2011-01-05 01:10:51,4202.109690580755,2,15,0.5501165986061096,4.188644886016846,11.288938805240608,11.428762162837089,45.40576918541953,41.20197771006995,6.47544875391759e-05,0.0987826660275459,0,0,0
3806,138788.97151411185,2011-01-05 01:11:21,4232.110963148154,2,15,0.5501165986061096,4.192368507385254,11.293523374271407,11.428762162837089,45.42498096705046,41.20197771006995,9.71794142969884e-05,0.0987826660275459,0,0,0
3807,138818.9849970011,2011-01-05 01:11:51,4262.124446042444,2,15,0.5501165986061096,4.196415424346924,11.298109779188636,11.428762162837089,45.444217978807565,41.20197771006995,0.0001295089750783,0.0987826660275459,0,0,0
3808,138848.0159432969,2011-01-05 01:12:20,4291.155392358262,2,15,0.550297200679779,4.200138568878174,11.302546020129888,11.428762162837089,45.46284187232028,41.20197771006995,0.0001295089750783,0.0987826660275459,0,0,0
3809,138878.0361698411,2011-01-05 01:12:51,30.01519144251828,3,15,0.0,4.106568813323975,11.302546020129888,11.428762162837089,45.46284187232028,41.20197771006995,-0.0003885269106831,0.0987826660275459,0,0,0
3810,138908.0513577398,2011-01-05 01:13:21,60.030379346216726,3,15,0.0,4.094427585601807,11.302546020129888,11.428762162837089,45.46284187232028,41.20197771006995,-0.0002590179501567,0.0987826660275459,0,0,0
3811,138938.06655478128,2011-01-05 01:13:51,90.04557642277676,3,15,0.0,4.087304592132568,11.302546020129888,11.428762162837089,45.46284187232028,41.20197771006995,-0.0001618385285837,0.0987826660275459,0,0,0
3812,138968.03489622922,2011-01-05 01:14:21,120.01391787069312,3,15,0.0,4.0826096534729,11.302546020129888,11.428762162837089,45.46284187232028,41.20197771006995,-9.71794142969884e-05,0.0987826660275459,0,0,0
3813,138968.04178579306,2011-01-05 01:14:21,2.596471205e-06,4,15,1.019158959388733,4.199814796447754,11.302546020864948,11.428762162837089,45.4628418754074,41.20197771006995,0.0,0.0987826660275459,0,0,0
3814,138968.7292580254,2011-01-05 01:14:21,0.687474863891545,4,15,0.9682270884513856,4.199814796447754,11.302734288701894,11.428762162837089,45.46363255163142,41.20197771006995,0.0,0.0987826660275459,0,0,0
3815,138970.52611819885,2011-01-05 01:14:23,2.484335022286314,4,15,0.9180176854133606,4.199814796447754,11.303204064649496,11.428762162837089,45.46560551231098,41.20197771006995,0.0,0.0987826660275459,0,0,0
3816,138973.30732095687,2011-01-05 01:14:26,5.265537780314014,4,15,0.8674471378326416,4.199814796447754,11.303892804952907,11.428762162837089,45.46849807092927,41.20197771006995,0.0,0.0987826660275459,0,0,0
3817,138977.15104698483,2011-01-05 01:14:30,9.109263818285571,4,15,0.8174183368682861,4.199814796447754,11.304791110548672,11.428762162837089,45.472270755593016,41.20197771006995,3.23295607813634e-05,0.0987826660275459,0,0,0
3818,138982.18218911908,2011-01-05 01:14:35,14.14040595252784,4,15,0.7673895955085754,4.199814796447754,11.305897030870716,11.428762162837089,45.47691540119731,41.20197771006995,0.0,0.0987826660275459,0,0,0
3819,138988.7289996854,2011-01-05 01:14:41,20.68721650883741,4,15,0.71736079454422,4.199976921081543,11.307245101657628,11.428762162837089,45.48257704001958,41.20197771006995,3.24249267578125e-05,0.0987826660275459,0,0,0
3820,138997.33834952422,2011-01-05 01:14:50,29.29656634766649,4,15,0.6671514511108398,4.199976921081543,11.308897968164596,11.428762162837089,45.48951876928835,41.20197771006995,3.24249267578125e-05,0.0987826660275459,0,0,0
3821,139009.21306162557,2011-01-05 01:15:02,41.17127848406798,4,15,0.6171226501464844,4.199814796447754,11.311011773605925,11.428762162837089,45.49839636014232,41.20197771006995,-3.24249267578125e-05,0.0987826660275459,0,0,0
3822,139026.6815396828,2011-01-05 01:15:19,58.63975650621549,4,15,0.5669133067131042,4.199653148651123,11.313876646896691,11.428762162837089,45.51042827108758,41.20197771006995,-3.23295607813634e-05,0.0987826660275459,0,0,0
3823,139056.3531260808,2011-01-05 01:15:49,88.31134291426324,4,15,0.5168845057487488,4.199814796447754,11.318325015032617,11.428762162837089,45.52911059857496,41.20197771006995,3.23295607813634e-05,0.0987826660275459,0,0,0
3824,139112.53965720953,2011-01-05 01:16:45,144.4978740329745,4,15,0.4668557345867157,4.199814796447754,11.325960499981871,11.428762162837089,45.56117819581193,41.20197771006995,0.0,0.0987826660275459,0,0,0
3825,139206.94454683212,2011-01-05 01:18:20,238.90276365055985,4,15,0.4168269634246826,4.199814796447754,11.337508930588028,11.428762162837089,45.60967940843362,41.20197771006995,3.23295607813634e-05,0.0987826660275459,0,0,0
3826,139330.33350905683,2011-01-05 01:20:23,362.2917259003208,4,15,0.3667981922626495,4.199653148651123,11.350915173383388,11.428762162837089,45.66598307455171,41.20197771006995,-3.23295607813634e-05,0.0987826660275459,0,0,0
3827,139478.7843115538,2011-01-05 01:22:51,510.7425283672384,4,15,0.3167694211006164,4.199814796447754,11.364992729925666,11.428762162837089,45.725106146024125,41.20197771006995,0.0,0.0987826660275459,0,0,0
3828,139661.09417357531,2011-01-05 01:25:54,693.0523904138006,4,15,0.2667406499385834,4.199814796447754,11.379742572862904,11.428762162837089,45.78705270737154,41.20197771006995,3.23295607813634e-05,0.0987826660275459,0,0,0
3829,139883.9191521936,2011-01-05 01:29:37,915.8773690170116,4,15,0.2167118936777115,4.199653148651123,11.394659077634858,11.428762162837089,45.849699181853815,41.20197771006995,0.0,0.0987826660275459,0,0,0
3830,140175.94618463286,2011-01-05 01:34:29,1207.904401456322,4,15,0.1666831225156784,4.199814796447754,11.410139207063745,11.428762162837089,45.91471272471106,41.20197771006995,0.0,0.0987826660275459,0,0,0
3831,140598.95552784787,2011-01-05 01:41:32,1630.9137446613097,4,15,0.1166543513536453,4.199653148651123,11.42661689148036,11.428762162837089,45.98391582580215,41.20197771006995,-3.23295607813634e-05,0.0987826660275459,0,0,0
3832,141325.5857237847,2011-01-05 01:53:38,2357.543940638206,4,15,0.0666255801916122,4.199653148651123,11.444606451569063,11.428762162837089,46.059468551666775,41.20197771006995,-3.23295607813634e-05,0.0987826660275459,0,0,0
3833,141746.50137157648,2011-01-05 02:00:39,2778.4595884099604,4,15,0.0498289167881011,4.199491024017334,11.451411185764677,11.428762162837089,46.08804710386904,41.20197771006995,-6.47544875391759e-05,0.0987826660275459,0,0,0
3834,141776.51703026984,2011-01-05 02:01:09,30.015189206946545,5,15,0.0,4.191073417663574,11.451411185764677,11.428762162837089,46.08804710386904,41.20197771006995,-6.47544875391759e-05,0.0987826660275459,0,0,0
3835,141806.5167229196,2011-01-05 02:01:39,60.01488187174188,5,15,0.0,4.189778327941895,11.451411185764677,11.428762162837089,46.08804710386904,41.20197771006995,0.0,0.0987826660275459,0,0,0
3836,141806.70534954892,2011-01-05 02:01:40,0.187399908232826,6,15,-1.9243103452026844e-05,4.1901021003723145,11.451411185764677,11.4287621638388,46.08804710386904,41.20197771426721,0.0,0.1012117490172386,0,0,0
3837,141811.53342876292,2011-01-05 02:01:45,5.01547914224683,6,15,0.0005225847125984,4.189454555511475,11.451412007710823,11.4287621638388,46.08805054767585,41.20197771426721,-6.47544875391759e-05,0.1012117490172386,0,0,0
3838,141841.55000197195,2011-01-05 02:02:15,30.015186815987537,7,15,-1.099929690361023,3.995515108108521,11.451412007710823,11.437931448648865,46.08805054767585,41.238843429457766,-0.0010684489971026,0.1012117490172386,0,0,0
3839,141871.56541065592,2011-01-05 02:02:45,60.03059553001327,7,15,-1.0997490882873535,3.9623286724090576,11.451412007710823,11.44710068943552,46.08805054767585,41.27531937417466,-0.0007770538213662,0.1012117490172386,0,0,0
3840,141901.58053828438,2011-01-05 02:03:15,90.04572313843732,7,15,-1.099568486213684,3.9386932849884033,11.451412007710823,11.45626983289668,46.08805054767585,41.31153607568356,-0.0005504131549969,0.1012117490172386,0,0,0
3841,141931.59556872564,2011-01-05 02:03:45,120.06075359974092,7,15,-1.099929690361023,3.9204001426696777,11.451412007710823,11.465438927386996,46.08805054767585,41.34756349333479,-0.0004532813909463,0.1012117490172386,0,0,0
3842,141961.61088836766,2011-01-05 02:04:15,150.07607321169684,7,15,-1.099568486213684,3.905021190643311,11.451412007710823,11.474608128501073,46.08805054767585,41.383439142393335,-0.0004209041653666,0.1012117490172386,0,0,0
3843,141991.62596369078,2011-01-05 02:04:45,180.09114856488478,7,15,-1.0997490882873535,3.891584634780884,11.451412007710823,11.483777271177969,46.08805054767585,41.419182253346186,-0.0003237724304199,0.1012117490172386,0,0,0
3844,142021.64126685675,2011-01-05 02:05:15,210.1064517158148,7,15,-1.0997490882873535,3.878795623779297,11.451412007710823,11.49294645137704,46.08805054767585,41.45480517483403,-0.0002913951757363,0.1012117490172386,0,0,0
3845,142051.65632822007,2011-01-05 02:05:45,240.1215130691107,7,15,-1.099568486213684,3.8669779300689697,11.451412007710823,11.50211558219539,46.08805054767585,41.49031466234341,-0.0002590179501567,0.1012117490172386,0,0,0
3846,142081.67151563254,2011-01-05 02:06:15,270.1367004916099,7,15,-1.099568486213684,3.855322122573853,11.451412007710823,11.511284790443757,46.08805054767585,41.52571659287936,-0.0002913951757363,0.1012117490172386,0,0,0
3847,142111.68893231603,2011-01-05 02:06:45,300.15411719516334,7,15,-1.0997490882873535,3.844313859939575,11.451412007710823,11.520454526430049,46.08805054767585,41.56101703923492,-0.0002590179501567,0.1012117490172386,0,0,0
3848,142141.7018752596,2011-01-05 02:07:15,330.1670601186804,7,15,-1.0997490882873535,3.833305597305298,11.451412007710823,11.52962301744158,46.08805054767585,41.59621219949294,-0.0002913951757363,0.1012117490172386,0,0,0
3849,142171.71707881734,2011-01-05 02:07:45,360.182263661356,7,15,-1.099568486213684,3.8231070041656494,11.451412007710823,11.53879210863267,46.08805054767585,41.631313045083736,-0.0002590179501567,0.1012117490172386,0,0,0
3850,142201.73229394888,2011-01-05 02:08:15,390.1974788129646,7,15,-1.0997490882873535,3.812908172607422,11.451412007710823,11.547961257144513,46.08805054767585,41.6663203990771,-0.0002590179501567,0.1012117490172386,0,0,0
3851,142231.7476226134,2011-01-05 02:08:45,420.2128074774824,7,15,-1.099568486213684,3.803194999694824,11.451412007710823,11.557130466164656,46.08805054767585,41.701235776256354,-0.0001942634553415,0.1012117490172386,0,0,0
3852,142261.76269199167,2011-01-05 02:09:15,450.22787685076656,7,15,-1.0997490882873535,3.7934818267822266,11.451412007710823,11.566299648388394,46.08805054767585,41.73606187051349,-0.0002266406954731,0.1012117490172386,0,0,0
3853,142291.77783584062,2011-01-05 02:09:45,480.2430207147043,7,15,-1.099929690361023,3.783930540084839,11.451412007710823,11.575468870500538,46.08805054767585,41.7708015260323,-0.0002590179501567,0.1012117490172386,0,0,0
3854,142321.79306685174,2011-01-05 02:10:15,510.2582517158148,7,15,-1.0997490882873535,3.775026798248291,11.451412007710823,11.584638866350168,46.08805054767585,41.805459340449154,-0.0001942634553415,0.1012117490172386,0,0,0
3855,142351.8082474422,2011-01-05 02:10:45,540.273432271199,7,15,-1.099929690361023,3.766123056411743,11.451412007710823,11.593808828619448,46.08805054767585,41.84003503024856,-0.0002590179501567,0.1012117490172386,0,0,0
3856,142381.82354666333,2011-01-05 02:11:15,570.2887315374472,7,15,-1.099929690361023,3.757704973220825,11.451412007710823,11.602978829951155,46.08805054767585,41.8745311986395,-0.0001942634553415,0.1012117490172386,0,0,0
3857,142411.83858873358,2011-01-05 02:11:45,600.3037735725964,7,15,-1.0997490882873535,3.749449014663696,11.451412007710823,11.612148651026253,46.08805054767585,41.90894949657794,-0.0001942634553415,0.1012117490172386,0,0,0
3858,142441.85380899292,2011-01-05 02:12:15,630.3189938519849,7,15,-1.0997490882873535,3.7413547039031982,11.451412007710823,11.621317864635802,46.08805054767585,41.94329079763386,-0.0002266406954731,0.1012117490172386,0,0,0
3859,142471.86900414468,2011-01-05 02:12:45,660.3341889987353,7,15,-1.099929690361023,3.7332603931427,11.451412007710823,11.63048708123787,46.08805054767585,41.9775592127543,-0.0002590179501567,0.1012117490172386,0,0,0
3860,142501.8842627897,2011-01-05 02:13:15,690.3494476387305,7,15,-1.0997490882873535,3.725651741027832,11.451412007710823,11.639656353181124,46.08805054767585,42.01175656127709,-0.0002266406954731,0.1012117490172386,0,0,0
3861,142531.89939129032,2011-01-05 02:13:45,720.3645761393781,7,15,-1.099929690361023,3.718204975128174,11.451412007710823,11.648825584426508,46.08805054767585,42.0458840774044,-0.0001942634553415,0.1012117490172386,0,0,0
3862,142561.914582392,2011-01-05 02:14:15,750.3797672460594,7,15,-1.0997490882873535,3.710758209228516,11.451412007710823,11.657994859945653,46.08805054767585,42.07994350145574,-0.0002266406954731,0.1012117490172386,0,0,0
3863,142591.92977006512,2011-01-05 02:14:45,780.3949548991332,7,15,-1.099568486213684,3.7037971019744873,11.451412007710823,11.667164136825786,46.08805054767585,42.1139360987367,-0.0001618862152099,0.1012117490172386,0,0,0
3864,142621.94509186252,2011-01-05 02:15:15,810.4102766915236,7,15,-1.0997490882873535,3.696674108505249,11.451412007710823,11.67633341420724,46.08805054767585,42.147863041543566,-0.0001618862152099,0.1012117490172386,0,0,0
3865,142651.96013744653,2011-01-05 02:15:45,840.4253222805299,7,15,-1.0997490882873535,3.6895511150360103,11.451412007710823,11.685502603438048,46.08805054767585,42.1817253286277,-0.0001942634553415,0.1012117490172386,0,0,0
3866,142681.97548352944,2011-01-05 02:16:15,870.4406683734846,7,15,-1.0997490882873535,3.682751893997192,11.451412007710823,11.694671913291224,46.08805054767585,42.21552452009032,-0.0001942634553415,0.1012117490172386,0,0,0
3867,142711.9905556897,2011-01-05 02:16:45,900.4557405287022,7,15,-1.0997490882873535,3.676114559173584,11.451412007710823,11.703841094013503,46.08805054767585,42.24926123741142,-0.0001618862152099,0.1012117490172386,0,0,0
3868,142742.00613606154,2011-01-05 02:17:15,930.4713209105772,7,15,-1.099929690361023,3.6693155765533447,11.451412007710823,11.7130104894996,46.08805054767585,42.28293843459498,-0.0002266406954731,0.1012117490172386,0,0,0
3869,142772.02090665518,2011-01-05 02:17:45,960.4860915042104,7,15,-1.099568486213684,3.663325786590576,11.451412007710823,11.722179679420066,46.08805054767585,42.31655519422467,-0.0001295089750783,0.1012117490172386,0,0,0
3870,142802.0360924887,2011-01-05 02:18:15,990.5012773477744,7,15,-1.0997490882873535,3.656688451766968,11.451412007710823,11.731348967397729,46.08805054767585,42.35011372853912,-0.0001618862152099,0.1012117490172386,0,0,0
3871,142832.0516490061,2011-01-05 02:18:45,1020.5168339654216,7,15,-1.099568486213684,3.650536775588989,11.451412007710823,11.740518391256543,46.08805054767585,42.38361523858398,-0.0001295089750783,0.1012117490172386,0,0,0
3872,142862.06660179383,2011-01-05 02:19:15,1050.5317866579012,7,15,-1.0997490882873535,3.6443850994110103,11.451412007710823,11.749687568453313,46.08805054767585,42.417059238907,-0.0001618862152099,0.1012117490172386,0,0,0
3873,142892.08166331754,2011-01-05 02:19:45,1080.546848181622,7,15,-1.099929690361023,3.638395309448242,11.451412007710823,11.758856778481976,46.08805054767585,42.45044758271919,-0.0001295089750783,0.1012117490172386,0,0,0
3874,142922.09724748385,2011-01-05 02:20:15,1110.5624323278787,7,15,-1.099568486213684,3.6324055194854736,11.451412007710823,11.76802622123232,46.08805054767585,42.48378184753384,-0.0001618862152099,0.1012117490172386,0,0,0
3875,142952.11204996696,2011-01-05 02:20:45,1140.577234826028,7,15,-1.099568486213684,3.626739501953125,11.451412007710823,11.77719535329082,46.08805054767585,42.517061227156255,-0.0001295089750783,0.1012117490172386,0,0,0
3876,142982.12721198116,2011-01-05 02:21:15,1170.5923968101267,7,15,-1.0997490882873535,3.6209115982055664,11.451412007710823,11.786364565338763,46.08805054767585,42.55028865370139,-0.0001618862152099,0.1012117490172386,0,0,0
3877,143012.1424766662,2011-01-05 02:21:45,1200.6076616104754,7,15,-1.0997490882873535,3.615407466888428,11.451412007710823,11.795533741838453,46.08805054767585,42.58346460155414,-0.0001618862152099,0.1012117490172386,0,0,0
3878,143042.15758667578,2011-01-05 02:22:15,1230.6227715348252,7,15,-1.0997490882873535,3.609903335571289,11.451412007710823,11.804702869398668,46.08805054767585,42.61659026732976,-0.0001942634553415,0.1012117490172386,0,0,0
3879,143072.1727850355,2011-01-05 02:22:45,1260.6379698695207,7,15,-1.0997490882873535,3.6047229766845694,11.451412007710823,11.813872138552794,46.08805054767585,42.649667645979775,-0.0001618862152099,0.1012117490172386,0,0,0
3880,143102.18816268712,2011-01-05 02:23:15,1290.6533475411795,7,15,-1.0997490882873535,3.599704504013061,11.451412007710823,11.823041390997744,46.08805054767585,42.68269752670371,-0.0001295089750783,0.1012117490172386,0,0,0
3881,143132.20318018112,2011-01-05 02:23:45,1320.668365020127,7,15,-1.099929690361023,3.5946860313415527,11.451412007710823,11.832210543826774,46.08805054767585,42.71568039782776,-0.0001618862152099,0.1012117490172386,0,0,0
3882,143162.21836363873,2011-01-05 02:24:15,1350.683548492782,7,15,-1.0997490882873535,3.589829683303833,11.451412007710823,11.841379784329831,46.08805054767585,42.748618349145744,-9.713172767078504e-05,0.1012117490172386,0,0,0
3883,143192.2358917399,2011-01-05 02:24:45,1380.70107668921,7,15,-1.0997490882873535,3.585134983062744,11.451412007710823,11.850549721499144,46.08805054767585,42.7815148885316,-9.713172767078504e-05,0.1012117490172386,0,0,0
3884,143222.2487457017,2011-01-05 02:25:15,1410.713930530707,7,15,-1.0997490882873535,3.5804402828216557,11.451412007710823,11.85971821751682,46.08805054767585,42.81436368474214,-0.0001295089750783,0.1012117490172386,0,0,0
3885,143252.2640450582,2011-01-05 02:25:45,1440.7292299072303,7,15,-1.0997490882873535,3.5760693550109863,11.451412007710823,11.868887490501328,46.08805054767585,42.84717382014896,-9.713172767078504e-05,0.1012117490172386,0,0,0
3886,143282.2791123563,2011-01-05 02:26:15,1470.7442971852925,7,15,-1.0997490882873535,3.571860313415528,11.451412007710823,11.8780566827626,46.08805054767585,42.879943402791945,-9.713172767078504e-05,0.1012117490172386,0,0,0
3887,143312.29601820165,2011-01-05 02:26:45,1500.7612030657176,7,15,-1.099929690361023,3.5674893856048584,11.451412007710823,11.887226349848047,46.08805054767585,42.91267559517794,-9.713172767078504e-05,0.1012117490172386,0,0,0
3888,143342.309515567,2011-01-05 02:27:15,1530.7747003959869,7,15,-1.0997490882873535,3.5632803440093994,11.451412007710823,11.89639500876639,46.08805054767585,42.94536592129356,-0.0001618862152099,0.1012117490172386,0,0,0
3889,143372.32470300453,2011-01-05 02:27:45,1560.7898878435485,7,15,-1.099568486213684,3.5595569610595703,11.451412007710823,11.905564131976693,46.08805054767585,42.97802129641675,-9.713172767078504e-05,0.1012117490172386,0,0,0
3890,143402.33987454744,2011-01-05 02:28:15,1590.8050594015083,7,15,-1.099929690361023,3.5553479194641118,11.451412007710823,11.914733260680624,46.08805054767585,43.01063992820055,-0.0001295089750783,0.1012117490172386,0,0,0
3891,143432.35507677688,2011-01-05 02:28:45,1620.8202616058484,7,15,-1.099929690361023,3.5516245365142822,11.451412007710823,11.923902388027637,46.08805054767585,43.04322280716094,-0.0001295089750783,0.1012117490172386,0,0,0
3892,143462.37024894633,2011-01-05 02:29:15,1650.8354337803448,7,15,-1.0997490882873535,3.547739267349243,11.451412007710823,11.93307152331274,46.08805054767585,43.07577045833983,-9.713172767078504e-05,0.1012117490172386,0,0,0
3893,143492.3854429402,2011-01-05 02:29:45,1680.850627804297,7,15,-1.099929690361023,3.543853998184204,11.451412007710823,11.94224067981976,46.08805054767585,43.10828316520372,-0.0001295089750783,0.1012117490172386,0,0,0
3894,143522.40063554564,2011-01-05 02:30:15,1710.8658203996886,7,15,-1.0997490882873535,3.540130615234375,11.451412007710823,11.951409859786745,46.08805054767585,43.140760883899794,-9.713172767078504e-05,0.1012117490172386,0,0,0
3895,143552.41584171986,2011-01-05 02:30:46,1740.88102654886,7,15,-1.0997490882873535,3.536407232284546,11.451412007710823,11.960579048423492,46.08805054767585,43.173204081872015,-9.713172767078504e-05,0.1012117490172386,0,0,0
3896,143582.43103463104,2011-01-05 02:31:16,1770.8962194851013,7,15,-1.0997490882873535,3.532521963119507,11.451412007710823,11.969748203798009,46.08805054767585,43.20561280280451,-0.0001295089750783,0.1012117490172386,0,0,0
3897,143612.4462197478,2011-01-05 02:31:46,1800.9114046018535,7,15,-1.0997490882873535,3.528960466384888,11.451412007710823,11.978917370712436,46.08805054767585,43.23798719102,-9.713172767078504e-05,0.1012117490172386,0,0,0
3898,143642.46147476375,2011-01-05 02:32:16,1830.926659693004,7,15,-1.0997490882873535,3.5252370834350586,11.451412007710823,11.988086597758285,46.08805054767585,43.27032699435124,-9.713172767078504e-05,0.1012117490172386,0,0,0
3899,143672.4766017757,2011-01-05 02:32:46,1860.9417866397791,7,15,-1.0997490882873535,3.5213518142700195,11.451412007710823,11.997255696930164,46.08805054767585,43.30263114468178,-6.47544875391759e-05,0.1012117490172386,0,0,0
3900,143702.49177645645,2011-01-05 02:33:16,1890.95696129546,7,15,-1.0997490882873535,3.5173046588897705,11.451412007710823,12.006424855736771,46.08805054767585,43.334900178546285,-6.47544875391759e-05,0.1012117490172386,0,0,0
3901,143732.50696756813,2011-01-05 02:33:46,1920.972152407153,7,15,-1.0997490882873535,3.513257503509521,11.451412007710823,12.015594037349738,46.08805054767585,43.367133396345366,-0.0001295089750783,0.1012117490172386,0,0,0
3902,143762.5221797273,2011-01-05 02:34:16,1950.987364561291,7,15,-1.0997490882873535,3.509372472763061,11.451412007710823,12.024763270744048,46.08805054767585,43.399330099470056,-9.713172767078504e-05,0.1012117490172386,0,0,0
3903,143792.5375927671,2011-01-05 02:34:46,1981.0027776161355,7,15,-1.099568486213684,3.5053253173828125,11.451412007710823,12.033932511081542,46.08805054767585,43.43148936248412,-9.713172767078504e-05,0.1012117490172386,0,0,0
3904,143822.55279712178,2011-01-05 02:35:16,2011.01798196081,7,15,-1.0997490882873535,3.500954389572144,11.451412007710823,12.043101777343376,46.08805054767585,43.46361029685986,-0.0001295089750783,0.1012117490172386,0,0,0
3905,143852.5677406815,2011-01-05 02:35:46,2041.0329255155152,7,15,-1.099568486213684,3.4965834617614746,11.451412007710823,12.0522708951259,46.08805054767585,43.49569075241694,-9.713172767078504e-05,0.1012117490172386,0,0,0
3906,143882.5830097926,2011-01-05 02:36:16,2071.0481947168328,7,15,-1.0997490882873535,3.4918887615203857,11.451412007710823,12.061440138622972,46.08805054767585,43.52772997629904,-9.713172767078504e-05,0.1012117490172386,0,0,0
3907,143912.59813023318,2011-01-05 02:36:46,2101.06331507218,7,15,-1.0997490882873535,3.487032175064087,11.451412007710823,12.070609378567664,46.08805054767585,43.5597258144837,-0.0001618862152099,0.1012117490172386,0,0,0
3908,143942.61330835248,2011-01-05 02:37:16,2131.0784932115425,7,15,-1.099568486213684,3.481851816177368,11.451412007710823,12.079778584518468,46.08805054767585,43.59167571702668,-0.0001618862152099,0.1012117490172386,0,0,0
3909,143972.6285554487,2011-01-05 02:37:46,2161.093740312779,7,15,-1.0997490882873535,3.4761857986450195,11.451412007710823,12.08894782789667,46.08805054767585,43.62357609441547,-0.0001618862152099,0.1012117490172386,0,0,0
3910,144002.64375448012,2011-01-05 02:38:16,2191.108939344212,7,15,-1.099929690361023,3.470034122467041,11.451412007710823,12.09811701126716,46.08805054767585,43.65542330569248,-0.0002266406954731,0.1012117490172386,0,0,0
3911,144032.6610464027,2011-01-05 02:38:46,2221.12623134196,7,15,-1.099568486213684,3.4635586738586426,11.451412007710823,12.107286884046816,46.08805054767585,43.68721472630616,-0.0001618862152099,0.1012117490172386,0,0,0
3912,144062.67408105984,2011-01-05 02:39:16,2251.1392658988552,7,15,-1.0997490882873535,3.4561119079589844,11.451412007710823,12.11645545830132,46.08805054767585,43.71893677345806,-0.0001942634553415,0.1012117490172386,0,0,0
3913,144092.6892946776,2011-01-05 02:39:46,2281.154479511629,7,15,-1.0997490882873535,3.4475319385528564,11.451412007710823,12.12562398463035,46.08805054767585,43.750585717214726,-0.0002266406954731,0.1012117490172386,0,0,0
3914,144122.70445707778,2011-01-05 02:40:16,2311.169641916777,7,15,-1.0997490882873535,3.437494993209839,11.451412007710823,12.13479244666472,46.08805054767585,43.78215003750906,-0.0002913951757363,0.1012117490172386,0,0,0
3915,144152.7196842493,2011-01-05 02:40:46,2341.1848690883435,7,15,-1.099568486213684,3.425677537918091,11.451412007710823,12.143961539575386,46.08805054767585,43.813617249220485,-0.0004209041653666,0.1012117490172386,0,0,0
3916,144182.73496841794,2011-01-05 02:41:16,2371.200153251951,7,15,-1.0997490882873535,3.411593437194824,11.451412007710823,12.153130840632445,46.08805054767585,43.84496648388805,-0.0004532813909463,0.1012117490172386,0,0,0
3917,144212.75007380097,2011-01-05 02:41:46,2401.215258660045,7,15,-1.0997490882873535,3.3942716121673584,11.451412007710823,12.162300004377736,46.08805054767585,43.87617059236432,-0.0004532813909463,0.1012117490172386,0,0,0
3918,144242.76525002558,2011-01-05 02:42:16,2431.230434859573,7,15,-1.099568486213684,3.372255086898804,11.451412007710823,12.171469257905368,46.08805054767585,43.90719592840427,-0.0006151676061563,0.1012117490172386,0,0,0
3919,144272.78045400936,2011-01-05 02:42:46,2461.2456388433484,7,15,-1.099929690361023,3.3440871238708496,11.451412007710823,12.18063855075895,46.08805054767585,43.93799380552239,-0.0008741855854168,0.1012117490172386,0,0,0
3920,144302.7956300585,2011-01-05 02:43:16,2491.260814892501,7,15,-1.0997490882873535,3.3075008392333984,11.451412007710823,12.18980782547397,46.08805054767585,43.96849667556648,-0.0010684489971026,0.1012117490172386,0,0,0
3921,144332.8108189346,2011-01-05 02:43:46,2521.2760037686235,7,15,-1.0997490882873535,3.2586114406585693,11.451412007710823,12.198976985803217,46.08805054767585,43.998609825267074,-0.0014569759368896,0.1012117490172386,0,0,0
3922,144362.82602932936,2011-01-05 02:44:16,2551.2912141633765,7,15,-1.099929690361023,3.191590547561645,11.451412007710823,12.20814622774362,46.08805054767585,44.02819766356929,-0.0020397664047777,0.1012117490172386,0,0,0
3923,144392.8412223909,2011-01-05 02:44:46,2581.30640722493,7,15,-1.099568486213684,3.0965638160705566,11.451412007710823,12.217315506741668,46.08805054767585,44.0570531438465,-0.0029139041434973,0.1012117490172386,0,0,0
3924,144422.85641001392,2011-01-05 02:45:16,2611.321594852941,7,15,-1.099929690361023,2.9479527473449707,11.451412007710823,12.226484729077008,46.08805054767585,44.084824327909686,-0.0049212933517992,0.1012117490172386,0,0,0
3925,144448.48102290876,2011-01-05 02:45:42,2636.946207742759,7,15,-1.0997490882873535,2.747861862182617,11.451412007710823,12.234312716602062,46.08805054767585,44.10716043765947,-0.0069934846833348,0.1012117490172386,0,0,0
3926,144453.88719654188,2011-01-05 02:45:47,2642.3523813758907,7,15,-1.0997490882873535,2.699943780899048,11.451412007710823,12.235964251587374,46.08805054767585,44.11165927392277,-0.0070905685424804,0.1012117490172386,0,0,0
3927,144513.89472327576,2011-01-05 02:46:47,60.01472745188007,8,15,0.0,3.4758620262146,11.451412007710823,12.235964251587374,46.08805054767585,44.11165927392277,0.0013922214275225,0.1012117490172386,0,0,0
3928,144514.07601224218,2011-01-05 02:46:47,0.1876296157346,9,15,-1.9243103452026844e-05,3.4761857986450195,11.451412007710823,12.235964252590312,46.08805054767585,44.11165927740917,0.0,0.0995024740695953,0,0,0
3929,144518.9039175477,2011-01-05 02:46:52,5.015534911240322,9,15,0.0005225847125984,3.4849276542663574,11.45141276242592,12.235964252673298,46.08805317501551,44.11165927769764,0.0012303352123126,0.0995024740695953,0,0,0
