Data_Point,Test_Time(s),Date_Time,Step_Time(s),Step_Index,Cycle_Index,Current(A),Voltage(V),Charge_Capacity(Ah),Discharge_Capacity(Ah),Charge_Energy(Wh),Discharge_Energy(Wh),dV/dt(V/s),Internal_Resistance(Ohm),Is_FC_Data,AC_Impedance(Ohm),ACI_Phase_Angle(Deg)
3930,144548.92670236307,2011-01-05 02:47:22,30.01341778702304,1,16,0.0,3.52199935913086,11.45141276242592,12.235964252673298,46.08805317501551,44.11165927769764,0.0008094310760498,0.0995024740695953,0,0,0
3931,144578.94187473806,2011-01-05 02:47:52,60.02859013194423,1,16,0.0,3.5470917224884038,11.45141276242592,12.235964252673298,46.08805317501551,44.11165927769764,0.0005827903514727,0.0995024740695953,0,0,0
3932,144608.95706566432,2011-01-05 02:48:22,90.04378106318826,1,16,0.0,3.565546751022339,11.45141276242592,12.235964252673298,46.08805317501551,44.11165927769764,0.0004532813909463,0.0995024740695953,0,0,0
3933,144638.9255286351,2011-01-05 02:48:52,120.01224404400196,1,16,0.0,3.580116510391236,11.45141276242592,12.235964252673298,46.08805317501551,44.11165927769764,0.0003885269106831,0.0995024740695953,0,0,0
3934,144668.93596560403,2011-01-05 02:49:23,30.015114280206053,2,16,0.5501165986061096,3.715129137039185,11.455999321040087,12.235964252673298,46.10497549926703,44.11165927769764,0.0011008263099938,0.0995024740695953,0,0,0
3935,144698.9511838634,2011-01-05 02:49:53,60.030332569635085,2,16,0.550297200679779,3.746696949005127,11.460585868856182,12.235964252673298,46.12209289002307,44.11165927769764,0.0006799221155233,0.0995024740695953,0,0,0
3936,144728.9664863226,2011-01-05 02:50:23,90.04563500879114,2,16,0.550297200679779,3.767580032348633,11.465172402257616,12.235964252673298,46.139328286916246,44.11165927769764,0.0004856586456298,0.0995024740695953,0,0,0
3937,144758.9816534545,2011-01-05 02:50:53,120.06080214071994,2,16,0.5501165986061096,3.7808547019958496,11.46975895339382,12.235964252673298,46.15664135162709,44.11165927769764,0.0002590179501567,0.0995024740695953,0,0,0
3938,144788.99672020125,2011-01-05 02:51:23,150.07586887743298,2,16,0.5501165986061096,3.7897584438323975,11.474345477875818,12.235964252673298,46.17400394162177,44.11165927769764,0.0001942634553415,0.0995024740695953,0,0,0
3939,144819.01228133016,2011-01-05 02:51:53,180.09143001634845,2,16,0.5501165986061096,3.796719551086426,11.47893210237047,12.235964252673298,46.19140283578602,44.11165927769764,0.0001618862152099,0.0995024740695953,0,0,0
3940,144849.02723861908,2011-01-05 02:52:23,210.106387305284,2,16,0.5501165986061096,3.803194999694824,11.483518655856264,12.235964252673298,46.20883176499792,44.11165927769764,0.0001618862152099,0.0995024740695953,0,0,0
3941,144879.0424347583,2011-01-05 02:52:53,240.12158343949537,2,16,0.550297200679779,3.808861017227173,11.48810529470306,12.235964252673298,46.22628854500863,44.11165927769764,0.0001618862152099,0.0995024740695953,0,0,0
3942,144909.0575389584,2011-01-05 02:53:23,270.13668763456616,2,16,0.5501165986061096,3.8145270347595215,11.49269182542265,12.235964252673298,46.24377068491916,44.11165927769764,0.0001618862152099,0.0995024740695953,0,0,0
3943,144939.07270245627,2011-01-05 02:53:53,300.1518511274253,2,16,0.5499359965324402,3.8195455074310303,11.497278360011578,12.235964252673298,46.261277394137245,44.11165927769764,0.0001295089750783,0.0995024740695953,0,0,0
3944,144969.08788248032,2011-01-05 02:54:23,330.1670311514852,2,16,0.5501165986061096,3.824563980102539,11.50186494069064,12.235964252673298,46.27880748844241,44.11165927769764,0.0001295089750783,0.0995024740695953,0,0,0
3945,144999.1031525137,2011-01-05 02:54:53,360.182301285126,2,16,0.5501165986061096,3.829258680343628,11.50645151751898,12.235964252673298,46.2963599589987,44.11165927769764,9.713172767078504e-05,0.0995024740695953,0,0,0
3946,145029.11829725988,2011-01-05 02:55:23,390.1974459310126,2,16,0.5501165986061096,3.8339531421661377,11.511038054655446,12.235964252673298,46.31393392793985,44.11165927769764,0.0001295089750783,0.0995024740695953,0,0,0
3947,145059.13569888083,2011-01-05 02:55:53,420.2148476522255,2,16,0.5501165986061096,3.8384859561920166,11.515624896374096,12.235964252673298,46.33153012014673,44.11165927769764,0.0001295089750783,0.0995024740695953,0,0,0
3948,145089.14872339767,2011-01-05 02:56:23,450.22787217411087,2,16,0.5501165986061096,3.843018770217896,11.520211092764823,12.235964252673298,46.349144563508375,44.11165927769764,9.713172767078504e-05,0.0995024740695953,0,0,0
3949,145119.16385161763,2011-01-05 02:56:53,480.2430002887966,2,16,0.5501165986061096,3.847389698028565,11.524797608891957,12.235964252673298,46.36678048198027,44.11165927769764,0.0001295089750783,0.0995024740695953,0,0,0
3950,145149.17901498015,2011-01-05 02:57:23,510.2581636864184,2,16,0.5501165986061096,3.8517606258392334,11.529384126554884,12.235964252673298,46.384436543914966,44.11165927769764,0.0001295089750783,0.0995024740695953,0,0,0
3951,145179.1942228336,2011-01-05 02:57:53,540.2733715097628,2,16,0.5499359965324402,3.855969667434693,11.533970613883628,12.235964252673298,46.40211242838669,44.11165927769764,9.713172767078504e-05,0.0995024740695953,0,0,0
3952,145209.20943353913,2011-01-05 02:58:23,570.2885822253154,2,16,0.5501165986061096,3.860340595245361,11.538557166505566,12.235964252673298,46.41980830883803,44.11165927769764,0.0001295089750783,0.0995024740695953,0,0,0
3953,145239.22461163337,2011-01-05 02:58:53,600.3037603095406,2,16,0.5501165986061096,3.86454963684082,11.543143709803712,12.235964252673298,46.43752356126109,44.11165927769764,9.713172767078504e-05,0.0995024740695953,0,0,0
3954,145269.23979294565,2011-01-05 02:59:23,630.3189416318362,2,16,0.5501165986061096,3.868596792221069,11.54773024489163,12.235964252673298,46.45525792361425,44.11165927769764,9.713172767078504e-05,0.0995024740695953,0,0,0
3955,145299.2549951099,2011-01-05 02:59:53,660.3341437860514,2,16,0.5501165986061096,3.8726439476013184,11.55231679814312,12.235964252673298,46.47301108848957,44.11165927769764,0.0001295089750783,0.0995024740695953,0,0,0
3956,145329.27032413532,2011-01-05 03:00:23,690.349472826506,2,16,0.5501165986061096,3.876691102981568,11.55690340058568,12.235964252673298,46.49078275766471,44.11165927769764,9.713172767078504e-05,0.0995024740695953,0,0,0
3957,145359.28536208524,2011-01-05 03:00:53,720.3645107614362,2,16,0.5501165986061096,3.880414485931397,11.561489974555816,12.235964252673298,46.50857200011532,44.11165927769764,6.47544875391759e-05,0.0995024740695953,0,0,0
3958,145389.30071006794,2011-01-05 03:01:23,750.3798587541256,2,16,0.5501165986061096,3.8841378688812256,11.566076557319864,12.235964252673298,46.52637835032144,44.11165927769764,9.713172767078504e-05,0.0995024740695953,0,0,0
3959,145419.31575955666,2011-01-05 03:01:53,780.394908227814,2,16,0.5501165986061096,3.8875374794006343,11.570663155932449,12.235964252673298,46.54420104542408,44.11165927769764,6.47544875391759e-05,0.0995024740695953,0,0,0
3960,145449.3310671737,2011-01-05 03:02:23,810.4102158799623,2,16,0.5501165986061096,3.890937089920044,11.57524981225098,12.235964252673298,46.56203956450571,44.11165927769764,6.47544875391759e-05,0.0995024740695953,0,0,0
3961,145479.34613608586,2011-01-05 03:02:53,840.4252847620224,2,16,0.5501165986061096,3.894012928009033,11.579836411573208,12.235964252673298,46.579892707097045,44.11165927769764,6.47544875391759e-05,0.0995024740695953,0,0,0
3962,145509.36133129275,2011-01-05 03:03:23,870.440479973935,2,16,0.550297200679779,3.8970887660980233,11.584423024868745,12.235964252673298,46.59775967557847,44.11165927769764,9.713172767078504e-05,0.0995024740695953,0,0,0
3963,145539.37654454465,2011-01-05 03:03:53,900.4556932408464,2,16,0.5501165986061096,3.899678945541382,11.589009554658938,12.235964252673298,46.61563967059472,44.11165927769764,6.47544875391759e-05,0.0995024740695953,0,0,0
3964,145569.3918423723,2011-01-05 03:04:23,930.4709910534716,2,16,0.5499359965324402,3.902431011199951,11.59359614691664,12.235964252673298,46.63353263601432,44.11165927769764,6.47544875391759e-05,0.0995024740695953,0,0,0
3965,145599.4069140814,2011-01-05 03:04:53,960.4860627575652,2,16,0.5501165986061096,3.905021190643311,11.598182778994252,12.235964252673298,46.65143788984631,44.11165927769764,6.47544875391759e-05,0.0995024740695953,0,0,0
3966,145629.42217372387,2011-01-05 03:05:23,990.5013225003084,2,16,0.550297200679779,3.90761137008667,11.602769418604064,12.235964252673298,46.66935458778029,44.11165927769764,6.47544875391759e-05,0.0995024740695953,0,0,0
3967,145659.43731332218,2011-01-05 03:05:53,1020.5164619933528,2,16,0.5501165986061096,3.9100396633148193,11.607356040113167,12.235964252673298,46.68728234696244,44.11165927769764,0.0001295089750783,0.0995024740695953,0,0,0
3968,145689.4527634895,2011-01-05 03:06:23,1050.5319121907678,2,16,0.5499359965324402,3.912144184112549,11.611942712701662,12.235964252673298,46.70522101804675,44.11165927769764,3.237724376958795e-05,0.0995024740695953,0,0,0
3969,145719.46770534,2011-01-05 03:06:53,1080.5468540111508,2,16,0.5501165986061096,3.914572238922119,11.616529323463457,12.235964252673298,46.72316994875594,44.11165927769764,6.47544875391759e-05,0.0995024740695953,0,0,0
3970,145749.48302908725,2011-01-05 03:07:23,1110.5621778085383,2,16,0.5501165986061096,3.9166767597198486,11.62111603107294,12.235964252673298,46.7411294534261,44.11165927769764,6.47544875391759e-05,0.0995024740695953,0,0,0
3971,145779.49828425862,2011-01-05 03:07:53,1140.5774329297633,2,16,0.550297200679779,3.918943166732788,11.625702593073909,12.235964252673298,46.75909844318082,44.11165927769764,9.713172767078504e-05,0.0995024740695953,0,0,0
3972,145809.51352066317,2011-01-05 03:08:23,1170.592669344366,2,16,0.5501165986061096,3.9210476875305176,11.630289186825832,12.235964252673298,46.77707755419445,44.11165927769764,6.47544875391759e-05,0.0995024740695953,0,0,0
3973,145839.5284561879,2011-01-05 03:08:53,1200.6076048640457,2,16,0.5499359965324402,3.923152208328247,11.634874886125209,12.235964252673298,46.79506289744099,44.11165927769764,6.47544875391759e-05,0.0995024740695953,0,0,0
3974,145869.5436608834,2011-01-05 03:09:23,1230.6228095796446,2,16,0.5497553944587708,3.925256729125977,11.639460641376555,12.235964252673298,46.81305824046661,44.11165927769764,6.47544875391759e-05,0.0995024740695953,0,0,0
3975,145899.55887961396,2011-01-05 03:09:53,1260.638028290123,2,16,0.550297200679779,3.927523136138916,11.644047185736092,12.235964252673298,46.83106647895665,44.11165927769764,9.713172767078504e-05,0.0995024740695953,0,0,0
3976,145929.57408547742,2011-01-05 03:10:23,1290.6532341585953,2,16,0.5501165986061096,3.929465770721436,11.6486337968965,12.235964252673298,46.84908466759599,44.11165927769764,6.47544875391759e-05,0.0995024740695953,0,0,0
3977,145959.58927915047,2011-01-05 03:10:53,1320.6684278266605,2,16,0.5501165986061096,3.931570291519165,11.653220421805491,12.235964252673298,46.86711251505936,44.11165927769764,6.47544875391759e-05,0.0995024740695953,0,0,0
3978,145989.60444716463,2011-01-05 03:11:23,1350.6835958357751,2,16,0.5499359965324402,3.933512926101685,11.65780700400941,12.235964252673298,46.88514973594098,44.11165927769764,3.237724376958795e-05,0.0995024740695953,0,0,0
3979,146019.61965398045,2011-01-05 03:11:53,1380.6988026516085,2,16,0.5501165986061096,3.935779333114624,11.662393606732564,12.235964252673298,46.903196547085685,44.11165927769764,3.237724376958795e-05,0.0995024740695953,0,0,0
3980,146049.63482951833,2011-01-05 03:12:23,1410.7139781894878,2,16,0.5501165986061096,3.937721967697144,11.666980260313386,12.235964252673298,46.92125297889168,44.11165927769764,0.0,0.0995024740695953,0,0,0
3981,146079.6500418128,2011-01-05 03:12:53,1440.729190478963,2,16,0.5501165986061096,3.939826488494873,11.67156682198888,12.235964252673298,46.9393185426053,44.11165927769764,3.237724376958795e-05,0.0995024740695953,0,0,0
3982,146109.66522139075,2011-01-05 03:13:23,1470.7443700619235,2,16,0.5501165986061096,3.9419310092926025,11.676153457311996,12.235964252673298,46.95739379923825,44.11165927769764,6.47544875391759e-05,0.0995024740695953,0,0,0
3983,146139.6826469965,2011-01-05 03:13:53,1500.7617957679138,2,16,0.5501165986061096,3.943873643875122,11.680740380046988,12.235964252673298,46.975479563986,44.11165927769764,3.237724376958795e-05,0.0995024740695953,0,0,0
3984,146169.6956335989,2011-01-05 03:14:23,1530.7747822951048,2,16,0.550297200679779,3.945978164672852,11.685326636030188,12.235964252673298,46.99357201784679,44.11165927769764,6.47544875391759e-05,0.0995024740695953,0,0,0
3985,146199.71080476086,2011-01-05 03:14:53,1560.7899534320152,2,16,0.5501165986061096,3.948082685470581,11.689913262213416,12.235964252673298,47.011675219222845,44.11165927769764,6.47544875391759e-05,0.0995024740695953,0,0,0
3986,146229.7260029552,2011-01-05 03:15:23,1590.8051516263613,2,16,0.5501165986061096,3.94986343383789,11.694499853337875,12.235964252673298,47.02978751309976,44.11165927769764,3.237724376958795e-05,0.0995024740695953,0,0,0
3987,146259.74291262007,2011-01-05 03:15:53,1620.822061296231,2,16,0.5501165986061096,3.95196795463562,11.699086632749609,12.235964252673298,47.047909756167634,44.11165927769764,6.47544875391759e-05,0.0995024740695953,0,0,0
3988,146289.7565084859,2011-01-05 03:16:23,1650.8356571771185,2,16,0.5501165986061096,3.95391058921814,11.70367298841798,12.235964252673298,47.06603945958384,44.11165927769764,3.237724376958795e-05,0.0995024740695953,0,0,0
3989,146319.77157121262,2011-01-05 03:16:53,1680.8507198938123,2,16,0.5501165986061096,3.956176996231079,11.708259548887966,12.235964252673298,47.084179135287705,44.11165927769764,9.713172767078504e-05,0.0995024740695953,0,0,0
3990,146349.7869045939,2011-01-05 03:17:23,1710.8660532851104,2,16,0.5501165986061096,3.9579577445983887,11.712846228511705,12.235964252673298,47.10232841541259,44.11165927769764,6.47544875391759e-05,0.0995024740695953,0,0,0
3991,146379.802001987,2011-01-05 03:17:53,1740.8811506832412,2,16,0.5501165986061096,3.959900379180908,11.717432832088903,12.235964252673298,47.120486518704205,44.11165927769764,3.237724376958795e-05,0.0995024740695953,0,0,0
3992,146409.8171612243,2011-01-05 03:18:23,1770.8963098954316,2,16,0.5501165986061096,3.9620048999786377,11.722019395607324,12.235964252673298,47.13865362317113,44.11165927769764,3.237724376958795e-05,0.0995024740695953,0,0,0
3993,146439.83235191993,2011-01-05 03:18:53,1800.9115005961012,2,16,0.5499359965324402,3.9637856483459473,11.726605976503548,12.235964252673298,47.15682988486756,44.11165927769764,0.0,0.0995024740695953,0,0,0
3994,146469.84755018947,2011-01-05 03:19:23,1830.9266988556096,2,16,0.5501165986061096,3.9658901691436768,11.73119260652478,12.235964252673298,47.1750155785668,44.11165927769764,6.47544875391759e-05,0.0995024740695953,0,0,0
3995,146499.8627519878,2011-01-05 03:19:54,1860.9419006639623,2,16,0.5501165986061096,3.9679946899414062,11.735779220694347,12.235964252673298,47.1932102746032,44.11165927769764,6.47544875391759e-05,0.0995024740695953,0,0,0
3996,146529.87797653783,2011-01-05 03:20:24,1890.957125219008,2,16,0.5501165986061096,3.969937324523926,11.740365828209748,12.235964252673298,47.2114141085686,44.11165927769764,3.237724376958795e-05,0.0995024740695953,0,0,0
3997,146559.8931312037,2011-01-05 03:20:54,1920.9722798798543,2,16,0.5501165986061096,3.971879959106445,11.74495243672706,12.235964252673298,47.22962709035489,44.11165927769764,3.237724376958795e-05,0.0995024740695953,0,0,0
3998,146589.9083691471,2011-01-05 03:21:24,1950.9875178433167,2,16,0.5499359965324402,3.973822593688965,11.749539006978566,12.235964252673298,47.24784908572619,44.11165927769764,3.237724376958795e-05,0.0995024740695953,0,0,0
3999,146619.92356165228,2011-01-05 03:21:54,1981.0027103234213,2,16,0.5501165986061096,3.9759271144866943,11.754125651044124,12.235964252673298,47.26608053912782,44.11165927769764,6.47544875391759e-05,0.0995024740695953,0,0,0
4000,146649.93872745588,2011-01-05 03:22:24,2011.017876132052,2,16,0.550297200679779,3.977869749069214,11.758712312534865,12.235964252673298,47.284321275581256,44.11165927769764,6.47544875391759e-05,0.0995024740695953,0,0,0
4001,146679.9538847934,2011-01-05 03:22:54,2041.033033484608,2,16,0.5501165986061096,3.979812383651733,11.763298829195838,12.235964252673298,47.30257042641503,44.11165927769764,3.237724376958795e-05,0.0995024740695953,0,0,0
4002,146709.96911320306,2011-01-05 03:23:24,2071.048261899272,2,16,0.5501165986061096,3.982078790664673,11.767885303111129,12.235964252673298,47.320829035011656,44.11165927769764,6.47544875391759e-05,0.0995024740695953,0,0,0
4003,146739.98454513997,2011-01-05 03:23:54,2101.063693811114,2,16,0.5501165986061096,3.984021425247192,11.772471908230814,12.235964252673298,47.33909749402751,44.11165927769764,3.237724376958795e-05,0.0995024740695953,0,0,0
4004,146769.9997690584,2011-01-05 03:24:24,2131.0789177496217,2,16,0.5501165986061096,3.986125946044922,11.777058382255,12.235964252673298,47.357374769259145,44.11165927769764,9.713172767078504e-05,0.0995024740695953,0,0,0
4005,146800.0147229288,2011-01-05 03:24:54,2161.093871599988,2,16,0.550297200679779,3.9882304668426514,11.781644848101818,12.235964252673298,47.3756614920928,44.11165927769764,9.713172767078504e-05,0.0995024740695953,0,0,0
4006,146830.0300403002,2011-01-05 03:25:24,2191.109188991409,2,16,0.5501165986061096,3.990173101425171,11.786231405133154,12.235964252673298,47.39395798261222,44.11165927769764,3.237724376958795e-05,0.0995024740695953,0,0,0
4007,146860.0451130469,2011-01-05 03:25:54,2221.1242617230632,2,16,0.550297200679779,3.9924395084381104,11.790817850122584,12.235964252673298,47.41226364194229,44.11165927769764,9.713172767078504e-05,0.0995024740695953,0,0,0
4008,146890.06029024388,2011-01-05 03:26:24,2251.1394389200777,2,16,0.5501165986061096,3.9945437908172607,11.795404318253718,12.235964252673298,47.43057904496186,44.11165927769764,6.47544875391759e-05,0.0995024740695953,0,0,0
4009,146920.07552582645,2011-01-05 03:26:54,2281.154674507619,2,16,0.550297200679779,3.9966483116149902,11.7999908311451,12.235964252673298,47.44890433391343,44.11165927769764,6.47544875391759e-05,0.0995024740695953,0,0,0
4010,146950.0908114637,2011-01-05 03:27:24,2311.1699601549244,2,16,0.5501165986061096,3.9985909461975098,11.804577409856172,12.235964252673298,47.46723965977578,44.11165927769764,3.237724376958795e-05,0.0995024740695953,0,0,0
4011,146980.10807603312,2011-01-05 03:27:54,2341.1872247995,2,16,0.550297200679779,4.000857353210449,11.80916425279546,12.235964252673298,47.48558583660518,44.11165927769764,3.23295607813634e-05,0.0995024740695953,0,0,0
4012,147010.1211018181,2011-01-05 03:28:24,2371.2002505143587,2,16,0.5501165986061096,4.002799987792969,11.813750343998889,12.235964252673298,47.50393895723455,44.11165927769764,0.0,0.0995024740695953,0,0,0
4013,147040.13627340118,2011-01-05 03:28:54,2401.2154220723187,2,16,0.5501165986061096,4.005390167236328,11.818336861690447,12.235964252673298,47.52230384488316,44.11165927769764,0.0001295089750783,0.0995024740695953,0,0,0
4014,147070.15158784523,2011-01-05 03:29:24,2431.2307365314323,2,16,0.5501165986061096,4.007494926452637,11.822923442685545,12.235964252673298,47.54067916338629,44.11165927769764,6.47544875391759e-05,0.0995024740695953,0,0,0
4015,147100.16664768977,2011-01-05 03:29:54,2461.2457963659426,2,16,0.5499359965324402,4.009599208831787,11.827509992523511,12.235964252673298,47.55906460206102,44.11165927769764,0.0,0.0995024740695953,0,0,0
4016,147130.18185844543,2011-01-05 03:30:24,2491.2610071165827,2,16,0.5501165986061096,4.012027740478516,11.832096437808056,12.235964252673298,47.5774599743934,44.11165927769764,6.47544875391759e-05,0.0995024740695953,0,0,0
4017,147160.1970718928,2011-01-05 03:30:54,2521.276220563944,2,16,0.5501165986061096,4.014294147491455,11.836682964707036,12.235964252673298,47.59586619322084,44.11165927769764,9.71794142969884e-05,0.0995024740695953,0,0,0
4018,147190.21227045305,2011-01-05 03:31:24,2551.291419124202,2,16,0.550297200679779,4.016722202301025,11.841269523251247,12.235964252673298,47.61428314691425,44.11165927769764,6.47544875391759e-05,0.0995024740695953,0,0,0
4019,147220.22748572996,2011-01-05 03:31:54,2581.3066345214224,2,16,0.5499359965324402,4.018826961517334,11.845856050646178,12.235964252673298,47.63271070430263,44.11165927769764,3.24249267578125e-05,0.0995024740695953,0,0,0
4020,147250.24263151368,2011-01-05 03:32:24,2611.3217802048957,2,16,0.550297200679779,4.021417140960693,11.850442592687733,12.235964252673298,47.651149048907406,44.11165927769764,6.47544875391759e-05,0.0995024740695953,0,0,0
4021,147280.2578225151,2011-01-05 03:32:54,2641.3369712113267,2,16,0.550297200679779,4.023845195770264,11.85502908464058,12.235964252673298,47.66959822744551,44.11165927769764,9.70840483205393e-05,0.0995024740695953,0,0,0
4022,147310.27301962173,2011-01-05 03:33:24,2671.352168317961,2,16,0.5499359965324402,4.025949954986572,11.859615579364927,12.235964252673298,47.68805846531403,44.11165927769764,6.47544875391759e-05,0.0995024740695953,0,0,0
4023,147340.28822705412,2011-01-05 03:33:54,2701.367375750332,2,16,0.5501165986061096,4.028540134429932,11.86420206462949,12.235964252673298,47.70652988618957,44.11165927769764,6.47544875391759e-05,0.0995024740695953,0,0,0
4024,147370.3035489718,2011-01-05 03:34:24,2731.3826976630216,2,16,0.5499359965324402,4.030968189239502,11.868788634605975,12.235964252673298,47.725012983270105,44.11165927769764,3.23295607813634e-05,0.0995024740695953,0,0,0
4025,147400.31860398932,2011-01-05 03:34:54,2761.3977526654894,2,16,0.550297200679779,4.033558368682861,11.873375088949444,12.235964252673298,47.74350709202082,44.11165927769764,3.23295607813634e-05,0.0995024740695953,0,0,0
4026,147430.33394713994,2011-01-05 03:35:24,2791.4130958361607,2,16,0.550297200679779,4.036148548126221,11.877961632091926,12.235964252673298,47.76201314273363,44.11165927769764,6.47544875391759e-05,0.0995024740695953,0,0,0
4027,147460.34901250323,2011-01-05 03:35:54,2821.4281611743886,2,16,0.550297200679779,4.03873872756958,11.882548105898286,12.235964252673298,47.78053067982116,44.11165927769764,9.71794142969884e-05,0.0995024740695953,0,0,0
4028,147490.3643137043,2011-01-05 03:36:24,2851.4434623804714,2,16,0.5501165986061096,4.04132890701294,11.887134631071625,12.235964252673298,47.79906013654061,44.11165927769764,9.71794142969884e-05,0.0995024740695953,0,0,0
4029,147520.37938466153,2011-01-05 03:36:54,2881.4585333326904,2,16,0.5501165986061096,4.043919086456299,11.89172109453038,12.235964252673298,47.817601306968925,44.11165927769764,9.71794142969884e-05,0.0995024740695953,0,0,0
4030,147550.39459047987,2011-01-05 03:37:24,2911.4737391560507,2,16,0.550297200679779,4.046670913696289,11.89630764043626,12.235964252673298,47.8361548639702,44.11165927769764,0.0001295089750783,0.0995024740695953,0,0,0
4031,147580.40979819794,2011-01-05 03:37:54,2941.488946879145,2,16,0.5501165986061096,4.049099445343018,11.900894154620694,12.235964252673298,47.85472050279413,44.11165927769764,3.24249267578125e-05,0.0995024740695953,0,0,0
4032,147610.42524889662,2011-01-05 03:38:24,2971.5043975727967,2,16,0.550297200679779,4.052013397216797,11.905480703594746,12.235964252673298,47.87329850054992,44.11165927769764,9.71794142969884e-05,0.0995024740695953,0,0,0
4033,147640.44018491253,2011-01-05 03:38:54,3001.519333583701,2,16,0.550297200679779,4.054603576660156,11.910067216488937,12.235964252673298,47.89188878235538,44.11165927769764,6.47544875391759e-05,0.0995024740695953,0,0,0
4034,147670.45536426993,2011-01-05 03:39:24,3031.5345129411,2,16,0.5499359965324402,4.057193756103516,11.914653783836386,12.235964252673298,47.910491695396566,44.11165927769764,3.24249267578125e-05,0.0995024740695953,0,0,0
4035,147700.47078551017,2011-01-05 03:39:54,3061.549934216432,2,16,0.5501165986061096,4.060107707977295,11.919240318915955,12.235964252673298,47.92910705146978,44.11165927769764,6.47544875391759e-05,0.0995024740695953,0,0,0
4036,147730.4859942909,2011-01-05 03:40:24,3091.5651429821246,2,16,0.550297200679779,4.062859535217285,11.923826814032635,12.235964252673298,47.947734477153965,44.11165927769764,9.70840483205393e-05,0.0995024740695953,0,0,0
4037,147760.5009402817,2011-01-05 03:40:54,3121.5800889578645,2,16,0.5501165986061096,4.065611839294434,11.928413304816086,12.235964252673298,47.966374731781485,44.11165927769764,6.47544875391759e-05,0.0995024740695953,0,0,0
4038,147790.51610973442,2011-01-05 03:41:24,3151.59525843564,2,16,0.5501165986061096,4.068363666534424,11.93299978479835,12.235964252673298,47.98502784926553,44.11165927769764,6.47544875391759e-05,0.0995024740695953,0,0,0
4039,147820.5313479535,2011-01-05 03:41:54,3181.610496659752,2,16,0.5499359965324402,4.071115970611572,11.937586306411644,12.235964252673298,48.00369423263013,44.11165927769764,3.24249267578125e-05,0.0995024740695953,0,0,0
4040,147850.54654259398,2011-01-05 03:42:24,3211.625691280191,2,16,0.5501165986061096,4.074191570281982,11.942172755466556,12.235964252673298,48.02237348873975,44.11165927769764,9.70840483205393e-05,0.0995024740695953,0,0,0
4041,147880.56171633743,2011-01-05 03:42:54,3241.6408650336225,2,16,0.5501165986061096,4.076943874359131,11.94675932583181,12.235964252673298,48.04106662617587,44.11165927769764,3.24249267578125e-05,0.0995024740695953,0,0,0
4042,147910.5770374832,2011-01-05 03:43:24,3271.6561861794007,2,16,0.5501165986061096,4.080019474029541,11.95134583111218,12.235964252673298,48.059772919786525,44.11165927769764,6.47544875391759e-05,0.0995024740695953,0,0,0
4043,147940.59213413947,2011-01-05 03:43:54,3301.671282815633,2,16,0.5501165986061096,4.08293342590332,11.955932329457712,12.235964252673298,48.07849272313169,44.11165927769764,3.23295607813634e-05,0.0995024740695953,0,0,0
4044,147970.60731521115,2011-01-05 03:44:24,3331.6864638873035,2,16,0.5501165986061096,4.086009502410889,11.960518783285952,12.235964252673298,48.097226049857,44.11165927769764,9.71794142969884e-05,0.0995024740695953,0,0,0
4045,148000.6225228039,2011-01-05 03:44:54,3361.7016714800734,2,16,0.5501165986061096,4.089085102081299,11.96510526715659,12.235964252673298,48.11597320890152,44.11165927769764,9.70840483205393e-05,0.0995024740695953,0,0,0
4046,148030.6377087026,2011-01-05 03:45:24,3391.716857383787,2,16,0.5501165986061096,4.092161178588867,11.969691784400938,12.235964252673298,48.13473441286565,44.11165927769764,0.0001295089750783,0.0995024740695953,0,0,0
4047,148060.65510336624,2011-01-05 03:45:54,3421.734252052423,2,16,0.550297200679779,4.095075130462647,11.974278643045412,12.235964252673298,48.1535110517318,44.11165927769764,6.47544875391759e-05,0.0995024740695953,0,0,0
4048,148090.66822070445,2011-01-05 03:46:24,3451.747369395648,2,16,0.5501165986061096,4.098312854766846,11.978864805108064,12.235964252673298,48.172299068661424,44.11165927769764,0.0001295089750783,0.0995024740695953,0,0,0
4049,148120.68328257903,2011-01-05 03:46:54,3481.7624312501925,2,16,0.5499359965324402,4.101226806640625,11.983451357896946,12.235964252673298,48.19110299531282,44.11165927769764,3.24249267578125e-05,0.0995024740695953,0,0,0
4050,148150.69847855787,2011-01-05 03:47:24,3511.777627239042,2,16,0.5501165986061096,4.104626178741455,11.988037822064726,12.235964252673298,48.209920897096296,44.11165927769764,9.70840483205393e-05,0.0995024740695953,0,0,0
4051,148180.7156358098,2011-01-05 03:47:54,3541.7947845160243,2,16,0.5501165986061096,4.107702255249023,11.992624614248392,12.235964252673298,48.22875477886237,44.11165927769764,9.71794142969884e-05,0.0995024740695953,0,0,0
4052,148210.72888145776,2011-01-05 03:48:24,3571.808030128937,2,16,0.5501165986061096,4.110939979553223,11.997210789424305,12.235964252673298,48.24760080872514,44.11165927769764,9.71794142969884e-05,0.0995024740695953,0,0,0
4053,148240.7441985735,2011-01-05 03:48:54,3601.8233472647216,2,16,0.5499359965324402,4.113853931427002,12.001797250174285,12.235964252673298,48.26646274811104,44.11165927769764,3.24249267578125e-05,0.0995024740695953,0,0,0
4054,148270.75930150546,2011-01-05 03:49:24,3631.838450186619,2,16,0.5501165986061096,4.117414951324463,12.006383743832895,12.235964252673298,48.285339780720506,44.11165927769764,9.70840483205393e-05,0.0995024740695953,0,0,0
4055,148300.7746112829,2011-01-05 03:49:54,3661.853759964064,2,16,0.550297200679779,4.120652675628662,12.010970244439148,12.235964252673298,48.30423184759884,44.11165927769764,9.70840483205393e-05,0.0995024740695953,0,0,0
4056,148330.78964786945,2011-01-05 03:50:24,3691.868796535596,2,16,0.5501165986061096,4.12405252456665,12.015556701235257,12.235964252673298,48.32313887784651,44.11165927769764,9.71794142969884e-05,0.0995024740695953,0,0,0
4057,148360.8049848547,2011-01-05 03:50:54,3721.884133540902,2,16,0.5501165986061096,4.1274518966674805,12.0201431748893,12.235964252673298,48.34206121668994,44.11165927769764,0.0001295089750783,0.0995024740695953,0,0,0
4058,148390.82004028323,2011-01-05 03:51:24,3751.8991889594063,2,16,0.5499359965324402,4.13068962097168,12.024729711470975,12.235964252673298,48.3609993322029,44.11165927769764,6.47544875391759e-05,0.0995024740695953,0,0,0
4059,148420.83538013563,2011-01-05 03:51:55,3781.9145288268455,2,16,0.5501165986061096,4.134251117706299,12.029316197034412,12.235964252673298,48.37995282701935,44.11165927769764,0.0001295089750783,0.0995024740695953,0,0,0
4060,148450.85044098768,2011-01-05 03:52:25,3811.929589678892,2,16,0.5499359965324402,4.137488842010498,12.033902731442051,12.235964252673298,48.39892229085185,44.11165927769764,6.47544875391759e-05,0.0995024740695953,0,0,0
4061,148480.86581136618,2011-01-05 03:52:55,3841.9449600523617,2,16,0.5501165986061096,4.141050338745117,12.03848926373566,12.235964252673298,48.417907599579294,44.11165927769764,9.70840483205393e-05,0.0995024740695953,0,0,0
4062,148510.88096014736,2011-01-05 03:53:25,3871.9601088285417,2,16,0.5501165986061096,4.144611835479736,12.043075798361826,12.235964252673298,48.43690886802785,44.11165927769764,9.70840483205393e-05,0.0995024740695953,0,0,0
4063,148540.89604901423,2011-01-05 03:53:55,3901.97519771546,2,16,0.5501165986061096,4.1483354568481445,12.047662257975034,12.235964252673298,48.45592622167087,44.11165927769764,0.0001295089750783,0.0995024740695953,0,0,0
4064,148570.91138678143,2011-01-05 03:54:25,3931.9905354525895,2,16,0.5501165986061096,4.151734828948975,12.05224872209468,12.235964252673298,48.47495973965618,44.11165927769764,9.70840483205393e-05,0.0995024740695953,0,0,0
4065,148600.92642853086,2011-01-05 03:54:55,3962.0055772321016,2,16,0.5499359965324402,4.155134677886963,12.05683513958472,12.235964252673298,48.49400937257997,44.11165927769764,9.71794142969884e-05,0.0995024740695953,0,0,0
4066,148630.94161713633,2011-01-05 03:55:25,3992.0207658074746,2,16,0.5499359965324402,4.158696174621582,12.061421562408675,12.235964252673298,48.51307543103005,44.11165927769764,6.47544875391759e-05,0.0995024740695953,0,0,0
4067,148660.9570497098,2011-01-05 03:55:55,4022.0361983859766,2,16,0.5499359965324402,4.162419319152832,12.066008078875718,12.235964252673298,48.532158383044646,44.11165927769764,6.47544875391759e-05,0.0995024740695953,0,0,0
4068,148690.972172015,2011-01-05 03:56:25,4052.051320716246,2,16,0.5501165986061096,4.166304588317871,12.070594572807114,12.235964252673298,48.55125787880777,44.11165927769764,0.0001618385285837,0.0995024740695953,0,0,0
4069,148720.98720729834,2011-01-05 03:56:55,4082.0663559745058,2,16,0.5501165986061096,4.16986608505249,12.07518104883397,12.235964252673298,48.57037406299619,44.11165927769764,0.0001295089750783,0.0995024740695953,0,0,0
4070,148751.00240500647,2011-01-05 03:57:25,4112.081553677627,2,16,0.5501165986061096,4.173589706420898,12.079767461801666,12.235964252673298,48.58950686119412,44.11165927769764,0.0001295089750783,0.0995024740695953,0,0,0
4071,148781.0176108248,2011-01-05 03:57:55,4142.096759506,2,16,0.5501165986061096,4.177312850952148,12.084353938066933,12.235964252673298,48.60865694890974,44.11165927769764,0.0001295089750783,0.0995024740695953,0,0,0
4072,148811.0329155246,2011-01-05 03:58:25,4172.112064210803,2,16,0.5501165986061096,4.181036472320557,12.088940392925316,12.235964252673298,48.6278240705672,44.11165927769764,0.0001295089750783,0.0995024740695953,0,0,0
4073,148841.04799503816,2011-01-05 03:58:55,4202.127143714334,2,16,0.5499359965324402,4.184597969055176,12.093526835706015,12.235964252673298,48.647008451401376,44.11165927769764,6.47544875391759e-05,0.0995024740695953,0,0,0
4074,148871.06332041448,2011-01-05 03:59:25,4232.142469110707,2,16,0.5501165986061096,4.188644886016846,12.098113297743671,12.235964252673298,48.66621021118301,44.11165927769764,0.0001295089750783,0.0995024740695953,0,0,0
4075,148901.08053670355,2011-01-05 03:59:55,4262.159685474952,2,16,0.5501165986061096,4.192368507385254,12.10270003352506,12.235964252673298,48.6854306687356,44.11165927769764,6.47544875391759e-05,0.0995024740695953,0,0,0
4076,148931.0935852854,2011-01-05 04:00:25,4292.172733961565,2,16,0.5501165986061096,4.196253299713135,12.10728615621042,12.235964252673298,48.70466609929136,44.11165927769764,0.0001295089750783,0.0995024740695953,0,0,0
4077,148960.37455105662,2011-01-05 04:00:54,4321.453699838058,2,16,0.5501165986061096,4.200138568878174,12.111760348675634,12.235964252673298,48.7234491100782,44.11165927769764,0.0001295089750783,0.0995024740695953,0,0,0
4078,148990.38452127072,2011-01-05 04:01:24,30.015159858801937,3,16,0.0,4.107216358184815,12.111760348675634,12.235964252673298,48.7234491100782,44.11165927769764,-0.0004209518374409,0.0995024740695953,0,0,0
4079,149020.39971312927,2011-01-05 04:01:54,60.030351787532005,3,16,0.0,4.095236778259277,12.111760348675634,12.235964252673298,48.7234491100782,44.11165927769764,-0.0002590179501567,0.0995024740695953,0,0,0
4080,149050.41492758415,2011-01-05 04:02:24,90.04556616220427,3,16,0.0,4.088275909423828,12.111760348675634,12.235964252673298,48.7234491100782,44.11165927769764,-0.0001295089750783,0.0995024740695953,0,0,0
4081,149080.3832359346,2011-01-05 04:02:54,120.01387451764396,3,16,0.0,4.08358097076416,12.111760348675634,12.235964252673298,48.7234491100782,44.11165927769764,-0.0001295089750783,0.0995024740695953,0,0,0
4082,149080.39554015282,2011-01-05 04:02:54,0.015764334572319,4,16,1.0121151208877563,4.199814796447754,12.11176480918692,12.235964252673298,48.72346784339949,44.11165927769764,0.0,0.0995024740695953,0,0,0
4083,149081.25471814876,2011-01-05 04:02:55,0.874942295413184,4,16,0.9620863795280457,4.199653148651123,12.111999089587083,12.235964252673298,48.72445175745859,44.11165927769764,-3.23295607813634e-05,0.0995024740695953,0,0,0
4084,149083.17692052852,2011-01-05 04:02:57,2.797144690227953,4,16,0.9116963744163512,4.199814796447754,12.11249835731724,12.235964252673298,48.72654856372814,44.11165927769764,0.0,0.0995024740695953,0,0,0
4085,149086.02040371354,2011-01-05 04:03:00,5.640627880255406,4,16,0.8614870309829712,4.199491024017334,12.113197744085218,12.235964252673298,48.72948582335559,44.11165927769764,-6.47544875391759e-05,0.0995024740695953,0,0,0
4086,149089.98916267703,2011-01-05 04:03:04,9.60938683372405,4,16,0.8114582300186157,4.199976921081543,12.114118901677898,12.235964252673298,48.733354470020686,44.11165927769764,3.24249267578125e-05,0.0995024740695953,0,0,0
4087,149095.17673718891,2011-01-05 04:03:09,14.796961350596872,4,16,0.7610682249069214,4.199653148651123,12.115250483885523,12.235964252673298,48.73810686214918,44.11165927769764,-3.23295607813634e-05,0.0995024740695953,0,0,0
4088,149101.89518050686,2011-01-05 04:03:16,21.51540468860853,4,16,0.7110394835472107,4.199653148651123,12.116622491195956,12.235964252673298,48.743869000819245,44.11165927769764,-3.23295607813634e-05,0.0995024740695953,0,0,0
4089,149110.83255746018,2011-01-05 04:03:25,30.4527816218884,4,16,0.6610106825828552,4.199814796447754,12.118322590304514,12.235964252673298,48.75100903277509,44.11165927769764,0.0,0.0995024740695953,0,0,0
4090,149123.05129179076,2011-01-05 04:03:37,42.671515952450726,4,16,0.6109819412231445,4.199653148651123,12.120476283146942,12.235964252673298,48.760054077208494,44.11165927769764,0.0,0.0995024740695953,0,0,0
4091,149141.58211186618,2011-01-05 04:03:56,61.20233602786946,4,16,0.5609531998634338,4.199814796447754,12.123482800828569,12.235964252673298,48.77268078552388,44.11165927769764,3.23295607813634e-05,0.0995024740695953,0,0,0
4092,149172.9096938848,2011-01-05 04:04:27,92.52991813172832,4,16,0.5109243988990784,4.199814796447754,12.128124850834832,12.235964252673298,48.79217641696781,44.11165927769764,0.0,0.0995024740695953,0,0,0
4093,149232.54958299422,2011-01-05 04:05:27,152.16980715591166,4,16,0.4608956277370453,4.199814796447754,12.136134348753028,12.235964252673298,48.82581462700458,44.11165927769764,0.0,0.0995024740695953,0,0,0
4094,149329.51680548373,2011-01-05 04:07:03,249.1370296303865,4,16,0.4108668565750122,4.199814796447754,12.147841682263406,12.235964252673298,48.87498294560223,44.11165927769764,0.0,0.0995024740695953,0,0,0
4095,149455.07750708118,2011-01-05 04:09:09,374.69773122782937,4,16,0.3606574833393097,4.199814796447754,12.161279563810686,12.235964252673298,48.931419253112246,44.11165927769764,0.0,0.0995024740695953,0,0,0
4096,149606.02845692966,2011-01-05 04:11:40,525.6486810813104,4,16,0.3106287121772766,4.199814796447754,12.17533410069562,12.235964252673298,48.99044543777965,44.11165927769764,0.0,0.0995024740695953,0,0,0
4097,149787.76026672212,2011-01-05 04:14:42,707.3804909038681,4,16,0.2605999410152435,4.199814796447754,12.189723546218776,12.235964252673298,49.05087811169561,44.11165927769764,0.0,0.0995024740695953,0,0,0
4098,150015.42891758197,2011-01-05 04:18:29,935.0491417536784,4,16,0.2105711698532104,4.199653148651123,12.204579611819018,12.235964252673298,49.11327048279853,44.11165927769764,0.0,0.0995024740695953,0,0,0
4099,150314.45586319373,2011-01-05 04:23:28,1234.0760873353588,4,16,0.1605423986911773,4.199653148651123,12.21991109040992,12.235964252673298,49.177659448475424,44.11165927769764,-3.23295607813634e-05,0.0995024740695953,0,0,0
4100,150752.94957068394,2011-01-05 04:30:47,1672.5697948305776,4,16,0.1105136349797248,4.199814796447754,12.236243458457372,12.235964252673298,49.24625207694969,44.11165927769764,3.23295607813634e-05,0.0995024740695953,0,0,0
4101,151543.1883043887,2011-01-05 04:43:57,2462.808528530337,4,16,0.0604848638176918,4.199814796447754,12.254413407748558,12.235964252673298,49.32256179786964,44.11165927769764,-3.24249267578125e-05,0.0995024740695953,0,0,0
4102,151825.46556298668,2011-01-05 04:48:39,2745.085787143342,4,16,0.0498289167881011,4.199814796447754,12.258757656404104,12.235964252673298,49.3408067614091,44.11165927769764,0.0,0.0995024740695953,0,0,0
4103,151855.48533309202,2011-01-05 04:49:10,30.01518285110583,5,16,0.0,4.191235065460205,12.258757656404104,12.235964252673298,49.3408067614091,44.11165927769764,-3.24249267578125e-05,0.0995024740695953,0,0,0
4104,151885.48491300078,2011-01-05 04:49:40,60.0147627398285,5,16,0.0,4.189939975738525,12.258757656404104,12.235964252673298,49.3408067614091,44.11165927769764,0.0,0.0995024740695953,0,0,0
4105,151885.67797942023,2011-01-05 04:49:40,0.187629425259878,6,16,-1.9243103452026844e-05,4.189778327941895,12.258757656404104,12.235964253676237,49.3408067614091,44.11165928189972,0.0,0.1004928275942802,0,0,0
4106,151890.50590761282,2011-01-05 04:49:45,5.015557612819642,6,16,0.0007031940040178,4.1896162033081055,12.25875842835154,12.235964253926063,49.34080999576522,44.11165928294644,-6.47544875391759e-05,0.1004928275942802,0,0,0
4107,151920.52677999655,2011-01-05 04:50:15,30.01537542606188,7,16,-1.099568486213684,3.99745774269104,12.25875842835154,12.245133647125927,49.34080999576522,44.14853995945203,-0.0010684489971026,0.1004928275942802,0,0,0
4108,151950.54177730522,2011-01-05 04:50:45,60.03037264952651,7,16,-1.0997490882873535,3.964433193206787,12.25875842835154,12.254302918508362,49.34080999576522,44.18503375329266,-0.0007770538213662,0.1004928275942802,0,0,0
4109,151980.5570219854,2011-01-05 04:51:15,90.045617324717,7,16,-1.099568486213684,3.9411215782165527,12.25875842835154,12.263472180031018,49.34080999576522,44.221271780227006,-0.0004856586456298,0.1004928275942802,0,0,0
4110,152010.57219665113,2011-01-05 04:51:45,120.0607919803973,7,16,-1.0997490882873535,3.922990322113037,12.25875842835154,12.272641508028691,49.34080999576522,44.25732347046053,-0.0004532813909463,0.1004928275942802,0,0,0
4111,152040.58737887567,2011-01-05 04:52:15,150.07597420494153,7,16,-1.099929690361023,3.90793514251709,12.25875842835154,12.2818107333562,49.34080999576522,44.29322401856117,-0.0003561496851034,0.1004928275942802,0,0,0
4112,152070.60258506995,2011-01-05 04:52:45,180.09118040925074,7,16,-1.0997490882873535,3.894336700439453,12.25875842835154,12.290980011891538,49.34080999576522,44.3289934426731,-0.0003237724304199,0.1004928275942802,0,0,0
4113,152100.6177856302,2011-01-05 04:53:15,210.10638097450567,7,16,-1.0997490882873535,3.881547689437866,12.25875842835154,12.300149262689333,49.34080999576522,44.36464310922083,-0.0003561496851034,0.1004928275942802,0,0,0
4114,152130.6329881453,2011-01-05 04:53:45,240.12158348962024,7,16,-1.0997490882873535,3.869729995727539,12.25875842835154,12.309318586704585,49.34080999576522,44.4001799182479,-0.0003237724304199,0.1004928275942802,0,0,0
4115,152160.64829991272,2011-01-05 04:54:15,270.1368952570252,7,16,-1.0997490882873535,3.858397960662842,12.25875842835154,12.318487939344417,49.34080999576522,44.43560944426088,-0.0002913951757363,0.1004928275942802,0,0,0
4116,152190.6633847345,2011-01-05 04:54:45,300.1519800938493,7,16,-1.099929690361023,3.847065925598145,12.25875842835154,12.327657199955087,49.34080999576522,44.47093532102697,-0.0002913951757363,0.1004928275942802,0,0,0
4117,152220.67857346026,2011-01-05 04:55:15,330.167168804559,7,16,-1.0997490882873535,3.836219549179077,12.25875842835154,12.336826508902238,49.34080999576522,44.50616098046773,-0.0002913951757363,0.1004928275942802,0,0,0
4118,152250.69378022596,2011-01-05 04:55:45,360.182375565255,7,16,-1.099929690361023,3.825697183609009,12.25875842835154,12.34599581937646,49.34080999576522,44.54128938738079,-0.0003561496851034,0.1004928275942802,0,0,0
4119,152280.70909743692,2011-01-05 04:56:15,390.19769277622686,7,16,-1.099929690361023,3.815660238265991,12.25875842835154,12.355165163126532,49.34080999576522,44.576323314967645,-0.0002913951757363,0.1004928275942802,0,0,0
4120,152310.72417308588,2011-01-05 04:56:45,420.2127684251519,7,16,-1.099568486213684,3.8056232929229736,12.25875842835154,12.3643343681597,49.34080999576522,44.61126427789926,-0.0002590179501567,0.1004928275942802,0,0,0
4121,152340.73937853327,2011-01-05 04:57:15,450.2279738725747,7,16,-1.0997490882873535,3.796072006225586,12.25875842835154,12.373503699121192,49.34080999576522,44.64611635711774,-0.0002590179501567,0.1004928275942802,0,0,0
4122,152370.75458206594,2011-01-05 04:57:45,480.2431774102378,7,16,-1.0997490882873535,3.786844491958618,12.25875842835154,12.382673021556633,49.34080999576522,44.68088152971278,-0.0002590179501567,0.1004928275942802,0,0,0
4123,152400.77008707495,2011-01-05 04:58:15,510.2586824393104,7,16,-1.0997490882873535,3.777778863906861,12.25875842835154,12.391842414237669,49.34080999576522,44.71556292512532,-0.0002590179501567,0.1004928275942802,0,0,0
4124,152430.78495827434,2011-01-05 04:58:45,540.2735536136216,7,16,-1.0997490882873535,3.768875122070313,12.25875842835154,12.401011591720444,49.34080999576522,44.7501616026022,-0.0002590179501567,0.1004928275942802,0,0,0
4125,152460.8001641077,2011-01-05 04:59:15,570.2887594520189,7,16,-1.099929690361023,3.760295152664185,12.25875842835154,12.410180941039853,49.34080999576522,44.784681560951526,-0.0002266406954731,0.1004928275942802,0,0,0
4126,152490.81557700716,2011-01-05 04:59:45,600.3041723715259,7,16,-1.0997490882873535,3.7522010803222656,12.25875842835154,12.419350383650173,49.34080999576522,44.81912459767744,-0.0001942157687153,0.1004928275942802,0,0,0
4127,152520.8306904202,2011-01-05 05:00:15,630.3192857695333,7,16,-1.0997490882873535,3.7439448833465576,12.25875842835154,12.428519683978797,49.34080999576522,44.85349143918633,-0.0002266406954731,0.1004928275942802,0,0,0
4128,152550.8457574426,2011-01-05 05:00:45,660.3343527869458,7,16,-1.0997490882873535,3.73585057258606,12.25875842835154,12.43768900599492,49.34080999576522,44.887783895932216,-0.0002266406954731,0.1004928275942802,0,0,0
4129,152580.8609975665,2011-01-05 05:01:15,690.349593001018,7,16,-1.0997490882873535,3.727918148040772,12.25875842835154,12.446858348004008,49.34080999576522,44.92200229633854,-0.0002266406954731,0.1004928275942802,0,0,0
4130,152610.87617983617,2011-01-05 05:01:45,720.3647752004997,7,16,-1.1001102924346924,3.7198238372802734,12.25875842835154,12.456027582818813,49.34080999576522,44.95614814681652,-0.0002590179501567,0.1004928275942802,0,0,0
4131,152640.891415955,2011-01-05 05:02:15,750.3800112842778,7,16,-1.0997490882873535,3.7123770713806152,12.25875842835154,12.465196775534348,49.34080999576522,44.99022278474718,-0.0002266406954731,0.1004928275942802,0,0,0
4132,152670.90653646574,2011-01-05 05:02:45,780.395131825087,7,16,-1.0997490882873535,3.704930305480957,12.25875842835154,12.474365870127684,49.34080999576522,45.0242276469819,-0.0001942634553415,0.1004928275942802,0,0,0
4133,152700.92185517543,2011-01-05 05:03:15,810.4104505197568,7,16,-1.0997490882873535,3.697645425796509,12.25875842835154,12.483535087462297,49.34080999576522,45.05816462301638,-0.0001295089750783,0.1004928275942802,0,0,0
4134,152730.93693221282,2011-01-05 05:03:45,840.4255275771923,7,16,-1.0997490882873535,3.690360546112061,12.25875842835154,12.492704110226418,49.34080999576522,45.09203430166844,-0.0001942634553415,0.1004928275942802,0,0,0
4135,152760.95232748837,2011-01-05 05:04:15,870.4409228326753,7,16,-1.0997490882873535,3.683075666427612,12.25875842835154,12.501873204703562,49.34080999576522,45.125838034827865,-0.0001942634553415,0.1004928275942802,0,0,0
4136,152790.96731014553,2011-01-05 05:04:45,900.4559054848237,7,16,-1.099929690361023,3.675790786743164,12.25875842835154,12.511042138209984,49.34080999576522,45.15957616624998,-0.0002590179501567,0.1004928275942802,0,0,0
4137,152820.9825302194,2011-01-05 05:05:15,930.4711255737376,7,16,-1.099568486213684,3.6693155765533447,12.25875842835154,12.520211173537044,49.34080999576522,45.19325096508117,-0.0001942634553415,0.1004928275942802,0,0,0
4138,152851.0000258246,2011-01-05 05:05:45,960.488621259138,7,16,-1.099568486213684,3.6625163555145264,12.25875842835154,12.529380875644328,49.34080999576522,45.22686576593651,-0.0001618862152099,0.1004928275942802,0,0,0
4139,152881.01288050317,2011-01-05 05:06:15,990.5014758525094,7,16,-1.0997490882873535,3.655879020690918,12.25875842835154,12.538549081743737,49.34080999576522,45.260413552297,-0.0001618862152099,0.1004928275942802,0,0,0
4140,152911.02808589546,2011-01-05 05:06:45,1020.5166812247448,7,16,-1.0997490882873535,3.6492416858673096,12.25875842835154,12.547717985805413,49.34080999576522,45.29390359030111,-0.0001618862152099,0.1004928275942802,0,0,0
4141,152941.04326889696,2011-01-05 05:07:15,1050.531864251288,7,16,-1.0997490882873535,3.642766237258911,12.25875842835154,12.556886809338224,49.34080999576522,45.32733295947688,-0.0001618862152099,0.1004928275942802,0,0,0
4142,152971.06019044644,2011-01-05 05:07:45,1080.5487857757023,7,16,-1.0997490882873535,3.6362907886505127,12.25875842835154,12.56605610242026,49.34080999576522,45.36070526804538,-0.0001942634553415,0.1004928275942802,0,0,0
4143,153001.07369250848,2011-01-05 05:08:15,1110.5622878628274,7,16,-1.099568486213684,3.630139112472534,12.25875842835154,12.575224406681413,49.34080999576522,45.39401667584718,-0.0001618862152099,0.1004928275942802,0,0,0
4144,153031.08881864324,2011-01-05 05:08:45,1140.577414002591,7,16,-1.0997490882873535,3.6241493225097656,12.25875842835154,12.584393147176256,49.34080999576522,45.42727346786064,-0.0001618862152099,0.1004928275942802,0,0,0
4145,153061.10397827148,2011-01-05 05:09:15,1170.592573605756,7,16,-1.0997490882873535,3.618159532546997,12.25875842835154,12.593561943337004,49.34080999576522,45.4604752299813,-0.0001618862152099,0.1004928275942802,0,0,0
4146,153091.1196785221,2011-01-05 05:09:45,1200.6082738563805,7,16,-1.099568486213684,3.612493515014648,12.25875842835154,12.60273085463759,49.34080999576522,45.49362332810681,-9.713172767078504e-05,0.1004928275942802,0,0,0
4147,153121.13431361303,2011-01-05 05:10:15,1230.6229089472995,7,16,-1.0997490882873535,3.60666561126709,12.25875842835154,12.611899493520063,49.34080999576522,45.52671780996081,-0.0001295089750783,0.1004928275942802,0,0,0
4148,153151.14961498952,2011-01-05 05:10:45,1260.6382103288197,7,16,-1.0997490882873535,3.601161479949951,12.25875842835154,12.621068175025227,49.34080999576522,45.55976108506969,-0.0001295089750783,0.1004928275942802,0,0,0
4149,153181.1646553054,2011-01-05 05:11:15,1290.653250634659,7,16,-1.0997490882873535,3.5956573486328125,12.25875842835154,12.63023682358669,49.34080999576522,45.5927538189771,-0.0001618862152099,0.1004928275942802,0,0,0
4150,153211.1799668723,2011-01-05 05:11:46,1320.668562211589,7,16,-1.099568486213684,3.590315341949463,12.25875842835154,12.639405511594958,49.34080999576522,45.62569731816122,-0.0001295089750783,0.1004928275942802,0,0,0
4151,153241.1950168372,2011-01-05 05:12:16,1350.6836121865265,7,16,-1.099929690361023,3.585134983062744,12.25875842835154,12.648574147196577,49.34080999576522,45.65859262109579,-0.0001942634553415,0.1004928275942802,0,0,0
4152,153271.21016684646,2011-01-05 05:12:46,1380.6987621707178,7,16,-1.099568486213684,3.5802783966064453,12.25875842835154,12.657742771216956,49.34080999576522,45.69144120628907,-0.0001618862152099,0.1004928275942802,0,0,0
4153,153301.22534366752,2011-01-05 05:13:16,1410.7139389968074,7,16,-1.0997490882873535,3.5752599239349365,12.25875842835154,12.666911350917992,49.34080999576522,45.724244308830215,-0.0001295089750783,0.1004928275942802,0,0,0
4154,153331.24050123064,2011-01-05 05:13:46,1440.7290965548752,7,16,-1.0993878841400146,3.570888996124268,12.25875842835154,12.67607997597772,49.34080999576522,45.75700358502239,-6.47544875391759e-05,0.1004928275942802,0,0,0
4155,153361.25562724506,2011-01-05 05:14:16,1470.7442225943887,7,16,-1.0997490882873535,3.565870523452759,12.25875842835154,12.685248559567077,49.34080999576522,45.78971974305322,-0.0001295089750783,0.1004928275942802,0,0,0
4156,153391.2708048882,2011-01-05 05:14:46,1500.759400217465,7,16,-1.099568486213684,3.5618233680725098,12.25875842835154,12.694417043630247,49.34080999576522,45.82239366373722,-6.47544875391759e-05,0.1004928275942802,0,0,0
4157,153421.28591178,2011-01-05 05:15:16,1530.7745071293068,7,16,-1.099929690361023,3.556966781616211,12.25875842835154,12.703585489471909,49.34080999576522,45.85502653319081,-0.0001295089750783,0.1004928275942802,0,0,0
4158,153451.30122844962,2011-01-05 05:15:46,1560.7898239392794,7,16,-1.0997490882873535,3.552595853805542,12.25875842835154,12.71275412324774,49.34080999576522,45.88761889305354,-9.713172767078504e-05,0.1004928275942802,0,0,0
4159,153481.31641757634,2011-01-05 05:16:16,1590.8050129407136,7,16,-1.0997490882873535,3.548386812210083,12.25875842835154,12.721922731839976,49.34080999576522,45.92017184263768,-9.713172767078504e-05,0.1004928275942802,0,0,0
4160,153511.33143624326,2011-01-05 05:16:46,1620.820031587572,7,16,-1.099568486213684,3.544177770614624,12.25875842835154,12.731091204648894,49.34080999576522,45.95268537782274,-9.713172767078504e-05,0.1004928275942802,0,0,0
4161,153541.34657602705,2011-01-05 05:17:16,1650.835171361316,7,16,-1.099568486213684,3.539968729019165,12.25875842835154,12.740259715528747,49.34080999576522,45.9851608069956,-9.713172767078504e-05,0.1004928275942802,0,0,0
4162,153571.36172310897,2011-01-05 05:17:46,1680.8503184532988,7,16,-1.0997490882873535,3.535759687423706,12.25875842835154,12.749428292148204,49.34080999576522,46.01759836463171,-9.713172767078504e-05,0.1004928275942802,0,0,0
4163,153601.37699415992,2011-01-05 05:18:16,1710.8655895092386,7,16,-1.0997490882873535,3.531874418258667,12.25875842835154,12.758596891710106,49.34080999576522,46.04999828761861,-6.47544875391759e-05,0.1004928275942802,0,0,0
4164,153631.39202371897,2011-01-05 05:18:46,1740.8806190582684,7,16,-1.099568486213684,3.527827262878418,12.25875842835154,12.767765370204977,49.34080999576522,46.08236045373021,-9.713172767078504e-05,0.1004928275942802,0,0,0
4165,153661.40720475055,2011-01-05 05:19:16,1770.8958000998643,7,16,-1.0997490882873535,3.523456335067749,12.25875842835154,12.776933913308724,49.34080999576522,46.11468489278911,-0.0001295089750783,0.1004928275942802,0,0,0
4166,153691.42446333502,2011-01-05 05:19:46,1800.9130586743113,7,16,-1.0997490882873535,3.5194091796875,12.25875842835154,12.786103030904655,49.34080999576522,46.14697374902396,-0.0001295089750783,0.1004928275942802,0,0,0
4167,153721.43759535483,2011-01-05 05:20:16,1830.9261907241896,7,16,-1.099568486213684,3.515200138092041,12.25875842835154,12.795270918267873,49.34080999576522,46.17922023048734,-9.713172767078504e-05,0.1004928275942802,0,0,0
4168,153751.45257253834,2011-01-05 05:20:46,1860.941167882646,7,16,-1.099568486213684,3.511153221130371,12.25875842835154,12.804439415570853,49.34080999576522,46.21143037076418,-9.713172767078504e-05,0.1004928275942802,0,0,0
4169,153781.4677028485,2011-01-05 05:21:16,1890.9562981877912,7,16,-1.099568486213684,3.506782293319702,12.25875842835154,12.813607950698357,49.34080999576522,46.243602633357625,-0.0001295089750783,0.1004928275942802,0,0,0
4170,153811.4828584517,2011-01-05 05:21:46,1920.9714537909867,7,16,-1.0997490882873535,3.502411365509033,12.25875842835154,12.822776453645629,49.34080999576522,46.27573521438452,-9.713172767078504e-05,0.1004928275942802,0,0,0
4171,153841.4980102053,2011-01-05 05:22:16,1950.9866055345635,7,16,-1.099568486213684,3.498202323913574,12.25875842835154,12.831944902231127,49.34080999576522,46.307827425354766,-6.47544875391759e-05,0.1004928275942802,0,0,0
4172,153871.51313858564,2011-01-05 05:22:46,1981.0017339499984,7,16,-1.0997490882873535,3.4933457374572754,12.25875842835154,12.841113396344548,49.34080999576522,46.339878397792695,-0.0001618862152099,0.1004928275942802,0,0,0
4173,153901.52826999355,2011-01-05 05:23:16,2011.0168653328296,7,16,-1.0997490882873535,3.4886510372161865,12.25875842835154,12.850281812139176,49.34080999576522,46.37188632973653,-0.0001295089750783,0.1004928275942802,0,0,0
4174,153931.54340623345,2011-01-05 05:23:46,2041.032001572766,7,16,-1.0997490882873535,3.483794450759888,12.25875842835154,12.85945028986812,49.34080999576522,46.40385001124677,-0.0001295089750783,0.1004928275942802,0,0,0
4175,153961.55853562636,2011-01-05 05:24:16,2071.0471309656377,7,16,-1.0997490882873535,3.478614091873169,12.25875842835154,12.868618709417971,49.34080999576522,46.43576731281988,-0.0001295089750783,0.1004928275942802,0,0,0
4176,153991.57366898409,2011-01-05 05:24:46,2101.0622643233905,7,16,-1.099568486213684,3.47327184677124,12.25875842835154,12.877787091968278,49.34080999576522,46.467635583142034,-0.0001295089750783,0.1004928275942802,0,0,0
4177,154021.58883170504,2011-01-05 05:25:16,2131.077427039313,7,16,-1.0997490882873535,3.467282056808472,12.25875842835154,12.886955489770424,49.34080999576522,46.49945257765738,-0.0001618862152099,0.1004928275942802,0,0,0
4178,154051.60397504264,2011-01-05 05:25:46,2161.092570381952,7,16,-1.0997490882873535,3.460968494415283,12.25875842835154,12.896123936753222,49.34080999576522,46.53121432145024,-0.0001942634553415,0.1004928275942802,0,0,0
4179,154081.6191004105,2011-01-05 05:26:16,2191.107695744779,7,16,-1.099568486213684,3.454331159591675,12.25875842835154,12.905292362144452,49.34080999576522,46.56291667947642,-0.0002266406954731,0.1004928275942802,0,0,0
4180,154111.63421536738,2011-01-05 05:26:46,2221.122810696659,7,16,-1.0997490882873535,3.4465606212615967,12.25875842835154,12.914460774251438,49.34080999576522,46.59455277011605,-0.0002590179501567,0.1004928275942802,0,0,0
4181,154141.64935238427,2011-01-05 05:27:16,2251.1379477185446,7,16,-1.0997490882873535,3.4379806518554688,12.25875842835154,12.923629176020214,49.34080999576522,46.626114440789465,-0.0002266406954731,0.1004928275942802,0,0,0
4182,154171.66450486466,2011-01-05 05:27:46,2281.1531001989574,7,16,-1.099568486213684,3.42810583114624,12.25875842835154,12.93279763979722,49.34080999576522,46.65759120129808,-0.0002266406954731,0.1004928275942802,0,0,0
4183,154201.67975103355,2011-01-05 05:28:16,2311.168346367871,7,16,-1.099568486213684,3.416450023651123,12.25875842835154,12.941966160018438,49.34080999576522,46.68896904078078,-0.0002913951757363,0.1004928275942802,0,0,0
4184,154231.69476630702,2011-01-05 05:28:46,2341.1833616312965,7,16,-1.0997490882873535,3.4022040367126465,12.25875842835154,12.951134520481183,49.34080999576522,46.72022916364,-0.0004856586456298,0.1004928275942802,0,0,0
4185,154261.70993516326,2011-01-05 05:29:16,2371.19853058276,7,16,-1.0993878841400146,3.3853678703308105,12.25875842835154,12.960302949405252,49.34080999576522,46.75134763884474,-0.0004532813909463,0.1004928275942802,0,0,0
4186,154291.7250723355,2011-01-05 05:29:46,2401.213667669808,7,16,-1.0997490882873535,3.3638370037078857,12.25875842835154,12.96947143246624,49.34080999576522,46.78229112751987,-0.0006475448608398,0.1004928275942802,0,0,0
4187,154321.74056637724,2011-01-05 05:30:16,2431.2291617265337,7,16,-1.0997490882873535,3.3371260166168213,12.25875842835154,12.97863998343114,49.34080999576522,46.81301615356903,-0.0008094310760498,0.1004928275942802,0,0,0
4188,154351.7553063295,2011-01-05 05:30:46,2461.2439016737867,7,16,-1.099568486213684,3.3028061389923096,12.25875842835154,12.987808196947183,49.34080999576522,46.84346159635773,-0.0010036944877356,0.1004928275942802,0,0,0
4189,154381.77046738123,2011-01-05 05:31:16,2491.2590627105246,7,16,-1.0997490882873535,3.25715446472168,12.25875842835154,12.996976593844408,49.34080999576522,46.87354317781252,-0.0013598442310467,0.1004928275942802,0,0,0
4190,154411.7858076196,2011-01-05 05:31:46,2521.274402978963,7,16,-1.099568486213684,3.1957995891571045,12.25875842835154,13.00614503792166,49.34080999576522,46.90313941318602,-0.0018778800731524,0.1004928275942802,0,0,0
4191,154441.80084843675,2011-01-05 05:32:16,2551.2894437860514,7,16,-1.099568486213684,3.1101620197296143,12.25875842835154,13.01531335233704,49.34080999576522,46.93206941341866,-0.0025901794433593,0.1004928275942802,0,0,0
4192,154471.81585568518,2011-01-05 05:32:46,2581.304451019464,7,16,-1.0997490882873535,2.980977296829224,12.25875842835154,13.024481722273675,49.34080999576522,46.96003801135408,-0.0042090415954589,0.1004928275942802,0,0,0
4193,154500.7684836576,2011-01-05 05:33:15,2610.25707898686,7,16,-1.0997490882873535,2.7807247638702397,12.25875842835154,13.033325452782478,49.34080999576522,46.985579212461865,-0.0065401555038988,0.1004928275942802,0,0,0
4194,154510.28397531563,2011-01-05 05:33:25,2619.772570644915,7,16,-1.099568486213684,2.699781894683838,12.25875842835154,13.036231998292292,49.34080999576522,46.99354493283687,-0.0069286823272705,0.1004928275942802,0,0,0
4195,154570.297284084,2011-01-05 05:34:25,60.01475794287301,8,16,0.0,3.4939932823181152,12.25875842835154,13.036231998292292,49.34080999576522,46.99354493283687,0.0014245987404137,0.1004928275942802,0,0,0
4196,154570.48414587785,2011-01-05 05:34:25,0.187433311484006,9,16,-1.9243103452026844e-05,3.4939932823181152,12.25875842835154,13.03623199929418,49.34080999576522,46.99354493633746,0.0,0.1004020571708679,0,0,0
4197,154575.31218917228,2011-01-05 05:34:30,5.015476630988001,9,16,0.0008838032954372,3.502573251724243,12.258759277923836,13.036231999461132,49.34081296837165,46.9935449369208,0.0012303352123126,0.1004020571708679,0,0,0
