Data_Point,Test_Time(s),Date_Time,Step_Time(s),Step_Index,Cycle_Index,Current(A),Voltage(V),Charge_Capacity(Ah),Discharge_Capacity(Ah),Charge_Energy(Wh),Discharge_Energy(Wh),dV/dt(V/s),Internal_Resistance(Ohm),Is_FC_Data,AC_Impedance(Ohm),ACI_Phase_Angle(Deg)
4459,164679.23145420387,2011-01-05 08:22:55,30.015302128381503,1,18,0.0,3.564899206161499,13.054187682397313,13.819517191401756,52.55248851597011,49.79649645670349,0.0006799221155233,0.1012117490172386,0,0,0
4460,164709.2464288511,2011-01-05 08:23:25,60.03027676054166,1,18,0.0,3.586753845214844,13.054187682397313,13.819517191401756,52.55248851597011,49.79649645670349,0.0005180359003134,0.1012117490172386,0,0,0
4461,164739.26155139186,2011-01-05 08:23:55,90.04539930133564,1,18,0.0,3.6029422283172607,13.054187682397313,13.819517191401756,52.55248851597011,49.79649645670349,0.0003885269106831,0.1012117490172386,0,0,0
4462,164769.22979633426,2011-01-05 08:24:25,120.01364424373052,1,18,0.0,3.6152455806732178,13.054187682397313,13.819517191401756,52.55248851597011,49.79649645670349,0.0003237724304199,0.1012117490172386,0,0,0
4463,164799.2416397788,2011-01-05 08:24:55,30.015145011798637,2,18,0.5501165986061096,3.7449162006378174,13.05877386585499,13.819517191401756,52.569559394887634,49.79649645670349,0.0009713172912597,0.1012117490172386,0,0,0
4464,164829.25675054023,2011-01-05 08:25:25,60.03025576822234,2,18,0.5499359965324402,3.7719509601593018,13.063360058264236,13.819517191401756,52.58680098382002,49.79649645670349,0.0005827903514727,0.1012117490172386,0,0,0
4465,164859.27361902746,2011-01-05 08:25:55,90.04712426046454,2,18,0.5499359965324402,3.788625240325928,13.067946501152344,13.819517191401756,52.604142007411056,49.79649645670349,0.0003561496851034,0.1012117490172386,0,0,0
4466,164889.2870097771,2011-01-05 08:26:25,120.0605150050896,2,18,0.5501165986061096,3.799309730529785,13.072532386763037,13.819517191401756,52.62154214040638,49.79649645670349,0.0002590179501567,0.1012117490172386,0,0,0
4467,164919.30210606247,2011-01-05 08:26:55,150.07561128543446,2,18,0.550297200679779,3.807565927505493,13.077118621675954,13.819517191401756,52.63898625130005,49.79649645670349,0.0001942634553415,0.1012117490172386,0,0,0
4468,164949.31725454793,2011-01-05 08:27:25,180.0907598009655,2,18,0.5501165986061096,3.814688920974731,13.081704809287372,13.819517191401756,52.65646531070018,49.79649645670349,0.0001618862152099,0.1012117490172386,0,0,0
4469,164979.33235801116,2011-01-05 08:27:55,210.1058632341374,2,18,0.5499359965324402,3.82132625579834,13.086290968245336,13.819517191401756,52.67397577591039,49.79649645670349,0.0001618862152099,0.1012117490172386,0,0,0
4470,165009.34749502302,2011-01-05 08:28:25,240.1210002560227,2,18,0.5499359965324402,3.8274779319763184,13.090877108112773,13.819517191401756,52.691515069093015,49.79649645670349,0.0001618862152099,0.1012117490172386,0,0,0
4471,165039.36259449634,2011-01-05 08:28:55,270.1360997193004,2,18,0.5499359965324402,3.832982063293457,13.095463303457915,13.819517191401756,52.7090817304957,49.79649645670349,9.713172767078504e-05,0.1012117490172386,0,0,0
4472,165069.3777197138,2011-01-05 08:29:25,300.151224941778,2,18,0.5501165986061096,3.8386478424072266,13.10004945033227,13.819517191401756,52.72667400558747,49.79649645670349,0.0001295089750783,0.1012117490172386,0,0,0
4473,165099.39285235977,2011-01-05 08:29:56,330.16635758775715,2,18,0.5501165986061096,3.8439900875091553,13.104635631695931,13.819517191401756,52.74429121203536,49.79649645670349,0.0001618862152099,0.1012117490172386,0,0,0
4474,165129.4079696124,2011-01-05 08:30:26,360.1814748453839,2,18,0.550297200679779,3.849332332611084,13.109221861755325,13.819517191401756,52.76193264943739,49.79649645670349,0.0001618862152099,0.1012117490172386,0,0,0
4475,165159.4231024438,2011-01-05 08:30:56,390.1966076968753,2,18,0.5499359965324402,3.854027032852173,13.11380806720696,13.819517191401756,52.77959714090712,49.79649645670349,9.713172767078504e-05,0.1012117490172386,0,0,0
4476,165189.43833798126,2011-01-05 08:31:26,420.21184321925415,2,18,0.5501165986061096,3.8590455055236816,13.11839418366457,13.819517191401756,52.79728362239415,49.79649645670349,0.0001295089750783,0.1012117490172386,0,0,0
4477,165219.45333710444,2011-01-05 08:31:56,450.22684235749097,2,18,0.5501165986061096,3.8637402057647705,13.122980331713697,13.819517191401756,52.81499202711,49.79649645670349,0.0001618862152099,0.1012117490172386,0,0,0
4478,165249.46844629195,2011-01-05 08:32:26,480.241951519942,2,18,0.5499359965324402,3.8682730197906494,13.127566442261635,13.819517191401756,52.83272154237193,49.79649645670349,0.0001295089750783,0.1012117490172386,0,0,0
4479,165279.48356586034,2011-01-05 08:32:56,510.2570711133904,2,18,0.5499359965324402,3.872805833816528,13.132152529731805,13.819517191401756,52.85047198043991,49.79649645670349,0.0001295089750783,0.1012117490172386,0,0,0
4480,165309.49869794492,2011-01-05 08:33:26,540.2722031929578,2,18,0.5501165986061096,3.8773386478424072,13.136738588150289,13.819517191401756,52.86824288340685,49.79649645670349,0.0001618862152099,0.1012117490172386,0,0,0
4481,165339.5140283889,2011-01-05 08:33:56,570.287533641923,2,18,0.5499359965324402,3.881385803222656,13.141324773861264,13.819517191401756,52.88603456281918,49.79649645670349,6.47544875391759e-05,0.1012117490172386,0,0,0
4482,165369.52915464892,2011-01-05 08:34:26,600.3026601074987,2,18,0.5501165986061096,3.885918617248535,13.14591094415443,13.819517191401756,52.90384588380459,49.79649645670349,0.0001295089750783,0.1012117490172386,0,0,0
4483,165399.54406291567,2011-01-05 08:34:56,630.3175681436811,2,18,0.5501165986061096,3.889965772628784,13.15049708640317,13.819517191401756,52.92167626964909,49.79649645670349,9.713172767078504e-05,0.1012117490172386,0,0,0
4484,165429.55919892504,2011-01-05 08:35:26,660.332704153043,2,18,0.5499359965324402,3.8938510417938232,13.15508334794708,13.819517191401756,52.93952574017521,49.79649645670349,6.47544875391759e-05,0.1012117490172386,0,0,0
4485,165459.5743368041,2011-01-05 08:35:56,690.3478420320646,2,18,0.550297200679779,3.897898197174072,13.159669530634368,13.819517191401756,52.95739248074709,49.79649645670349,0.0001295089750783,0.1012117490172386,0,0,0
4486,165489.58955642182,2011-01-05 08:36:26,720.3630616598291,2,18,0.5499359965324402,3.9012978076934814,13.164255717486329,13.819517191401756,52.97527640121107,49.79649645670349,9.713172767078504e-05,0.1012117490172386,0,0,0
4487,165519.60457232184,2011-01-05 08:36:56,750.3780775498165,2,18,0.5501165986061096,3.9048593044281006,13.168841861784664,13.819517191401756,52.99317658041641,49.79649645670349,9.713172767078504e-05,0.1012117490172386,0,0,0
4488,165549.6198066763,2011-01-05 08:37:26,780.3933119143095,2,18,0.5501165986061096,3.9082589149475098,13.17342805772908,13.819517191401756,53.01109260747233,49.79649645670349,0.0001295089750783,0.1012117490172386,0,0,0
4489,165579.63693597357,2011-01-05 08:37:56,810.410441231608,2,18,0.5501165986061096,3.911334753036499,13.178014706168288,13.819517191401756,53.0290253824498,49.79649645670349,9.713172767078504e-05,0.1012117490172386,0,0,0
4490,165609.64988118276,2011-01-05 08:38:26,840.4233864107468,2,18,0.5501165986061096,3.914248466491699,13.182601414538508,13.819517191401756,53.04697270843143,49.79649645670349,3.237724376958795e-05,0.1012117490172386,0,0,0
4491,165639.66497006468,2011-01-05 08:38:56,870.4384753177148,2,18,0.5501165986061096,3.9171624183654794,13.187188295321263,13.819517191401756,53.06493416104353,49.79649645670349,6.47544875391759e-05,0.1012117490172386,0,0,0
4492,165669.680144575,2011-01-05 08:39:26,900.453649797958,2,18,0.5501165986061096,3.919914484024048,13.191775352214254,13.819517191401756,53.08290923852953,49.79649645670349,6.47544875391759e-05,0.1012117490172386,0,0,0
4493,165699.69528074475,2011-01-05 08:39:56,930.468785972732,2,18,0.5501165986061096,3.922666549682617,13.196362400500933,13.819517191401756,53.10089664898114,49.79649645670349,6.47544875391759e-05,0.1012117490172386,0,0,0
4494,165729.7103799574,2011-01-05 08:40:26,960.4838851853852,2,18,0.5501165986061096,3.925094842910767,13.200949451255164,13.819517191401756,53.118896020018944,49.79649645670349,3.237724376958795e-05,0.1012117490172386,0,0,0
4495,165759.72544955122,2011-01-05 08:40:56,990.4989548042814,2,18,0.5499359965324402,3.927685022354126,13.20553648052758,13.819517191401756,53.136906719622026,49.79649645670349,6.47544875391759e-05,0.1012117490172386,0,0,0
4496,165789.74081357388,2011-01-05 08:41:26,1020.5143188068724,2,18,0.5501165986061096,3.9299514293670654,13.21012281173644,13.819517191401756,53.1549257065104,49.79649645670349,6.47544875391759e-05,0.1012117490172386,0,0,0
4497,165819.75579572478,2011-01-05 08:41:56,1050.5293009577715,2,18,0.5501165986061096,3.932541608810425,13.21470914713472,13.819517191401756,53.17295559553897,49.79649645670349,9.713172767078504e-05,0.1012117490172386,0,0,0
4498,165849.77087791,2011-01-05 08:42:26,1080.5443831379746,2,18,0.5501165986061096,3.934808015823364,13.219295519308565,13.819517191401756,53.19099635281864,49.79649645670349,9.713172767078504e-05,0.1012117490172386,0,0,0
4499,165879.78599264633,2011-01-05 08:42:56,1110.5594978743177,2,18,0.5499359965324402,3.937074422836304,13.223881828707652,13.819517191401756,53.20904736514928,49.79649645670349,6.47544875391759e-05,0.1012117490172386,0,0,0
4500,165909.80112050034,2011-01-05 08:43:26,1140.5746257283538,2,18,0.5501165986061096,3.939178943634033,13.228468137449656,13.819517191401756,53.22710887554438,49.79649645670349,6.47544875391759e-05,0.1012117490172386,0,0,0
4501,165939.81625474532,2011-01-05 08:43:56,1170.589759973318,2,18,0.5499359965324402,3.9414453506469727,13.233054396624429,13.819517191401756,53.24518059339693,49.79649645670349,3.237724376958795e-05,0.1012117490172386,0,0,0
4502,165969.83136386267,2011-01-05 08:44:26,1200.6048690906568,2,18,0.550297200679779,3.943873643875122,13.23764072740764,13.819517191401756,53.26326280131977,49.79649645670349,9.713172767078504e-05,0.1012117490172386,0,0,0
4503,165999.84651957612,2011-01-05 08:44:56,1230.6200248291898,2,18,0.5501165986061096,3.945978164672852,13.242227089075994,13.819517191401756,53.2813552925188,49.79649645670349,6.47544875391759e-05,0.1012117490172386,0,0,0
4504,166029.8615837314,2011-01-05 08:45:26,1260.6350889594066,2,18,0.5499359965324402,3.948082685470581,13.246813522444034,13.819517191401756,53.29945807668375,49.79649645670349,3.237724376958795e-05,0.1012117490172386,0,0,0
4505,166059.87673117933,2011-01-05 08:45:56,1290.650236407277,2,18,0.5501165986061096,3.950349092483521,13.251399965488783,13.819517191401756,53.31757096535876,49.79649645670349,6.47544875391759e-05,0.1012117490172386,0,0,0
4506,166089.89194954393,2011-01-05 08:46:26,1320.665454771893,2,18,0.5501165986061096,3.95245361328125,13.255986376575684,13.819517191401756,53.33569371391729,49.79649645670349,6.47544875391759e-05,0.1012117490172386,0,0,0
4507,166119.90694390022,2011-01-05 08:46:56,1350.6804491332243,2,18,0.5501165986061096,3.9547200202941895,13.260572828167367,13.819517191401756,53.353826615225074,49.79649645670349,6.47544875391759e-05,0.1012117490172386,0,0,0
4508,166149.92208167398,2011-01-05 08:47:26,1380.6955869019712,2,18,0.5501165986061096,3.956662654876709,13.26515925109979,13.819517191401756,53.37196930882738,49.79649645670349,0.0,0.1012117490172386,0,0,0
4509,166179.93733465488,2011-01-05 08:47:56,1410.7108398928867,2,18,0.5501165986061096,3.958929061889648,13.269745777416489,13.819517191401756,53.39012212007251,49.79649645670349,9.713172767078504e-05,0.1012117490172386,0,0,0
4510,166209.9526085479,2011-01-05 08:48:26,1440.7261138009349,2,18,0.5499359965324402,3.961033582687378,13.274332257288837,13.819517191401756,53.408284536962526,49.79649645670349,3.237724376958795e-05,0.1012117490172386,0,0,0
4511,166239.96771042218,2011-01-05 08:48:56,1470.7412157504089,2,18,0.5501165986061096,3.9631381034851074,13.278918694809208,13.819517191401756,53.42645652453304,49.79649645670349,6.47544875391759e-05,0.1012117490172386,0,0,0
4512,166269.9825548448,2011-01-05 08:49:26,1500.7560600727968,2,18,0.550297200679779,3.965404510498047,13.28350505466972,13.819517191401756,53.44463790488476,49.79649645670349,9.713172767078504e-05,0.1012117490172386,0,0,0
4513,166299.9978523567,2011-01-05 08:49:56,1530.7713575946975,2,18,0.5501165986061096,3.9673471450805664,13.2880915090126,13.819517191401756,53.46282937774333,49.79649645670349,3.237724376958795e-05,0.1012117490172386,0,0,0
4514,166330.0129594189,2011-01-05 08:50:26,1560.7864646719518,2,18,0.5501165986061096,3.969289779663086,13.29267794403548,13.819517191401756,53.48103030258616,49.79649645670349,0.0,0.1012117490172386,0,0,0
4515,166360.02793236688,2011-01-05 08:50:56,1590.8014375948517,2,18,0.550297200679779,3.9717180728912354,13.297264364372555,13.819517191401756,53.49924077388673,49.79649645670349,9.713172767078504e-05,0.1012117490172386,0,0,0
4516,166390.0431754882,2011-01-05 08:51:26,1620.8166807261946,2,18,0.5499359965324402,3.973660707473755,13.301850909470732,13.819517191401756,53.5174613938886,49.79649645670349,3.237724376958795e-05,0.1012117490172386,0,0,0
4517,166420.05821977396,2011-01-05 08:51:56,1650.8317250269904,2,18,0.550297200679779,3.9759271144866943,13.306437384621445,13.819517191401756,53.53569127173495,49.79649645670349,9.713172767078504e-05,0.1012117490172386,0,0,0
4518,166450.0732996484,2011-01-05 08:52:26,1680.8468048763843,2,18,0.5501165986061096,3.977707862854004,13.311023874760227,13.819517191401756,53.55393075705396,49.79649645670349,3.237724376958795e-05,0.1012117490172386,0,0,0
4519,166480.08840972313,2011-01-05 08:52:56,1710.8619149511087,2,18,0.5501165986061096,3.979974269866944,13.315610362948792,13.819517191401756,53.57217933226653,49.79649645670349,6.47544875391759e-05,0.1012117490172386,0,0,0
4520,166510.103660699,2011-01-05 08:53:26,1740.8771659420402,2,18,0.5501165986061096,3.981916904449463,13.32019679208824,13.819517191401756,53.5904374178048,49.79649645670349,3.237724376958795e-05,0.1012117490172386,0,0,0
4521,166540.11872804223,2011-01-05 08:53:56,1770.892233360452,2,18,0.550297200679779,3.984021425247192,13.324783147838492,13.819517191401756,53.60870460422701,49.79649645670349,6.47544875391759e-05,0.1012117490172386,0,0,0
4522,166570.13377590693,2011-01-05 08:54:26,1800.9072811349056,2,18,0.550297200679779,3.986125946044922,13.329369525158718,13.819517191401756,53.6269812981187,49.79649645670349,9.713172767078504e-05,0.1012117490172386,0,0,0
4523,166600.14889849786,2011-01-05 08:54:56,1830.922403730837,2,18,0.550297200679779,3.9880685806274414,13.333955910419842,13.819517191401756,53.64526743695274,49.79649645670349,6.47544875391759e-05,0.1012117490172386,0,0,0
4524,166630.16403616633,2011-01-05 08:55:26,1860.9375413943208,2,18,0.5501165986061096,3.990173101425171,13.338542297159822,13.819517191401756,53.663562857062686,49.79649645670349,6.47544875391759e-05,0.1012117490172386,0,0,0
4525,166660.18130555272,2011-01-05 08:55:56,1890.954810971189,2,18,0.5501165986061096,3.991953849792481,13.343128930705744,13.819517191401756,53.681868741927154,49.79649645670349,0.0,0.1012117490172386,0,0,0
4526,166690.1944065953,2011-01-05 08:56:26,1920.967911838351,2,18,0.5501165986061096,3.994220018386841,13.34771505233862,13.819517191401756,53.70018210425019,49.79649645670349,3.237724376958795e-05,0.1012117490172386,0,0,0
4527,166720.2093844756,2011-01-05 08:56:56,1950.9828897085813,2,18,0.5501165986061096,3.9963245391845694,13.352301335576342,13.819517191401756,53.7185055533813,49.79649645670349,6.47544875391759e-05,0.1012117490172386,0,0,0
4528,166750.22453294098,2011-01-05 08:57:26,1980.998038168975,2,18,0.5501165986061096,3.9984290599823,13.356887721229269,13.819517191401756,53.73683895887628,49.79649645670349,3.237724376958795e-05,0.1012117490172386,0,0,0
4529,166780.2413842454,2011-01-05 08:57:56,2011.014889478392,2,18,0.5501165986061096,4.000533580780029,13.361474371527043,13.819517191401756,53.75518280410403,49.79649645670349,6.47544875391759e-05,0.1012117490172386,0,0,0
4530,166810.2547607345,2011-01-05 08:58:26,2041.028265962476,2,18,0.5501165986061096,4.002476215362549,13.366060430900268,13.819517191401756,53.77353398198877,49.79649645670349,3.23295607813634e-05,0.1012117490172386,0,0,0
4531,166840.27003277288,2011-01-05 08:58:56,2071.0435380359518,2,18,0.5499359965324402,4.004580974578857,13.370646816380948,13.819517191401756,53.791896122655935,49.79649645670349,3.24249267578125e-05,0.1012117490172386,0,0,0
4532,166870.28500717448,2011-01-05 08:59:26,2101.058512402449,2,18,0.5499359965324402,4.006847381591797,13.375233176712342,13.819517191401756,53.81026786107242,49.79649645670349,3.24249267578125e-05,0.1012117490172386,0,0,0
4533,166900.3001345473,2011-01-05 08:59:56,2131.073639780299,2,18,0.5499359965324402,4.008951663970947,13.379819613642512,13.819517191401756,53.828649722196005,49.79649645670349,6.47544875391759e-05,0.1012117490172386,0,0,0
4534,166930.31525344902,2011-01-05 09:00:26,2161.0887586770104,2,18,0.550297200679779,4.011218070983887,13.384405974241057,13.819517191401756,53.8470409934148,49.79649645670349,0.0001295089750783,0.1012117490172386,0,0,0
4535,166960.3303652581,2011-01-05 09:00:56,2191.10387049107,2,18,0.5501165986061096,4.013322830200195,13.388992349132373,13.819517191401756,53.86544223674921,49.79649645670349,6.47544875391759e-05,0.1012117490172386,0,0,0
4536,166990.34549683638,2011-01-05 09:01:26,2221.119002064376,2,18,0.5501165986061096,4.015427112579346,13.393578702004708,13.819517191401756,53.88385338027744,49.79649645670349,9.70840483205393e-05,0.1012117490172386,0,0,0
4537,167020.3606485048,2011-01-05 09:01:57,2251.134153737777,2,18,0.5501165986061096,4.017693519592285,13.398165063703388,13.819517191401756,53.902274679447885,49.79649645670349,6.47544875391759e-05,0.1012117490172386,0,0,0
4538,167050.3757593013,2011-01-05 09:02:27,2281.1492645292883,2,18,0.5499359965324402,4.019959926605225,13.402751439895944,13.819517191401756,53.92070613179595,49.79649645670349,6.47544875391759e-05,0.1012117490172386,0,0,0
4539,167080.39085649393,2011-01-05 09:02:57,2311.164361726919,2,18,0.5501165986061096,4.022064685821533,13.407337775966928,13.819517191401756,53.93914764735958,49.79649645670349,6.47544875391759e-05,0.1012117490172386,0,0,0
4540,167110.4061948927,2011-01-05 09:03:27,2341.179700145748,2,18,0.5501165986061096,4.024492740631104,13.411924171048383,13.819517191401756,53.957599760666206,49.79649645670349,6.47544875391759e-05,0.1012117490172386,0,0,0
4541,167140.42111191127,2011-01-05 09:03:57,2371.194617144267,2,18,0.5499359965324402,4.026597499847412,13.416510596060045,13.819517191401756,53.97606241711738,49.79649645670349,6.47544875391759e-05,0.1012117490172386,0,0,0
4542,167170.4362279659,2011-01-05 09:04:27,2401.209733198896,2,18,0.5501165986061096,4.029025554656982,13.421096975219118,13.819517191401756,53.99453549849298,49.79649645670349,9.70840483205393e-05,0.1012117490172386,0,0,0
4543,167200.45134547917,2011-01-05 09:04:57,2431.224850707147,2,18,0.5501165986061096,4.031291961669922,13.425683381080267,13.819517191401756,54.013019330102615,49.79649645670349,6.47544875391759e-05,0.1012117490172386,0,0,0
4544,167230.46647145352,2011-01-05 09:05:27,2461.2399766814983,2,18,0.5499359965324402,4.033558368682861,13.430269702093234,13.819517191401756,54.03151363615273,49.79649645670349,3.23295607813634e-05,0.1012117490172386,0,0,0
4545,167260.48181031345,2011-01-05 09:05:57,2491.255315546439,2,18,0.5501165986061096,4.036148548126221,13.4348561688446,13.819517191401756,54.050019482928654,49.79649645670349,6.47544875391759e-05,0.1012117490172386,0,0,0
4546,167290.4969677512,2011-01-05 09:06:27,2521.27047298922,2,18,0.5499359965324402,4.03841495513916,13.439442570380088,13.819517191401756,54.06853615785494,49.79649645670349,6.47544875391759e-05,0.1012117490172386,0,0,0
4547,167320.51183583282,2011-01-05 09:06:57,2551.2853410607977,2,18,0.5499359965324402,4.04100513458252,13.444028982486833,13.819517191401756,54.087064000751326,49.79649645670349,9.71794142969884e-05,0.1012117490172386,0,0,0
4548,167350.5269672808,2011-01-05 09:07:27,2581.3004725087912,2,18,0.5499359965324402,4.04343318939209,13.448615115255954,13.819517191401756,54.10560193423272,49.79649645670349,9.70840483205393e-05,0.1012117490172386,0,0,0
4549,167380.54210287414,2011-01-05 09:07:57,2611.315608102116,2,18,0.5499359965324402,4.045861721038818,13.453200656959837,13.819517191401756,54.12414881070162,49.79649645670349,9.71794142969884e-05,0.1012117490172386,0,0,0
4550,167410.55732557454,2011-01-05 09:08:27,2641.330830837626,2,18,0.5499359965324402,4.048451900482178,13.457786201095717,13.819517191401756,54.142707196795975,49.79649645670349,6.47544875391759e-05,0.1012117490172386,0,0,0
4551,167440.57231802613,2011-01-05 09:08:57,2671.3458232791727,2,18,0.5497553944587708,4.050718307495117,13.4623717510796,13.819517191401756,54.16127726721412,49.79649645670349,0.0,0.1012117490172386,0,0,0
4552,167470.58757047573,2011-01-05 09:09:27,2701.3610757237266,2,18,0.550297200679779,4.053793907165527,13.466957557224632,13.819517191401756,54.17986014973241,49.79649645670349,0.0001295089750783,0.1012117490172386,0,0,0
4553,167500.60473834406,2011-01-05 09:09:57,2731.378243577069,2,18,0.5501165986061096,4.056384086608887,13.471544318215708,13.819517191401756,54.19845891274279,49.79649645670349,9.70840483205393e-05,0.1012117490172386,0,0,0
4554,167530.61780074035,2011-01-05 09:10:27,2761.391305988386,2,18,0.550297200679779,4.058974266052246,13.476130423677692,13.819517191401756,54.21706704767968,49.79649645670349,6.47544875391759e-05,0.1012117490172386,0,0,0
4555,167560.6328026104,2011-01-05 09:10:57,2791.406307838381,2,18,0.5501165986061096,4.061402797698975,13.480716846473248,13.819517191401756,54.23568843346404,49.79649645670349,6.47544875391759e-05,0.1012117490172386,0,0,0
4556,167590.64793495563,2011-01-05 09:11:27,2821.421440183612,2,18,0.550297200679779,4.064154624938965,13.485303230959278,13.819517191401756,54.254321782699314,49.79649645670349,9.70840483205393e-05,0.1012117490172386,0,0,0
4557,167620.66305662927,2011-01-05 09:11:57,2851.436561857244,2,18,0.5501165986061096,4.066744804382324,13.489889516132909,13.819517191401756,54.27296716597572,49.79649645670349,6.47544875391759e-05,0.1012117490172386,0,0,0
4558,167650.67817458362,2011-01-05 09:12:27,2881.4516798065947,2,18,0.5501165986061096,4.069497108459473,13.49447589030336,13.819517191401756,54.29162556599792,49.79649645670349,6.47544875391759e-05,0.1012117490172386,0,0,0
4559,167680.69331534984,2011-01-05 09:12:57,2911.4668206028878,2,18,0.5501165986061096,4.072411060333252,13.499062304296393,13.819517191401756,54.31029679346996,49.79649645670349,6.47544875391759e-05,0.1012117490172386,0,0,0
4560,167710.708533529,2011-01-05 09:13:27,2941.4820387720165,2,18,0.5499359965324402,4.075162887573242,13.50364863447991,13.819517191401756,54.32898052433468,49.79649645670349,6.47544875391759e-05,0.1012117490172386,0,0,0
4561,167740.7235572134,2011-01-05 09:13:57,2971.49706243638,2,18,0.5501165986061096,4.0780768394470215,13.50823496882704,13.819517191401756,54.34767723762139,49.79649645670349,3.23295607813634e-05,0.1012117490172386,0,0,0
4562,167770.73905822748,2011-01-05 09:14:27,3001.5125635657328,2,18,0.5501165986061096,4.08082914352417,13.512821405918864,13.819517191401756,54.36638753790936,49.79649645670349,3.24249267578125e-05,0.1012117490172386,0,0,0
4563,167800.7537797538,2011-01-05 09:14:57,3031.527284986813,2,18,0.5499359965324402,4.083743095397949,13.517407712529536,13.819517191401756,54.3851103990017,49.79649645670349,6.47544875391759e-05,0.1012117490172386,0,0,0
4564,167830.76890187856,2011-01-05 09:15:27,3061.5424071115704,2,18,0.5501165986061096,4.0866570472717285,13.5219940693028,13.819517191401756,54.40384675932235,49.79649645670349,3.24249267578125e-05,0.1012117490172386,0,0,0
4565,167860.78403404838,2011-01-05 09:15:57,3091.5575392813626,2,18,0.5501165986061096,4.089570999145508,13.526580444774082,13.819517191401756,54.422596586995866,49.79649645670349,6.47544875391759e-05,0.1012117490172386,0,0,0
4566,167890.79918139096,2011-01-05 09:16:27,3121.572686639008,2,18,0.5499359965324402,4.092646598815918,13.531166823714068,13.819517191401756,54.441359982019165,49.79649645670349,6.47544875391759e-05,0.1012117490172386,0,0,0
4567,167920.81426365138,2011-01-05 09:16:57,3151.5877688843734,2,18,0.5501165986061096,4.095560550689697,13.5357531166897,13.819517191401756,54.46013668543405,49.79649645670349,6.47544875391759e-05,0.1012117490172386,0,0,0
4568,167950.82951255213,2011-01-05 09:17:27,3181.603017800133,2,18,0.5501165986061096,4.098636627197266,13.540339538758127,13.819517191401756,54.47892780234942,49.79649645670349,6.47544875391759e-05,0.1012117490172386,0,0,0
4569,167980.84455662733,2011-01-05 09:17:57,3211.6180618653416,2,18,0.5501165986061096,4.101550579071045,13.544925943894867,13.819517191401756,54.49773282878061,49.79649645670349,3.24249267578125e-05,0.1012117490172386,0,0,0
4570,168010.85988822917,2011-01-05 09:18:27,3241.6333934772047,2,18,0.5501165986061096,4.104788303375244,13.549512426448205,13.819517191401756,54.51655215121381,49.79649645670349,9.71794142969884e-05,0.1012117490172386,0,0,0
4571,168040.87475974936,2011-01-05 09:18:57,3271.648264977328,2,18,0.5499359965324402,4.107863903045654,13.554098855122936,13.819517191401756,54.53538548684706,49.79649645670349,9.70840483205393e-05,0.1012117490172386,0,0,0
4572,168070.8898911773,2011-01-05 09:19:27,3301.663396400259,2,18,0.5501165986061096,4.1111016273498535,13.558685219739733,13.819517191401756,54.55423284160528,49.79649645670349,0.0001295089750783,0.1012117490172386,0,0,0
4573,168100.90503039464,2011-01-05 09:19:57,3331.6785356276414,2,18,0.5501165986061096,4.114177703857422,13.563271615111868,13.819517191401756,54.573094666765,49.79649645670349,9.71794142969884e-05,0.1012117490172386,0,0,0
4574,168130.92053942368,2011-01-05 09:20:27,3361.6940446767326,2,18,0.5501165986061096,4.117414951324463,13.567858020545382,13.819517191401756,54.59197108533607,49.79649645670349,9.70840483205393e-05,0.1012117490172386,0,0,0
4575,168160.93524824837,2011-01-05 09:20:57,3391.708753481369,2,18,0.5501165986061096,4.120652675628662,13.572444360632277,13.819517191401756,54.610861941554745,49.79649645670349,9.70840483205393e-05,0.1012117490172386,0,0,0
4576,168190.95038288433,2011-01-05 09:21:27,3421.723888117308,2,18,0.5501165986061096,4.123728752136231,13.577030822328435,13.819517191401756,54.62976821169335,49.79649645670349,9.71794142969884e-05,0.1012117490172386,0,0,0
4577,168220.96572153372,2011-01-05 09:21:57,3451.739226771724,2,18,0.5501165986061096,4.1271281242370605,13.581617261219325,13.819517191401756,54.64868935126901,49.79649645670349,9.70840483205393e-05,0.1012117490172386,0,0,0
4578,168250.98075033087,2011-01-05 09:22:27,3481.754255573892,2,18,0.5501165986061096,4.13036584854126,13.586203644496956,13.819517191401756,54.66762547047401,49.79649645670349,6.47544875391759e-05,0.1012117490172386,0,0,0
4579,168280.9957499052,2011-01-05 09:22:57,3511.769255133178,2,18,0.550297200679779,4.133765697479248,13.590790050930428,13.819517191401756,54.68657696790064,49.79649645670349,9.71794142969884e-05,0.1012117490172386,0,0,0
4580,168311.01088202486,2011-01-05 09:23:27,3541.7843872678827,2,18,0.5499359965324402,4.137165069580078,13.595376488065394,13.819517191401756,54.7055440503344,49.79649645670349,0.0001295089750783,0.1012117490172386,0,0,0
4581,168341.02611968256,2011-01-05 09:23:57,3571.799624930597,2,18,0.5499359965324402,4.140402793884277,13.599962908927145,13.819517191401756,54.724526629902215,49.79649645670349,6.47544875391759e-05,0.1012117490172386,0,0,0
4582,168371.04110825446,2011-01-05 09:24:27,3601.814613477436,2,18,0.5501165986061096,4.1439642906188965,13.6045493804585,13.819517191401756,54.74352511378546,49.79649645670349,9.70840483205393e-05,0.1012117490172386,0,0,0
4583,168401.05622661483,2011-01-05 09:24:57,3631.829731842824,2,18,0.5499359965324402,4.147687911987305,13.609135688445472,13.819517191401756,54.762539071138015,49.79649645670349,9.71794142969884e-05,0.1012117490172386,0,0,0
4584,168431.07136012797,2011-01-05 09:25:27,3661.8448653609767,2,18,0.5499359965324402,4.150925636291504,13.613722098637217,13.819517191401756,54.781569376558224,49.79649645670349,6.47544875391759e-05,0.1012117490172386,0,0,0
4585,168461.08647856355,2011-01-05 09:25:57,3691.8599837965394,2,18,0.5501165986061096,4.154487133026123,13.618308475862534,13.819517191401756,54.80061549655593,49.79649645670349,9.71794142969884e-05,0.1012117490172386,0,0,0
4586,168491.10159256306,2011-01-05 09:26:27,3721.875097796046,2,18,0.5501165986061096,4.158048629760742,13.622894853467002,13.819517191401756,54.81967774942124,49.79649645670349,9.71794142969884e-05,0.1012117490172386,0,0,0
4587,168521.11672936438,2011-01-05 09:26:57,3751.8902345973806,2,18,0.5499359965324402,4.161448001861572,13.627481271740786,13.819517191401756,54.838756429007645,49.79649645670349,3.23295607813634e-05,0.1012117490172386,0,0,0
4588,168551.13184705807,2011-01-05 09:27:27,3781.905352286082,2,18,0.5499359965324402,4.1651716232299805,13.632067698327576,13.819517191401756,54.85785145080394,49.79649645670349,9.71794142969884e-05,0.1012117490172386,0,0,0
4589,168581.14929721,2011-01-05 09:27:57,3811.922802648524,2,18,0.5501165986061096,4.1687331199646,13.636654406602169,13.819517191401756,54.87696411969722,49.79649645670349,6.47544875391759e-05,0.1012117490172386,0,0,0
4590,168611.16209012968,2011-01-05 09:28:27,3841.935595357661,2,18,0.5501165986061096,4.17245626449585,13.641240412640068,13.819517191401756,54.89609052865574,49.79649645670349,6.47544875391759e-05,0.1012117490172386,0,0,0
4591,168641.1773435015,2011-01-05 09:28:57,3871.9508487545886,2,18,0.5501165986061096,4.176179885864258,13.64582683853732,13.819517191401756,54.91523562243974,49.79649645670349,9.71794142969884e-05,0.1012117490172386,0,0,0
4592,168671.1923554517,2011-01-05 09:29:27,3901.9658606746816,2,18,0.550297200679779,4.179903030395508,13.650413232041853,13.819517191401756,54.93439760197132,49.79649645670349,0.0001295089750783,0.1012117490172386,0,0,0
4593,168701.2091812676,2011-01-05 09:29:57,3931.9826865005866,2,18,0.5499359965324402,4.183464527130127,13.654999941261512,13.819517191401756,54.95357811831027,49.79649645670349,0.0001295089750783,0.1012117490172386,0,0,0
4594,168731.22262939523,2011-01-05 09:30:27,3961.9961346232144,2,18,0.5499359965324402,4.187349796295166,13.659586120414714,13.819517191401756,54.97277370617128,49.79649645670349,6.47544875391759e-05,0.1012117490172386,0,0,0
4595,168761.23772060793,2011-01-05 09:30:57,3992.0112258359295,2,18,0.550297200679779,4.191397190093994,13.664172523752844,13.819517191401756,54.99198779074081,49.79649645670349,0.0001295089750783,0.1012117490172386,0,0,0
4596,168791.25282675287,2011-01-05 09:31:27,4022.02633198086,2,18,0.5499359965324402,4.195120334625244,13.668758923904074,13.819517191401756,55.01121950050652,49.79649645670349,9.70840483205393e-05,0.1012117490172386,0,0,0
4597,168821.26795313324,2011-01-05 09:31:57,4052.0414583612232,2,18,0.5501165986061096,4.199005603790283,13.673345378409904,13.819517191401756,55.03046894553497,49.79649645670349,9.71794142969884e-05,0.1012117490172386,0,0,0
4598,168829.00233807534,2011-01-05 09:32:05,4059.77584332336,2,18,0.5501165986061096,4.200138568878174,13.674527219325173,13.819517191401756,55.03543206899421,49.79649645670349,0.0001295089750783,0.1012117490172386,0,0,0
4599,168859.0196651399,2011-01-05 09:32:35,30.01522853997656,3,18,0.0,4.100255489349365,13.674527219325173,13.819517191401756,55.03543206899421,49.79649645670349,-0.0004208564641885,0.1012117490172386,0,0,0
4600,168889.0368650782,2011-01-05 09:33:05,60.03242856850921,3,18,0.0,4.087304592132568,13.674527219325173,13.819517191401756,55.03543206899421,49.79649645670349,-0.0002590179501567,0.1012117490172386,0,0,0
4601,168919.04992160486,2011-01-05 09:33:35,90.04548500493539,3,18,0.0,4.07953405380249,13.674527219325173,13.819517191401756,55.03543206899421,49.79649645670349,-0.0001618385285837,0.1012117490172386,0,0,0
4602,168949.0180347087,2011-01-05 09:34:05,120.01359808869798,3,18,0.0,4.074191570281982,13.674527219325173,13.819517191401756,55.03543206899421,49.79649645670349,-0.0001619339018361,0.1012117490172386,0,0,0
4603,168949.02229035753,2011-01-05 09:34:05,2.641583639e-06,4,18,1.027105689048767,4.199976921081543,13.674527220078833,13.819517191401756,55.03543207215957,49.79649645670349,0.0,0.1012117490172386,0,0,0
4604,168949.58481076648,2011-01-05 09:34:06,0.562523060550912,4,18,0.975993275642395,4.199814796447754,13.674682205428976,13.819517191401756,55.03608299063416,49.79649645670349,-3.24249267578125e-05,0.1012117490172386,0,0,0
4605,168951.35039591792,2011-01-05 09:34:08,2.328108212005306,4,18,0.9254226684570312,4.199814796447754,13.675147402904033,13.819517191401756,55.03803674536064,49.79649645670349,-3.24249267578125e-05,0.1012117490172386,0,0,0
4606,168954.1002682509,2011-01-05 09:34:11,5.077980565023598,4,18,0.8753939270973206,4.199814796447754,13.675834304068871,13.819517191401756,55.04092162500581,49.79649645670349,-3.24249267578125e-05,0.1012117490172386,0,0,0
4607,168957.91277939174,2011-01-05 09:34:14,8.890491776041827,4,18,0.8253651261329651,4.199814796447754,13.676733781420763,13.819517191401756,55.044699296604,49.79649645670349,-3.24249267578125e-05,0.1012117490172386,0,0,0
4608,168962.9300567507,2011-01-05 09:34:19,13.907769069835592,4,18,0.775155782699585,4.199653148651123,13.677847801389955,13.819517191401756,55.0493780262516,49.79649645670349,-3.23295607813634e-05,0.1012117490172386,0,0,0
4609,168969.45942789264,2011-01-05 09:34:26,20.437140211758532,4,18,0.7251269817352295,4.199976921081543,13.679206615740643,13.819517191401756,55.055084848017295,49.79649645670349,3.24249267578125e-05,0.1012117490172386,0,0,0
4610,168977.9750397225,2011-01-05 09:34:34,28.952752061676797,4,18,0.6750982403755188,4.199814796447754,13.680860317808207,13.819517191401756,55.06203016508946,49.79649645670349,-3.24249267578125e-05,0.1012117490172386,0,0,0
4611,168989.64658791685,2011-01-05 09:34:46,40.62430021592276,4,18,0.6250694394111633,4.199653148651123,13.682964235739036,13.819517191401756,55.07086635787263,49.79649645670349,-6.47544875391759e-05,0.1012117490172386,0,0,0
4612,169006.77141032345,2011-01-05 09:35:03,57.74912261752368,4,18,0.5750406980514526,4.199976921081543,13.685811069292356,13.819517191401756,55.08282270211726,49.79649645670349,3.24249267578125e-05,0.1012117490172386,0,0,0
4613,169035.44275890608,2011-01-05 09:35:32,86.42047120014499,4,18,0.5250118970870972,4.199814796447754,13.690174207683228,13.819517191401756,55.101147326348176,49.79649645670349,0.0,0.1012117490172386,0,0,0
4614,169090.75432321828,2011-01-05 09:36:27,141.7320355123539,4,18,0.4749831557273865,4.199976921081543,13.697815739137273,13.819517191401756,55.13324076640658,49.79649645670349,3.24249267578125e-05,0.1012117490172386,0,0,0
4615,169187.76831322184,2011-01-05 09:38:04,238.7460255209137,4,18,0.4249543845653534,4.199814796447754,13.709900928119898,13.819517191401756,55.183997007299645,49.79649645670349,0.0,0.1012117490172386,0,0,0
4616,169317.75052401566,2011-01-05 09:40:14,368.7282363197508,4,18,0.3747450113296509,4.199814796447754,13.724322047034454,13.819517191401756,55.24456399054346,49.79649645670349,-3.24249267578125e-05,0.1012117490172386,0,0,0
4617,169476.638515093,2011-01-05 09:42:53,527.6162273921158,4,18,0.3247162401676178,4.199814796447754,13.739738696276252,13.819517191401756,55.30931202292838,49.79649645670349,0.0,0.1012117490172386,0,0,0
4618,169665.97909181388,2011-01-05 09:46:02,716.9568041329929,4,18,0.2746874690055847,4.199814796447754,13.755471551211269,13.819517191401756,55.37538808741039,49.79649645670349,0.0,0.1012117490172386,0,0,0
4619,169901.33474701876,2011-01-05 09:49:58,952.3124594331256,4,18,0.2246586978435516,4.199814796447754,13.771757536533409,13.819517191401756,55.44378718137967,49.79649645670349,0.0,0.1012117490172386,0,0,0
4620,170204.37630722535,2011-01-05 09:55:01,1255.3540195344551,4,18,0.1746299266815185,4.199814796447754,13.78850257381298,13.819517191401756,55.51411425615749,49.79649645670349,-3.24249267578125e-05,0.1012117490172386,0,0,0
4621,170634.32221817147,2011-01-05 10:02:11,1685.2999304655448,4,18,0.1246011555194854,4.199653148651123,13.806249970898753,13.819517191401756,55.58865110011904,49.79649645670349,-3.23295607813634e-05,0.1012117490172386,0,0,0
4622,171353.74769560792,2011-01-05 10:14:10,2404.725407927064,4,18,0.0745723918080329,4.199814796447754,13.82573053034264,13.819517191401756,55.67046702277885,49.79649645670349,0.0,0.1012117490172386,0,0,0
4623,171995.0807463737,2011-01-05 10:24:52,3046.0584586878067,4,18,0.0498289167881011,4.199814796447754,13.836710957935932,13.819517191401756,55.716583310199816,49.79649645670349,-3.24249267578125e-05,0.1012117490172386,0,0,0
4624,172025.08855614866,2011-01-05 10:25:22,30.01513240036707,5,18,0.0,4.190587520599365,13.836710957935932,13.819517191401756,55.716583310199816,49.79649645670349,-3.24249267578125e-05,0.1012117490172386,0,0,0
4625,172055.08806043898,2011-01-05 10:25:52,60.01463669568772,5,18,0.0,4.188968658447266,13.836710957935932,13.819517191401756,55.716583310199816,49.79649645670349,-3.24249267578125e-05,0.1012117490172386,0,0,0
4626,172055.26948032973,2011-01-05 10:25:52,0.187744577254079,6,18,-1.9243103452026844e-05,4.188807010650635,13.836710957935932,13.819517192405309,55.716583310199816,49.79649646090718,0.0,0.1052602156996727,0,0,0
4627,172060.09726573643,2011-01-05 10:25:57,5.015529983960024,6,18,0.0008838032954372,4.188968658447266,13.836711855486788,13.819517192571103,55.71658707010252,49.79649646160166,-6.47544875391759e-05,0.1052602156996727,0,0,0
4628,172084.05939585713,2011-01-05 10:26:21,23.96834916098584,7,18,-1.099568486213684,3.988878011703491,13.836711855486788,13.82683804942884,55.71658707010252,49.825870392476304,-0.0013274193042889,0.1052602156996727,0,0,0
4629,172114.07454233256,2011-01-05 10:26:51,53.98349565648231,7,18,-1.099568486213684,3.948730230331421,13.836711855486788,13.836005791925553,55.71658707010252,49.86224606290686,-0.0009389400365762,0.1052602156996727,0,0,0
4630,172144.08964131968,2011-01-05 10:27:21,83.99859462352325,7,18,-1.099568486213684,3.920076370239258,13.836711855486788,13.845173544160955,55.71658707010252,49.89830730656148,-0.0006151676061563,0.1052602156996727,0,0,0
4631,172174.10477551952,2011-01-05 10:27:51,114.01372884342516,7,18,-1.099568486213684,3.897898197174072,13.836711855486788,13.854341348103292,55.71658707010252,49.93414001776502,-0.0005827903514727,0.1052602156996727,0,0,0
4632,172204.1198845767,2011-01-05 10:28:21,144.02883788056386,7,18,-1.0997490882873535,3.8802525997161865,13.836711855486788,13.863509058715117,55.71658707010252,49.96979304741004,-0.0004856586456298,0.1052602156996727,0,0,0
4633,172234.13501605476,2011-01-05 10:28:51,174.04396934860733,7,18,-1.099568486213684,3.86519718170166,13.836711855486788,13.872676842276224,55.71658707010252,50.005295339595584,-0.0003561496851034,0.1052602156996727,0,0,0
4634,172264.15013274597,2011-01-05 10:29:21,204.05908607490977,7,18,-1.0997490882873535,3.850951194763184,13.836711855486788,13.88184456501656,55.71658707010252,50.04066349545419,-0.0003885269106831,0.1052602156996727,0,0,0
4635,172294.1652719132,2011-01-05 10:29:51,234.07422521206692,7,18,-1.099568486213684,3.8381621837615967,13.836711855486788,13.8910123835578,55.71658707010252,50.07590936381219,-0.0003237724304199,0.1052602156996727,0,0,0
4636,172324.18052616727,2011-01-05 10:30:21,264.0894794911934,7,18,-1.099568486213684,3.8260209560394287,13.836711855486788,13.900180198317122,55.71658707010252,50.111040501404936,-0.0002913951757363,0.1052602156996727,0,0,0
4637,172354.19550249365,2011-01-05 10:30:51,294.10445579752616,7,18,-1.0997490882873535,3.814365148544312,13.836711855486788,13.909347905383148,55.71658707010252,50.14606301411492,-0.0003561496851034,0.1052602156996727,0,0,0
4638,172384.2106464829,2011-01-05 10:31:21,324.11959977675133,7,18,-1.099568486213684,3.803356885910034,13.836711855486788,13.918515618664165,55.71658707010252,50.1809809670393,-0.0002590179501567,0.1052602156996727,0,0,0
4639,172414.22576037212,2011-01-05 10:31:51,354.1347136760079,7,18,-1.099568486213684,3.792510509490967,13.836711855486788,13.92768337023014,55.71658707010252,50.2157993949704,-0.0002913951757363,0.1052602156996727,0,0,0
4640,172444.2411390212,2011-01-05 10:32:21,384.1500923351275,7,18,-1.099568486213684,3.7823116779327393,13.836711855486788,13.936851214473588,55.71658707010252,50.25052211663039,-0.0002590179501567,0.1052602156996727,0,0,0
4641,172474.2559924864,2011-01-05 10:32:51,414.1649458003024,7,18,-1.099568486213684,3.7725985050201416,13.836711855486788,13.946018881342868,55.71658707010252,50.2851518454409,-0.0002266406954731,0.1052602156996727,0,0,0
4642,172504.27137788234,2011-01-05 10:33:21,444.1803312062371,7,18,-1.099568486213684,3.762885332107544,13.836711855486788,13.955186606703084,55.71658707010252,50.31969289985098,-0.0002266406954731,0.1052602156996727,0,0,0
4643,172534.28647497468,2011-01-05 10:33:51,474.1954282986058,7,18,-1.099568486213684,3.753657817840576,13.836711855486788,13.964354386078137,55.71658707010252,50.35414766696245,-0.0002590179501567,0.1052602156996727,0,0,0
4644,172564.3014913609,2011-01-05 10:34:21,504.2104446898424,7,18,-1.099568486213684,3.744754314422608,13.836711855486788,13.973522106567058,55.71658707010252,50.38851850377159,-0.0002266406954731,0.1052602156996727,0,0,0
4645,172594.31650629852,2011-01-05 10:34:51,534.2254596023937,7,18,-1.099568486213684,3.7360124588012695,13.836711855486788,13.982689874989372,55.71658707010252,50.4228086530841,-0.0001942634553415,0.1052602156996727,0,0,0
4646,172624.33160968157,2011-01-05 10:35:21,564.2405629804281,7,18,-1.0997490882873535,3.727594375610352,13.836711855486788,13.991857674447877,55.71658707010252,50.45702071482716,-0.0002266406954731,0.1052602156996727,0,0,0
4647,172654.3467325181,2011-01-05 10:35:51,594.2556858169593,7,18,-1.0993878841400146,3.7195000648498535,13.836711855486788,14.001025347277286,55.71658707010252,50.49115640273971,-0.0001942634553415,0.1052602156996727,0,0,0
4648,172684.36184726446,2011-01-05 10:36:21,624.2708005883895,7,18,-1.0997490882873535,3.711405754089356,13.836711855486788,14.010193149549869,55.71658707010252,50.52521834273155,-0.0002266406954731,0.1052602156996727,0,0,0
4649,172714.3770308825,2011-01-05 10:36:51,654.2859841863568,7,18,-1.0993878841400146,3.7034733295440674,13.836711855486788,14.019360915053657,55.71658707010252,50.55920720475234,-0.0002266406954731,0.1052602156996727,0,0,0
4650,172744.39211034088,2011-01-05 10:37:21,684.3010636648262,7,18,-1.099568486213684,3.695702791213989,13.836711855486788,14.028528693434986,55.71658707010252,50.5931245626908,-0.0002266406954731,0.1052602156996727,0,0,0
4651,172774.40723389422,2011-01-05 10:37:51,714.3161872181437,7,18,-1.099568486213684,3.688094139099121,13.836711855486788,14.037696562789185,55.71658707010252,50.62697186068476,-0.0001942634553415,0.1052602156996727,0,0,0
4652,172804.42248183757,2011-01-05 10:38:21,744.3314351314045,7,18,-1.0997490882873535,3.680647373199463,13.836711855486788,14.0468644343059,55.71658707010252,50.66075020501444,-0.0002266406954731,0.1052602156996727,0,0,0
4653,172834.43746142206,2011-01-05 10:38:51,774.3464147459824,7,18,-1.099929690361023,3.673362493515015,13.836711855486788,14.056032205847789,55.71658707010252,50.69446080512218,-0.0002266406954731,0.1052602156996727,0,0,0
4654,172864.45258051925,2011-01-05 10:39:21,804.3615338231436,7,18,-1.099568486213684,3.666401624679565,13.836711855486788,14.065200012440584,55.71658707010252,50.72810574719069,-0.0001295089750783,0.1052602156996727,0,0,0
4655,172894.4697743574,2011-01-05 10:39:51,834.3787277564853,7,18,-1.099568486213684,3.659440517425537,13.836711855486788,14.074368417677434,55.71658707010252,50.76168895721887,-0.0001942634553415,0.1052602156996727,0,0,0
4656,172924.48283269856,2011-01-05 10:40:21,864.3917859923965,7,18,-1.0997490882873535,3.6528031826019287,13.836711855486788,14.083535612688165,55.71658707010252,50.79520532698526,-0.0001618862152099,0.1052602156996727,0,0,0
4657,172954.4979721064,2011-01-05 10:40:51,894.4069254252908,7,18,-1.099568486213684,3.645842075347901,13.836711855486788,14.0927034039092,55.71658707010252,50.828662063675885,-0.0001942634553415,0.1052602156996727,0,0,0
4658,172984.51307169496,2011-01-05 10:41:21,924.4220249988432,7,18,-1.0997490882873535,3.639204740524292,13.836711855486788,14.101871138633133,55.71658707010252,50.862056985309394,-0.0002266406954731,0.1052602156996727,0,0,0
4659,173014.52820832087,2011-01-05 10:41:51,954.437161639779,7,18,-1.0997490882873535,3.632891178131104,13.836711855486788,14.111038905847384,55.71658707010252,50.89539209125872,-0.0001618862152099,0.1052602156996727,0,0,0
4660,173044.52943486857,2011-01-05 10:42:21,984.4383881674328,7,18,-1.099568486213684,3.626739501953125,13.836711855486788,14.120202487022793,55.71658707010252,50.92865410129458,-0.0001295089750783,0.1052602156996727,0,0,0
4661,173074.5428665853,2011-01-05 10:42:51,1014.4518198841728,7,18,-1.0993878841400146,3.6205878257751465,13.836711855486788,14.129369717857903,55.71658707010252,50.96187250915082,-0.0001618862152099,0.1052602156996727,0,0,0
4662,173104.55796638443,2011-01-05 10:43:21,1044.4669197033377,7,18,-1.099568486213684,3.614436149597168,13.836711855486788,14.138537477370484,55.71658707010252,50.99503707949666,-0.0001618862152099,0.1052602156996727,0,0,0
4663,173134.57306247432,2011-01-05 10:43:51,1074.4820157781703,7,18,-1.099568486213684,3.60860824584961,13.836711855486788,14.147705251867489,55.71658707010252,51.02814730753499,-0.0001942634553415,0.1052602156996727,0,0,0
4664,173164.5882110951,2011-01-05 10:44:21,1104.4971644190136,7,18,-1.099568486213684,3.6029422283172607,13.836711855486788,14.156873073470242,55.71658707010252,51.06120415453782,-0.0001295089750783,0.1052602156996727,0,0,0
4665,173194.60331329016,2011-01-05 10:44:51,1134.5122665940498,7,18,-1.0993878841400146,3.597276210784912,13.836711855486788,14.1660408623838,55.71658707010252,51.09420813819803,-0.0001295089750783,0.1052602156996727,0,0,0
4666,173224.61843525956,2011-01-05 10:45:21,1164.5273885533948,7,18,-1.099568486213684,3.5914485454559326,13.836711855486788,14.175208650688685,55.71658707010252,51.12715986258364,-0.0001618385285837,0.1052602156996727,0,0,0
4667,173254.63357759468,2011-01-05 10:45:51,1194.5425309236095,7,18,-1.099568486213684,3.585944414138794,13.836711855486788,14.184376535701515,55.71658707010252,51.160060891303125,-0.0001295089750783,0.1052602156996727,0,0,0
4668,173284.64872411522,2011-01-05 10:46:22,1224.557677419106,7,18,-1.099568486213684,3.580602169036865,13.836711855486788,14.193544393156149,55.71658707010252,51.19291229628289,-0.0001295089750783,0.1052602156996727,0,0,0
4669,173314.66381707732,2011-01-05 10:46:52,1254.572770376168,7,18,-1.099568486213684,3.5754218101501465,13.836711855486788,14.202712280848464,55.71658707010252,51.22571577780284,-0.0001295089750783,0.1052602156996727,0,0,0
4670,173344.67892943774,2011-01-05 10:47:22,1284.587882761652,7,18,-1.099568486213684,3.5704033374786377,13.836711855486788,14.2118801062705,55.71658707010252,51.25847172638965,-0.0001295089750783,0.1052602156996727,0,0,0
4671,173374.69405407875,2011-01-05 10:47:52,1314.6030073826305,7,18,-1.099568486213684,3.565546751022339,13.836711855486788,14.221047922232476,55.71658707010252,51.29118193520842,-0.0001295089750783,0.1052602156996727,0,0,0
4672,173404.70918455435,2011-01-05 10:48:22,1344.618137853188,7,18,-1.099568486213684,3.56085205078125,13.836711855486788,14.230215752671588,55.71658707010252,51.32384766000048,-0.0001295089750783,0.1052602156996727,0,0,0
4673,173434.7242938772,2011-01-05 10:48:52,1374.6332471810513,7,18,-1.0997490882873535,3.555995464324951,13.836711855486788,14.239383528412937,55.71658707010252,51.35647027396482,-0.0001295089750783,0.1052602156996727,0,0,0
4674,173464.7394232049,2011-01-05 10:49:22,1404.6483765338228,7,18,-1.0997490882873535,3.5514626502990723,13.836711855486788,14.248551316516968,55.71658707010252,51.389050680541,-0.0001618862152099,0.1052602156996727,0,0,0
4675,173494.75454606648,2011-01-05 10:49:52,1434.6634993703535,7,18,-1.099568486213684,3.5470917224884038,13.836711855486788,14.25771917497951,55.71658707010252,51.421590403647336,-0.0001295089750783,0.1052602156996727,0,0,0
4676,173524.76990691622,2011-01-05 10:50:22,1464.6788602401373,7,18,-1.099929690361023,3.5425589084625244,13.836711855486788,14.26688710432206,55.71658707010252,51.45409029156929,-0.0001618862152099,0.1052602156996727,0,0,0
4677,173554.78504308598,2011-01-05 10:50:52,1494.693996384836,7,18,-1.099568486213684,3.5385117530822754,13.836711855486788,14.276054962045311,55.71658707010252,51.48655025577066,-9.713172767078504e-05,0.1052602156996727,0,0,0
4678,173584.7999122904,2011-01-05 10:51:22,1524.7088655942505,7,18,-1.099568486213684,3.5343027114868164,13.836711855486788,14.285222728570824,55.71658707010252,51.51897086323026,-9.713172767078504e-05,0.1052602156996727,0,0,0
4679,173614.81504391882,2011-01-05 10:51:52,1554.723997247756,7,18,-1.099568486213684,3.5299317836761475,13.836711855486788,14.29439056500638,55.71658707010252,51.55135223769601,-9.713172767078504e-05,0.1052602156996727,0,0,0
4680,173644.83016831923,2011-01-05 10:52:22,1584.7391216181095,7,18,-1.099568486213684,3.5257227420806885,13.836711855486788,14.30355842070596,55.71658707010252,51.583694642595454,-9.713172767078504e-05,0.1052602156996727,0,0,0
4681,173674.8454008241,2011-01-05 10:52:52,1614.7543541680805,7,18,-1.099568486213684,3.5216755867004395,13.836711855486788,14.312726290231852,55.71658707010252,51.615998996062814,-3.237724376958795e-05,0.1052602156996727,0,0,0
4682,173704.86042696965,2011-01-05 10:53:22,1644.7693802985902,7,18,-1.0997490882873535,3.5174665451049805,13.836711855486788,14.32189410945794,55.71658707010252,51.64826531932058,-9.713172767078504e-05,0.1052602156996727,0,0,0
4683,173734.87564989063,2011-01-05 10:53:52,1674.7846032195628,7,18,-1.0993878841400146,3.5134193897247314,13.836711855486788,14.331062029409471,55.71658707010252,51.680493979193415,-9.713172767078504e-05,0.1052602156996727,0,0,0
4684,173764.8927881903,2011-01-05 10:54:22,1704.8017415042104,7,18,-1.0997490882873535,3.5090487003326416,13.836711855486788,14.34023044214866,55.71658707010252,51.71268684655037,-0.0001618862152099,0.1052602156996727,0,0,0
4685,173794.90588295227,2011-01-05 10:54:52,1734.8148362811933,7,18,-1.099568486213684,3.5051634311676025,13.836711855486788,14.349397648975,55.71658707010252,51.74483825186664,-0.0001618862152099,0.1052602156996727,0,0,0
4686,173824.92087965945,2011-01-05 10:55:22,1764.8298329633085,7,18,-1.0997490882873535,3.500954389572144,13.836711855486788,14.358565440725414,55.71658707010252,51.77695370080973,-0.0001618862152099,0.1052602156996727,0,0,0
4687,173854.93613621927,2011-01-05 10:55:52,1794.8450895582066,7,18,-1.0993878841400146,3.4969072341918945,13.836711855486788,14.367733299133455,55.71658707010252,51.80903150884581,-9.713172767078504e-05,0.1052602156996727,0,0,0
4688,173884.95126185275,2011-01-05 10:56:22,1824.8602151716584,7,18,-1.099568486213684,3.4925363063812256,13.836711855486788,14.376901100987284,55.71658707010252,51.84107030880199,-0.0001295089750783,0.1052602156996727,0,0,0
4689,173914.96624820912,2011-01-05 10:56:52,1854.875201507989,7,18,-1.099568486213684,3.4881653785705566,13.836711855486788,14.38606887448978,55.71658707010252,51.87306955500877,-0.0001295089750783,0.1052602156996727,0,0,0
4690,173944.9813971006,2011-01-05 10:57:22,1884.8903503994568,7,18,-1.0993878841400146,3.483794450759888,13.836711855486788,14.395236749331442,55.71658707010252,51.90502848833176,-9.713172767078504e-05,0.1052602156996727,0,0,0
4691,173974.9964902381,2011-01-05 10:57:52,1914.905443562032,7,18,-1.099929690361023,3.478775978088379,13.836711855486788,14.404404539653305,55.71658707010252,51.9369445610364,-0.0001618862152099,0.1052602156996727,0,0,0
4692,174005.0117241515,2011-01-05 10:58:22,1944.9206774703875,7,18,-1.099568486213684,3.4742431640625,13.836711855486788,14.413572349969664,55.71658707010252,51.96881749581564,-0.0001295089750783,0.1052602156996727,0,0,0
4693,174035.02673410164,2011-01-05 10:58:52,1974.935687425584,7,18,-1.099568486213684,3.469386577606201,13.836711855486788,14.422740207610577,55.71658707010252,52.00064647991598,-9.713172767078504e-05,0.1052602156996727,0,0,0
4694,174065.04187016113,2011-01-05 10:59:22,2004.9508234850705,7,18,-1.0993878841400146,3.4642062187194824,13.836711855486788,14.43190804129642,55.71658707010252,52.03242936131668,-0.0001295089750783,0.1052602156996727,0,0,0
4695,174095.05698016568,2011-01-05 10:59:52,2034.965933484608,7,18,-1.099568486213684,3.458702087402344,13.836711855486788,14.441075977700736,55.71658707010252,52.06416353617424,-0.0001618862152099,0.1052602156996727,0,0,0
4696,174125.07218552288,2011-01-05 11:00:22,2064.981138916993,7,18,-1.099568486213684,3.452874183654785,13.836711855486788,14.450243830826178,55.71658707010252,52.09584523961202,-9.713172767078504e-05,0.1052602156996727,0,0,0
4697,174155.0873753564,2011-01-05 11:00:52,2094.996328685339,7,18,-1.099568486213684,3.4465606212615967,13.836711855486788,14.459411656273108,55.71658707010252,52.12747086797851,-0.0001618862152099,0.1052602156996727,0,0,0
4698,174185.1023834219,2011-01-05 11:01:22,2125.0113367458125,7,18,-1.099568486213684,3.4392757415771484,13.836711855486788,14.46857950187438,55.71658707010252,52.15903551738712,-0.0002266406954731,0.1052602156996727,0,0,0
4699,174215.1174712261,2011-01-05 11:01:52,2155.02642452497,7,18,-1.0993878841400146,3.4316670894622803,13.836711855486788,14.477747315609593,55.71658707010252,52.19053245452551,-0.0001942634553415,0.1052602156996727,0,0,0
4700,174245.13260564153,2011-01-05 11:02:22,2185.0415589403588,7,18,-1.0993878841400146,3.422925472259521,13.836711855486788,14.486915193248102,55.71658707010252,52.22195349697951,-0.0002266406954731,0.1052602156996727,0,0,0
4701,174275.14786287298,2011-01-05 11:02:52,2215.0568162019185,7,18,-1.099568486213684,3.412402868270874,13.836711855486788,14.496083042021546,55.71658707010252,52.25328685699221,-0.0002590179501567,0.1052602156996727,0,0,0
4702,174305.16283494377,2011-01-05 11:03:22,2245.07178824262,7,18,-1.0997490882873535,3.400261402130127,13.836711855486788,14.505250835503611,55.71658707010252,52.28451810467769,-0.0003885269106831,0.1052602156996727,0,0,0
4703,174335.17797160978,2011-01-05 11:03:52,2275.0869249086186,7,18,-1.099568486213684,3.3861773014068604,13.836711855486788,14.514418689585934,55.71658707010252,52.31562934951024,-0.0003885269106831,0.1052602156996727,0,0,0
4704,174365.19312420546,2011-01-05 11:04:22,2305.1020775243687,7,18,-1.0997490882873535,3.3688554763793945,13.836711855486788,14.523586589948184,55.71658707010252,52.34659670193701,-0.0005180359003134,0.1052602156996727,0,0,0
4705,174395.2086038262,2011-01-05 11:04:52,2335.117557140103,7,18,-1.0997490882873535,3.347324848175049,13.836711855486788,14.532754599231785,55.71658707010252,52.37738843925352,-0.0006799221155233,0.1052602156996727,0,0,0
4706,174425.22332739763,2011-01-05 11:05:22,2365.1322806965054,7,18,-1.0993878841400146,3.3206136226654053,13.836711855486788,14.541921897671052,55.71658707010252,52.40795819982397,-0.0007770538213662,0.1052602156996727,0,0,0
4707,174455.23857491493,2011-01-05 11:05:52,2395.147528228817,7,18,-1.099568486213684,3.286131858825684,13.836711855486788,14.551089010257288,55.71658707010252,52.4382472157218,-0.0010036944877356,0.1052602156996727,0,0,0
4708,174485.25380223687,2011-01-05 11:06:22,2425.16275553572,7,18,-1.0997490882873535,3.241451501846313,13.836711855486788,14.560256597337588,55.71658707010252,52.46817705443115,-0.0012950897216796,0.1052602156996727,0,0,0
4709,174515.2689609929,2011-01-05 11:06:52,2455.1779143118238,7,18,-1.099568486213684,3.181068181991577,13.836711855486788,14.569424454154952,55.71658707010252,52.49763136053889,-0.0018131255637854,0.1052602156996727,0,0,0
4710,174545.2838475155,2011-01-05 11:07:22,2485.19280081935,7,18,-1.099568486213684,3.0965638160705566,13.836711855486788,14.578592330285458,55.71658707010252,52.52643000334558,-0.0026225566398352,0.1052602156996727,0,0,0
4711,174575.29898059755,2011-01-05 11:07:52,2515.207933896403,7,18,-1.0997490882873535,2.971911668777466,13.836711855486788,14.587760225295682,55.71658707010252,52.5542900836453,-0.0039824009872972,0.1052602156996727,0,0,0
4712,174605.31409591535,2011-01-05 11:08:22,2545.223049209183,7,18,-1.099568486213684,2.77813458442688,13.836711855486788,14.596928087591754,55.71658707010252,52.58070643220604,-0.0059897424653172,0.1052602156996727,0,0,0
4713,174615.26726395762,2011-01-05 11:08:32,2555.1762172815324,7,18,-1.099568486213684,2.699620008468628,13.836711855486788,14.599968197881786,55.71658707010252,52.58903389592322,-0.0064430236816406,0.1052602156996727,0,0,0
4714,174675.2869460471,2011-01-05 11:09:32,60.014619447700426,8,18,0.0,3.5245895385742188,13.836711855486788,14.599968197881786,55.71658707010252,52.58903389592322,0.0013274669181555,0.1052602156996727,0,0,0
4715,174675.48071807413,2011-01-05 11:09:33,0.187482308599895,9,18,-1.9243103452026844e-05,3.5245895385742188,13.836711855486788,14.599968198883936,55.71658707010252,52.58903389945539,0.0,0.1004020571708679,0,0,0
4716,174680.30877913785,2011-01-05 11:09:37,5.01554336230297,9,18,0.0001613661734154,3.532360076904297,13.836712660348653,14.599968198968533,55.71658991071569,52.58903389975356,0.0010684489971026,0.1004020571708679,0,0,0
