Data_Point,Test_Time(s),Date_Time,Step_Time(s),Step_Index,Cycle_Index,Current(A),Voltage(V),Charge_Capacity(Ah),Discharge_Capacity(Ah),Charge_Energy(Wh),Discharge_Energy(Wh),dV/dt(V/s),Internal_Resistance(Ohm),Is_FC_Data,AC_Impedance(Ohm),ACI_Phase_Angle(Deg)
4717,174710.34589025594,2011-01-05 11:10:08,30.01514108200438,1,19,0.0,3.5660324096679688,13.836712660348653,14.599968198968533,55.71658991071569,52.58903389975356,0.0007122993702068,0.1004020571708679,0,0,0
4718,174740.36100550857,2011-01-05 11:10:38,60.03025633463401,1,19,0.0,3.587887048721313,13.836712660348653,14.599968198968533,55.71658991071569,52.58903389975356,0.0004856586456298,0.1004020571708679,0,0,0
4719,174770.37611761835,2011-01-05 11:11:08,90.04536844443074,1,19,0.0,3.603751659393311,13.836712660348653,14.599968198968533,55.71658991071569,52.58903389975356,0.0003885269106831,0.1004020571708679,0,0,0
4720,174800.34437552808,2011-01-05 11:11:38,120.01362635414418,1,19,0.0,3.6162168979644775,13.836712660348653,14.599968198968533,55.71658991071569,52.58903389975356,0.0002913951757363,0.1004020571708679,0,0,0
4721,174830.35220491816,2011-01-05 11:12:08,30.01510464118264,2,19,0.5499359965324402,3.745239973068237,13.84129887161906,14.599968198968533,55.73366503242551,52.58903389975356,0.0008741855854168,0.1004020571708679,0,0,0
4722,174860.36737079197,2011-01-05 11:12:38,60.030270509963295,2,19,0.5499359965324402,3.7725985050201416,13.845885072175427,14.599968198968533,55.75091008547669,52.58903389975356,0.0005504131549969,0.1004020571708679,0,0,0
4723,174890.3824540699,2011-01-05 11:13:08,90.04535378790216,2,19,0.5499359965324402,3.788949012756348,13.850471192364964,14.599968198968533,55.76825243929633,52.58903389975356,0.0003561496851034,0.1004020571708679,0,0,0
4724,174920.39980307475,2011-01-05 11:13:38,120.0627029230544,2,19,0.5501165986061096,3.799633502960205,13.855057679599888,14.599968198968533,55.78565684071626,52.58903389975356,0.0001618862152099,0.1004020571708679,0,0,0
4725,174950.41273418884,2011-01-05 11:14:08,150.07563393688886,2,19,0.5499359965324402,3.807889699935913,13.859643544806024,14.599968198968533,55.80310134273829,52.58903389975356,0.0001942634553415,0.1004020571708679,0,0,0
4726,174980.4278306396,2011-01-05 11:14:38,180.09073036259602,2,19,0.5501165986061096,3.815174579620361,13.864229781745786,14.599968198968533,55.820582215987606,52.58903389975356,0.0001942634553415,0.1004020571708679,0,0,0
4727,175010.44294839847,2011-01-05 11:15:08,210.1058481264845,2,19,0.5499359965324402,3.8218119144439697,13.868815944786768,14.599968198968533,55.83809438822506,52.58903389975356,0.0001942634553415,0.1004020571708679,0,0,0
4728,175040.45808629756,2011-01-05 11:15:38,240.12098602054348,2,19,0.5499359965324402,3.8278017044067374,13.873402050917695,14.599968198968533,55.85563536417341,52.58903389975356,0.0001295089750783,0.1004020571708679,0,0,0
4729,175070.4731947332,2011-01-05 11:16:08,270.13609445618306,2,19,0.5499359965324402,3.8336293697357178,13.877988127757856,14.599968198968533,55.87320353636064,52.58903389975356,0.0001618385285837,0.1004020571708679,0,0,0
4730,175100.48832235663,2011-01-05 11:16:38,300.15122208465715,2,19,0.5499359965324402,3.839133501052856,13.882574242259512,14.599968198968533,55.890797882107066,52.58903389975356,0.0001295089750783,0.1004020571708679,0,0,0
4731,175130.5034426669,2011-01-05 11:17:08,330.1663423898794,2,19,0.5501165986061096,3.844313859939575,13.887160391834454,14.599968198968533,55.90841717815073,52.58903389975356,9.713172767078504e-05,0.1004020571708679,0,0,0
4732,175160.51873458986,2011-01-05 11:17:38,360.18163434791325,2,19,0.5501165986061096,3.849656105041504,13.891746515567876,14.599968198968533,55.92606013706378,52.58903389975356,0.0001295089750783,0.1004020571708679,0,0,0
4733,175190.53368140766,2011-01-05 11:18:08,390.1965811306641,2,19,0.5499359965324402,3.8545126914978023,13.896332578972457,14.599968198968533,55.94372594454929,52.58903389975356,0.0001295089750783,0.1004020571708679,0,0,0
4734,175220.54895094482,2011-01-05 11:18:38,420.21185068786826,2,19,0.5501165986061096,3.8593692779541016,13.900918746520391,14.599968198968533,55.9614146214415,52.58903389975356,0.0001295089750783,0.1004020571708679,0,0,0
4735,175250.56399681955,2011-01-05 11:19:08,450.2268965475493,2,19,0.5501165986061096,3.8640639781951904,13.90550485658979,14.599968198968533,55.97912485543257,52.58903389975356,0.0001295089750783,0.1004020571708679,0,0,0
4736,175280.57922433194,2011-01-05 11:19:38,480.2421240750023,2,19,0.5499359965324402,3.868596792221069,13.91009096534907,14.599968198968533,55.99685635824826,52.58903389975356,9.713172767078504e-05,0.1004020571708679,0,0,0
4737,175310.5941735157,2011-01-05 11:20:08,510.2570732386872,2,19,0.5501165986061096,3.873291492462158,13.914677066687393,14.599968198968533,56.01460876117314,52.58903389975356,0.0001295089750783,0.1004020571708679,0,0,0
4738,175340.6093301966,2011-01-05 11:20:38,540.2722299396187,2,19,0.5499359965324402,3.877500534057617,13.919263171880452,14.599968198968533,56.03238161462592,52.58903389975356,9.713172767078504e-05,0.1004020571708679,0,0,0
4739,175370.6244472487,2011-01-05 11:21:08,570.2873469917333,2,19,0.5499359965324402,3.881871461868286,13.923849272762748,14.599968198968533,56.05017457561008,52.58903389975356,9.713172767078504e-05,0.1004020571708679,0,0,0
4740,175400.63956869175,2011-01-05 11:21:38,600.3024684147414,2,19,0.5499359965324402,3.886080503463745,13.928435397546986,14.599968198968533,56.06798730174739,52.58903389975356,6.47544875391759e-05,0.1004020571708679,0,0,0
4741,175430.6547931315,2011-01-05 11:22:08,630.3176928544989,2,19,0.5501165986061096,3.890289545059204,13.93302155990492,14.599968198968533,56.08581933274176,52.58903389975356,0.0001295089750783,0.1004020571708679,0,0,0
4742,175460.66980297642,2011-01-05 11:22:38,660.33270269942,2,19,0.5501165986061096,3.894336700439453,13.937607756543834,14.599968198968533,56.10367002368277,52.58903389975356,0.0001295089750783,0.1004020571708679,0,0,0
4743,175490.68493589808,2011-01-05 11:23:08,690.3478356260989,2,19,0.5499359965324402,3.8977363109588623,13.942193890758936,14.599968198968533,56.12153788784756,52.58903389975356,6.47544875391759e-05,0.1004020571708679,0,0,0
4744,175520.70008414795,2011-01-05 11:23:38,720.3629839712052,2,19,0.5499359965324402,3.9014596939086914,13.946780040858505,14.599968198968533,56.13942293125331,52.58903389975356,6.47544875391759e-05,0.1004020571708679,0,0,0
4745,175550.7154396243,2011-01-05 11:24:08,750.3783393673463,2,19,0.5501165986061096,3.905021190643311,13.951366180209952,14.599968198968533,56.15732428109912,52.58903389975356,6.47544875391759e-05,0.1004020571708679,0,0,0
4746,175580.73033726958,2011-01-05 11:24:38,780.393236997594,2,19,0.5501165986061096,3.90842080116272,13.95595221147714,14.599968198968533,56.175240663435815,52.58903389975356,0.0001295089750783,0.1004020571708679,0,0,0
4747,175610.74540793613,2011-01-05 11:25:08,810.4083076641012,2,19,0.5499359965324402,3.911334753036499,13.960538310079468,14.599968198968533,56.19317218888088,52.58903389975356,6.47544875391759e-05,0.1004020571708679,0,0,0
4748,175640.7607411269,2011-01-05 11:25:38,840.4236408548999,2,19,0.5499359965324402,3.914572238922119,13.965124409463831,14.599968198968533,56.21111782247996,52.58903389975356,6.47544875391759e-05,0.1004020571708679,0,0,0
4749,175670.77589696567,2011-01-05 11:26:08,870.4387966936828,2,19,0.550297200679779,3.9174861907958975,13.969710546772212,14.599968198968533,56.22907706801124,52.58903389975356,6.47544875391759e-05,0.1004020571708679,0,0,0
4750,175700.79075063136,2011-01-05 11:26:38,900.4536503543446,2,19,0.5501165986061096,3.920076370239258,13.974296611390752,14.599968198968533,56.24704879843834,52.58903389975356,9.713172767078504e-05,0.1004020571708679,0,0,0
4751,175730.80587550293,2011-01-05 11:27:08,930.4687752510102,2,19,0.5499359965324402,3.922666549682617,13.978882666094982,14.599968198968533,56.26503269542607,52.58903389975356,6.47544875391759e-05,0.1004020571708679,0,0,0
4752,175760.82105260974,2011-01-05 11:27:38,960.483952332737,2,19,0.5501165986061096,3.925256729125977,13.983468769821776,14.599968198968533,56.28302862647808,52.58903389975356,6.47544875391759e-05,0.1004020571708679,0,0,0
4753,175790.83617990738,2011-01-05 11:28:08,990.499079655449,2,19,0.5501165986061096,3.927685022354126,13.988054961994791,14.599968198968533,56.30103629538051,52.58903389975356,6.47544875391759e-05,0.1004020571708679,0,0,0
4754,175820.85129103975,2011-01-05 11:28:38,1020.5141907627471,2,19,0.5499359965324402,3.9299514293670654,13.992641089446122,14.599968198968533,56.31905486259842,52.58903389975356,3.237724376958795e-05,0.1004020571708679,0,0,0
4755,175850.86640839765,2011-01-05 11:29:08,1050.5293081256364,2,19,0.5501165986061096,3.932541608810425,13.99722718781025,14.599968198968533,56.3370842483352,52.58903389975356,6.47544875391759e-05,0.1004020571708679,0,0,0
4756,175880.88154511878,2011-01-05 11:29:38,1080.5444448417595,2,19,0.550297200679779,3.934969902038574,14.001813341257009,14.599968198968533,56.355124579066285,52.58903389975356,9.713172767078504e-05,0.1004020571708679,0,0,0
4757,175910.89665603056,2011-01-05 11:30:08,1110.5595557535703,2,19,0.5499359965324402,3.937074422836304,14.006399514753046,14.599968198968533,56.37317551518972,52.58903389975356,9.713172767078504e-05,0.1004020571708679,0,0,0
4758,175940.91177654132,2011-01-05 11:30:38,1140.5746762643048,2,19,0.5501165986061096,3.939502716064453,14.010985672338728,14.599968198968533,56.39123688872036,52.58903389975356,9.713172767078504e-05,0.1004020571708679,0,0,0
4759,175970.92702558238,2011-01-05 11:31:08,1170.589925330439,2,19,0.550297200679779,3.941607236862183,14.01557180588084,14.599968198968533,56.40930848710629,52.58903389975356,6.47544875391759e-05,0.1004020571708679,0,0,0
4760,176000.94423316975,2011-01-05 11:31:38,1200.607132982973,2,19,0.5497553944587708,3.943549871444702,14.020158231853795,14.599968198968533,56.427391426859714,52.58903389975356,-3.237724376958795e-05,0.1004020571708679,0,0,0
4761,176030.95728014762,2011-01-05 11:32:08,1230.620179895663,2,19,0.5501165986061096,3.945978164672852,14.024744063087237,14.599968198968533,56.44548217380962,52.58903389975356,3.237724376958795e-05,0.1004020571708679,0,0,0
4762,176060.97227008792,2011-01-05 11:32:38,1260.6351698309632,2,19,0.5501165986061096,3.948244571685791,14.029330206410409,14.599968198968533,56.46358416846154,52.58903389975356,6.47544875391759e-05,0.1004020571708679,0,0,0
4763,176090.98740160608,2011-01-05 11:33:08,1290.6503013491315,2,19,0.5501165986061096,3.950349092483521,14.03391627577712,14.599968198968533,56.48169594269064,52.58903389975356,6.47544875391759e-05,0.1004020571708679,0,0,0
4764,176121.0047439142,2011-01-05 11:33:38,1320.667643647244,2,19,0.5499359965324402,3.95261549949646,14.038502795822078,14.599968198968533,56.49981957216297,52.58903389975356,9.713172767078504e-05,0.1004020571708679,0,0,0
4765,176151.0176498756,2011-01-05 11:34:08,1350.68054960864,2,19,0.5499359965324402,3.9547200202941895,14.0430885422303,14.599968198968533,56.51795006981176,52.58903389975356,6.47544875391759e-05,0.1004020571708679,0,0,0
4766,176181.03276456683,2011-01-05 11:34:38,1380.6956643098954,2,19,0.5501165986061096,3.956986427307129,14.047674682291175,14.599968198968533,56.53609199911202,52.58903389975356,6.47544875391759e-05,0.1004020571708679,0,0,0
4767,176211.0479115736,2011-01-05 11:35:08,1410.7108113317036,2,19,0.5499359965324402,3.958929061889648,14.052260886245431,14.599968198968533,56.55424389065947,52.58903389975356,3.237724376958795e-05,0.1004020571708679,0,0,0
4768,176241.0630015332,2011-01-05 11:35:38,1440.7259012662328,2,19,0.550297200679779,3.961195468902588,14.056846437324184,14.599968198968533,56.57240284696507,52.58903389975356,6.47544875391759e-05,0.1004020571708679,0,0,0
4769,176271.07811207412,2011-01-05 11:36:08,1470.7410118321818,2,19,0.5499359965324402,3.963299989700317,14.061431728985568,14.599968198968533,56.59057044273671,52.58903389975356,9.713172767078504e-05,0.1004020571708679,0,0,0
4770,176301.09323492565,2011-01-05 11:36:38,1500.7561346637003,2,19,0.5499359965324402,3.965242624282837,14.06601716693634,14.599968198968533,56.60874837978982,52.58903389975356,3.237724376958795e-05,0.1004020571708679,0,0,0
4771,176331.10836901524,2011-01-05 11:37:08,1530.771268748265,2,19,0.5499359965324402,3.9673471450805664,14.070602527731753,14.599968198968533,56.62693570017768,52.58903389975356,3.237724376958795e-05,0.1004020571708679,0,0,0
4772,176361.123493546,2011-01-05 11:37:39,1560.7863932790185,2,19,0.5499359965324402,3.969451665878296,14.075187928593303,14.599968198968533,56.64513275348422,52.58903389975356,3.237724376958795e-05,0.1004020571708679,0,0,0
4773,176391.138604142,2011-01-05 11:38:09,1590.8015039051172,2,19,0.5499359965324402,3.9717180728912354,14.079773260361751,14.599968198968533,56.663339115999655,52.58903389975356,6.47544875391759e-05,0.1004020571708679,0,0,0
4774,176421.15386692734,2011-01-05 11:38:39,1620.8167666754064,2,19,0.5499359965324402,3.973660707473755,14.08435909930486,14.599968198968533,56.68155726209096,52.58903389975356,3.237724376958795e-05,0.1004020571708679,0,0,0
4775,176451.16885614587,2011-01-05 11:39:09,1650.8317559089576,2,19,0.5501165986061096,3.975765228271485,14.088945265426576,14.599968198968533,56.69978630091359,52.58903389975356,6.47544875391759e-05,0.1004020571708679,0,0,0
4776,176481.1839839648,2011-01-05 11:39:39,1680.8468837279063,2,19,0.5499359965324402,3.977707862854004,14.093531500628544,14.599968198968533,56.718025174959344,52.58903389975356,3.237724376958795e-05,0.1004020571708679,0,0,0
4777,176511.19909190922,2011-01-05 11:40:09,1710.8619916422467,2,19,0.5499359965324402,3.979812383651733,14.098117671163132,14.599968198968533,56.73627301763724,52.58903389975356,3.237724376958795e-05,0.1004020571708679,0,0,0
4778,176541.21421960788,2011-01-05 11:40:39,1740.8771193408957,2,19,0.550297200679779,3.982240676879883,14.102703813442773,14.599968198968533,56.754530600294814,52.58903389975356,9.713172767078504e-05,0.1004020571708679,0,0,0
4779,176571.22937446422,2011-01-05 11:41:09,1770.8922741872052,2,19,0.5501165986061096,3.9841833114624015,14.107289978814654,14.599968198968533,56.772797735728304,52.58903389975356,9.713172767078504e-05,0.1004020571708679,0,0,0
4780,176601.24482818542,2011-01-05 11:41:39,1800.9077279485025,2,19,0.5501165986061096,3.986125946044922,14.111876176082747,14.599968198968533,56.79107447348242,52.58903389975356,0.0,0.1004020571708679,0,0,0
4781,176631.2597702915,2011-01-05 11:42:09,1830.9226700295355,2,19,0.550297200679779,3.9882304668426514,14.116462316145268,14.599968198968533,56.80936039581067,52.58903389975356,6.47544875391759e-05,0.1004020571708679,0,0,0
4782,176661.2747103976,2011-01-05 11:42:39,1860.9376101306327,2,19,0.5499359965324402,3.990334987640381,14.121048401204266,14.599968198968533,56.82765543764433,52.58903389975356,6.47544875391759e-05,0.1004020571708679,0,0,0
4783,176691.2898336101,2011-01-05 11:43:09,1890.9527333330764,2,19,0.5501165986061096,3.9924395084381104,14.125634552591332,14.599968198968533,56.84596021520115,52.58903389975356,6.47544875391759e-05,0.1004020571708679,0,0,0
4784,176721.30496729867,2011-01-05 11:43:39,1920.967867021654,2,19,0.5499359965324402,3.994381904602051,14.130220763916505,14.599968198968533,56.8642746669998,52.58903389975356,3.237724376958795e-05,0.1004020571708679,0,0,0
4785,176751.32008726304,2011-01-05 11:44:09,1950.9829869860264,2,19,0.5499359965324402,3.99648642539978,14.134806949930336,14.599968198968533,56.8825985670559,52.58903389975356,3.237724376958795e-05,0.1004020571708679,0,0,0
4786,176781.33520918727,2011-01-05 11:44:39,1980.998108910284,2,19,0.5501165986061096,3.9985909461975098,14.139393148173504,14.599968198968533,56.900932075601865,52.58903389975356,3.237724376958795e-05,0.1004020571708679,0,0,0
4787,176811.35034138217,2011-01-05 11:45:09,2011.0132411101515,2,19,0.5501165986061096,4.000695705413818,14.143979353920011,14.599968198968533,56.91927508084522,52.58903389975356,3.24249267578125e-05,0.1004020571708679,0,0,0
4788,176841.3676495452,2011-01-05 11:45:39,2041.030549358401,2,19,0.5501165986061096,4.002799987792969,14.148565807536416,14.599968198968533,56.937628753064686,52.58903389975356,9.70840483205393e-05,0.1004020571708679,0,0,0
4789,176871.38072432732,2011-01-05 11:46:09,2071.043624065363,2,19,0.5501165986061096,4.004904747009277,14.153151686466511,14.599968198968533,56.95598979999458,52.58903389975356,6.47544875391759e-05,0.1004020571708679,0,0,0
4790,176901.3958262367,2011-01-05 11:46:39,2101.058725974737,2,19,0.5501165986061096,4.007009029388428,14.157737856692265,14.599968198968533,56.97436173286734,52.58903389975356,3.23295607813634e-05,0.1004020571708679,0,0,0
4791,176931.41092677266,2011-01-05 11:47:09,2131.0738265959008,2,19,0.5499359965324402,4.008951663970947,14.16232402478971,14.599968198968533,56.99274352132775,52.58903389975356,3.23295607813634e-05,0.1004020571708679,0,0,0
4792,176961.42601783498,2011-01-05 11:47:39,2161.088917653228,2,19,0.5501165986061096,4.011380195617676,14.166910191002549,14.599968198968533,57.01113517627199,52.58903389975356,0.0,0.1004020571708679,0,0,0
4793,176991.44113135332,2011-01-05 11:48:09,2191.104031106373,2,19,0.5501165986061096,4.013484477996826,14.171496453950008,14.599968198968533,57.02953722210654,52.58903389975356,0.0,0.1004020571708679,0,0,0
4794,177021.4562508916,2011-01-05 11:48:39,2221.1191507148583,2,19,0.5499359965324402,4.015750885009766,14.17608271927554,14.599968198968533,57.04794937679886,52.58903389975356,3.23295607813634e-05,0.1004020571708679,0,0,0
4795,177051.47139848486,2011-01-05 11:49:09,2251.134298232904,2,19,0.5501165986061096,4.018017292022705,14.180668913128734,14.599968198968533,57.06637152635568,52.58903389975356,6.47544875391759e-05,0.1004020571708679,0,0,0
4796,177081.48651549686,2011-01-05 11:49:39,2281.149415315093,2,19,0.5501165986061096,4.0202836990356445,14.185255097701512,14.599968198968533,57.0848038975223,52.58903389975356,6.47544875391759e-05,0.1004020571708679,0,0,0
4797,177111.50161236367,2011-01-05 11:50:09,2311.1645120916746,2,19,0.5501165986061096,4.022550106048584,14.189841204195051,14.599968198968533,57.10324636387911,52.58903389975356,3.23295607813634e-05,0.1004020571708679,0,0,0
4798,177141.51672729047,2011-01-05 11:50:39,2341.1796270184923,2,19,0.5499359965324402,4.024654865264893,14.194427332720492,14.599968198968533,57.12169932342378,52.58903389975356,6.47544875391759e-05,0.1004020571708679,0,0,0
4799,177171.53202190012,2011-01-05 11:51:09,2371.194921643172,2,19,0.5499359965324402,4.027082920074463,14.199013509304097,14.599968198968533,57.14016306802546,52.58903389975356,6.47544875391759e-05,0.1004020571708679,0,0,0
4800,177201.54701516873,2011-01-05 11:51:39,2401.209914981955,2,19,0.5499359965324402,4.029511451721191,14.203599628479616,14.599968198968533,57.15863728157717,52.58903389975356,3.24249267578125e-05,0.1004020571708679,0,0,0
4801,177231.56212504298,2011-01-05 11:52:09,2431.225024891268,2,19,0.5499359965324402,4.031615734100342,14.208185805822191,14.599968198968533,57.17712244466665,52.58903389975356,3.23295607813634e-05,0.1004020571708679,0,0,0
4802,177261.57724845593,2011-01-05 11:52:39,2461.2401482039854,2,19,0.5499359965324402,4.03404426574707,14.212771957183966,14.599968198968533,57.19561842629015,52.58903389975356,0.0,0.1004020571708679,0,0,0
4803,177291.59235971363,2011-01-05 11:53:09,2491.2552594616586,2,19,0.5497553944587708,4.036472320556641,14.217358121384754,14.599968198968533,57.2141255163857,52.58903389975356,3.24249267578125e-05,0.1004020571708679,0,0,0
4804,177321.60751116145,2011-01-05 11:53:39,2521.27041091451,2,19,0.550297200679779,4.0390625,14.221944201336068,14.599968198968533,57.23264346905937,52.58903389975356,3.24249267578125e-05,0.1004020571708679,0,0,0
4805,177351.6227470347,2011-01-05 11:54:09,2551.2856468579384,2,19,0.5499359965324402,4.04149055480957,14.22653039570172,14.599968198968533,57.25117310104602,52.58903389975356,6.47544875391759e-05,0.1004020571708679,0,0,0
4806,177381.63778228796,2011-01-05 11:54:39,2581.3006821111844,2,19,0.5501165986061096,4.04408073425293,14.231116580747337,14.599968198968533,57.269714188807015,52.58903389975356,9.70840483205393e-05,0.1004020571708679,0,0,0
4807,177411.65302449197,2011-01-05 11:55:09,2611.315924240029,2,19,0.550297200679779,4.046347141265869,14.235702729910727,14.599968198968533,57.28826647565256,52.58903389975356,6.47544875391759e-05,0.1004020571708679,0,0,0
4808,177441.6679726782,2011-01-05 11:55:39,2641.3308723962027,2,19,0.5501165986061096,4.049099445343018,14.240288812266254,14.599968198968533,57.30682988052919,52.58903389975356,9.71794142969884e-05,0.1004020571708679,0,0,0
4809,177471.683383307,2011-01-05 11:56:09,2671.3462830701133,2,19,0.5501165986061096,4.051527500152588,14.244875047616866,14.599968198968533,57.32540548491127,52.58903389975356,6.47544875391759e-05,0.1004020571708679,0,0,0
4810,177501.698164071,2011-01-05 11:56:39,2701.3610638190567,2,19,0.5501165986061096,4.054117679595947,14.24946121016224,14.599968198968533,57.34399259899736,52.58903389975356,6.47544875391759e-05,0.1004020571708679,0,0,0
4811,177531.71333734825,2011-01-05 11:57:09,2731.3762371063267,2,19,0.5501165986061096,4.056707859039307,14.254047517473936,14.599968198968533,57.36259233105165,52.58903389975356,6.47544875391759e-05,0.1004020571708679,0,0,0
4812,177561.72845961334,2011-01-05 11:57:39,2761.391359436596,2,19,0.5499359965324402,4.059621810913086,14.258633809020711,14.599968198968533,57.38120413218731,52.58903389975356,9.70840483205393e-05,0.1004020571708679,0,0,0
4813,177591.74368700545,2011-01-05 11:58:09,2791.406586848761,2,19,0.5499359965324402,4.062050342559815,14.263220163965387,14.599968198968533,57.39982826336028,52.58903389975356,6.47544875391759e-05,0.1004020571708679,0,0,0
4814,177621.7587012313,2011-01-05 11:58:39,2821.4216009693387,2,19,0.5501165986061096,4.064964294433594,14.267806386063498,14.599968198968533,57.418464281043626,52.58903389975356,6.47544875391759e-05,0.1004020571708679,0,0,0
4815,177651.7739588538,2011-01-05 11:59:09,2851.436858682023,2,19,0.5501165986061096,4.067554473876953,14.272392607328356,14.599968198968533,57.43711294338697,52.58903389975356,0.0,0.1004020571708679,0,0,0
4816,177681.78892528548,2011-01-05 11:59:39,2881.45182512377,2,19,0.5499359965324402,4.070306301116943,14.276978858782307,14.599968198968533,57.45577451752926,52.58903389975356,3.23295607813634e-05,0.1004020571708679,0,0,0
4817,177711.8042442358,2011-01-05 12:00:09,2911.4671440790894,2,19,0.5499359965324402,4.073220252990723,14.281565099051114,14.599968198968533,57.474448769355256,52.58903389975356,6.47544875391759e-05,0.1004020571708679,0,0,0
4818,177741.81933238587,2011-01-05 12:00:39,2941.482232214133,2,19,0.5499359965324402,4.075972557067871,14.286151290635209,14.599968198968533,57.49313580277427,52.58903389975356,6.47544875391759e-05,0.1004020571708679,0,0,0
4819,177771.83432076732,2011-01-05 12:01:09,2971.497220490299,2,19,0.5501165986061096,4.07888650894165,14.290737517802873,14.599968198968533,57.5118360091641,52.58903389975356,9.71794142969884e-05,0.1004020571708679,0,0,0
4820,177801.8495851416,2011-01-05 12:01:39,3001.5124849748604,2,19,0.5501165986061096,4.08180046081543,14.295323833104884,14.599968198968533,57.53054971243066,52.58903389975356,6.47544875391759e-05,0.1004020571708679,0,0,0
4821,177831.86452425522,2011-01-05 12:02:09,3031.527424103535,2,19,0.5499359965324402,4.084714412689209,14.299909985079427,14.599968198968533,57.549276015187374,52.58903389975356,9.71794142969884e-05,0.1004020571708679,0,0,0
4822,177861.87966113174,2011-01-05 12:02:39,3061.542560944971,2,19,0.5499359965324402,4.087628364562988,14.304496220871028,14.599968198968533,57.568016205413805,52.58903389975356,6.47544875391759e-05,0.1004020571708679,0,0,0
4823,177891.89516597037,2011-01-05 12:03:09,3091.558065818656,2,19,0.5501165986061096,4.090703964233398,14.309082507416727,14.599968198968533,57.586770272921456,52.58903389975356,0.0001295089750783,0.1004020571708679,0,0,0
4824,177921.90992374203,2011-01-05 12:03:39,3121.5728235652705,2,19,0.5501165986061096,4.093780040740967,14.313668681741362,14.599968198968533,57.60553759146343,52.58903389975356,6.47544875391759e-05,0.1004020571708679,0,0,0
4825,177951.9249663887,2011-01-05 12:04:09,3151.5878661367565,2,19,0.5501165986061096,4.096693992614746,14.318254868543612,14.599968198968533,57.624318849257286,52.58903389975356,6.47544875391759e-05,0.1004020571708679,0,0,0
4826,177981.94022454246,2011-01-05 12:04:39,3181.6031242805147,2,19,0.5501165986061096,4.099607944488525,14.322841204951414,14.599968198968533,57.64311466831145,52.58903389975356,3.24249267578125e-05,0.1004020571708679,0,0,0
4827,178011.95756924158,2011-01-05 12:05:09,3211.6204690598106,2,19,0.5499359965324402,4.102845668792725,14.327427869887288,14.599968198968533,57.66192594967783,52.58903389975356,9.71794142969884e-05,0.1004020571708679,0,0,0
4828,178041.97225419676,2011-01-05 12:05:39,3241.635153919769,2,19,0.5501165986061096,4.105921268463135,14.332014019996542,14.599968198968533,57.6807494476447,52.58903389975356,6.47544875391759e-05,0.1004020571708679,0,0,0
4829,178071.98547612567,2011-01-05 12:06:09,3271.648375853666,2,19,0.550297200679779,4.109321117401123,14.336600019426724,14.599968198968533,57.69958667936378,52.58903389975356,0.0001295089750783,0.1004020571708679,0,0,0
4830,178102.00058521793,2011-01-05 12:06:39,3301.6634849459424,2,19,0.5501165986061096,4.112235069274902,14.341186362939537,14.599968198968533,57.71843983363136,52.58903389975356,6.47544875391759e-05,0.1004020571708679,0,0,0
4831,178132.01575288622,2011-01-05 12:07:09,3331.678652634258,2,19,0.550297200679779,4.115634441375732,14.345772646845646,14.599968198968533,57.73730724116688,52.58903389975356,9.71794142969884e-05,0.1004020571708679,0,0,0
4832,178162.0308330263,2011-01-05 12:07:39,3361.6937327493138,2,19,0.5499359965324402,4.118548393249512,14.350358892196423,14.599968198968533,57.75618925860498,52.58903389975356,3.24249267578125e-05,0.1004020571708679,0,0,0
4833,178192.04595442928,2011-01-05 12:08:09,3391.708854152272,2,19,0.5501165986061096,4.121947765350342,14.354945144757988,14.599968198968533,57.77508621099666,52.58903389975356,9.70840483205393e-05,0.1004020571708679,0,0,0
4834,178222.06120006187,2011-01-05 12:08:39,3421.7240997848485,2,19,0.5499359965324402,4.125185489654541,14.359531458519069,14.599968198968533,57.79399843725336,52.58903389975356,6.47544875391759e-05,0.1004020571708679,0,0,0
4835,178252.0762274054,2011-01-05 12:09:09,3451.739127128382,2,19,0.5501165986061096,4.128585338592529,14.364117721850675,14.599968198968533,57.81292566300064,52.58903389975356,9.71794142969884e-05,0.1004020571708679,0,0,0
4836,178282.0913278912,2011-01-05 12:09:40,3481.75422761922,2,19,0.5501165986061096,4.131984710693359,14.368704020000688,14.599968198968533,57.831868376545565,52.58903389975356,9.70840483205393e-05,0.1004020571708679,0,0,0
4837,178312.10645031673,2011-01-05 12:10:10,3511.7693500397145,2,19,0.5497553944587708,4.135060787200928,14.373290365033649,14.599968198968533,57.85082663992014,52.58903389975356,6.47544875391759e-05,0.1004020571708679,0,0,0
4838,178342.1216026618,2011-01-05 12:10:40,3541.784502409852,2,19,0.5499359965324402,4.138622283935547,14.377876667310646,14.599968198968533,57.86980026515752,52.58903389975356,9.71794142969884e-05,0.1004020571708679,0,0,0
4839,178372.13672810484,2011-01-05 12:11:10,3571.799627827817,2,19,0.5499359965324402,4.142021656036377,14.382463009797586,14.599968198968533,57.888789741376016,52.58903389975356,6.47544875391759e-05,0.1004020571708679,0,0,0
4840,178402.1518210268,2011-01-05 12:11:40,3601.814720749792,2,19,0.5501165986061096,4.145906925201416,14.38704936097802,14.599968198968533,57.90779521001374,52.58903389975356,0.0001295089750783,0.1004020571708679,0,0,0
4841,178432.16694953246,2011-01-05 12:12:10,3631.829849260465,2,19,0.5499359965324402,4.149144649505615,14.39163562541729,14.599968198968533,57.92681649878951,52.58903389975356,9.70840483205393e-05,0.1004020571708679,0,0,0
4842,178462.18207066474,2011-01-05 12:12:40,3661.844970382723,2,19,0.5499359965324402,4.152706146240234,14.396221854937512,14.599968198968533,57.94585379514868,52.58903389975356,6.47544875391759e-05,0.1004020571708679,0,0,0
4843,178492.19669836725,2011-01-05 12:13:10,3691.85959778949,2,19,0.5501165986061096,4.1562676429748535,14.400808078801216,14.599968198968533,57.96490736323397,52.58903389975356,6.47544875391759e-05,0.1004020571708679,0,0,0
4844,178522.21229012246,2011-01-05 12:13:40,3721.875189870523,2,19,0.550297200679779,4.159991264343262,14.405394391762137,14.599968198968533,57.98397764331635,52.58903389975356,0.0001295089750783,0.1004020571708679,0,0,0
4845,178552.2275916293,2011-01-05 12:14:10,3751.890491372343,2,19,0.5501165986061096,4.163552761077881,14.409980666796184,14.599968198968533,58.00306425376678,52.58903389975356,9.71794142969884e-05,0.1004020571708679,0,0,0
4846,178582.2425942011,2011-01-05 12:14:40,3781.905494019325,2,19,0.5501165986061096,4.1671142578125,14.414566883509506,14.599968198968533,58.02216709320573,52.58903389975356,9.71794142969884e-05,0.1004020571708679,0,0,0
4847,178612.25767588004,2011-01-05 12:15:10,3811.920575628103,2,19,0.5501165986061096,4.17083740234375,14.419153117885166,14.599968198968533,58.04128674963358,52.58903389975356,6.47544875391759e-05,0.1004020571708679,0,0,0
4848,178642.27277601502,2011-01-05 12:15:40,3841.9356757379937,2,19,0.550297200679779,4.174398899078369,14.42373936997912,14.599968198968533,58.0604233732798,52.58903389975356,3.23295607813634e-05,0.1004020571708679,0,0,0
4849,178672.28789837533,2011-01-05 12:16:10,3871.95079810335,2,19,0.550297200679779,4.178284168243408,14.428325668522533,14.599968198968533,58.079577233466416,52.58903389975356,9.70840483205393e-05,0.1004020571708679,0,0,0
4850,178702.3030293321,2011-01-05 12:16:40,3901.965929065131,2,19,0.5499359965324402,4.181845664978027,14.432911964178272,14.599968198968533,58.098748186077245,52.58903389975356,0.0001295089750783,0.1004020571708679,0,0,0
4851,178732.31820140636,2011-01-05 12:17:10,3931.9811011393786,2,19,0.5499359965324402,4.185893058776856,14.437498237917508,14.599968198968533,58.11793626950645,52.58903389975356,0.0001619339018361,0.1004020571708679,0,0,0
4852,178762.33547845687,2011-01-05 12:17:40,3961.998378280098,2,19,0.550297200679779,4.1896162033081055,14.442084769006655,14.599968198968533,58.13714285910868,52.58903389975356,9.70840483205393e-05,0.1004020571708679,0,0,0
4853,178792.34839323524,2011-01-05 12:18:10,3992.011292968244,2,19,0.5501165986061096,4.193339824676514,14.446670693620051,14.599968198968533,58.15636444524267,52.58903389975356,0.0001295089750783,0.1004020571708679,0,0,0
4854,178822.3635062523,2011-01-05 12:18:40,4022.026406005352,2,19,0.5501165986061096,4.1972246170043945,14.451256964054089,14.599968198968533,58.17560520932581,52.58903389975356,9.70840483205393e-05,0.1004020571708679,0,0,0
4855,178843.5976622476,2011-01-05 12:19:01,4043.260561995666,2,19,0.550297200679779,4.200138568878174,14.454501523434022,14.599968198968533,58.1892278153623,52.58903389975356,0.0001295089750783,0.1004020571708679,0,0,0
4856,178873.6106864326,2011-01-05 12:19:31,30.015237798050528,3,19,0.0,4.100255489349365,14.454501523434022,14.599968198968533,58.1892278153623,52.58903389975356,-0.0003885269106831,0.1004020571708679,0,0,0
4857,178903.6256654407,2011-01-05 12:20:01,60.03021680611678,3,19,0.0,4.087466239929199,14.454501523434022,14.599968198968533,58.1892278153623,52.58903389975356,-0.0002266883820993,0.1004020571708679,0,0,0
4858,178933.64094666194,2011-01-05 12:20:31,90.04549801736637,3,19,0.0,4.079371929168701,14.454501523434022,14.599968198968533,58.1892278153623,52.58903389975356,-0.0001619339018361,0.1004020571708679,0,0,0
4859,178963.60928753344,2011-01-05 12:21:01,120.01383887882106,3,19,0.0,4.074191570281982,14.454501523434022,14.599968198968533,58.1892278153623,52.58903389975356,-0.0001295089750783,0.1004020571708679,0,0,0
4860,178963.6247341908,2011-01-05 12:21:01,0.015764840834079,4,19,1.0229517221450806,4.199814796447754,14.454506003064957,14.599968198968533,58.1892466289826,52.58903389975356,0.0,0.1004020571708679,0,0,0
4861,178964.28098255867,2011-01-05 12:21:02,0.672013208689349,4,19,0.972019910812378,4.199814796447754,14.45468625742818,14.599968198968533,58.19000366534373,52.58903389975356,0.0,0.1004020571708679,0,0,0
4862,178966.14019212598,2011-01-05 12:21:04,2.53122276095808,4,19,0.9216299057006836,4.199814796447754,14.455174118507196,14.599968198968533,58.192052604954334,52.58903389975356,0.0,0.1004020571708679,0,0,0
4863,178968.98389672278,2011-01-05 12:21:07,5.374927377849409,4,19,0.8712399005889893,4.199814796447754,14.455881189500516,14.599968198968533,58.19502218169004,52.58903389975356,0.0,0.1004020571708679,0,0,0
4864,178972.89005973795,2011-01-05 12:21:11,9.28109038295444,4,19,0.8212111592292786,4.199814796447754,14.456798201207157,14.599968198968533,58.19887349535091,52.58903389975356,0.0,0.1004020571708679,0,0,0
4865,178977.99947353426,2011-01-05 12:21:16,14.390504204324625,4,19,0.7711823582649231,4.199814796447754,14.457926902479736,14.599968198968533,58.20361388255496,52.58903389975356,0.0,0.1004020571708679,0,0,0
4866,178984.6868725653,2011-01-05 12:21:22,21.07790321532126,4,19,0.7211536169052124,4.199814796447754,14.459311152415204,14.599968198968533,58.209427539092346,52.58903389975356,-3.24249267578125e-05,0.1004020571708679,0,0,0
4867,178993.37453409092,2011-01-05 12:21:31,29.765564766032263,4,19,0.6709442138671875,4.199814796447754,14.4609887506878,14.599968198968533,58.216473240378754,52.58903389975356,3.23295607813634e-05,0.1004020571708679,0,0,0
4868,179005.4990117599,2011-01-05 12:21:43,41.89004240491687,4,19,0.6209154725074768,4.199814796447754,14.463160385595604,14.599968198968533,58.22559384953338,52.58903389975356,0.0,0.1004020571708679,0,0,0
4869,179023.2485961957,2011-01-05 12:22:01,59.63962685577901,4,19,0.5708866715431213,4.199814796447754,14.466090055033296,14.599968198968533,58.237898102367126,52.58903389975356,-3.24249267578125e-05,0.1004020571708679,0,0,0
4870,179053.31088520488,2011-01-05 12:22:31,89.70191585991239,4,19,0.5208579301834106,4.199814796447754,14.470629176631808,14.599968198968533,58.25696184471474,52.58903389975356,-3.24249267578125e-05,0.1004020571708679,0,0,0
4871,179112.09111099376,2011-01-05 12:23:30,148.48214163877662,4,19,0.4708291292190552,4.199653148651123,14.47868190647843,14.599968198968533,58.2907823041408,52.58903389975356,-6.47544875391759e-05,0.1004020571708679,0,0,0
4872,179211.4173411312,2011-01-05 12:25:09,247.80837176115853,4,19,0.4208003580570221,4.199814796447754,14.490946493857791,14.599968198968533,58.34229210177292,52.58903389975356,0.0,0.1004020571708679,0,0,0
4873,179344.88395331035,2011-01-05 12:27:23,381.274983950384,4,19,0.3707716166973114,4.199814796447754,14.505603181384842,14.599968198968533,58.40384842529359,52.58903389975356,-3.24249267578125e-05,0.1004020571708679,0,0,0
4874,179503.75619182753,2011-01-05 12:30:01,540.1472224575095,4,19,0.3207428455352783,4.199814796447754,14.520843961054172,14.599968198968533,58.46785793861926,52.58903389975356,0.0,0.1004020571708679,0,0,0
4875,179696.37806440226,2011-01-05 12:33:14,732.769095072334,4,19,0.2707140743732452,4.199976921081543,14.53664369496662,14.599968198968533,58.534214903637135,52.58903389975356,3.24249267578125e-05,0.1004020571708679,0,0,0
4876,179934.73331223996,2011-01-05 12:37:12,971.1243428999968,4,19,0.2206852883100509,4.199814796447754,14.55287890870942,14.599968198968533,58.60240072406365,52.58903389975356,0.0,0.1004020571708679,0,0,0
4877,180246.8999985084,2011-01-05 12:42:25,1283.2910291634537,4,19,0.1706565171480178,4.199653148651123,14.569774025085684,14.599968198968533,58.6733578885367,52.58903389975356,-6.47544875391759e-05,0.1004020571708679,0,0,0
4878,180692.7831070397,2011-01-05 12:49:51,1729.174137784941,4,19,0.1206277534365654,4.199653148651123,14.587629996152437,14.599968198968533,58.748350842964456,52.58903389975356,0.0,0.1004020571708679,0,0,0
4879,181451.864144734,2011-01-05 13:02:30,2488.255175384034,4,19,0.0705989822745323,4.199814796447754,14.607282049631367,14.599968198968533,58.83088725964941,52.58903389975356,0.0,0.1004020571708679,0,0,0
4880,182012.5891062839,2011-01-05 13:11:50,3048.980137009162,4,19,0.0498289167881011,4.199814796447754,14.616616779480513,14.599968198968533,58.8700920197492,52.58903389975356,3.23295607813634e-05,0.1004020571708679,0,0,0
4881,182042.60842009983,2011-01-05 13:12:20,30.01514125242913,5,19,0.0,4.190425872802734,14.616616779480513,14.599968198968533,58.8700920197492,52.58903389975356,-6.47544875391759e-05,0.1004020571708679,0,0,0
4882,182072.60789393925,2011-01-05 13:12:50,60.01461507179432,5,19,0.0,4.188807010650635,14.616616779480513,14.599968198968533,58.8700920197492,52.58903389975356,-9.70840483205393e-05,0.1004020571708679,0,0,0
4883,182072.8007275389,2011-01-05 13:12:51,0.187649580492921,6,19,-1.9243103452026844e-05,4.188968658447266,14.616616779480513,14.599968199971578,58.8700920197492,52.589033903955446,-6.47544875391759e-05,0.1053553819656372,0,0,0
4884,182077.62864255364,2011-01-05 13:12:56,5.015564479934606,6,19,0.0007031940040178,4.188968658447266,14.61661771521456,14.599968200137903,58.870095939588296,52.58903390465218,-6.47544875391759e-05,0.1053553819656372,0,0,0
4885,182101.07098876216,2011-01-05 13:13:19,23.43709756855548,7,19,-1.099568486213684,3.988878011703491,14.61661771521456,14.607126750550607,58.870095939588296,52.617755340445136,-0.0013921738136559,0.1053553819656372,0,0,0
4886,182131.08624983323,2011-01-05 13:13:49,53.45235865464696,7,19,-1.099568486213684,3.948244571685791,14.61661771521456,14.616294469804108,58.870095939588296,52.65412855580057,-0.0009389400365762,0.1053553819656372,0,0,0
4887,182161.10122855555,2011-01-05 13:14:19,83.46733737198863,7,19,-1.099568486213684,3.918781280517578,14.61661771521456,14.625462097088564,58.870095939588296,52.69018211733622,-0.0006799221155233,0.1053553819656372,0,0,0
4888,182191.1163781688,2011-01-05 13:14:49,113.48248699026806,7,19,-1.0997490882873535,3.8967649936676025,14.61661771521456,14.63462972636544,58.870095939588296,52.72600361959944,-0.0005180359003134,0.1053553819656372,0,0,0
4889,182221.13147547172,2011-01-05 13:15:19,143.49758427311144,7,19,-1.0997490882873535,3.878633737564087,14.61661771521456,14.643797297038947,58.870095939588296,52.761642951881626,-0.0005180359003134,0.1053553819656372,0,0,0
4890,182251.1468352388,2011-01-05 13:15:49,173.51294414540854,7,19,-1.099568486213684,3.8632545471191406,14.61661771521456,14.652964985200803,58.870095939588296,52.797128955501336,-0.0003237724304199,0.1053553819656372,0,0,0
4891,182281.16174797167,2011-01-05 13:16:19,203.5278567930843,7,19,-1.0997490882873535,3.848846673965454,14.61661771521456,14.662132463014,58.870095939588296,52.832478033396,-0.0003885269106831,0.1053553819656372,0,0,0
4892,182311.176848267,2011-01-05 13:16:49,233.54295706337336,7,19,-1.099568486213684,3.835895776748657,14.61661771521456,14.67130007386498,58.870095939588296,52.86770337225594,-0.0003885269106831,0.1053553819656372,0,0,0
4893,182341.19193762512,2011-01-05 13:17:19,263.5580464214658,7,19,-1.0997490882873535,3.823430776596069,14.61661771521456,14.68046773257528,58.870095939588296,52.902813105639616,-0.0003885269106831,0.1053553819656372,0,0,0
4894,182371.2070628275,2011-01-05 13:17:49,293.57317162389336,7,19,-1.0993878841400146,3.811936855316162,14.61661771521456,14.689635453328268,58.870095939588296,52.93781425445503,-0.0003237724304199,0.1053553819656372,0,0,0
4895,182401.22215909284,2011-01-05 13:18:19,323.58826789922574,7,19,-1.099568486213684,3.8009285926818848,14.61661771521456,14.698803005039217,58.870095939588296,52.97270990638566,-0.0002913951757363,0.1053553819656372,0,0,0
4896,182431.23756050365,2011-01-05 13:18:49,353.60366933009965,7,19,-1.0993878841400146,3.790405988693237,14.61661771521456,14.707970686370302,58.870095939588296,53.00750606607016,-0.0002266406954731,0.1053553819656372,0,0,0
4897,182461.25246945716,2011-01-05 13:19:19,383.6185782534933,7,19,-1.099568486213684,3.77988338470459,14.61661771521456,14.717138247341174,58.870095939588296,53.04220595924991,-0.0002913951757363,0.1053553819656372,0,0,0
4898,182491.26761247896,2011-01-05 13:19:49,413.63372128535735,7,19,-1.099568486213684,3.7700083255767822,14.61661771521456,14.726305881482888,58.870095939588296,53.076813249636594,-0.0002590179501567,0.1053553819656372,0,0,0
4899,182521.28277802697,2011-01-05 13:20:19,443.6488869135383,7,19,-1.099568486213684,3.7604570388793945,14.61661771521456,14.735473508485708,58.870095939588296,53.11133134151878,-0.0002590179501567,0.1053553819656372,0,0,0
4900,182551.29999028097,2011-01-05 13:20:49,473.6660990923533,7,19,-1.099568486213684,3.751229763031006,14.61661771521456,14.74464184032024,58.870095939588296,53.14576564481469,-0.0002590179501567,0.1053553819656372,0,0,0
4901,182581.31464979777,2011-01-05 13:21:19,503.680758599124,7,19,-1.0993878841400146,3.742002248764038,14.61661771521456,14.753809340642212,58.870095939588296,53.18011303844997,-0.0002590179501567,0.1053553819656372,0,0,0
4902,182611.32810132383,2011-01-05 13:21:49,533.6942101302476,7,19,-1.0993878841400146,3.73342227935791,14.61661771521456,14.762976490977795,58.870095939588296,53.21437791175752,-0.0002266406954731,0.1053553819656372,0,0,0
4903,182641.34321020052,2011-01-05 13:22:19,563.7093190972115,7,19,-1.0993878841400146,3.725004196166992,14.61661771521456,14.7721441722734,58.870095939588296,53.24856598994863,-0.0001942634553415,0.1053553819656372,0,0,0
4904,182671.3583540044,2011-01-05 13:22:49,593.7244628007496,7,19,-1.0993878841400146,3.716909885406494,14.61661771521456,14.781311865780957,58.870095939588296,53.282677866062265,-0.0002266406954731,0.1053553819656372,0,0,0
4905,182701.37347236977,2011-01-05 13:23:19,623.7395811761621,7,19,-1.099568486213684,3.708815574645996,14.61661771521456,14.790479534204865,58.870095939588296,53.316715334795305,-0.0002266406954731,0.1053553819656372,0,0,0
4906,182731.38855998853,2011-01-05 13:23:49,653.7546687899071,7,19,-1.099568486213684,3.700883150100708,14.61661771521456,14.799647242052073,58.870095939588296,53.350679264342816,-0.0001618862152099,0.1053553819656372,0,0,0
4907,182761.4038365582,2011-01-05 13:24:19,683.769945384651,7,19,-1.099568486213684,3.69327449798584,14.61661771521456,14.808814998783443,58.870095939588296,53.3845715543089,-0.0001618862152099,0.1053553819656372,0,0,0
4908,182791.4189413949,2011-01-05 13:24:49,713.7850502163084,7,19,-1.099568486213684,3.6855039596557617,14.61661771521456,14.817982698358175,58.870095939588296,53.41839336930931,-0.0001942634553415,0.1053553819656372,0,0,0
4909,182821.43392224752,2011-01-05 13:25:20,743.8000310439095,7,19,-1.099568486213684,3.678057193756104,14.61661771521456,14.827150333208047,58.870095939588296,53.45214632817395,-0.0001942634553415,0.1053553819656372,0,0,0
4910,182851.44905357025,2011-01-05 13:25:50,773.8151623665906,7,19,-1.099568486213684,3.670610666275024,14.61661771521456,14.836318045214592,58.870095939588296,53.48583213264581,-0.0002590179501567,0.1053553819656372,0,0,0
4911,182881.46417399577,2011-01-05 13:26:20,803.8302827971252,7,19,-1.099568486213684,3.663649559020996,14.61661771521456,14.84548579459194,58.870095939588296,53.51945202137266,-0.0001618862152099,0.1053553819656372,0,0,0
4912,182911.479220878,2011-01-05 13:26:50,833.8453297044172,7,19,-1.0997490882873535,3.656526565551758,14.61661771521456,14.85465347298078,58.870095939588296,53.55300695397568,-0.0002266406954731,0.1053553819656372,0,0,0
4913,182941.49437652627,2011-01-05 13:27:20,863.8604853627503,7,19,-1.099568486213684,3.64972734451294,14.61661771521456,14.863821155506187,58.870095939588296,53.58649838808481,-0.0001618862152099,0.1053553819656372,0,0,0
4914,182971.5095221897,2011-01-05 13:27:50,893.8756310161478,7,19,-1.0997490882873535,3.642928123474121,14.61661771521456,14.872988774729388,58.870095939588296,53.61992662331367,-0.0001942634553415,0.1053553819656372,0,0,0
4915,183001.5245892071,2011-01-05 13:28:20,923.8906980135106,7,19,-1.099568486213684,3.636452674865722,14.61661771521456,14.882156334122763,58.870095939588296,53.65329371665009,-0.0001618862152099,0.1053553819656372,0,0,0
4916,183031.5398134163,2011-01-05 13:28:50,953.9059222226934,7,19,-1.099568486213684,3.629977226257324,14.61661771521456,14.891323957195471,58.870095939588296,53.68660108185326,-0.0001295089750783,0.1053553819656372,0,0,0
4917,183061.5548714012,2011-01-05 13:29:20,983.9209802126068,7,19,-1.0993878841400146,3.623663663864136,14.61661771521456,14.900491271115252,58.870095939588296,53.7198484685106,-0.0001618862152099,0.1053553819656372,0,0,0
4918,183091.5701129636,2011-01-05 13:29:50,1013.9362217800518,7,19,-1.0997490882873535,3.617188215255737,14.61661771521456,14.909658665671364,58.870095939588296,53.75303854702846,-0.0002266406954731,0.1053553819656372,0,0,0
4919,183121.58508830256,2011-01-05 13:30:20,1043.951197134011,7,19,-1.0997490882873535,3.6111984252929688,14.61661771521456,14.918825977158848,58.870095939588296,53.78617146594823,-0.0001942634553415,0.1053553819656372,0,0,0
4920,183151.6002404221,2011-01-05 13:30:50,1073.9663492485115,7,19,-1.099568486213684,3.60488486289978,14.61661771521456,14.92799365311757,58.870095939588296,53.81924965551247,-0.0001942634553415,0.1053553819656372,0,0,0
4921,183181.6153516697,2011-01-05 13:31:20,1103.9814604710973,7,19,-1.099568486213684,3.599218845367432,14.61661771521456,14.937161205166484,58.870095939588296,53.85227283196982,-0.0001618862152099,0.1053553819656372,0,0,0
4922,183211.63047338347,2011-01-05 13:31:50,1133.99658218483,7,19,-1.099568486213684,3.593390941619873,14.61661771521456,14.946328860005917,58.870095939588296,53.88524304572858,-0.0001942634553415,0.1053553819656372,0,0,0
4923,183241.6456191371,2011-01-05 13:32:20,1164.0117279384774,7,19,-1.0993878841400146,3.587887048721313,14.61661771521456,14.955496497065193,58.870095939588296,53.91816092004788,-0.0001618862152099,0.1053553819656372,0,0,0
4924,183271.6607291767,2011-01-05 13:32:50,1194.0268379931522,7,19,-1.099568486213684,3.582382917404175,14.61661771521456,14.964664179447558,58.870095939588296,53.95102819703473,-0.0001295089750783,0.1053553819656372,0,0,0
4925,183301.67797501443,2011-01-05 13:33:20,1224.0440838208303,7,19,-1.099568486213684,3.577040672302246,14.61661771521456,14.973832430082462,58.870095939588296,53.98384801813366,-0.0001618862152099,0.1053553819656372,0,0,0
4926,183331.6909895013,2011-01-05 13:33:50,1254.0570983277553,7,19,-1.099568486213684,3.571860313415528,14.61661771521456,14.982999433273354,58.870095939588296,54.01661465466786,-0.0001295089750783,0.1053553819656372,0,0,0
4927,183361.7062065176,2011-01-05 13:34:20,1284.0723153389988,7,19,-1.099568486213684,3.5666799545288086,14.61661771521456,14.992167121954171,58.870095939588296,54.04933658560163,-0.0001295089750783,0.1053553819656372,0,0,0
4928,183391.72143710265,2011-01-05 13:34:50,1314.0875459290849,7,19,-1.099568486213684,3.5618233680725098,14.61661771521456,15.001334825713617,58.870095939588296,54.082012757305165,-0.0001295089750783,0.1053553819656372,0,0,0
4929,183421.7363333745,2011-01-05 13:35:20,1344.102442180897,7,19,-1.099568486213684,3.557290554046631,14.61661771521456,15.010502373960232,58.870095939588296,54.11464465928013,-9.713172767078504e-05,0.1053553819656372,0,0,0
4930,183451.75145332384,2011-01-05 13:35:50,1374.1175621202074,7,19,-1.099568486213684,3.552433967590332,14.61661771521456,15.019670040803168,58.870095939588296,54.1472336007341,-9.713172767078504e-05,0.1053553819656372,0,0,0
4931,183481.76670192383,2011-01-05 13:36:20,1404.1328107402294,7,19,-1.099568486213684,3.547901153564453,14.61661771521456,15.028837708506863,58.870095939588296,54.17978027996112,-0.0001295089750783,0.1053553819656372,0,0,0
4932,183511.7818275272,2011-01-05 13:36:50,1434.147936348669,7,19,-1.0997490882873535,3.543368339538574,14.61661771521456,15.03800544760218,58.870095939588296,54.21228589144496,-0.0001295089750783,0.1053553819656372,0,0,0
4933,183541.79683179324,2011-01-05 13:37:20,1464.1629406146858,7,19,-1.0993878841400146,3.5391592979431152,14.61661771521456,15.047173093449173,58.870095939588296,54.24475055689214,-9.713172767078504e-05,0.1053553819656372,0,0,0
4934,183571.8120510952,2011-01-05 13:37:50,1494.1781599066137,7,19,-1.099568486213684,3.5346264839172363,14.61661771521456,15.056340854468232,58.870095939588296,54.27717551525378,-0.0001295089750783,0.1053553819656372,0,0,0
4935,183601.82704905552,2011-01-05 13:38:20,1524.1931578568897,7,19,-1.099568486213684,3.5304174423217773,14.61661771521456,15.065508493448942,58.870095939588296,54.30956033000754,-9.713172767078504e-05,0.1053553819656372,0,0,0
4936,183631.8422085484,2011-01-05 13:38:50,1554.208317354792,7,19,-1.099568486213684,3.5262084007263184,14.61661771521456,15.074676163223884,58.870095939588296,54.34190641637046,-9.713172767078504e-05,0.1053553819656372,0,0,0
4937,183661.85729137025,2011-01-05 13:39:20,1584.223400166569,7,19,-1.099568486213684,3.5218374729156494,14.61661771521456,15.083843766540769,58.870095939588296,54.37421311544022,-0.0001295089750783,0.1053553819656372,0,0,0
4938,183691.87241263784,2011-01-05 13:39:50,1614.2385214442147,7,19,-1.0993878841400146,3.5177903175354004,14.61661771521456,15.093011389101974,58.870095939588296,54.40648152955099,-9.713172767078504e-05,0.1053553819656372,0,0,0
4939,183721.8875356347,2011-01-05 13:40:20,1644.2536444411458,7,19,-1.0997490882873535,3.5134193897247314,14.61661771521456,15.10217905752586,58.870095939588296,54.43871139381403,-0.0001295089750783,0.1053553819656372,0,0,0
4940,183751.90267752376,2011-01-05 13:40:50,1674.2687863401864,7,19,-1.099568486213684,3.509372472763061,14.61661771521456,15.111346690718763,58.870095939588296,54.47090291847872,-0.0001295089750783,0.1053553819656372,0,0,0
4941,183781.91778384417,2011-01-05 13:41:20,1704.283892640504,7,19,-1.0993878841400146,3.5051634311676025,14.61661771521456,15.120514384213754,58.870095939588296,54.50305627127923,-0.0001295089750783,0.1053553819656372,0,0,0
4942,183811.933042028,2011-01-05 13:41:50,1734.2991508594498,7,19,-1.099568486213684,3.500954389572144,14.61661771521456,15.129682143165716,58.870095939588296,54.53517115353801,-9.713172767078504e-05,0.1053553819656372,0,0,0
4943,183841.94803868004,2011-01-05 13:42:20,1764.31414757164,7,19,-1.0993878841400146,3.496745347976685,14.61661771521456,15.13884972873284,58.870095939588296,54.56724693864724,-9.713172767078504e-05,0.1053553819656372,0,0,0
4944,183871.96317065432,2011-01-05 13:42:50,1794.3292794607328,7,19,-1.0993878841400146,3.492374420166016,14.61661771521456,15.148017360569622,58.870095939588296,54.59928344864964,-9.713172767078504e-05,0.1053553819656372,0,0,0
4945,183901.9782649096,2011-01-05 13:43:20,1824.3443737210432,7,19,-1.099568486213684,3.4881653785705566,14.61661771521456,15.157185461449638,58.870095939588296,54.6312815594628,-9.713172767078504e-05,0.1053553819656372,0,0,0
4946,183931.99365860625,2011-01-05 13:43:50,1854.3597674126288,7,19,-1.099568486213684,3.4836325645446777,14.61661771521456,15.166353919288502,58.870095939588296,54.663240483476905,-0.0001295089750783,0.1053553819656372,0,0,0
4947,183962.0086548322,2011-01-05 13:44:20,1884.374763658657,7,19,-1.099568486213684,3.478775978088379,14.61661771521456,15.175521823317368,58.870095939588296,54.695155264406,-0.0001295089750783,0.1053553819656372,0,0,0
4948,183992.0236683663,2011-01-05 13:44:50,1914.3897771727227,7,19,-1.099568486213684,3.47408127784729,14.61661771521456,15.184689401671,58.870095939588296,54.72702599879625,-0.0001295089750783,0.1053553819656372,0,0,0
4949,184022.03877548367,2011-01-05 13:45:20,1944.4048843702767,7,19,-1.099568486213684,3.469224691390991,14.61661771521456,15.193857055654082,58.870095939588296,54.75885317264374,-0.0001295089750783,0.1053553819656372,0,0,0
4950,184052.0540131564,2011-01-05 13:45:50,1974.4201219678275,7,19,-1.099568486213684,3.4640443325042725,14.61661771521456,15.203024726274016,58.870095939588296,54.79063464949483,-0.0001295089750783,0.1053553819656372,0,0,0
4951,184082.06901377835,2011-01-05 13:46:20,2004.4351225847497,7,19,-1.099568486213684,3.458540201187134,14.61661771521456,15.212192336318797,58.870095939588296,54.82236790202585,-0.0001618862152099,0.1053553819656372,0,0,0
4952,184112.08427957617,2011-01-05 13:46:50,2034.4503883976213,7,19,-1.099568486213684,3.453036069869995,14.61661771521456,15.221360009026654,58.870095939588296,54.854050596157904,-0.0001618862152099,0.1053553819656372,0,0,0
4953,184142.0992595266,2011-01-05 13:47:20,2064.465368353049,7,19,-1.099568486213684,3.4468843936920166,14.61661771521456,15.230527546449352,58.870095939588296,54.885677821264245,-0.0001618862152099,0.1053553819656372,0,0,0
4954,184172.1143920523,2011-01-05 13:47:50,2094.4805008787284,7,19,-1.099568486213684,3.4400851726531982,14.61661771521456,15.23969523452762,58.870095939588296,54.91724718013485,-0.0002266406954731,0.1053553819656372,0,0,0
4955,184202.12949434764,2011-01-05 13:48:20,2124.495603174065,7,19,-1.099568486213684,3.43247652053833,14.61661771521456,15.248862936760329,58.870095939588296,54.948751081213146,-0.0002266406954731,0.1053553819656372,0,0,0
4956,184232.14462902368,2011-01-05 13:48:50,2154.5107378300536,7,19,-1.0993878841400146,3.424220561981201,14.61661771521456,15.258030641649846,58.870095939588296,54.980181759599226,-0.0002266406954731,0.1053553819656372,0,0,0
4957,184262.1597395094,2011-01-05 13:49:20,2184.5258483158022,7,19,-1.099568486213684,3.414669275283813,14.61661771521456,15.26719833255322,58.870095939588296,55.011530277185024,-0.0002266406954731,0.1053553819656372,0,0,0
4958,184292.17485803016,2011-01-05 13:49:50,2214.540966836578,7,19,-1.0997490882873535,3.403499126434326,14.61661771521456,15.276366030524487,58.870095939588296,55.042784642725934,-0.0003237724304199,0.1053553819656372,0,0,0
4959,184322.18998572385,2011-01-05 13:50:20,2244.5560945302136,7,19,-1.0993878841400146,3.3907101154327397,14.61661771521456,15.285533684556452,58.870095939588296,55.073928925385786,-0.0003237724304199,0.1053553819656372,0,0,0
4960,184352.20533392704,2011-01-05 13:50:50,2274.571443565502,7,19,-1.0997490882873535,3.374683380126953,14.61661771521456,15.294701345294683,58.870095939588296,55.10494144829018,-0.0004532813909463,0.1053553819656372,0,0,0
4961,184382.22025267992,2011-01-05 13:51:20,2304.58636150637,7,19,-1.099568486213684,3.355742692947388,14.61661771521456,15.303868939658328,58.870095939588296,55.13579482140389,-0.0005180359003134,0.1053553819656372,0,0,0
4962,184412.23534256936,2011-01-05 13:51:50,2334.601451370724,7,19,-1.099568486213684,3.3321075439453125,14.61661771521456,15.313036634329862,58.870095939588296,55.16645444647002,-0.0007122993702068,0.1053553819656372,0,0,0
4963,184442.25046513017,2011-01-05 13:52:20,2364.616573931568,7,19,-1.0993878841400146,3.3024823665618896,14.61661771521456,15.322204313380327,58.870095939588296,55.19687203985489,-0.0008741855854168,0.1053553819656372,0,0,0
4964,184472.26777644103,2011-01-05 13:52:50,2394.633885427913,7,19,-1.099568486213684,3.264115571975708,14.61661771521456,15.331372564527465,58.870095939588296,55.22698162380251,-0.0011332035064697,0.1053553819656372,0,0,0
4965,184502.2807256302,2011-01-05 13:53:20,2424.646834431584,7,19,-1.099568486213684,3.2136070728302,14.61661771521456,15.340539583810312,58.870095939588296,55.25668249523599,-0.0014893531333655,0.1053553819656372,0,0,0
4966,184532.28209596124,2011-01-05 13:53:50,2454.6482047927143,7,19,-1.099568486213684,3.144158124923706,14.61661771521456,15.34970306387934,58.870095939588296,55.285828910042405,-0.0021045207977294,0.1053553819656372,0,0,0
4967,184562.2953500503,2011-01-05 13:54:20,2484.661458856689,7,19,-1.0997490882873535,3.045569658279419,14.61661771521456,15.358870222217266,58.870095939588296,55.31423021259706,-0.0031405924819409,0.1053553819656372,0,0,0
4968,184592.3104502103,2011-01-05 13:54:50,2514.676559026728,7,19,-1.099568486213684,2.8953397274017334,14.61661771521456,15.368037865992756,58.870095939588296,55.34151500148282,-0.0048242090269923,0.1053553819656372,0,0,0
4969,184619.2944030636,2011-01-05 13:55:17,2541.6605118900184,7,19,-1.0993878841400146,2.699943780899048,14.61661771521456,15.376279733515997,58.870095939588296,55.36460724298233,-0.0063135148957371,0.1053553819656372,0,0,0
4970,184679.3101128692,2011-01-05 13:56:18,60.01470290570344,8,19,0.0,3.5305793285369877,14.61661771521456,15.376279733515997,58.870095939588296,55.36460724298233,0.0012950897216796,0.1053553819656372,0,0,0
4971,184679.4994482815,2011-01-05 13:56:18,0.187420479502761,9,19,-1.9243103452026844e-05,3.5309031009674072,14.61661771521456,15.376279734517816,58.870095939588296,55.36460724651966,0.0,0.099682405591011,0,0,0
4972,184684.3274641827,2011-01-05 13:56:23,5.015436380671829,9,19,0.0008838032954372,3.5386736392974854,14.616618582320196,15.376279734684728,58.87009900506485,55.36460724710901,0.0011655807029455,0.099682405591011,0,0,0
