Data_Point,Test_Time(s),Date_Time,Step_Time(s),Step_Index,Cycle_Index,Current(A),Voltage(V),Charge_Capacity(Ah),Discharge_Capacity(Ah),Charge_Energy(Wh),Discharge_Energy(Wh),dV/dt(V/s),Internal_Resistance(Ohm),Is_FC_Data,AC_Impedance(Ohm),ACI_Phase_Angle(Deg)
5991,224593.2964993683,2011-01-06 01:01:37,30.01296813134273,1,24,0.0,3.5503294467926025,17.70838670740543,18.473396857375835,71.37895701146964,66.44605190483794,0.0007122993702068,0.0988719761371612,0,0,0
5992,224623.3116675128,2011-01-06 01:02:07,60.02813628080755,1,24,0.0,3.573641061782837,17.70838670740543,18.473396857375835,71.37895701146964,66.44605190483794,0.0005180359003134,0.0988719761371612,0,0,0
5993,224653.3272012384,2011-01-06 01:02:37,90.04367001642557,1,24,0.0,3.590639114379883,17.70838670740543,18.473396857375835,71.37895701146964,66.44605190483794,0.0003885269106831,0.0988719761371612,0,0,0
5994,224683.29513172703,2011-01-06 01:03:07,120.01160049508005,1,24,0.0,3.603913545608521,17.70838670740543,18.473396857375835,71.37895701146964,66.44605190483794,0.0003237724304199,0.0988719761371612,0,0,0
5995,224713.31639607003,2011-01-06 01:03:37,30.015292940482432,2,24,0.5501165986061096,3.7348792552948,17.712973413582606,18.473396857375835,71.39598001377827,66.44605190483794,0.0010036944877356,0.0988719761371612,0,0,0
5996,224743.3313892985,2011-01-06 01:04:07,60.03028614894044,2,24,0.5499359965324402,3.763532876968384,17.71756006451988,18.473396857375835,71.41318177769456,66.44605190483794,0.0006475448608398,0.0988719761371612,0,0,0
5997,224773.34654253584,2011-01-06 01:04:37,90.04543939125205,2,24,0.5501165986061096,3.7815022468566895,17.722146753076704,18.473396857375835,71.43048840632251,66.44605190483794,0.0003561496851034,0.0988719761371612,0,0,0
5998,224803.36170252,2011-01-06 01:05:07,120.0605993703538,2,24,0.5501165986061096,3.7926723957061768,17.726733369106558,18.473396857375835,71.4478601161759,66.44605190483794,0.0002590179501567,0.0988719761371612,0,0,0
5999,224833.3770663972,2011-01-06 01:05:37,150.07596325765755,2,24,0.550297200679779,3.801090478897095,17.731320062655787,18.473396857375835,71.46527623451584,66.44605190483794,0.0002266406954731,0.0988719761371612,0,0,0
6000,224863.39202780143,2011-01-06 01:06:07,180.09092467688703,2,24,0.5501165986061096,3.808213472366333,17.735906698295928,18.473396857375835,71.48272722787831,66.44605190483794,0.0001618862152099,0.0988719761371612,0,0,0
6001,224893.4072901707,2011-01-06 01:06:37,210.10618704617664,2,24,0.5499359965324402,3.814688920974731,17.74049339019486,18.473396857375835,71.5002096355818,66.44605190483794,0.0001618862152099,0.0988719761371612,0,0,0
6002,224923.4223134692,2011-01-06 01:07:07,240.1212103295907,2,24,0.5501165986061096,3.8206787109375,17.745079971433007,18.473396857375835,71.51772056523524,66.44605190483794,0.0001295089750783,0.0988719761371612,0,0,0
6003,224953.4375229967,2011-01-06 01:07:37,270.13641987222,2,24,0.5501165986061096,3.8265066146850586,17.749666527510133,18.473396857375835,71.53525824337358,66.44605190483794,0.0001295089750783,0.0988719761371612,0,0,0
6004,224983.45262566803,2011-01-06 01:08:07,300.1515225284556,2,24,0.5501165986061096,3.832010746002197,17.754253116758385,18.473396857375835,71.55282156746999,66.44605190483794,0.0001618862152099,0.0988719761371612,0,0,0
6005,225013.4680691687,2011-01-06 01:08:37,330.1669660341929,2,24,0.550297200679779,3.837352752685547,17.75883975573429,18.473396857375835,71.57040934352581,66.44605190483794,0.0001942634553415,0.0988719761371612,0,0,0
6006,225043.4829285286,2011-01-06 01:09:07,360.1818253840341,2,24,0.5501165986061096,3.842047452926636,17.763426293918418,18.473396857375835,71.5880201857914,66.44605190483794,9.713172767078504e-05,0.0988719761371612,0,0,0
6007,225073.49813102867,2011-01-06 01:09:37,390.1970278790986,2,24,0.5501165986061096,3.847065925598145,17.76801292039395,18.473396857375835,71.60565388767014,66.44605190483794,0.0001618862152099,0.0988719761371612,0,0,0
6008,225103.5132317852,2011-01-06 01:10:07,420.2121286355995,2,24,0.550297200679779,3.8517606258392334,17.772599586276417,18.473396857375835,71.62330973779167,66.44605190483794,0.0001295089750783,0.0988719761371612,0,0,0
6009,225133.5285177583,2011-01-06 01:10:37,450.22741464881705,2,24,0.5501165986061096,3.856293439865112,17.77718627243624,18.473396857375835,71.6409870555072,66.44605190483794,0.0001295089750783,0.0988719761371612,0,0,0
6010,225163.54366306585,2011-01-06 01:11:07,480.2425599363028,2,24,0.5501165986061096,3.860988140106201,17.78177284849892,18.473396857375835,71.65868496340053,66.44605190483794,0.0001618862152099,0.0988719761371612,0,0,0
6011,225193.55870160228,2011-01-06 01:11:37,510.2575984576946,2,24,0.5501165986061096,3.86535906791687,17.786359365171148,18.473396857375835,71.67640330722834,66.44605190483794,0.0001295089750783,0.0988719761371612,0,0,0
6012,225223.5738525088,2011-01-06 01:12:07,540.2727493641846,2,24,0.5501165986061096,3.869729995727539,17.790946011228296,18.473396857375835,71.69414246611423,66.44605190483794,9.713172767078504e-05,0.0988719761371612,0,0,0
6013,225253.5890051947,2011-01-06 01:12:37,570.2879021353218,2,24,0.5501165986061096,3.873939037322998,17.795532568347454,18.473396857375835,71.7119012685328,66.44605190483794,6.47544875391759e-05,0.0988719761371612,0,0,0
6014,225283.6041674996,2011-01-06 01:13:07,600.3030643750578,2,24,0.5499359965324402,3.878148078918457,17.800119139668666,18.473396857375835,71.72967950317417,66.44605190483794,9.713172767078504e-05,0.0988719761371612,0,0,0
6015,225313.61931787973,2011-01-06 01:13:37,630.3182147301737,2,24,0.5501165986061096,3.882357120513916,17.80470572201336,18.473396857375835,71.74747675638629,66.44605190483794,0.0001295089750783,0.0988719761371612,0,0,0
6016,225343.63460422884,2011-01-06 01:14:07,660.3335010992782,2,24,0.5499359965324402,3.886242389678955,17.809292396099504,18.473396857375835,71.76529281122826,66.44605190483794,9.713172767078504e-05,0.0988719761371612,0,0,0
6017,225373.64973859407,2011-01-06 01:14:37,690.34863545953,2,24,0.550297200679779,3.890127658843994,17.813879005268596,18.473396857375835,71.7831263624909,66.44605190483794,0.0001295089750783,0.0988719761371612,0,0,0
6018,225403.66476425345,2011-01-06 01:15:07,720.363661103828,2,24,0.5501165986061096,3.893689155578613,17.818465688787555,18.473396857375835,71.80097736439582,66.44605190483794,9.713172767078504e-05,0.0988719761371612,0,0,0
6019,225433.68014026596,2011-01-06 01:15:37,750.3790371163515,2,24,0.5501165986061096,3.8970887660980233,17.823052404797494,18.473396857375835,71.81884454578743,66.44605190483794,6.47544875391759e-05,0.0988719761371612,0,0,0
6020,225463.695079144,2011-01-06 01:16:07,780.3939759893888,2,24,0.5499359965324402,3.9003264904022217,17.82763901782179,18.473396857375835,71.83672684541509,66.44605190483794,6.47544875391759e-05,0.0988719761371612,0,0,0
6021,225493.71024223583,2011-01-06 01:16:37,810.4091391063112,2,24,0.5499359965324402,3.903564214706421,17.8322256382398,18.473396857375835,71.85462393759919,66.44605190483794,9.713172767078504e-05,0.0988719761371612,0,0,0
6022,225523.7253932577,2011-01-06 01:17:07,840.4242901080383,2,24,0.5501165986061096,3.9064781665802,17.83681224398679,18.473396857375835,71.87253503470176,66.44605190483794,6.47544875391759e-05,0.0988719761371612,0,0,0
6023,225553.74274932503,2011-01-06 01:17:37,870.441646265693,2,24,0.5501165986061096,3.90939211845398,17.841399221667416,18.473396857375835,71.89046098830241,66.44605190483794,6.47544875391759e-05,0.0988719761371612,0,0,0
6024,225583.7575289512,2011-01-06 01:18:07,900.4564258166507,2,24,0.5501165986061096,3.912144184112549,17.84598584027097,18.473396857375835,71.90839830836369,66.44605190483794,9.713172767078504e-05,0.0988719761371612,0,0,0
6025,225613.77086580647,2011-01-06 01:18:37,930.469762661942,2,24,0.5499359965324402,3.914734125137329,17.850572267945356,18.473396857375835,71.92634713289728,66.44605190483794,6.47544875391759e-05,0.0988719761371612,0,0,0
6026,225643.7861234139,2011-01-06 01:19:07,960.4850202844012,2,24,0.5499359965324402,3.917324304580689,17.8551589205073,18.473396857375835,71.94430850734234,66.44605190483794,9.713172767078504e-05,0.0988719761371612,0,0,0
6027,225673.80116623105,2011-01-06 01:19:37,990.5000630814492,2,24,0.550297200679779,3.919914484024048,17.85974550835481,18.473396857375835,71.96228098090734,66.44605190483794,9.713172767078504e-05,0.0988719761371612,0,0,0
6028,225703.8163252728,2011-01-06 01:20:07,1020.5152221382522,2,24,0.5501165986061096,3.922019004821777,17.86433210443809,18.473396857375835,71.98026455127327,66.44605190483794,6.47544875391759e-05,0.0988719761371612,0,0,0
6029,225733.831474846,2011-01-06 01:20:37,1050.5303717214442,2,24,0.550297200679779,3.9246091842651367,17.868918627972075,18.473396857375835,71.9982585946336,66.44605190483794,9.713172767078504e-05,0.0988719761371612,0,0,0
6030,225763.8466209906,2011-01-06 01:21:07,1080.545517841004,2,24,0.5501165986061096,3.926875591278076,17.873505270282354,18.473396857375835,72.01626368637432,66.44605190483794,9.713172767078504e-05,0.0988719761371612,0,0,0
6031,225793.86178298973,2011-01-06 01:21:37,1110.5606798451524,2,24,0.5499359965324402,3.9289801120758057,17.878091881988098,18.473396857375835,72.03427908925013,66.44605190483794,6.47544875391759e-05,0.0988719761371612,0,0,0
6032,225823.8769208788,2011-01-06 01:22:08,1140.5758177291866,2,24,0.550297200679779,3.931084632873535,17.882678486347345,18.473396857375835,72.05230482151327,66.44605190483794,6.47544875391759e-05,0.0988719761371612,0,0,0
6033,225853.8921484363,2011-01-06 01:22:38,1170.5910452917271,2,24,0.5501165986061096,3.933512926101685,17.887265120236577,18.473396857375835,72.07034087324655,66.44605190483794,6.47544875391759e-05,0.0988719761371612,0,0,0
6034,225883.9072324361,2011-01-06 01:23:08,1200.6061292914649,2,24,0.5501165986061096,3.935617446899414,17.891851728664907,18.473396857375835,72.08838689859012,66.44605190483794,6.47544875391759e-05,0.0988719761371612,0,0,0
6035,225913.9224176731,2011-01-06 01:23:38,1230.6213145285171,2,24,0.550297200679779,3.9378838539123535,17.896438682036298,18.473396857375835,72.10644431637164,66.44605190483794,9.713172767078504e-05,0.0988719761371612,0,0,0
6036,225943.93766862896,2011-01-06 01:24:08,1260.6365654893734,2,24,0.550297200679779,3.940150260925293,17.9010261663067,18.473396857375835,72.12451398587773,66.44605190483794,9.713172767078504e-05,0.0988719761371612,0,0,0
6037,225973.95269356147,2011-01-06 01:24:38,1290.65159040686,2,24,0.5501165986061096,3.942092895507813,17.905613507550974,18.473396857375835,72.14259301536862,66.44605190483794,6.47544875391759e-05,0.0988719761371612,0,0,0
6038,226003.96786200663,2011-01-06 01:25:08,1320.666758857075,2,24,0.5501165986061096,3.944197416305542,17.91020087243679,18.473396857375835,72.16068201829916,66.44605190483794,3.237724376958795e-05,0.0988719761371612,0,0,0
6039,226033.983019675,2011-01-06 01:25:38,1350.6819165304296,2,24,0.550297200679779,3.946301937103272,17.914788004101293,18.473396857375835,72.17877993778188,66.44605190483794,0.0,0.0988719761371612,0,0,0
6040,226063.9982950868,2011-01-06 01:26:08,1380.6971919572627,2,24,0.550297200679779,3.948568344116211,17.919374654363793,18.473396857375835,72.19688559571347,66.44605190483794,6.47544875391759e-05,0.0988719761371612,0,0,0
6041,226094.0135620776,2011-01-06 01:26:38,1410.7124589380458,2,24,0.550297200679779,3.950672864913941,17.923961276622187,18.473396857375835,72.21500091219855,66.44605190483794,6.47544875391759e-05,0.0988719761371612,0,0,0
6042,226124.02849085047,2011-01-06 01:27:08,1440.7273877309603,2,24,0.5501165986061096,3.95277738571167,17.928547865009264,18.473396857375835,72.23312578598154,66.44605190483794,6.47544875391759e-05,0.0988719761371612,0,0,0
6043,226154.04363979207,2011-01-06 01:27:38,1470.742536667541,2,24,0.5499359965324402,3.9548819065094,17.933134467341546,18.473396857375835,72.25126036602008,66.44605190483794,9.713172767078504e-05,0.0988719761371612,0,0,0
6044,226184.0587419872,2011-01-06 01:28:08,1500.7576388375644,2,24,0.5501165986061096,3.956986427307129,17.937720297750325,18.473396857375835,72.2694014203736,66.44605190483794,6.47544875391759e-05,0.0988719761371612,0,0,0
6045,226214.07393868777,2011-01-06 01:28:38,1530.7728355432,2,24,0.5499359965324402,3.958929061889648,17.94230609104371,18.473396857375835,72.28755175970765,66.44605190483794,6.47544875391759e-05,0.0988719761371612,0,0,0
6046,226244.0891109024,2011-01-06 01:29:08,1560.7880077477714,2,24,0.5501165986061096,3.961195468902588,17.946892026785594,18.473396857375835,72.30571225723179,66.44605190483794,6.47544875391759e-05,0.0988719761371612,0,0,0
6047,226274.10437178795,2011-01-06 01:29:38,1590.803268763688,2,24,0.5499359965324402,3.9631381034851074,17.95147788166443,18.473396857375835,72.32388191313449,66.44605190483794,6.47544875391759e-05,0.0988719761371612,0,0,0
6048,226304.12158644293,2011-01-06 01:30:08,1620.8204835038864,2,24,0.5501165986061096,3.965080738067627,17.956063938149974,18.473396857375835,72.34206183132797,66.44605190483794,6.47544875391759e-05,0.0988719761371612,0,0,0
6049,226334.13465178155,2011-01-06 01:30:38,1650.8335486570377,2,24,0.5501165986061096,3.9673471450805664,17.960649398393997,18.473396857375835,72.36024888214435,66.44605190483794,6.47544875391759e-05,0.0988719761371612,0,0,0
6050,226364.14969134057,2011-01-06 01:31:08,1680.8485882160153,2,24,0.5501165986061096,3.969451665878296,17.96523585373039,18.473396857375835,72.3784493534374,66.44605190483794,6.47544875391759e-05,0.0988719761371612,0,0,0
6051,226394.16506616512,2011-01-06 01:31:38,1710.8639630155155,2,24,0.5501165986061096,3.9712324142456055,17.96982255656896,18.473396857375835,72.39666028951761,66.44605190483794,6.47544875391759e-05,0.0988719761371612,0,0,0
6052,226424.18001233635,2011-01-06 01:32:08,1740.878909211805,2,24,0.5501165986061096,3.973498821258545,17.97440925203014,18.473396857375835,72.4148805785867,66.44605190483794,3.237724376958795e-05,0.0988719761371612,0,0,0
6053,226454.1951581802,2011-01-06 01:32:38,1770.8940550556772,2,24,0.5501165986061096,3.975441455841065,17.978995875740136,18.473396857375835,72.43310999049851,66.44605190483794,6.47544875391759e-05,0.0988719761371612,0,0,0
6054,226484.21043745664,2011-01-06 01:33:08,1800.9093343170673,2,24,0.5501165986061096,3.977545976638794,17.983582653268034,18.473396857375835,72.45134943747581,66.44605190483794,3.237724376958795e-05,0.0988719761371612,0,0,0
6055,226514.22547904568,2011-01-06 01:33:38,1830.9243759061044,2,24,0.5501165986061096,3.979650497436523,17.988169321421104,18.473396857375835,72.46959741550052,66.44605190483794,6.47544875391759e-05,0.0988719761371612,0,0,0
6056,226544.2407674449,2011-01-06 01:34:08,1860.9396643152936,2,24,0.5501165986061096,3.981593132019043,17.992755924474327,18.473396857375835,72.48785495401161,66.44605190483794,3.237724376958795e-05,0.0988719761371612,0,0,0
6057,226574.25579096383,2011-01-06 01:34:38,1890.9546878142448,2,24,0.5501165986061096,3.9838595390319824,17.997342571074448,18.473396857375835,72.50612208500362,66.44605190483794,9.713172767078504e-05,0.0988719761371612,0,0,0
6058,226604.2709385721,2011-01-06 01:35:08,1920.969835447577,2,24,0.5501165986061096,3.985640287399292,18.001929212426262,18.473396857375835,72.52439862229073,66.44605190483794,3.237724376958795e-05,0.0988719761371612,0,0,0
6059,226634.2861152278,2011-01-06 01:35:38,1950.985012083192,2,24,0.550297200679779,3.987906694412232,18.00651586102021,18.473396857375835,72.54268467039307,66.44605190483794,6.47544875391759e-05,0.0988719761371612,0,0,0
6060,226664.3013719179,2011-01-06 01:36:08,1981.0002687833523,2,24,0.550297200679779,3.990011215209961,18.011102464619874,18.473396857375835,72.56097995180075,66.44605190483794,6.47544875391759e-05,0.0988719761371612,0,0,0
6061,226694.31640391305,2011-01-06 01:36:38,2011.0153007584288,2,24,0.550297200679779,3.9921157360076895,18.01568903278999,18.473396857375835,72.57928469061105,66.44605190483794,6.47544875391759e-05,0.0988719761371612,0,0,0
6062,226724.33156044857,2011-01-06 01:37:08,2041.0304573240228,2,24,0.5501165986061096,3.994220018386841,18.02027562314749,18.473396857375835,72.59759906438718,66.44605190483794,9.70840483205393e-05,0.0988719761371612,0,0,0
6063,226754.34675725945,2011-01-06 01:37:38,2071.0456541449457,2,24,0.5501165986061096,3.99616265296936,18.024862223035388,18.473396857375835,72.61592314205716,66.44605190483794,3.237724376958795e-05,0.0988719761371612,0,0,0
6064,226784.361889314,2011-01-06 01:38:08,2101.060786169376,2,24,0.5501165986061096,3.99826717376709,18.029448805364503,18.473396857375835,72.63425697978712,66.44605190483794,3.237724376958795e-05,0.0988719761371612,0,0,0
6065,226814.3773018826,2011-01-06 01:38:38,2131.0761987380088,2,24,0.5499359965324402,4.000371932983398,18.034035474601485,18.473396857375835,72.65260083434876,66.44605190483794,3.24249267578125e-05,0.0988719761371612,0,0,0
6066,226844.3921957535,2011-01-06 01:39:08,2161.0910926239244,2,24,0.5499359965324402,4.002638339996338,18.038621976980792,18.473396857375835,72.67095388765361,66.44605190483794,6.47544875391759e-05,0.0988719761371612,0,0,0
6067,226874.4073903338,2011-01-06 01:39:38,2191.106287209276,2,24,0.5501165986061096,4.004742622375488,18.04320858911355,18.473396857375835,72.68931735565955,66.44605190483794,6.47544875391759e-05,0.0988719761371612,0,0,0
6068,226904.4225050601,2011-01-06 01:40:08,2221.121401910531,2,24,0.5501165986061096,4.007009029388428,18.047795129934077,18.473396857375835,72.70769056367241,66.44605190483794,9.70840483205393e-05,0.0988719761371612,0,0,0
6069,226934.4379179596,2011-01-06 01:40:38,2251.1368148300376,2,24,0.5501165986061096,4.009113788604736,18.052381779948465,18.473396857375835,72.72607435942923,66.44605190483794,3.24249267578125e-05,0.0988719761371612,0,0,0
6070,226964.45285091287,2011-01-06 01:41:08,2281.151747788334,2,24,0.5501165986061096,4.011380195617676,18.056968306366745,18.473396857375835,72.7444678339554,66.44605190483794,3.24249267578125e-05,0.0988719761371612,0,0,0
6071,226994.4681137734,2011-01-06 01:41:38,2311.16701067391,2,24,0.5499359965324402,4.013808250427246,18.061554873800528,18.473396857375835,72.76287179761542,66.44605190483794,6.47544875391759e-05,0.0988719761371612,0,0,0
6072,227024.48312056068,2011-01-06 01:42:08,2341.1820174160985,2,24,0.5501165986061096,4.0160746574401855,18.066141462313432,18.473396857375835,72.78128624857996,66.44605190483794,6.47544875391759e-05,0.0988719761371612,0,0,0
6073,227054.49840218297,2011-01-06 01:42:38,2371.1972990433846,2,24,0.5499359965324402,4.018341064453125,18.07072803532,18.473396857375835,72.79971111456383,66.44605190483794,9.70840483205393e-05,0.0988719761371612,0,0,0
6074,227084.51355918465,2011-01-06 01:43:08,2401.212456055091,2,24,0.550297200679779,4.0206074714660645,18.07531458583103,18.473396857375835,72.8181464358487,66.44605190483794,6.47544875391759e-05,0.0988719761371612,0,0,0
6075,227114.52860541025,2011-01-06 01:43:38,2431.227502260634,2,24,0.5501165986061096,4.023036003112793,18.079901173093027,18.473396857375835,72.83659280282677,66.44605190483794,9.71794142969884e-05,0.0988719761371612,0,0,0
6076,227144.5438685364,2011-01-06 01:44:08,2461.24276540686,2,24,0.5501165986061096,4.025302410125732,18.08448770258857,18.473396857375835,72.855049810574,66.44605190483794,3.24249267578125e-05,0.0988719761371612,0,0,0
6077,227174.55891657653,2011-01-06 01:44:38,2491.257813451988,2,24,0.5501165986061096,4.027730464935303,18.08907419886275,18.473396857375835,72.87351767126376,66.44605190483794,6.47544875391759e-05,0.0988719761371612,0,0,0
6078,227204.57407009453,2011-01-06 01:45:08,2521.272966944924,2,24,0.5501165986061096,4.030158996582031,18.09366079574578,18.473396857375835,72.89199702055551,66.44605190483794,6.47544875391759e-05,0.0988719761371612,0,0,0
6079,227234.5893645388,2011-01-06 01:45:38,2551.288261409205,2,24,0.5499359965324402,4.032587051391602,18.0982473488554,18.473396857375835,72.91048732709365,66.44605190483794,3.23295607813634e-05,0.0988719761371612,0,0,0
6080,227264.60438056407,2011-01-06 01:46:08,2581.303277419492,2,24,0.5501165986061096,4.035015106201172,18.102833988013607,18.473396857375835,72.92898928742397,66.44605190483794,3.23295607813634e-05,0.0988719761371612,0,0,0
6081,227294.61955285387,2011-01-06 01:46:38,2611.3184497092752,2,24,0.5499359965324402,4.037605285644531,18.1074205514264,18.473396857375835,72.94750237134821,66.44605190483794,6.47544875391759e-05,0.0988719761371612,0,0,0
6082,227324.6348425713,2011-01-06 01:47:08,2641.3337394618125,2,24,0.550297200679779,4.040195465087891,18.112007215938466,18.473396857375835,72.96602746443435,66.44605190483794,6.47544875391759e-05,0.0988719761371612,0,0,0
6083,227354.6502275612,2011-01-06 01:47:38,2671.349124421636,2,24,0.5501165986061096,4.04278564453125,18.11659382238223,18.473396857375835,72.98456397003014,66.44605190483794,6.47544875391759e-05,0.0988719761371612,0,0,0
6084,227384.6651701886,2011-01-06 01:48:08,2701.364067089129,2,24,0.550297200679779,4.045375823974609,18.12118042516436,18.473396857375835,73.00311240607152,66.44605190483794,6.47544875391759e-05,0.0988719761371612,0,0,0
6085,227414.6801616026,2011-01-06 01:48:38,2731.379058468028,2,24,0.550297200679779,4.048128128051758,18.12576698971676,18.473396857375835,73.02167261959691,66.44605190483794,0.0001295089750783,0.0988719761371612,0,0,0
6086,227444.6953177572,2011-01-06 01:49:08,2761.394214612573,2,24,0.550297200679779,4.050556182861328,18.13035359096676,18.473396857375835,73.04024503420709,66.44605190483794,6.47544875391759e-05,0.0988719761371612,0,0,0
6087,227474.71277064589,2011-01-06 01:49:38,2791.411667711836,2,24,0.5501165986061096,4.053308486938477,18.134940572593223,18.473396857375835,73.0588310673047,66.44605190483794,6.47544875391759e-05,0.0988719761371612,0,0,0
6088,227504.7278266258,2011-01-06 01:50:08,2821.42672357144,2,24,0.5501165986061096,4.056060314178467,18.13952712844307,18.473396857375835,73.07742765862741,66.44605190483794,9.70840483205393e-05,0.0988719761371612,0,0,0
6089,227534.74080744377,2011-01-06 01:50:38,2851.4397043192266,2,24,0.5501165986061096,4.058812618255615,18.144113448650906,18.473396857375835,73.09603574089687,66.44605190483794,9.71794142969884e-05,0.0988719761371612,0,0,0
6090,227564.75592892693,2011-01-06 01:51:08,2881.454825807397,2,24,0.5501165986061096,4.061402797698975,18.14870005904568,18.473396857375835,73.11465733374688,66.44605190483794,0.0001295089750783,0.0988719761371612,0,0,0
6091,227594.771152705,2011-01-06 01:51:38,2911.47004967573,2,24,0.550297200679779,4.064154624938965,18.15328666215975,18.473396857375835,73.13329141526219,66.44605190483794,9.70840483205393e-05,0.0988719761371612,0,0,0
6092,227624.7862462536,2011-01-06 01:52:08,2941.485143108979,2,24,0.5501165986061096,4.066906929016113,18.157873254320545,18.473396857375835,73.15193825921756,66.44605190483794,3.24249267578125e-05,0.0988719761371612,0,0,0
6093,227654.80140450332,2011-01-06 01:52:38,2971.5003013537585,2,24,0.5501165986061096,4.069820880889893,18.162459901945063,18.473396857375835,73.17059823358943,66.44605190483794,9.71794142969884e-05,0.0988719761371612,0,0,0
6094,227684.8166887221,2011-01-06 01:53:08,3001.515585617616,2,24,0.5499359965324402,4.072411060333252,18.167046536912128,18.473396857375835,73.1892711522405,66.44605190483794,0.0,0.0988719761371612,0,0,0
6095,227714.83176468185,2011-01-06 01:53:38,3031.530661537216,2,24,0.5501165986061096,4.075325012207031,18.171633106041952,18.473396857375835,73.20795685237377,66.44605190483794,6.47544875391759e-05,0.0988719761371612,0,0,0
6096,227744.8468846261,2011-01-06 01:54:09,3061.545781476526,2,24,0.5501165986061096,4.078400611877441,18.176219714122016,18.473396857375835,73.22665590755335,66.44605190483794,6.47544875391759e-05,0.0988719761371612,0,0,0
6097,227774.862171702,2011-01-06 01:54:39,3091.5610685624174,2,24,0.5501165986061096,4.081314563751221,18.180806301821622,18.473396857375835,73.24536822156261,66.44605190483794,6.47544875391759e-05,0.0988719761371612,0,0,0
6098,227804.8772187897,2011-01-06 01:55:09,3121.5761156651965,2,24,0.5501165986061096,4.084066867828369,18.185392836168056,18.473396857375835,73.264093771068,66.44605190483794,3.24249267578125e-05,0.0988719761371612,0,0,0
6099,227834.8923859668,2011-01-06 01:55:39,3151.591282817175,2,24,0.5501165986061096,4.087304592132568,18.189979452215603,18.473396857375835,73.28283328482203,66.44605190483794,9.71794142969884e-05,0.0988719761371612,0,0,0
6100,227864.9076458549,2011-01-06 01:56:09,3181.6065427453805,2,24,0.5499359965324402,4.090218544006348,18.194566063413564,18.473396857375835,73.30158649451916,66.44605190483794,9.71794142969884e-05,0.0988719761371612,0,0,0
6101,227894.9226751483,2011-01-06 01:56:39,3211.621571998673,2,24,0.5501165986061096,4.093294143676758,18.19915264058,18.473396857375835,73.32035344775827,66.44605190483794,9.70840483205393e-05,0.0988719761371612,0,0,0
6102,227924.9379578833,2011-01-06 01:57:09,3241.636854783846,2,24,0.550297200679779,4.096693992614746,18.203739310311462,18.473396857375835,73.33913482648401,66.44605190483794,0.0001619339018361,0.0988719761371612,0,0,0
6103,227954.95300876556,2011-01-06 01:57:39,3271.6519056159195,2,24,0.5501165986061096,4.099445819854736,18.20832591810644,18.473396857375835,73.35793017214591,66.44605190483794,6.47544875391759e-05,0.0988719761371612,0,0,0
6104,227984.9681661281,2011-01-06 01:58:09,3301.667063008575,2,24,0.5499359965324402,4.102359771728516,18.21291260329892,18.473396857375835,73.37674011457445,66.44605190483794,6.47544875391759e-05,0.0988719761371612,0,0,0
6105,228014.98345890816,2011-01-06 01:58:39,3331.6823557986827,2,24,0.5499359965324402,4.105759620666504,18.21749929841074,18.473396857375835,73.39556456958185,66.44605190483794,6.47544875391759e-05,0.0988719761371612,0,0,0
6106,228044.99847379065,2011-01-06 01:59:09,3361.697370666121,2,24,0.5501165986061096,4.108835220336914,18.22208590006845,18.473396857375835,73.41440317647765,66.44605190483794,6.47544875391759e-05,0.0988719761371612,0,0,0
6107,228075.01364459173,2011-01-06 01:59:39,3391.7125414671955,2,24,0.550297200679779,4.112235069274902,18.226672453433324,18.473396857375835,73.43325636082152,66.44605190483794,9.71794142969884e-05,0.0988719761371612,0,0,0
6108,228105.02879106216,2011-01-06 02:00:09,3421.727687937629,2,24,0.5501165986061096,4.1153106689453125,18.231259079328236,18.473396857375835,73.45212454463035,66.44605190483794,6.47544875391759e-05,0.0988719761371612,0,0,0
6109,228135.04394645983,2011-01-06 02:00:39,3451.742843340325,2,24,0.5499359965324402,4.118548393249512,18.2358457623759,18.473396857375835,73.47100791932277,66.44605190483794,6.47544875391759e-05,0.0988719761371612,0,0,0
6110,228165.05924345044,2011-01-06 02:01:09,3481.7581403409267,2,24,0.5499359965324402,4.121786117553711,18.24043245002859,18.473396857375835,73.48990630609364,66.44605190483794,6.47544875391759e-05,0.0988719761371612,0,0,0
6111,228195.0742873903,2011-01-06 02:01:39,3511.7731842707976,2,24,0.5501165986061096,4.12534761428833,18.24501902453336,18.473396857375835,73.50881932027542,66.44605190483794,0.0001295089750783,0.0988719761371612,0,0,0
6112,228225.091630315,2011-01-06 02:02:09,3541.790527380934,2,24,0.550297200679779,4.12874698638916,18.249605919175817,18.473396857375835,73.52774894836614,66.44605190483794,0.0001295089750783,0.0988719761371612,0,0,0
6113,228255.10458902785,2011-01-06 02:02:39,3571.803485903328,2,24,0.550297200679779,4.131984710693359,18.25419219410865,18.473396857375835,73.5466914737214,66.44605190483794,9.70840483205393e-05,0.0988719761371612,0,0,0
6114,228285.11974252583,2011-01-06 02:03:09,3601.8186393962646,2,24,0.550297200679779,4.135384559631348,18.258778910317183,18.473396857375835,73.56565128361228,66.44605190483794,9.71794142969884e-05,0.0988719761371612,0,0,0
6115,228315.13514444287,2011-01-06 02:03:39,3631.834041298313,2,24,0.5501165986061096,4.138783931732178,18.26336555357292,18.473396857375835,73.58462644409167,66.44605190483794,9.70840483205393e-05,0.0988719761371612,0,0,0
6116,228345.15006903035,2011-01-06 02:04:09,3661.848965905796,2,24,0.5501165986061096,4.142183780670166,18.267952168574,18.473396857375835,73.60361736330304,66.44605190483794,6.47544875391759e-05,0.0988719761371612,0,0,0
6117,228375.16524277875,2011-01-06 02:04:39,3691.8641396542143,2,24,0.550297200679779,4.145906925201416,18.27253877855616,18.473396857375835,73.62262422180294,66.44605190483794,9.70840483205393e-05,0.0988719761371612,0,0,0
6118,228405.18049410047,2011-01-06 02:05:09,3721.87939097597,2,24,0.5501165986061096,4.149306774139404,18.277125407181057,18.473396857375835,73.64164749021285,66.44605190483794,9.71794142969884e-05,0.0988719761371612,0,0,0
6119,228435.19557292736,2011-01-06 02:05:39,3751.894469787778,2,24,0.5501165986061096,4.152706146240234,18.28171197923458,18.473396857375835,73.66068670462933,66.44605190483794,9.70840483205393e-05,0.0988719761371612,0,0,0
6120,228465.2108829304,2011-01-06 02:06:09,3781.909779800811,2,24,0.5499359965324402,4.156429767608643,18.28629857667165,18.473396857375835,73.67974222065548,66.44605190483794,9.71794142969884e-05,0.0988719761371612,0,0,0
6121,228495.225895081,2011-01-06 02:06:39,3811.9247919464665,2,24,0.5501165986061096,4.159829139709473,18.290885068565384,18.473396857375835,73.69881372347396,66.44605190483794,6.47544875391759e-05,0.0988719761371612,0,0,0
6122,228525.24118719948,2011-01-06 02:07:09,3841.9400840799376,2,24,0.5501165986061096,4.163552761077881,18.29547162992231,18.473396857375835,73.71790219106356,66.44605190483794,9.71794142969884e-05,0.0988719761371612,0,0,0
6123,228555.25633625133,2011-01-06 02:07:39,3871.9552331919554,2,24,0.5501165986061096,4.167275905609131,18.300058206732928,18.473396857375835,73.73700729955925,66.44605190483794,0.0001295089750783,0.0988719761371612,0,0,0
6124,228585.27139336907,2011-01-06 02:08:09,3901.9702902244826,2,24,0.5501165986061096,4.170999526977539,18.304644647213745,18.473396857375835,73.7561286002865,66.44605190483794,0.0001295089750783,0.0988719761371612,0,0,0
6125,228615.28665707668,2011-01-06 02:08:39,3931.98555397722,2,24,0.550297200679779,4.174722671508789,18.30923119839828,18.473396857375835,73.77526725686802,66.44605190483794,0.0001295089750783,0.0988719761371612,0,0,0
6126,228645.3017157433,2011-01-06 02:09:09,3962.000612598707,2,24,0.5501165986061096,4.178284168243408,18.313817719612416,18.473396857375835,73.79442270050646,66.44605190483794,3.23295607813634e-05,0.0988719761371612,0,0,0
6127,228675.31686725127,2011-01-06 02:09:39,3992.0157641267465,2,24,0.5501165986061096,4.182169437408447,18.31840420893737,18.473396857375835,73.81359516569884,66.44605190483794,9.70840483205393e-05,0.0988719761371612,0,0,0
6128,228705.3320289998,2011-01-06 02:10:09,4022.0309258802704,2,24,0.5501165986061096,4.185893058776856,18.322990774403102,18.473396857375835,73.83278521893313,66.44605190483794,9.71794142969884e-05,0.0988719761371612,0,0,0
6129,228735.34731014588,2011-01-06 02:10:39,4052.046207011321,2,24,0.550297200679779,4.189778327941895,18.32757729516847,18.473396857375835,73.8519925065287,66.44605190483794,0.0001295089750783,0.0988719761371612,0,0,0
6130,228765.3623349581,2011-01-06 02:11:09,4082.0612318185326,2,24,0.5501165986061096,4.1935014724731445,18.33216384524828,18.473396857375835,73.87121742347887,66.44605190483794,9.70840483205393e-05,0.0988719761371612,0,0,0
6131,228795.3798491396,2011-01-06 02:11:39,4112.078746095268,2,24,0.550297200679779,4.197386741638184,18.336750723483508,18.473396857375835,73.89046132770234,66.44605190483794,0.0001295089750783,0.0988719761371612,0,0,0
6132,228815.09607665509,2011-01-06 02:11:59,4131.794973530568,2,24,0.5501165986061096,4.200138568878174,18.339763464336077,18.473396857375835,73.90311070823209,66.44605190483794,0.0001618385285837,0.0988719761371612,0,0,0
6133,228845.11921998768,2011-01-06 02:12:29,30.015281381674324,3,24,0.0,4.104464530944824,18.339763464336077,18.473396857375835,73.90311070823209,66.44605190483794,-0.0004532813909463,0.0988719761371612,0,0,0
6134,228875.13425282497,2011-01-06 02:12:59,60.030314203861934,3,24,0.0,4.092322826385498,18.339763464336077,18.473396857375835,73.90311070823209,66.44605190483794,-0.0001942634553415,0.0988719761371612,0,0,0
6135,228905.14951871292,2011-01-06 02:13:29,90.04558028740863,3,24,0.0,4.08487606048584,18.339763464336077,18.473396857375835,73.90311070823209,66.44605190483794,-0.0001295089750783,0.0988719761371612,0,0,0
6136,228935.11771441263,2011-01-06 02:13:59,120.01377578657578,3,24,0.0,4.080019474029541,18.339763464336077,18.473396857375835,73.90311070823209,66.44605190483794,-9.71794142969884e-05,0.0988719761371612,0,0,0
6137,228935.1278305806,2011-01-06 02:13:59,0.015898955088066,4,24,1.016088604927063,4.199814796447754,18.33976797689536,18.473396857375835,73.9031296597795,66.44605190483794,3.23295607813634e-05,0.0988719761371612,0,0,0
6138,228935.9869138003,2011-01-06 02:14:00,0.874982189842376,4,24,0.9660598039627076,4.199814796447754,18.34000323204293,18.473396857375835,73.90411768313942,66.44605190483794,3.23295607813634e-05,0.0988719761371612,0,0,0
6139,228937.9087830448,2011-01-06 02:14:02,2.796851429331565,4,24,0.9158504009246826,4.199814796447754,18.340504601724216,18.473396857375835,73.90622331597895,66.44605190483794,3.23295607813634e-05,0.0988719761371612,0,0,0
6140,228940.7681307691,2011-01-06 02:14:05,5.656199158672384,4,24,0.8658216595649719,4.199653148651123,18.341211156415653,18.473396857375835,73.90919070535989,66.44605190483794,-3.23295607813634e-05,0.0988719761371612,0,0,0
6141,228944.70554305703,2011-01-06 02:14:09,9.593611441592891,4,24,0.815612256526947,4.199814796447754,18.34212952263313,18.473396857375835,73.91304765473652,66.44605190483794,0.0,0.0988719761371612,0,0,0
6142,228949.84635331805,2011-01-06 02:14:14,14.734421707563468,4,24,0.7655834555625916,4.199814796447754,18.34325720443088,18.473396857375835,73.91778369397056,66.44605190483794,0.0,0.0988719761371612,0,0,0
6143,228956.53363644017,2011-01-06 02:14:20,21.42170488987939,4,24,0.7155547142028809,4.199814796447754,18.34463108801989,18.473396857375835,73.9235537581981,66.44605190483794,0.0,0.0988719761371612,0,0,0
6144,228965.29896401352,2011-01-06 02:14:29,30.187032403066105,4,24,0.6655259132385254,4.199814796447754,18.346309859779648,18.473396857375835,73.93060431220233,66.44605190483794,3.23295607813634e-05,0.0988719761371612,0,0,0
6145,228977.41036150264,2011-01-06 02:14:41,42.29843008768006,4,24,0.6154971718788147,4.199976921081543,18.3484604632844,18.473396857375835,73.9396364627534,66.44605190483794,3.24249267578125e-05,0.0988719761371612,0,0,0
6146,228995.4859939755,2011-01-06 02:14:59,60.374062339985805,4,24,0.565468430519104,4.199814796447754,18.35141690117005,18.473396857375835,73.95205296400702,66.44605190483794,0.0,0.0988719761371612,0,0,0
6147,229026.4248529768,2011-01-06 02:15:30,91.31292134126592,4,24,0.5154396295547485,4.199976921081543,18.356041344589062,18.473396857375835,73.97147479453149,66.44605190483794,3.24249267578125e-05,0.0988719761371612,0,0,0
6148,229084.9846113781,2011-01-06 02:16:29,149.8726797425892,4,24,0.4654108583927154,4.199814796447754,18.36397766958021,18.473396857375835,74.00480592723143,66.44605190483794,0.0,0.0988719761371612,0,0,0
6149,229183.1706976311,2011-01-06 02:18:07,248.05876610089763,4,24,0.4153820872306824,4.199653148651123,18.375954186292063,18.473396857375835,74.055105141689,66.44605190483794,-6.47544875391759e-05,0.0988719761371612,0,0,0
6150,229309.60616957545,2011-01-06 02:20:14,374.49423796500514,4,24,0.3653533160686493,4.199814796447754,18.389645415613703,18.473396857375835,74.11260590118967,66.44605190483794,-3.24249267578125e-05,0.0988719761371612,0,0,0
6151,229463.68203332587,2011-01-06 02:22:48,528.5701017304667,4,24,0.3153245449066162,4.199814796447754,18.40418761918788,18.473396857375835,74.1736806194236,66.44605190483794,3.23295607813634e-05,0.0988719761371612,0,0,0
6152,229648.319865771,2011-01-06 02:25:52,713.2079341354606,4,24,0.2652957737445831,4.199814796447754,18.419043095253578,18.473396857375835,74.23607111242313,66.44605190483794,3.23295607813634e-05,0.0988719761371612,0,0,0
6153,229876.7693639476,2011-01-06 02:29:41,941.65743231207,4,24,0.2152670174837112,4.199814796447754,18.43424451626135,18.473396857375835,74.29991434691183,66.44605190483794,0.0,0.0988719761371612,0,0,0
6154,230178.3428582372,2011-01-06 02:34:42,1243.2309266167215,4,24,0.1652382463216781,4.199653148651123,18.450092149133024,18.473396857375835,74.36647112002375,66.44605190483794,-3.23295607813634e-05,0.0988719761371612,0,0,0
6155,230615.14865641305,2011-01-06 02:41:59,1680.0367247775223,4,24,0.115028865635395,4.199653148651123,18.466923179636776,18.473396857375835,74.43715832035862,66.44605190483794,-6.47544875391759e-05,0.0988719761371612,0,0,0
6156,231397.38841397804,2011-01-06 02:55:01,2462.276482352556,4,24,0.0650000944733619,4.199653148651123,18.48596019976167,18.473396857375835,74.51711033662758,66.44605190483794,-3.23295607813634e-05,0.0988719761371612,0,0,0
6157,231808.7398634999,2011-01-06 03:01:53,2873.627931859404,4,24,0.0498289167881011,4.199814796447754,18.49251933556892,18.473396857375835,74.54465750699192,66.44605190483794,0.0,0.0988719761371612,0,0,0
6158,231838.7620714056,2011-01-06 03:02:23,30.01529120114748,5,24,0.0,4.190911293029785,18.49251933556892,18.473396857375835,74.54465750699192,66.44605190483794,-6.47544875391759e-05,0.0988719761371612,0,0,0
6159,231868.76161258284,2011-01-06 03:02:53,60.014832363351736,5,24,0.0,4.189454555511475,18.49251933556892,18.473396857375835,74.54465750699192,66.44605190483794,-6.47544875391759e-05,0.0988719761371612,0,0,0
6160,231868.95680430104,2011-01-06 03:02:53,0.187471436503285,6,24,-1.9243103452026844e-05,4.1896162033081055,18.49251933556892,18.473396858377928,74.54465750699192,66.44605190903633,0.0,0.10283113270998,0,0,0
6161,231873.78497373985,2011-01-06 03:02:58,5.015640870322959,6,24,0.0005225847125984,4.189454555511475,18.492520133328146,18.47339685846172,74.54466084928265,66.44605190938739,-3.23295607813634e-05,0.10283113270998,0,0,0
6162,231903.80799937312,2011-01-06 03:03:28,30.01521499120886,7,24,-1.0993878841400146,3.991630077362061,18.492520133328146,18.482565713647144,74.54466084928265,66.48288443015,-0.0011007785797119,0.10283113270998,0,0,0
6163,231933.8231441844,2011-01-06 03:03:58,60.03035980752029,7,24,-1.0997490882873535,3.956824541091919,18.492520133328146,18.49173456292132,74.54466084928265,66.51931353307143,-0.0007446765666827,0.10283113270998,0,0,0
6164,231963.8384458316,2011-01-06 03:04:28,90.04566147475246,7,24,-1.099929690361023,3.931732177734375,18.492520133328146,18.500903457098104,74.54466084928265,66.55547126112029,-0.0006151676061563,0.10283113270998,0,0,0
6165,231993.8534880221,2011-01-06 03:04:58,120.0607036402264,7,24,-1.099568486213684,3.9126298427581783,18.492520133328146,18.510072254327813,74.54466084928265,66.5914297750181,-0.000453233718872,0.10283113270998,0,0,0
6166,232023.86868087816,2011-01-06 03:05:28,150.0758965012801,7,24,-1.0997490882873535,3.8962793350219727,18.492520133328146,18.519241168617004,74.54466084928265,66.62722834090573,-0.0004532813909463,0.10283113270998,0,0,0
6167,232053.88385167925,2011-01-06 03:05:58,180.09106732240355,7,24,-1.0997490882873535,3.882033348083496,18.492520133328146,18.528410011287995,74.54466084928265,66.66288793364508,-0.0004209041653666,0.10283113270998,0,0,0
6168,232083.89921294,2011-01-06 03:06:28,210.10642858316112,7,24,-1.099568486213684,3.868920564651489,18.492520133328146,18.53757897789341,74.54466084928265,66.69842134847991,-0.0003237724304199,0.10283113270998,0,0,0
6169,232113.91416490567,2011-01-06 03:06:58,240.1213805187544,7,24,-1.0997490882873535,3.8561315536499023,18.492520133328146,18.54674786905977,74.54466084928265,66.73383591983053,-0.0003561496851034,0.10283113270998,0,0,0
6170,232143.9293673907,2011-01-06 03:07:28,270.13658302885653,7,24,-1.0997490882873535,3.844313859939575,18.492520133328146,18.555916748898788,74.54466084928265,66.76913840410067,-0.0003237724304199,0.10283113270998,0,0,0
6171,232173.9445351191,2011-01-06 03:07:58,300.15175075727194,7,24,-1.099929690361023,3.832658290863037,18.492520133328146,18.56508568238577,74.54466084928265,66.80433365679208,-0.0003561019839253,0.10283113270998,0,0,0
6172,232203.9596647175,2011-01-06 03:08:28,330.1668803556556,7,24,-1.0997490882873535,3.8218119144439697,18.492520133328146,18.57425459414071,74.54466084928265,66.83942551525399,-0.0002913951757363,0.10283113270998,0,0,0
6173,232233.974836491,2011-01-06 03:08:58,360.1820521040902,7,24,-1.099929690361023,3.8109655380249023,18.492520133328146,18.58342347356024,74.54466084928265,66.87441720107476,-0.0002266406954731,0.10283113270998,0,0,0
6174,232263.9902964377,2011-01-06 03:09:28,390.1975122813782,7,24,-1.099568486213684,3.800766706466675,18.492520133328146,18.592592412279107,74.54466084928265,66.90931193554029,-0.0002266406954731,0.10283113270998,0,0,0
6175,232294.0051781633,2011-01-06 03:09:58,420.212393776412,7,24,-1.099568486213684,3.790729761123657,18.492520133328146,18.601761226171863,74.54466084928265,66.94411309975182,-0.0002266406954731,0.10283113270998,0,0,0
6176,232324.02035950567,2011-01-06 03:10:28,450.22757512377,7,24,-1.0997490882873535,3.78101658821106,18.492520133328146,18.610930135845912,74.54466084928265,66.97882454732652,-0.0002266406954731,0.10283113270998,0,0,0
6177,232354.03552059253,2011-01-06 03:10:58,480.24273621063264,7,24,-1.0997490882873535,3.771789073944092,18.492520133328146,18.62009904397734,74.54466084928265,67.01344856036458,-0.0001618862152099,0.10283113270998,0,0,0
6178,232384.05299468915,2011-01-06 03:11:28,510.26021040747713,7,24,-1.0997490882873535,3.762399673461914,18.492520133328146,18.629268659480093,74.54466084928265,67.04799007838562,-0.0002266406954731,0.10283113270998,0,0,0
6179,232414.06807130043,2011-01-06 03:11:58,540.2752869486258,7,24,-1.0997490882873535,3.753657817840576,18.492520133328146,18.638437549141532,74.54466084928265,67.08244657381103,-0.0002266406954731,0.10283113270998,0,0,0
6180,232444.08106140656,2011-01-06 03:12:28,570.2882770246614,7,24,-1.099568486213684,3.7450780868530273,18.492520133328146,18.64760578626129,74.54466084928265,67.11682094967605,-0.0002266406954731,0.10283113270998,0,0,0
6181,232474.09636571532,2011-01-06 03:12:58,600.3035813485147,7,24,-1.0997490882873535,3.7364981174468994,18.492520133328146,18.65677474227127,74.54466084928265,67.15112038152827,-0.0002266406954731,0.10283113270998,0,0,0
6182,232504.1114229434,2011-01-06 03:13:28,630.3186385665042,7,24,-1.0997490882873535,3.728403806686402,18.492520133328146,18.665943663216176,74.54466084928265,67.18534369071443,-0.0002266406954731,0.10283113270998,0,0,0
6183,232534.1265595793,2011-01-06 03:13:58,660.33377522749,7,24,-1.0997490882873535,3.7206332683563232,18.492520133328146,18.67511257820995,74.54466084928265,67.21949344097484,-0.0002266406954731,0.10283113270998,0,0,0
6184,232564.14185712129,2011-01-06 03:14:28,690.3490727544032,7,24,-1.0997490882873535,3.712862730026245,18.492520133328146,18.684281579748045,74.54466084928265,67.25357163662468,-0.0001942634553415,0.10283113270998,0,0,0
6185,232594.15690102105,2011-01-06 03:14:58,720.3641166642246,7,24,-1.0997490882873535,3.705254077911377,18.492520133328146,18.693450455660244,74.54466084928265,67.28757866498356,-0.0001942634553415,0.10283113270998,0,0,0
6186,232624.1720959172,2011-01-06 03:15:28,750.379311555338,7,24,-1.099568486213684,3.697807312011719,18.492520133328146,18.70261943250357,74.54466084928265,67.3215172050823,-0.0001618862152099,0.10283113270998,0,0,0
6187,232654.18722796167,2011-01-06 03:15:59,780.3944436048306,7,24,-1.099568486213684,3.6905224323272714,18.492520133328146,18.71178831189314,74.54466084928265,67.35538836196493,-0.0001942634553415,0.10283113270998,0,0,0
6188,232684.20243030132,2011-01-06 03:16:29,810.4096459344829,7,24,-1.0997490882873535,3.683399438858032,18.492520133328146,18.72095718993689,74.54466084928265,67.38919340906732,-0.0001618862152099,0.10283113270998,0,0,0
6189,232714.217617378,2011-01-06 03:16:59,840.4248330061075,7,24,-1.0997490882873535,3.676276445388794,18.492520133328146,18.730126140004604,74.54466084928265,67.42293405381947,-0.0002266406954731,0.10283113270998,0,0,0
6190,232744.2328111864,2011-01-06 03:17:29,870.4400268145223,7,24,-1.0997490882873535,3.6696393489837646,18.492520133328146,18.739295162706085,74.54466084928265,67.45661113034706,-0.0001618862152099,0.10283113270998,0,0,0
6191,232774.2479632558,2011-01-06 03:17:59,900.4551788839108,7,24,-1.0993878841400146,3.663002014160156,18.492520133328146,18.748464066242217,74.54466084928265,67.49022520506004,-9.713172767078504e-05,0.10283113270998,0,0,0
6192,232804.2631410944,2011-01-06 03:18:29,930.470356722524,7,24,-1.0997490882873535,3.656202793121338,18.492520133328146,18.7576329928878,74.54466084928265,67.52377827348647,-0.0001618862152099,0.10283113270998,0,0,0
6193,232834.2783861255,2011-01-06 03:18:59,960.4856017536016,7,24,-1.099929690361023,3.6495654582977295,18.492520133328146,18.766801989868544,74.54466084928265,67.55727188943428,-0.0002266406954731,0.10283113270998,0,0,0
6194,232864.2935458038,2011-01-06 03:19:29,990.5007614620284,7,24,-1.0997490882873535,3.643413782119751,18.492520133328146,18.775970840280888,74.54466084928265,67.59070604346654,-0.0001295089750783,0.10283113270998,0,0,0
6195,232894.30867854503,2011-01-06 03:19:59,1020.5158941882077,7,24,-1.099568486213684,3.6371002197265625,18.492520133328146,18.785139715400973,74.54466084928265,67.62408238839184,-0.0001618862152099,0.10283113270998,0,0,0
6196,232924.3239617763,2011-01-06 03:20:29,1050.5311774094666,7,24,-1.0997490882873535,3.630786657333374,18.492520133328146,18.79430858210828,74.54466084928265,67.65740216611744,-0.0001942634553415,0.10283113270998,0,0,0
6197,232954.33900494428,2011-01-06 03:20:59,1080.5462205624017,7,24,-1.0997490882873535,3.6247968673706055,18.492520133328146,18.80347748611228,74.54466084928265,67.69066613898936,-0.0001618862152099,0.10283113270998,0,0,0
6198,232984.3541931137,2011-01-06 03:21:29,1110.5614087267495,7,24,-1.099568486213684,3.618968963623047,18.492520133328146,18.81264643482649,74.54466084928265,67.72387555954418,-0.0001618862152099,0.10283113270998,0,0,0
6199,233014.36935521304,2011-01-06 03:21:59,1140.5765708311485,7,24,-1.0997490882873535,3.613464832305908,18.492520133328146,18.82181538930367,74.54466084928265,67.75703175724303,-0.0001295089750783,0.10283113270998,0,0,0
6200,233044.38466235893,2011-01-06 03:22:29,1170.59187800711,7,24,-1.0997490882873535,3.6076369285583496,18.492520133328146,18.830984374379227,74.54466084928265,67.79013610595696,-0.0001618862152099,0.10283113270998,0,0,0
6201,233074.3997249854,2011-01-06 03:22:59,1200.6069406035042,7,24,-1.0997490882873535,3.602132797241211,18.492520133328146,18.84015320394864,74.54466084928265,67.82318899004878,-0.0001618862152099,0.10283113270998,0,0,0
6202,233104.4149049744,2011-01-06 03:23:29,1230.622120592477,7,24,-1.0997490882873535,3.5966286659240723,18.492520133328146,18.84932219897772,74.54466084928265,67.85619271317869,-0.0001942634553415,0.10283113270998,0,0,0
6203,233134.4322443903,2011-01-06 03:23:59,1260.639460023443,7,24,-1.0997490882873535,3.5916104316711426,18.492520133328146,18.85849184376334,74.54466084928265,67.88915003344376,-0.0001294612884521,0.10283113270998,0,0,0
6204,233164.44525610527,2011-01-06 03:24:29,1290.652471813597,7,24,-1.0997490882873535,3.586591958999634,18.492520133328146,18.867660177328563,74.54466084928265,67.92205544712313,-0.0001295089750783,0.10283113270998,0,0,0
6205,233194.46040360327,2011-01-06 03:24:59,1320.6676192213672,7,24,-1.099568486213684,3.581573486328125,18.492520133328146,18.87682905800374,74.54466084928265,67.954917213034,-9.713172767078504e-05,0.10283113270998,0,0,0
6206,233224.47559934648,2011-01-06 03:25:29,1350.6828149646042,7,24,-1.0997490882873535,3.576716899871826,18.492520133328146,18.885998059903407,74.54466084928265,67.98773500548705,-9.713172767078504e-05,0.10283113270998,0,0,0
6207,233254.4907618118,2011-01-06 03:25:59,1380.6979774349147,7,24,-1.0997490882873535,3.5720221996307373,18.492520133328146,18.89516703519864,74.54466084928265,68.02050923743965,-0.0001295089750783,0.10283113270998,0,0,0
6208,233284.50605796528,2011-01-06 03:26:29,1410.71327359843,7,24,-1.0997490882873535,3.5676512718200684,18.492520133328146,18.904336040851536,74.54466084928265,68.05324134322177,-0.0001295089750783,0.10283113270998,0,0,0
6209,233314.52112299777,2011-01-06 03:26:59,1440.7283386208703,7,24,-1.099568486213684,3.5632803440093994,18.492520133328146,18.913504991921705,74.54466084928265,68.08593187447342,-6.47544875391759e-05,0.10283113270998,0,0,0
6210,233344.5362973577,2011-01-06 03:27:29,1470.7435129758012,7,24,-1.099568486213684,3.5589094161987305,18.492520133328146,18.922673882900416,74.54466084928265,68.11858291220462,-9.713172767078504e-05,0.10283113270998,0,0,0
6211,233374.5514505048,2011-01-06 03:27:59,1500.7586661228754,7,24,-1.0997490882873535,3.5547003746032715,18.492520133328146,18.931842811220523,74.54466084928265,68.1511945125642,-6.47544875391759e-05,0.10283113270998,0,0,0
6212,233404.566623777,2011-01-06 03:28:29,1530.7738394001203,7,24,-1.099568486213684,3.5506532192230225,18.492520133328146,18.94101176099861,74.54466084928265,68.18376771198446,-6.47544875391759e-05,0.10283113270998,0,0,0
6213,233434.58180026725,2011-01-06 03:28:59,1560.7890158853606,7,24,-1.0997490882873535,3.5464441776275635,18.492520133328146,18.95018070104414,74.54466084928265,68.2163032150648,-0.0001295089750783,0.10283113270998,0,0,0
6214,233464.59701068205,2011-01-06 03:29:29,1590.8042263001637,7,24,-1.0997490882873535,3.5425589084625244,18.492520133328146,18.959349695735543,74.54466084928265,68.24880167431658,-3.237724376958795e-05,0.10283113270998,0,0,0
6215,233494.61217366369,2011-01-06 03:29:59,1620.8193892817485,7,24,-1.0997490882873535,3.538349866867065,18.492520133328146,18.968518633199203,74.54466084928265,68.2812631665833,-0.0001295089750783,0.10283113270998,0,0,0
6216,233524.62747327075,2011-01-06 03:30:29,1650.834688908896,7,24,-1.0997490882873535,3.5344645977020264,18.492520133328146,18.977687610063324,74.54466084928265,68.313687885364,-9.713172767078504e-05,0.10283113270998,0,0,0
6217,233554.64249716568,2011-01-06 03:30:59,1680.849712783784,7,24,-1.0997490882873535,3.5304174423217773,18.492520133328146,18.98685651358113,74.54466084928265,68.34607612761287,-9.713172767078504e-05,0.10283113270998,0,0,0
6218,233584.65769504424,2011-01-06 03:31:29,1710.864910682393,7,24,-1.099568486213684,3.5265321731567383,18.492520133328146,18.99602549409647,74.54466084928265,68.37842824461598,-6.47544875391759e-05,0.10283113270998,0,0,0
6219,233614.6728502013,2011-01-06 03:31:59,1740.8800658194268,7,24,-1.099568486213684,3.5224850177764893,18.492520133328146,19.00519445848664,74.54466084928265,68.41074422272267,-0.0001295089750783,0.10283113270998,0,0,0
6220,233644.68828054925,2011-01-06 03:32:29,1770.8954962124833,7,24,-1.099929690361023,3.51859974861145,18.492520133328146,19.014363700719795,74.54466084928265,68.44302501425081,-9.713172767078504e-05,0.10283113270998,0,0,0
6221,233674.7032115226,2011-01-06 03:32:59,1800.9104272359573,7,24,-1.099929690361023,3.514390707015991,18.492520133328146,19.02353338447042,74.54466084928265,68.47527024275131,-0.0001618862152099,0.10283113270998,0,0,0
6222,233704.718540929,2011-01-06 03:33:29,1830.925756567137,7,24,-1.0993878841400146,3.510667562484741,18.492520133328146,19.03270299114423,74.54466084928265,68.50747824566919,-9.713172767078504e-05,0.10283113270998,0,0,0
6223,233734.7335983725,2011-01-06 03:33:59,1860.9408140157009,7,24,-1.0997490882873535,3.5062966346740723,18.492520133328146,19.041871975715384,74.54466084928265,68.53964672274532,-0.0001295089750783,0.10283113270998,0,0,0
6224,233764.74914817812,2011-01-06 03:34:29,1890.9563638364075,7,24,-1.0997490882873535,3.5020875930786133,18.492520133328146,19.05104109672559,74.54466084928265,68.57177730160399,-0.0001295089750783,0.10283113270998,0,0,0
6225,233794.7639471225,2011-01-06 03:34:59,1920.971162750625,7,24,-1.0997490882873535,3.4978785514831543,18.492520133328146,19.060209996570418,74.54466084928265,68.60386796369079,-9.713172767078504e-05,0.10283113270998,0,0,0
6226,233824.77914115143,2011-01-06 03:35:29,1950.986356769564,7,24,-1.099568486213684,3.4933457374572754,18.492520133328146,19.06937909926281,74.54466084928265,68.6359191361267,-9.713172767078504e-05,0.10283113270998,0,0,0
6227,233854.7942815267,2011-01-06 03:35:59,1981.0014971498192,7,24,-1.0997490882873535,3.4888129234313965,18.492520133328146,19.078548095876585,74.54466084928265,68.66792828458591,-9.713172767078504e-05,0.10283113270998,0,0,0
6228,233884.80959531915,2011-01-06 03:36:29,2011.0168109573087,7,24,-1.0997490882873535,3.483794450759888,18.492520133328146,19.087717224432144,74.54466084928265,68.6998944640758,-0.0001618862152099,0.10283113270998,0,0,0
6229,233914.8246343067,2011-01-06 03:36:59,2041.031849949875,7,24,-1.0997490882873535,3.478775978088379,18.492520133328146,19.09688623058797,74.54466084928265,68.73181474768201,-0.0001295089750783,0.10283113270998,0,0,0
6230,233944.83923798436,2011-01-06 03:37:29,2071.046453296678,7,24,-1.0997490882873535,3.47327184677124,18.492520133328146,19.106055026214964,74.54466084928265,68.7636861269173,-0.0001618862152099,0.10283113270998,0,0,0
6231,233974.83958203252,2011-01-06 03:37:59,2101.046797670733,7,24,-1.099568486213684,3.467605829238892,18.492520133328146,19.115219514551235,74.54466084928265,68.79549125443037,-0.0001618862152099,0.10283113270998,0,0,0
6232,234004.85454811345,2011-01-06 03:38:29,2131.0617637265186,7,24,-1.099568486213684,3.461292266845703,18.492520133328146,19.124388495734163,74.54466084928265,68.82725677237778,-0.0001942634553415,0.10283113270998,0,0,0
6233,234034.8698325527,2011-01-06 03:38:59,2161.0770483613005,7,24,-1.0997490882873535,3.454331159591675,18.492520133328146,19.13355753554988,74.54466084928265,68.85896171644963,-0.0001942634553415,0.10283113270998,0,0,0
6234,234064.88488986093,2011-01-06 03:39:29,2191.0921054840524,7,24,-1.099929690361023,3.4463987350463867,18.492520133328146,19.142726523731803,74.54466084928265,68.89059896192825,-0.0002590179501567,0.10283113270998,0,0,0
6235,234094.90024616936,2011-01-06 03:39:59,2221.1074618024923,7,24,-1.099929690361023,3.437333106994629,18.492520133328146,19.15189559741897,74.54466084928265,68.92215934997387,-0.0002913951757363,0.10283113270998,0,0,0
6236,234124.9152527712,2011-01-06 03:40:29,2251.1224683892933,7,24,-1.0997490882873535,3.4269726276397705,18.492520133328146,19.16106466905217,74.54466084928265,68.95363070561713,-0.0002913951757363,0.10283113270998,0,0,0
6237,234154.9304570958,2011-01-06 03:40:59,2281.13767271893,7,24,-1.099568486213684,3.4145073890686035,18.492520133328146,19.17023377642554,74.54466084928265,68.98499738272007,-0.0003561496851034,0.10283113270998,0,0,0
6238,234184.94563141567,2011-01-06 03:41:29,2311.152847033761,7,24,-1.0997490882873535,3.399613857269287,18.492520133328146,19.179402827991463,74.54466084928265,69.016239112543,-0.0004209041653666,0.10283113270998,0,0,0
6239,234214.9610126713,2011-01-06 03:41:59,2341.168228294365,7,24,-1.0997490882873535,3.381158828735352,18.492520133328146,19.188571882081373,74.54466084928265,69.04732880724566,-0.0005504131549969,0.10283113270998,0,0,0
6240,234244.97600722304,2011-01-06 03:42:29,2371.183222836146,7,24,-1.099568486213684,3.358170986175537,18.492520133328146,19.19774086293179,74.54466084928265,69.07822902553617,-0.0006475448608398,0.10283113270998,0,0,0
6241,234274.991138666,2011-01-06 03:42:59,2401.198354284139,7,24,-1.0997490882873535,3.3283841609954834,18.492520133328146,19.20690984209048,74.54466084928265,69.1088891907998,-0.0008741855854168,0.10283113270998,0,0,0
6242,234305.00633448947,2011-01-06 03:43:29,2431.213550107576,7,24,-1.0997490882873535,3.2895314693450928,18.492520133328146,19.21607885303426,74.54466084928265,69.1392373790796,-0.0011332035064697,0.10283113270998,0,0,0
6243,234335.02366220625,2011-01-06 03:43:59,2461.2308778293595,7,24,-1.0997490882873535,3.2370805740356445,18.492520133328146,19.225248501363065,74.54466084928265,69.16917302681084,-0.0015864849556237,0.10283113270998,0,0,0
6244,234365.03836954723,2011-01-06 03:44:29,2491.245585170348,7,24,-1.0997490882873535,3.164717674255371,18.492520133328146,19.23441732205715,74.54466084928265,69.19854138112615,-0.0022664070129394,0.10283113270998,0,0,0
6245,234395.0518822007,2011-01-06 03:44:59,2521.259097823807,7,24,-1.099568486213684,3.059977531433105,18.492520133328146,19.24358581862854,74.54466084928265,69.22710888133504,-0.0033024786971509,0.10283113270998,0,0,0
6246,234425.0670232376,2011-01-06 03:45:29,2551.2742388556867,7,24,-1.099929690361023,2.893235206604004,18.492520133328146,19.25275489794323,74.54466084928265,69.25446680955118,-0.0054717538878321,0.10283113270998,0,0,0
6247,234449.22290894235,2011-01-06 03:45:54,2575.430124565456,7,24,-1.0997490882873535,2.699781894683838,18.492520133328146,19.26013405018033,74.54466084928265,69.27512504167174,-0.006799173541367,0.10283113270998,0,0,0
6248,234509.2373023432,2011-01-06 03:46:54,60.014726669931214,8,24,0.0,3.500306844711304,18.492520133328146,19.26013405018033,74.54466084928265,69.27512504167174,0.0013922214275225,0.10283113270998,0,0,0
6249,234509.42542429868,2011-01-06 03:46:54,0.187563856843209,9,24,-1.9243103452026844e-05,3.500306844711304,18.492520133328146,19.26013405118292,74.54466084928265,69.2751250451811,0.0,0.0995923578739166,0,0,0
6250,234514.25348091632,2011-01-06 03:46:59,5.015620469477775,9,24,0.0005225847125984,3.5087249279022217,18.49252089459152,19.260134051349205,74.54466351772938,69.27512504576315,0.0011979580158367,0.0995923578739166,0,0,0
