Data_Point,Test_Time(s),Date_Time,Step_Time(s),Step_Index,Cycle_Index,Current(A),Voltage(V),Charge_Capacity(Ah),Discharge_Capacity(Ah),Charge_Energy(Wh),Discharge_Energy(Wh),dV/dt(V/s),Internal_Resistance(Ohm),Is_FC_Data,AC_Impedance(Ohm),ACI_Phase_Angle(Deg)
8238,313233.2740389219,2011-01-07 01:39:08,30.01511730775163,1,33,0.0,3.601323366165161,24.55290163120728,25.28280491299933,99.0901771006571,90.73396728210426,0.0006151676061563,0.1005837768316268,0,0,0
8239,313263.28918894625,2011-01-07 01:39:38,60.03026733204294,1,33,0.0,3.621073484420776,24.55290163120728,25.28280491299933,99.0901771006571,90.73396728210426,0.0004209041653666,0.1005837768316268,0,0,0
8240,313293.30430291063,2011-01-07 01:40:08,90.04538138167432,1,33,0.0,3.634833812713623,24.55290163120728,25.28280491299933,99.0901771006571,90.73396728210426,0.0002913951757363,0.1005837768316268,0,0,0
8241,313323.2725059837,2011-01-07 01:40:38,120.01358436449304,1,33,0.0,3.6456801891326895,24.55290163120728,25.28280491299933,99.0901771006571,90.73396728210426,0.0002913951757363,0.1005837768316268,0,0,0
8242,313353.2787948056,2011-01-07 01:41:08,30.01517296145779,2,33,0.5499359965324402,3.769522666931152,24.557488063256432,25.28280491299933,99.10737431918317,90.73396728210426,0.0008094310760498,0.1005837768316268,0,0,0
8243,313383.2938743241,2011-01-07 01:41:38,60.030252475014656,2,33,0.5501165986061096,3.792510509490967,24.56207448897124,25.28280491299933,99.12472123632044,90.73396728210426,0.0004532813909463,0.1005837768316268,0,0,0
8244,313413.3093244364,2011-01-07 01:42:08,90.04570259222986,2,33,0.5501165986061096,3.8067564964294434,24.56666096455432,25.28280491299933,99.14215069210852,90.73396728210426,0.0002590179501567,0.1005837768316268,0,0,0
8245,313443.32406423823,2011-01-07 01:42:38,120.06044229888336,2,33,0.5497553944587708,3.816793441772461,24.57124727940761,25.28280491299933,99.15963389672515,90.73396728210426,0.0002590179501567,0.1005837768316268,0,0,0
8246,313473.3391756463,2011-01-07 01:43:08,150.07555370693112,2,33,0.5501165986061096,3.825535297393799,24.57583364172784,25.28280491299933,99.17715993578608,90.73396728210426,0.0001942634553415,0.1005837768316268,0,0,0
8247,313503.35439543443,2011-01-07 01:43:38,180.09077351514543,2,33,0.5501165986061096,3.833143949508667,24.58042001307663,25.28280491299933,99.19472291772227,90.73396728210426,0.0002266406954731,0.1005837768316268,0,0,0
8248,313533.36958870146,2011-01-07 01:44:08,210.10596677719852,2,33,0.5501165986061096,3.840266704559326,24.58500635285049,25.28280491299933,99.21231940263742,90.73396728210426,0.0001942634553415,0.1005837768316268,0,0,0
8249,313563.38454236137,2011-01-07 01:44:38,240.1209204270644,2,33,0.5499359965324402,3.8467421531677246,24.589592724123012,25.28280491299933,99.2299472462624,90.73396728210426,0.0001618862152099,0.1005837768316268,0,0,0
8250,313593.3997985703,2011-01-07 01:45:08,270.13617666106296,2,33,0.5501165986061096,3.853217601776123,24.59417905028545,25.28280491299933,99.24760438004864,90.73396728210426,0.0001942634553415,0.1005837768316268,0,0,0
8251,313623.414774611,2011-01-07 01:45:38,300.1511526816836,2,33,0.5501165986061096,3.858883619308472,24.59876534557904,25.28280491299933,99.2652891067814,90.73396728210426,0.0001618862152099,0.1005837768316268,0,0,0
8252,313653.42989022454,2011-01-07 01:46:08,330.1662682851877,2,33,0.5501165986061096,3.86454963684082,24.603351659789617,25.28280491299933,99.2830002867779,90.73396728210426,0.0001618862152099,0.1005837768316268,0,0,0
8253,313683.44500636944,2011-01-07 01:46:38,360.1813844350536,2,33,0.5501165986061096,3.869891881942749,24.60793805632052,25.28280491299933,99.3007369156986,90.73396728210426,0.0001295089750783,0.1005837768316268,0,0,0
8254,313713.46027264843,2011-01-07 01:47:08,390.1966507291249,2,33,0.5499359965324402,3.875072240829468,24.612524417512912,25.28280491299933,99.3184976039142,90.73396728210426,0.0001618862152099,0.1005837768316268,0,0,0
8255,313743.47524940583,2011-01-07 01:47:38,420.2116274915944,2,33,0.5499359965324402,3.880090713500977,24.617110795895776,25.28280491299933,99.3362816475214,90.73396728210426,0.0001618862152099,0.1005837768316268,0,0,0
8256,313773.49032531044,2011-01-07 01:48:08,450.22670336608167,2,33,0.5501165986061096,3.8849472999572754,24.621697159862777,25.28280491299933,99.3540883230494,90.73396728210426,9.713172767078504e-05,0.1005837768316268,0,0,0
8257,313803.505438127,2011-01-07 01:48:38,480.2418161876523,2,33,0.5501165986061096,3.889803886413574,24.62628352164769,25.28280491299933,99.37191685195742,90.73396728210426,0.0001295089750783,0.1005837768316268,0,0,0
8258,313833.52078738785,2011-01-07 01:49:08,510.25716547857735,2,33,0.5504778623580933,3.894336700439453,24.63087001501615,25.28280491299933,99.38976722717248,90.73396728210426,0.0001295089750783,0.1005837768316268,0,0,0
8259,313863.53567941417,2011-01-07 01:49:38,540.2720574747833,2,33,0.5501165986061096,3.898707628250122,24.63545639300216,25.28280491299933,99.40763740425172,90.73396728210426,0.0001295089750783,0.1005837768316268,0,0,0
8260,313893.5507914488,2011-01-07 01:50:08,570.2871695093927,2,33,0.5501165986061096,3.902916669845581,24.64004281241449,25.28280491299933,99.42552766739423,90.73396728210426,0.0001295089750783,0.1005837768316268,0,0,0
8261,313923.5659056989,2011-01-07 01:50:38,600.3022837595238,2,33,0.5501165986061096,3.90712571144104,24.644629269084017,25.28280491299933,99.44343734750652,90.73396728210426,0.0001618862152099,0.1005837768316268,0,0,0
8262,313953.58329761063,2011-01-07 01:51:08,630.3196756763009,2,33,0.5501165986061096,3.911010980606079,24.649215993641803,25.28280491299933,99.4613666714978,90.73396728210426,0.0001295089750783,0.1005837768316268,0,0,0
8263,313983.598594917,2011-01-07 01:51:38,660.3349730979519,2,33,0.5501165986061096,3.914572238922119,24.65380238057685,25.28280491299933,99.47931245667206,90.73396728210426,9.713172767078504e-05,0.1005837768316268,0,0,0
8264,314013.6113195916,2011-01-07 01:52:08,690.3476977424504,2,33,0.5499359965324402,3.918295621871948,24.65838841692578,25.28280491299933,99.49727371315429,90.73396728210426,9.713172767078504e-05,0.1005837768316268,0,0,0
8265,314043.6263645791,2011-01-07 01:52:38,720.3627426397329,2,33,0.5497553944587708,3.921533346176148,24.662974888540365,25.28280491299933,99.515252874146,90.73396728210426,3.237724376958795e-05,0.1005837768316268,0,0,0
8266,314073.6415081222,2011-01-07 01:53:08,750.3778861828712,2,33,0.5499359965324402,3.925094842910767,24.667561283796488,25.28280491299933,99.53324716737228,90.73396728210426,9.713172767078504e-05,0.1005837768316268,0,0,0
8267,314103.6565963124,2011-01-07 01:53:38,780.3929743830778,2,33,0.5499359965324402,3.928008794784546,24.672147719157877,25.28280491299933,99.55125631840228,90.73396728210426,3.237724376958795e-05,0.1005837768316268,0,0,0
8268,314133.67172881804,2011-01-07 01:54:08,810.4081068887072,2,33,0.5501165986061096,3.931246519088745,24.67673410276631,25.28280491299933,99.56927930945596,90.73396728210426,9.713172767078504e-05,0.1005837768316268,0,0,0
8269,314163.6868614139,2011-01-07 01:54:38,840.4232394995989,2,33,0.5501165986061096,3.934160470962525,24.68132055626026,25.28280491299933,99.58731610044792,90.73396728210426,9.713172767078504e-05,0.1005837768316268,0,0,0
8270,314193.7019592481,2011-01-07 01:55:08,870.4383373137665,2,33,0.550297200679779,3.9369125366210938,24.68590699820533,25.28280491299933,99.60536580090076,90.73396728210426,0.0001295089750783,0.1005837768316268,0,0,0
8271,314223.7171890462,2011-01-07 01:55:39,900.4535671269164,2,33,0.5501165986061096,3.939502716064453,24.690493439157283,25.28280491299933,99.62342817325252,90.73396728210426,6.47544875391759e-05,0.1005837768316268,0,0,0
8272,314253.73224070034,2011-01-07 01:56:09,930.4686187660014,2,33,0.5501165986061096,3.9422547817230233,24.69507986051511,25.28280491299933,99.64150282680885,90.73396728210426,6.47544875391759e-05,0.1005837768316268,0,0,0
8273,314283.7472865751,2011-01-07 01:56:39,960.4836646357076,2,33,0.550297200679779,3.945006847381592,24.6996662502237,25.28280491299933,99.65958939812428,90.73396728210426,9.713172767078504e-05,0.1005837768316268,0,0,0
8274,314313.76242829364,2011-01-07 01:57:09,990.498806349286,2,33,0.5499359965324402,3.9472732543945312,24.704252765728945,25.28280491299933,99.6776882956628,90.73396728210426,3.237724376958795e-05,0.1005837768316268,0,0,0
8275,314343.7776697859,2011-01-07 01:57:39,1020.5140478615936,2,33,0.5501165986061096,3.94986343383789,24.708839228070417,25.28280491299933,99.6957985310094,90.73396728210426,6.47544875391759e-05,0.1005837768316268,0,0,0
8276,314373.792712588,2011-01-07 01:58:09,1050.5290906536293,2,33,0.550297200679779,3.95261549949646,24.71342567568721,25.28280491299933,99.71392020499954,90.73396728210426,0.0001295089750783,0.1005837768316268,0,0,0
8277,314403.8078718954,2011-01-07 01:58:39,1080.5442499710816,2,33,0.5501165986061096,3.9547200202941895,24.71801208365604,25.28280491299933,99.7320531124761,90.73396728210426,6.47544875391759e-05,0.1005837768316268,0,0,0
8278,314433.82287506363,2011-01-07 01:59:09,1110.5592531293378,2,33,0.550297200679779,3.957310199737549,24.72259849513009,25.28280491299933,99.75019731799986,90.73396728210426,6.47544875391759e-05,0.1005837768316268,0,0,0
8279,314463.83810377406,2011-01-07 01:59:39,1140.574481849764,2,33,0.550297200679779,3.959738492965698,24.727184934736663,25.28280491299933,99.76835275869288,90.73396728210426,6.47544875391759e-05,0.1005837768316268,0,0,0
8280,314493.8532268111,2011-01-07 02:00:09,1170.589604906845,2,33,0.5501165986061096,3.962166786193848,24.73177139416721,25.28280491299933,99.7865193999268,90.73396728210426,6.47544875391759e-05,0.1005837768316268,0,0,0
8281,314523.8682091525,2011-01-07 02:00:39,1200.6045872181437,2,33,0.5501165986061096,3.964595079421997,24.73635784732994,25.28280491299933,99.80469700266572,90.73396728210426,3.237724376958795e-05,0.1005837768316268,0,0,0
8282,314553.8834675068,2011-01-07 02:01:09,1230.619845587464,2,33,0.5501165986061096,3.9670233726501465,24.740944309805563,25.28280491299933,99.8228856448503,90.73396728210426,6.47544875391759e-05,0.1005837768316268,0,0,0
8283,314583.8984512767,2011-01-07 02:01:39,1260.6348293373485,2,33,0.5501165986061096,3.969289779663086,24.7455308085927,25.28280491299933,99.84108525444762,90.73396728210426,6.47544875391759e-05,0.1005837768316268,0,0,0
8284,314613.91355505073,2011-01-07 02:02:09,1290.6499331063574,2,33,0.5501165986061096,3.9715561866760254,24.750117272641237,25.28280491299933,99.85929557302636,90.73396728210426,6.47544875391759e-05,0.1005837768316268,0,0,0
8285,314643.92867498,2011-01-07 02:02:39,1320.6650530356428,2,33,0.5499359965324402,3.973822593688965,24.754703759574024,25.28280491299933,99.87751667831397,90.73396728210426,3.237724376958795e-05,0.1005837768316268,0,0,0
8286,314673.94379529025,2011-01-07 02:03:09,1350.6801733508898,2,33,0.5501165986061096,3.976250886917114,24.75929021365377,25.28280491299933,99.8957482329663,90.73396728210426,9.713172767078504e-05,0.1005837768316268,0,0,0
8287,314703.96103491244,2011-01-07 02:03:39,1380.6974129831272,2,33,0.5501165986061096,3.978355407714844,24.763877108728824,25.28280491299933,99.91399174970988,90.73396728210426,9.713172767078504e-05,0.1005837768316268,0,0,0
8288,314733.9740261313,2011-01-07 02:04:09,1410.7104041969983,2,33,0.5501165986061096,3.980945587158203,24.76846315362379,25.28280491299933,99.93224264649712,90.73396728210426,6.47544875391759e-05,0.1005837768316268,0,0,0
8289,314763.9891226222,2011-01-07 02:04:39,1440.7255006828557,2,33,0.5501165986061096,3.9830501079559326,24.773049795459578,25.28280491299933,99.9505064314308,90.73396728210426,3.237724376958795e-05,0.1005837768316268,0,0,0
8290,314794.0044737928,2011-01-07 02:05:09,1470.740851858478,2,33,0.550297200679779,3.985478401184082,24.77763693707101,25.28280491299933,99.96878269567792,90.73396728210426,6.47544875391759e-05,0.1005837768316268,0,0,0
8291,314824.0194406707,2011-01-07 02:05:39,1500.755818726287,2,33,0.5501165986061096,3.987582921981812,24.7822240661436,25.28280491299933,99.98706934818746,90.73396728210426,6.47544875391759e-05,0.1005837768316268,0,0,0
8292,314854.0346218927,2011-01-07 02:06:09,1530.7710000786576,2,33,0.5499359965324402,3.989849328994751,24.786811192336483,25.28280491299933,100.00536616958968,90.73396728210426,6.47544875391759e-05,0.1005837768316268,0,0,0
8293,314884.04959824914,2011-01-07 02:06:39,1560.7859763047904,2,33,0.550297200679779,3.992277622222901,24.7913980616235,25.28280491299933,100.02367228063557,90.73396728210426,9.713172767078504e-05,0.1005837768316268,0,0,0
8294,314914.0647253764,2011-01-07 02:07:09,1590.8011034420404,2,33,0.5499359965324402,3.994220018386841,24.79598445783644,25.28280491299933,100.04198667674603,90.73396728210426,3.237724376958795e-05,0.1005837768316268,0,0,0
8295,314944.0798304586,2011-01-07 02:07:39,1620.8162085142972,2,33,0.5501165986061096,3.99648642539978,24.800570902043862,25.28280491299933,100.06031147380746,90.73396728210426,6.47544875391759e-05,0.1005837768316268,0,0,0
8296,314974.09493261366,2011-01-07 02:08:09,1650.831310684321,2,33,0.5501165986061096,3.9985909461975098,24.80515728425156,25.28280491299933,100.07864625534836,90.73396728210426,0.0,0.1005837768316268,0,0,0
8297,315004.1100942168,2011-01-07 02:08:39,1680.8464722724327,2,33,0.5501165986061096,4.001019477844238,24.80974363929636,25.28280491299933,100.09699108094598,90.73396728210426,6.47544875391759e-05,0.1005837768316268,0,0,0
8298,315034.12519470265,2011-01-07 02:09:09,1710.8615727933466,2,33,0.5501165986061096,4.003285884857178,24.81432994426624,25.28280491299933,100.11534593985012,90.73396728210426,6.47544875391759e-05,0.1005837768316268,0,0,0
8299,315064.1402911985,2011-01-07 02:09:39,1740.8766692691786,2,33,0.5501165986061096,4.005390167236328,24.818916299244865,25.28280491299933,100.13371113905608,90.73396728210426,3.23295607813634e-05,0.1005837768316268,0,0,0
8300,315094.15540095244,2011-01-07 02:10:09,1770.8917790180913,2,33,0.5499359965324402,4.007494926452637,24.82350264920273,25.28280491299933,100.15208653857404,90.73396728210426,3.24249267578125e-05,0.1005837768316268,0,0,0
8301,315124.17062883073,2011-01-07 02:10:39,1800.9070069866436,2,33,0.5501165986061096,4.009761333465576,24.828088493420317,25.28280491299933,100.17046990275178,90.73396728210426,6.47544875391759e-05,0.1005837768316268,0,0,0
8302,315154.1856638284,2011-01-07 02:11:09,1830.922041889016,2,33,0.5499359965324402,4.012027740478516,24.832674009742583,25.28280491299933,100.188862023949,90.73396728210426,6.47544875391759e-05,0.1005837768316268,0,0,0
8303,315184.20116428606,2011-01-07 02:11:39,1860.9375424469447,2,33,0.5499359965324402,4.014294147491455,24.837260126852826,25.28280491299933,100.20726686000742,90.73396728210426,6.47544875391759e-05,0.1005837768316268,0,0,0
8304,315214.21604609187,2011-01-07 02:12:09,1890.9524241775653,2,33,0.5499359965324402,4.016236782073975,24.84184634607597,25.28280491299933,100.22568235183188,90.73396728210426,-3.23295607813634e-05,0.1005837768316268,0,0,0
8305,315244.2311279964,2011-01-07 02:12:39,1920.9675060520065,2,33,0.550297200679779,4.018664836883545,24.846432682301128,25.28280491299933,100.24410858867228,90.73396728210426,3.23295607813634e-05,0.1005837768316268,0,0,0
8306,315274.2461412999,2011-01-07 02:13:09,1950.9825193856225,2,33,0.550297200679779,4.021255016326904,24.85101902476033,25.28280491299933,100.26254507866189,90.73396728210426,9.70840483205393e-05,0.1005837768316268,0,0,0
8307,315304.2613486571,2011-01-07 02:13:39,1980.9977267177424,2,33,0.5501165986061096,4.023197650909424,24.85560536216522,25.28280491299933,100.28099210824904,90.73396728210426,6.47544875391759e-05,0.1005837768316268,0,0,0
8308,315334.2767424239,2011-01-07 02:14:09,2011.0131205045648,2,33,0.5499359965324402,4.025626182556152,24.860191766606658,25.28280491299933,100.29944987286896,90.73396728210426,9.71794142969884e-05,0.1005837768316268,0,0,0
8309,315364.2915997637,2011-01-07 02:14:39,2041.0279778644467,2,33,0.5499359965324402,4.027892589569092,24.86477807183181,25.28280491299933,100.31791778716726,90.73396728210426,6.47544875391759e-05,0.1005837768316268,0,0,0
8310,315394.3065969671,2011-01-07 02:15:09,2071.042975032774,2,33,0.5501165986061096,4.030320644378662,24.869364401645687,25.28280491299933,100.3363964324647,90.73396728210426,9.70840483205393e-05,0.1005837768316268,0,0,0
8311,315424.3217064303,2011-01-07 02:15:39,2101.058084500987,2,33,0.5501165986061096,4.032587051391602,24.87395065313456,25.28280491299933,100.35488551292528,90.73396728210426,6.47544875391759e-05,0.1005837768316268,0,0,0
8312,315454.33693482494,2011-01-07 02:16:09,2131.073312895601,2,33,0.5499359965324402,4.034853458404541,24.87853694205108,25.28280491299933,100.37338556102232,90.73396728210426,3.24249267578125e-05,0.1005837768316268,0,0,0
8313,315484.3519192064,2011-01-07 02:16:39,2161.0882972670347,2,33,0.5499359965324402,4.037281513214111,24.883123265880936,25.28280491299933,100.39189659707051,90.73396728210426,3.23295607813634e-05,0.1005837768316268,0,0,0
8314,315514.3670554213,2011-01-07 02:17:09,2191.103433506971,2,33,0.5501165986061096,4.03971004486084,24.887709569015925,25.28280491299933,100.4104185084098,90.73396728210426,9.71794142969884e-05,0.1005837768316268,0,0,0
8315,315544.3821017521,2011-01-07 02:17:39,2221.118479812764,2,33,0.5501165986061096,4.04213809967041,24.892295866491903,25.28280491299933,100.4289513476951,90.73396728210426,6.47544875391759e-05,0.1005837768316268,0,0,0
8316,315574.3973789283,2011-01-07 02:18:09,2251.133757029057,2,33,0.550297200679779,4.0447282791137695,24.896882147341987,25.28280491299933,100.44749533564747,90.73396728210426,9.70840483205393e-05,0.1005837768316268,0,0,0
8317,315604.4123484026,2011-01-07 02:18:39,2281.148726488325,2,33,0.5501165986061096,4.047156810760498,24.90146838131187,25.28280491299933,100.4660503871256,90.73396728210426,9.71794142969884e-05,0.1005837768316268,0,0,0
8318,315634.42749924393,2011-01-07 02:19:09,2311.163877349702,2,33,0.5501165986061096,4.049584865570068,24.906054680556423,25.28280491299933,100.48461713680008,90.73396728210426,9.70840483205393e-05,0.1005837768316268,0,0,0
8319,315664.4425844015,2011-01-07 02:19:39,2341.178962477251,2,33,0.5501165986061096,4.052175045013428,24.910641052160585,25.28280491299933,100.50319563847964,90.73396728210426,9.70840483205393e-05,0.1005837768316268,0,0,0
8320,315694.45782815444,2011-01-07 02:20:09,2371.19420622513,2,33,0.5499359965324402,4.054603576660156,24.91522739699121,25.28280491299933,100.52178561772888,90.73396728210426,6.47544875391759e-05,0.1005837768316268,0,0,0
8321,315724.4728197188,2011-01-07 02:20:39,2401.2091977794657,2,33,0.5501165986061096,4.057193756103516,24.91981377616664,25.28280491299933,100.54038755052086,90.73396728210426,9.71794142969884e-05,0.1005837768316268,0,0,0
8322,315754.4881635862,2011-01-07 02:21:09,2431.224541656899,2,33,0.5501165986061096,4.059783935546875,24.92440009972721,25.28280491299933,100.55900121298788,90.73396728210426,6.47544875391759e-05,0.1005837768316268,0,0,0
8323,315784.50306098093,2011-01-07 02:21:39,2461.239439051559,2,33,0.5501165986061096,4.062374114990234,24.928986412355183,25.28280491299933,100.57762655028095,90.73396728210426,6.47544875391759e-05,0.1005837768316268,0,0,0
8324,315814.5182984531,2011-01-07 02:22:09,2491.2546765288103,2,33,0.5501165986061096,4.065288066864014,24.93357269677624,25.28280491299933,100.59626392362888,90.73396728210426,9.71794142969884e-05,0.1005837768316268,0,0,0
8325,315844.5333703327,2011-01-07 02:22:39,2521.269748418365,2,33,0.5499359965324402,4.067716121673584,24.938158928240963,25.28280491299933,100.61491328727402,90.73396728210426,9.70840483205393e-05,0.1005837768316268,0,0,0
8326,315874.55061034585,2011-01-07 02:23:09,2551.28698842654,2,33,0.5501165986061096,4.070468425750732,24.9427455156622,25.28280491299933,100.63357651908449,90.73396728210426,6.47544875391759e-05,0.1005837768316268,0,0,0
8327,315904.56552917894,2011-01-07 02:23:39,2581.301907339832,2,33,0.5499359965324402,4.073220252990723,24.94733173297818,25.28280491299933,100.65225056200336,90.73396728210426,9.70840483205393e-05,0.1005837768316268,0,0,0
8328,315934.57875960896,2011-01-07 02:24:09,2611.315137709754,2,33,0.5499359965324402,4.075810432434082,24.9519177320154,25.28280491299933,100.67093637099067,90.73396728210426,6.47544875391759e-05,0.1005837768316268,0,0,0
8329,315964.5936838356,2011-01-07 02:24:39,2641.330061891175,2,33,0.5499359965324402,4.078724384307861,24.95650396069506,25.28280491299933,100.68963579677246,90.73396728210426,9.70840483205393e-05,0.1005837768316268,0,0,0
8330,315994.60889469646,2011-01-07 02:25:09,2671.3452727871777,2,33,0.5501165986061096,4.081314563751221,24.961090300220107,25.28280491299933,100.70834853655904,90.73396728210426,3.23295607813634e-05,0.1005837768316268,0,0,0
8331,316024.62398007466,2011-01-07 02:25:39,2701.360358160338,2,33,0.5501165986061096,4.084390640258789,24.96567653810408,25.28280491299933,100.727073683976,90.73396728210426,9.71794142969884e-05,0.1005837768316268,0,0,0
8332,316054.63911605894,2011-01-07 02:26:09,2731.3754941446377,2,33,0.5501165986061096,4.087304592132568,24.970262829109373,25.28280491299933,100.74581223006945,90.73396728210426,9.71794142969884e-05,0.1005837768316268,0,0,0
8333,316084.6542102491,2011-01-07 02:26:39,2761.390588319736,2,33,0.5501165986061096,4.090056419372559,24.97484906069758,25.28280491299933,100.76456371729375,90.73396728210426,9.70840483205393e-05,0.1005837768316268,0,0,0
8334,316114.6693439527,2011-01-07 02:27:09,2791.405722008313,2,33,0.5501165986061096,4.092970371246338,24.97943534387149,25.28280491299933,100.78332872297686,90.73396728210426,6.47544875391759e-05,0.1005837768316268,0,0,0
8335,316144.6844391353,2011-01-07 02:27:40,2821.420817236034,2,33,0.5499359965324402,4.096046447753906,24.98402156476674,25.28280491299933,100.80210688904572,90.73396728210426,6.47544875391759e-05,0.1005837768316268,0,0,0
8336,316174.6996801564,2011-01-07 02:28:10,2851.436058227043,2,33,0.5501165986061096,4.0989603996276855,24.988607854135385,25.28280491299933,100.82089897718686,90.73396728210426,6.47544875391759e-05,0.1005837768316268,0,0,0
8337,316204.71467820695,2011-01-07 02:28:40,2881.451056262531,2,33,0.5501165986061096,4.102198123931885,24.99319414590829,25.28280491299933,100.83970487925282,90.73396728210426,0.0001295089750783,0.1005837768316268,0,0,0
8338,316234.7298122313,2011-01-07 02:29:10,2911.466190382183,2,33,0.5501165986061096,4.105112075805664,24.99778044592503,25.28280491299933,100.85852456396223,90.73396728210426,9.71794142969884e-05,0.1005837768316268,0,0,0
8339,316264.7450848712,2011-01-07 02:29:40,2941.481462946883,2,33,0.5501165986061096,4.108187675476074,25.0023667615398,25.28280491299933,100.877358430629,90.73396728210426,9.70840483205393e-05,0.1005837768316268,0,0,0
8340,316294.759998366,2011-01-07 02:30:10,2971.49637642162,2,33,0.5499359965324402,4.1111016273498535,25.006952933100152,25.28280491299933,100.8962058656668,90.73396728210426,3.23295607813634e-05,0.1005837768316268,0,0,0
8341,316324.77513579885,2011-01-07 02:30:40,3001.511513859542,2,33,0.5501165986061096,4.114177703857422,25.011539234627403,25.28280491299933,100.91506819543538,90.73396728210426,6.47544875391759e-05,0.1005837768316268,0,0,0
8342,316354.79024182854,2011-01-07 02:31:10,3031.5266199142475,2,33,0.5501165986061096,4.117577075958252,25.01612538850923,25.28280491299933,100.93394431386544,90.73396728210426,9.71794142969884e-05,0.1005837768316268,0,0,0
8343,316384.80534877547,2011-01-07 02:31:40,3061.541726836115,2,33,0.550297200679779,4.120652675628662,25.02071161118577,25.28280491299933,100.95283532405188,90.73396728210426,9.70840483205393e-05,0.1005837768316268,0,0,0
8344,316414.82060145563,2011-01-07 02:32:10,3091.5569795814185,2,33,0.5499359965324402,4.123890399932861,25.025297835757417,25.28280491299933,100.97174106711007,90.73396728210426,6.47544875391759e-05,0.1005837768316268,0,0,0
8345,316444.83557688474,2011-01-07 02:32:40,3121.571954945402,2,33,0.5499359965324402,4.12729024887085,25.029884090446785,25.28280491299933,100.99066191676468,90.73396728210426,9.71794142969884e-05,0.1005837768316268,0,0,0
8346,316474.8507163928,2011-01-07 02:33:10,3151.5870944534845,2,33,0.5501165986061096,4.13036584854126,25.034470422335147,25.28280491299933,101.0095982062339,90.73396728210426,3.23295607813634e-05,0.1005837768316268,0,0,0
8347,316504.86580892885,2011-01-07 02:33:40,3181.602187019572,2,33,0.5501165986061096,4.133927345275879,25.03905675235213,25.28280491299933,101.028549638935,90.73396728210426,0.0001295089750783,0.1005837768316268,0,0,0
8348,316534.880920367,2011-01-07 02:34:10,3211.617298432632,2,33,0.5499359965324402,4.137165069580078,25.043643014668817,25.28280491299933,101.04751607427102,90.73396728210426,6.47544875391759e-05,0.1005837768316268,0,0,0
8349,316564.8960420707,2011-01-07 02:34:40,3241.6324201313278,2,33,0.5499359965324402,4.140402793884277,25.04822931891524,25.28280491299933,101.06649810868949,90.73396728210426,6.47544875391759e-05,0.1005837768316268,0,0,0
8350,316594.91129191377,2011-01-07 02:35:10,3271.647669989435,2,33,0.5501165986061096,4.1441264152526855,25.05281562162358,25.28280491299933,101.08549566179556,90.73396728210426,0.0001295089750783,0.1005837768316268,0,0,0
8351,316624.92845695006,2011-01-07 02:35:40,3301.6648351260064,2,33,0.5499359965324402,4.147364139556885,25.05740226444917,25.28280491299933,101.10451069349143,90.73396728210426,6.47544875391759e-05,0.1005837768316268,0,0,0
8352,316654.9413979237,2011-01-07 02:36:10,3331.677775979364,2,33,0.5501165986061096,4.150925636291504,25.061988202148893,25.28280491299933,101.12353873253016,90.73396728210426,9.71794142969884e-05,0.1005837768316268,0,0,0
8353,316684.9565213918,2011-01-07 02:36:40,3361.692899487569,2,33,0.5501165986061096,4.154487133026123,25.06657448751193,25.28280491299933,101.14258423579122,90.73396728210426,0.0001295089750783,0.1005837768316268,0,0,0
8354,316714.9716514464,2011-01-07 02:37:10,3391.708029597227,2,33,0.5501165986061096,4.157886505126953,25.071160656942432,25.28280491299933,101.1616452449462,90.73396728210426,9.70840483205393e-05,0.1005837768316268,0,0,0
8355,316744.9867313759,2011-01-07 02:37:40,3421.723109436596,2,33,0.5499359965324402,4.161448001861572,25.075746898453044,25.28280491299933,101.18072271628806,90.73396728210426,6.47544875391759e-05,0.1005837768316268,0,0,0
8356,316775.0018656109,2011-01-07 02:38:10,3451.7382437617603,2,33,0.550297200679779,4.1651716232299805,25.080333144914636,25.28280491299933,101.19981647970862,90.73396728210426,0.0001295089750783,0.1005837768316268,0,0,0
8357,316805.01698598126,2011-01-07 02:38:40,3481.7533640469323,2,33,0.5499359965324402,4.1687331199646,25.08491935399964,25.28280491299933,101.21892665655449,90.73396728210426,9.71794142969884e-05,0.1005837768316268,0,0,0
8358,316835.03210731904,2011-01-07 02:39:10,3511.7684853797155,2,33,0.5501165986061096,4.17245626449585,25.089505583635685,25.28280491299933,101.23805365913827,90.73396728210426,0.0001295089750783,0.1005837768316268,0,0,0
8359,316865.0471892486,2011-01-07 02:39:40,3541.7835673042814,2,33,0.5501165986061096,4.176017761230469,25.09409180949876,25.28280491299933,101.25719754926784,90.73396728210426,9.70840483205393e-05,0.1005837768316268,0,0,0
8360,316895.06240831,2011-01-07 02:40:10,3571.798786485934,2,33,0.5499359965324402,4.179741382598877,25.09867805200561,25.28280491299933,101.27635846556512,90.73396728210426,9.71794142969884e-05,0.1005837768316268,0,0,0
8361,316925.0774190772,2011-01-07 02:40:40,3601.8137971328542,2,33,0.5499359965324402,4.183464527130127,25.103264286141187,25.28280491299933,101.29553644326104,90.73396728210426,6.47544875391759e-05,0.1005837768316268,0,0,0
8362,316955.0927006594,2011-01-07 02:41:10,3631.829078755128,2,33,0.5501165986061096,4.187349796295166,25.10785061812744,25.28280491299933,101.3147320349423,90.73396728210426,0.0001295089750783,0.1005837768316268,0,0,0
8363,316985.1076669257,2011-01-07 02:41:40,3661.8440449813374,2,33,0.5501165986061096,4.191073417663574,25.11243689678177,25.28280491299933,101.33394476770012,90.73396728210426,9.71794142969884e-05,0.1005837768316268,0,0,0
8364,317015.12289167126,2011-01-07 02:42:10,3691.8592697769823,2,33,0.5499359965324402,4.194796562194824,25.117023158493502,25.28280491299933,101.35317481954203,90.73396728210426,9.70840483205393e-05,0.1005837768316268,0,0,0
8365,317045.13788991224,2011-01-07 02:42:40,3721.8742679728703,2,33,0.5501165986061096,4.198681831359863,25.121609398244413,25.28280491299933,101.37242223617592,90.73396728210426,0.0001295089750783,0.1005837768316268,0,0,0
8366,317054.15336728084,2011-01-07 02:42:49,3730.8897453464792,2,33,0.5501165986061096,4.200138568878174,25.12298695101557,25.28280491299933,101.37820698568112,90.73396728210426,0.0001618385285837,0.1005837768316268,0,0,0
8367,317084.14573336,2011-01-07 02:43:19,30.00039217819797,3,33,0.0,4.095722675323486,25.12298695101557,25.28280491299933,101.37820698568112,90.73396728210426,-0.0004856109735555,0.1005837768316268,0,0,0
8368,317114.1597747864,2011-01-07 02:43:49,60.014433544372125,3,33,0.0,4.08212423324585,25.12298695101557,25.28280491299933,101.37820698568112,90.73396728210426,-0.0002913475036621,0.1005837768316268,0,0,0
8369,317144.1747788218,2011-01-07 02:44:19,90.02943756477683,3,33,0.0,4.0738677978515625,25.12298695101557,25.28280491299933,101.37820698568112,90.73396728210426,-0.0002266883820993,0.1005837768316268,0,0,0
8370,317174.15862074174,2011-01-07 02:44:49,120.01327945957618,3,33,0.0,4.068363666534424,25.12298695101557,25.28280491299933,101.37820698568112,90.73396728210426,-0.0001295089750783,0.1005837768316268,0,0,0
8371,317174.1682667631,2011-01-07 02:44:49,2.776920941e-06,4,33,1.0433605909347534,4.199976921081543,25.12298695182038,25.28280491299933,101.37820698906133,90.73396728210426,0.0,0.1005837768316268,0,0,0
8372,317174.4651493759,2011-01-07 02:44:50,0.29688541981554,4,33,0.9915257096290588,4.199814796447754,25.12306981026559,25.28280491299933,101.37855498943884,90.73396728210426,-3.24249267578125e-05,0.1005837768316268,0,0,0
8373,317175.98104035266,2011-01-07 02:44:51,1.812776396557574,4,33,0.9411357045173644,4.199814796447754,25.123475487773963,25.28280491299933,101.38025877527492,90.73396728210426,-3.24249267578125e-05,0.1005837768316268,0,0,0
8374,317178.4963124647,2011-01-07 02:44:54,4.328048518615627,4,33,0.891106903553009,4.199814796447754,25.124114586548743,25.28280491299933,101.38294289026568,90.73396728210426,0.0,0.1005837768316268,0,0,0
8375,317182.0900088969,2011-01-07 02:44:57,7.921744925815109,4,33,0.8407169580459595,4.199976921081543,25.124977878991597,25.28280491299933,101.3865686148894,90.73396728210426,3.24249267578125e-05,0.1005837768316268,0,0,0
8376,317186.85554773104,2011-01-07 02:45:02,12.687283759909311,4,33,0.790688157081604,4.199976921081543,25.12605629232357,25.28280491299933,101.39109782054248,90.73396728210426,0.0,0.1005837768316268,0,0,0
8377,317193.0587192782,2011-01-07 02:45:08,18.89045534216046,4,33,0.7404788136482239,4.199814796447754,25.127373491341466,25.28280491299933,101.39662990336284,90.73396728210426,-3.24249267578125e-05,0.1005837768316268,0,0,0
8378,317201.0585904687,2011-01-07 02:45:16,26.890326522641043,4,33,0.6904500126838684,4.199814796447754,25.128961099010976,25.28280491299933,101.40329767758928,90.73396728210426,-3.24249267578125e-05,0.1005837768316268,0,0,0
8379,317211.933367018,2011-01-07 02:45:27,37.765103086924334,4,33,0.6404212713241577,4.199976921081543,25.130968036292867,25.28280491299933,101.41172659734394,90.73396728210426,3.24249267578125e-05,0.1005837768316268,0,0,0
8380,317227.6539239279,2011-01-07 02:45:43,53.48565999683827,4,33,0.5903924703598022,4.199814796447754,25.13364887900305,25.28280491299933,101.4229858309355,90.73396728210426,-3.24249267578125e-05,0.1005837768316268,0,0,0
8381,317252.99520078214,2011-01-07 02:46:08,78.82693682601251,4,33,0.5401831269264221,4.199814796447754,25.137613988898757,25.28280491299933,101.43963884185824,90.73396728210426,0.0,0.1005837768316268,0,0,0
8382,317301.494221279,2011-01-07 02:46:57,127.32595730281624,4,33,0.4901543259620666,4.199814796447754,25.14451799661807,25.28280491299933,101.46863487336468,90.73396728210426,0.0,0.1005837768316268,0,0,0
8383,317392.6176824823,2011-01-07 02:48:28,218.44941850612292,4,33,0.4401255548000335,4.199814796447754,25.15624180365224,25.28280491299933,101.51787361135544,90.73396728210426,0.0,0.1005837768316268,0,0,0
8384,317521.1311282818,2011-01-07 02:50:36,346.962864335729,4,33,0.3900967836380005,4.199976921081543,25.171036055455545,25.28280491299933,101.5800079255052,90.73396728210426,0.0,0.1005837768316268,0,0,0
8385,317678.5349396918,2011-01-07 02:53:14,504.3666757457047,4,33,0.3400680124759674,4.199814796447754,25.186977053431715,25.28280491299933,101.64695861446916,90.73396728210426,0.0,0.1005837768316268,0,0,0
8386,317866.7972607728,2011-01-07 02:56:22,692.6289969169314,4,33,0.2900392413139343,4.199814796447754,25.203432471649485,25.28280491299933,101.71606972024428,90.73396728210426,0.0,0.1005837768316268,0,0,0
8387,318098.1526936177,2011-01-07 03:00:13,923.9844296666308,4,33,0.2400104850530624,4.199814796447754,25.22042758546094,25.28280491299933,101.78744748434046,90.73396728210426,0.0,0.1005837768316268,0,0,0
8388,318391.49135993724,2011-01-07 03:05:07,1217.3230959610876,4,33,0.1899817138910293,4.199976921081543,25.23787439011368,25.28280491299933,101.86072232719496,90.73396728210426,3.24249267578125e-05,0.1005837768316268,0,0,0
8389,318793.0939320069,2011-01-07 03:11:48,1618.9256680457447,4,33,0.1399529427289962,4.199814796447754,25.256144282704746,25.28280491299933,101.93745423564212,90.73396728210426,0.0,0.1005837768316268,0,0,0
8390,319422.927002769,2011-01-07 03:22:18,2248.7587388930874,4,33,0.0899241790175437,4.199814796447754,25.275923869712507,25.28280491299933,102.02052652614046,90.73396728210426,0.0,0.1005837768316268,0,0,0
8391,320411.6133113612,2011-01-07 03:38:47,3237.4450474000587,4,33,0.0498289167881011,4.199814796447754,25.2945377281196,25.28280491299933,102.09870269380092,90.73396728210426,0.0,0.1005837768316268,0,0,0
8392,320441.6148971629,2011-01-07 03:39:17,30.01511060604892,5,33,0.0,4.1901021003723145,25.2945377281196,25.28280491299933,102.09870269380092,90.73396728210426,-3.23295607813634e-05,0.1005837768316268,0,0,0
8393,320471.6144216836,2011-01-07 03:39:47,60.01463515183997,5,33,0.0,4.188644886016846,25.2945377281196,25.28280491299933,102.09870269380092,90.73396728210426,0.0,0.1005837768316268,0,0,0
8394,320471.7895467082,2011-01-07 03:39:47,0.187645084286992,6,33,-1.9243103452026844e-05,4.188644886016846,25.2945377281196,25.28280491400235,102.09870269380092,90.73396728630556,0.0,0.1062618941068649,0,0,0
8395,320476.61746136204,2011-01-07 03:39:52,5.015559728091551,6,33,0.0007031940040178,4.188483238220215,25.294538654250392,25.282804914085464,102.0987065729842,90.73396728665368,-3.23295607813634e-05,0.1062618941068649,0,0,0
8396,320494.9953687162,2011-01-07 03:40:11,18.390333364307967,7,33,-1.0993878841400146,3.988392353057861,25.294538654250392,25.28842176582428,102.0987065729842,90.75648594983996,-0.0015864372253417,0.1062618941068649,0,0,0
8397,320525.0104606908,2011-01-07 03:40:41,48.40542531385916,7,33,-1.099568486213684,3.941607236862183,25.294538654250392,25.297589003002,102.0987065729842,90.7928234257976,-0.0011008263099938,0.1062618941068649,0,0,0
8398,320555.0257210301,2011-01-07 03:41:11,78.42068566812671,7,33,-1.0993878841400146,3.90761137008667,25.294538654250392,25.306756309512444,102.0987065729842,90.82879237328645,-0.0007446765666827,0.1062618941068649,0,0,0
8399,320585.040690359,2011-01-07 03:41:41,108.43565498704464,7,33,-1.099568486213684,3.881709575653076,25.294538654250392,25.315923492611272,102.0987065729842,90.86449050378955,-0.0006475448608398,0.1062618941068649,0,0,0
8400,320615.05581168673,2011-01-07 03:42:11,138.4507763098029,7,33,-1.0993878841400146,3.861150026321411,25.294538654250392,25.325090762751664,102.0987065729842,90.8999787313427,-0.0004856586456298,0.1062618941068649,0,0,0
8401,320645.0710501064,2011-01-07 03:42:41,168.46601474443997,7,33,-1.0993878841400146,3.843828201293945,25.294538654250392,25.33425800017479,102.0987065729842,90.93529319388988,-0.0004532813909463,0.1062618941068649,0,0,0
8402,320675.0860468687,2011-01-07 03:43:11,198.4810115217928,7,33,-1.099568486213684,3.828449249267578,25.294538654250392,25.343425217198163,102.0987065729842,90.97045774572555,-0.0003885269106831,0.1062618941068649,0,0,0
8403,320705.101162818,2011-01-07 03:43:41,228.4961274460964,7,33,-1.099568486213684,3.814365148544312,25.294538654250392,25.35259244007492,102.0987065729842,91.00548845313442,-0.0003561496851034,0.1062618941068649,0,0,0
8404,320735.1164071373,2011-01-07 03:44:11,258.5113717654,7,33,-1.0993878841400146,3.801414251327514,25.294538654250392,25.361759697079,102.0987065729842,91.0403951425815,-0.0003237724304199,0.1062618941068649,0,0,0
8405,320765.131377153,2011-01-07 03:44:41,288.5263418011043,7,33,-1.099568486213684,3.7891108989715576,25.294538654250392,25.370926857515737,102.0987065729842,91.07518634431936,-0.0003237724304199,0.1062618941068649,0,0,0
8406,320795.14663660503,2011-01-07 03:45:11,318.5416012430982,7,33,-1.0993878841400146,3.7776169776916495,25.294538654250392,25.38009414803147,102.0987065729842,91.10986948794849,-0.0003237724304199,0.1062618941068649,0,0,0
8407,320825.16161179857,2011-01-07 03:45:41,348.5565764166075,7,33,-1.0992072820663452,3.766608715057373,25.294538654250392,25.389261394506057,102.0987065729842,91.14444876181408,-0.0002590179501567,0.1062618941068649,0,0,0
8408,320855.1767390161,2011-01-07 03:46:11,378.5717036591197,7,33,-1.099568486213684,3.7560861110687256,25.294538654250392,25.398428652292186,102.0987065729842,91.17892889973926,-0.0002590179501567,0.1062618941068649,0,0,0
8409,320885.1918687397,2011-01-07 03:46:41,408.5868333928406,7,33,-1.0997490882873535,3.745887517929077,25.294538654250392,25.407595920352605,102.0987065729842,91.21331460740934,-0.0002913951757363,0.1062618941068649,0,0,0
8410,320915.20704758586,2011-01-07 03:47:11,438.6020122690397,7,33,-1.0993878841400146,3.73617434501648,25.294538654250392,25.41676320265308,102.0987065729842,91.2476092664854,-0.0002590179501567,0.1062618941068649,0,0,0
8411,320945.2242536544,2011-01-07 03:47:41,468.6192182824887,7,33,-1.0993878841400146,3.7271087169647217,25.294538654250392,25.42593104290715,102.0987065729842,91.28181873565256,-0.0001618862152099,0.1062618941068649,0,0,0
8412,320975.2372015955,2011-01-07 03:48:11,498.6321662285234,7,33,-1.099568486213684,3.717881202697754,25.294538654250392,25.435097660618982,102.0987065729842,91.31593957677823,-0.0002266406954731,0.1062618941068649,0,0,0
8413,321005.25233502843,2011-01-07 03:48:41,528.6472996564514,7,33,-1.099568486213684,3.708977460861206,25.294538654250392,25.444264984644747,102.0987065729842,91.34998105813207,-0.0002266406954731,0.1062618941068649,0,0,0
8414,321035.267683372,2011-01-07 03:49:11,558.6626480351028,7,33,-1.099568486213684,3.700397491455078,25.294538654250392,25.4534323271076,102.0987065729842,91.38394327975962,-0.0002266406954731,0.1062618941068649,0,0,0
8415,321065.28254586464,2011-01-07 03:49:41,588.6775105027144,7,33,-1.099568486213684,3.69230318069458,25.294538654250392,25.462599521157767,102.0987065729842,91.4178277865728,-0.0001942634553415,0.1062618941068649,0,0,0
8416,321095.29778037954,2011-01-07 03:50:11,618.6927450225949,7,33,-1.0993878841400146,3.683885097503662,25.294538654250392,25.471766819196137,102.0987065729842,91.45163643549157,-0.0002266406954731,0.1062618941068649,0,0,0
8417,321125.31291681493,2011-01-07 03:50:41,648.707881463031,7,33,-1.099568486213684,3.675952672958374,25.294538654250392,25.480934133713617,102.0987065729842,91.48537084340872,-0.0002266406954731,0.1062618941068649,0,0,0
8418,321155.3278961137,2011-01-07 03:51:11,678.7228607317468,7,33,-1.099568486213684,3.668182373046875,25.294538654250392,25.490101428179862,102.0987065729842,91.51903333597126,-0.0002266406954731,0.1062618941068649,0,0,0
8419,321185.34312552086,2011-01-07 03:51:41,708.7380901589346,7,33,-1.0993878841400146,3.660573720932007,25.294538654250392,25.49926867310184,102.0987065729842,91.55262545441768,-0.0001942634553415,0.1062618941068649,0,0,0
8420,321215.3581158972,2011-01-07 03:52:11,738.7530805253092,7,33,-1.0997490882873535,3.6529650688171382,25.294538654250392,25.50843598152103,102.0987065729842,91.58614903877496,-0.0002266406954731,0.1062618941068649,0,0,0
8421,321245.37323305465,2011-01-07 03:52:41,768.7681977678984,7,33,-1.099568486213684,3.6460039615631104,25.294538654250392,25.5176032498261,102.0987065729842,91.61960548207011,-0.0001618862152099,0.1062618941068649,0,0,0
8422,321275.3883661568,2011-01-07 03:53:11,798.7833307797896,7,33,-1.0993878841400146,3.638719081878662,25.294538654250392,25.52677044114681,102.0987065729842,91.6529950565612,-0.0001942634553415,0.1062618941068649,0,0,0
8423,321305.4034610336,2011-01-07 03:53:41,828.7984256516241,7,33,-1.099568486213684,3.631596088409424,25.294538654250392,25.53593764199052,102.0987065729842,91.68631929625307,-0.0002266406954731,0.1062618941068649,0,0,0
8424,321335.4186178899,2011-01-07 03:54:11,858.8135825129555,7,33,-1.0993878841400146,3.6247968673706055,25.294538654250392,25.545104898109265,102.0987065729842,91.7195796832694,-0.0001295089750783,0.1062618941068649,0,0,0
8425,321365.43381365825,2011-01-07 03:54:41,888.8287782962923,7,33,-1.0993878841400146,3.617835760116577,25.294538654250392,25.554272194411265,102.0987065729842,91.7527772004948,-0.0002266406954731,0.1062618941068649,0,0,0
8426,321395.4487917841,2011-01-07 03:55:11,918.8437564271724,7,33,-1.099568486213684,3.6111984252929688,25.294538654250392,25.563439306170977,102.0987065729842,91.78591257008188,-0.0002590179501567,0.1062618941068649,0,0,0
8427,321425.46389683627,2011-01-07 03:55:41,948.8588614743668,7,33,-1.0992072820663452,3.6047229766845694,25.294538654250392,25.57260643356991,102.0987065729842,91.81898786633636,-0.0001942634553415,0.1062618941068649,0,0,0
8428,321455.4793144124,2011-01-07 03:56:11,978.8742790354422,7,33,-1.099568486213684,3.598571300506592,25.294538654250392,25.58177371451056,102.0987065729842,91.85200527665268,-0.0001618862152099,0.1062618941068649,0,0,0
8429,321485.4941742886,2011-01-07 03:56:41,1008.8891389166076,7,33,-1.099568486213684,3.5922577381134038,25.294538654250392,25.59094092354804,102.0987065729842,91.88496506626514,-0.0001618862152099,0.1062618941068649,0,0,0
8430,321515.50931431795,2011-01-07 03:57:11,1038.904278940976,7,33,-1.0993878841400146,3.586268186569214,25.294538654250392,25.600108293060657,102.0987065729842,91.91786901079226,-0.0001618862152099,0.1062618941068649,0,0,0
8431,321545.5244220368,2011-01-07 03:57:41,1068.9193866848916,7,33,-1.099568486213684,3.5802783966064453,25.294538654250392,25.60927557018161,102.0987065729842,91.95071762192084,-0.0001618862152099,0.1062618941068649,0,0,0
8432,321575.53997144644,2011-01-07 03:58:11,1098.934936074524,7,33,-1.0997490882873535,3.5744504928588867,25.294538654250392,25.61844303991522,102.0987065729842,91.9835129078918,-0.0001618862152099,0.1062618941068649,0,0,0
8433,321605.5546402213,2011-01-07 03:58:41,1128.9496048493938,7,33,-1.099568486213684,3.568784475326538,25.294538654250392,25.62761023463431,102.0987065729842,92.016254502719,-0.0001618862152099,0.1062618941068649,0,0,0
8434,321635.5697692232,2011-01-07 03:59:11,1158.9647338512907,7,33,-1.0993878841400146,3.5632803440093994,25.294538654250392,25.63677750237319,102.0987065729842,92.04894407717246,-0.0001295089750783,0.1062618941068649,0,0,0
8435,321665.5848683307,2011-01-07 03:59:41,1188.9798329536693,7,33,-1.0993878841400146,3.5579380989074707,25.294538654250392,25.64594472864835,102.0987065729842,92.08158380275567,-0.0001295089750783,0.1062618941068649,0,0,0
8436,321695.5994818478,2011-01-07 04:00:11,1218.9944461851076,7,33,-1.0993878841400146,3.552595853805542,25.294538654250392,25.65511180009848,102.0987065729842,92.11417415685057,-9.713172767078504e-05,0.1062618941068649,0,0,0
8437,321725.5996073914,2011-01-07 04:00:41,1248.9945720295198,7,33,-1.0993878841400146,3.5474154949188232,25.294538654250392,25.66427447315487,102.0987065729842,92.14670131292984,-0.0001295089750783,0.1062618941068649,0,0,0
8438,321755.61460020393,2011-01-07 04:01:11,1279.0095648520155,7,33,-1.099568486213684,3.5423970222473145,25.294538654250392,25.673441711996983,102.0987065729842,92.17919786441634,-0.0001618862152099,0.1062618941068649,0,0,0
8439,321785.6298482024,2011-01-07 04:01:41,1309.0248130159011,7,33,-1.0993878841400146,3.5373785495758057,25.294538654250392,25.682608992253016,102.0987065729842,92.21164890805936,-0.0001618862152099,0.1062618941068649,0,0,0
8440,321815.64482882444,2011-01-07 04:02:11,1339.0397934475154,7,33,-1.099568486213684,3.532521963119507,25.294538654250392,25.691776319103017,102.0987065729842,92.24405494366526,-0.0001295089750783,0.1062618941068649,0,0,0
8441,321845.65993826266,2011-01-07 04:02:41,1369.0549028856535,7,33,-1.099568486213684,3.527989149093628,25.294538654250392,25.700943638363977,102.0987065729842,92.27641786253112,-6.47544875391759e-05,0.1062618941068649,0,0,0
8442,321875.67505214683,2011-01-07 04:03:11,1399.0700167698726,7,33,-1.0993878841400146,3.523294448852539,25.294538654250392,25.71011098381955,102.0987065729842,92.30873853781318,-0.0001295089750783,0.1062618941068649,0,0,0
8443,321905.69020987034,2011-01-07 04:03:41,1429.0851745184152,7,33,-1.0997490882873535,3.51859974861145,25.294538654250392,25.719278252111007,102.0987065729842,92.34101654814144,-0.0001295089750783,0.1062618941068649,0,0,0
8444,321935.70528229617,2011-01-07 04:04:11,1459.100246919245,7,33,-1.099568486213684,3.514228820800781,25.294538654250392,25.728445555734144,102.0987065729842,92.37325292041068,-0.0001295089750783,0.1062618941068649,0,0,0
8445,321965.7203972331,2011-01-07 04:04:41,1489.1153618611,7,33,-1.099568486213684,3.5095343589782715,25.294538654250392,25.737612845839184,102.0987065729842,92.40544770591268,-0.0001295089750783,0.1062618941068649,0,0,0
8446,321995.7355100496,2011-01-07 04:05:11,1519.1304746977082,7,33,-1.099568486213684,3.5051634311676025,25.294538654250392,25.74678015135781,102.0987065729842,92.4376009807683,-9.713172767078504e-05,0.1062618941068649,0,0,0
8447,322025.7510035048,2011-01-07 04:05:41,1549.14596816296,7,33,-1.099568486213684,3.500630617141724,25.294538654250392,25.75594766681549,102.0987065729842,92.46971365630807,-9.713172767078504e-05,0.1062618941068649,0,0,0
8448,322055.7657577527,2011-01-07 04:06:11,1579.1607223757674,7,33,-1.099568486213684,3.4960978031158447,25.294538654250392,25.76511492937782,102.0987065729842,92.50178413592184,-0.0001618862152099,0.1062618941068649,0,0,0
8449,322085.7808646445,2011-01-07 04:06:41,1609.175829267559,7,33,-1.0993878841400146,3.491726875305176,25.294538654250392,25.7742822929599,102.0987065729842,92.53381371781272,-6.47544875391759e-05,0.1062618941068649,0,0,0
8450,322115.7961116455,2011-01-07 04:07:11,1639.1910762835837,7,33,-1.0993878841400146,3.487032175064087,25.294538654250392,25.78344967636427,102.0987065729842,92.56580154835544,-0.0001295089750783,0.1062618941068649,0,0,0
8451,322145.8133105061,2011-01-07 04:07:41,1669.208275329668,7,33,-1.0993878841400146,3.482337474822998,25.294538654250392,25.792617680695585,102.0987065729842,92.5977491450448,-0.0001295089750783,0.1062618941068649,0,0,0
8452,322175.8278839184,2011-01-07 04:08:11,1699.2228485413646,7,33,-1.0993878841400146,3.477642774581909,25.294538654250392,25.80178477800067,102.0987065729842,92.6296500569836,-9.713172767078504e-05,0.1062618941068649,0,0,0
8453,322205.8413277753,2011-01-07 04:08:41,1729.236292398362,7,33,-1.099568486213684,3.4726243019104004,25.294538654250392,25.81095161566631,102.0987065729842,92.66150521753153,-9.713172767078504e-05,0.1062618941068649,0,0,0
8454,322235.8564396395,2011-01-07 04:09:11,1759.251404267559,7,33,-1.0993878841400146,3.4677677154541016,25.294538654250392,25.8201189928944,102.0987065729842,92.693317295027,-0.0001295089750783,0.1062618941068649,0,0,0
8455,322265.8716031073,2011-01-07 04:09:41,1789.2665678456308,7,33,-1.099568486213684,3.462587356567383,25.294538654250392,25.829286376717207,102.0987065729842,92.72508366943175,-0.0001295089750783,0.1062618941068649,0,0,0
8456,322295.886674671,2011-01-07 04:10:11,1819.2816392990992,7,33,-1.099568486213684,3.457083225250244,25.294538654250392,25.83845365581131,102.0987065729842,92.75680189691928,-0.0001618862152099,0.1062618941068649,0,0,0
8457,322325.901934113,2011-01-07 04:10:41,1849.2968987811928,7,33,-1.0997490882873535,3.451579093933105,25.294538654250392,25.847621023589905,102.0987065729842,92.78846993183978,-0.0001618862152099,0.1062618941068649,0,0,0
8458,322355.91690763243,2011-01-07 04:11:11,1879.31187226048,7,33,-1.099568486213684,3.445913076400757,25.294538654250392,25.856788361951665,102.0987065729842,92.82008614648876,-0.0001618862152099,0.1062618941068649,0,0,0
8459,322385.9320113463,2011-01-07 04:11:41,1909.3269759693387,7,33,-1.099568486213684,3.4395995140075684,25.294538654250392,25.86595570478696,102.0987065729842,92.85164800345376,-0.0002266406954731,0.1062618941068649,0,0,0
8460,322415.9471248395,2011-01-07 04:12:12,1939.3420895778709,7,33,-1.0993878841400146,3.43344783782959,25.294538654250392,25.875123066286832,102.0987065729842,92.8831523336168,-0.0001618862152099,0.1062618941068649,0,0,0
8461,322445.96242684266,2011-01-07 04:12:42,1969.3573914857027,7,33,-1.099568486213684,3.4263250827789307,25.294538654250392,25.88429044512239,102.0987065729842,92.91459573651616,-0.0001942634553415,0.1062618941068649,0,0,0
8462,322475.97739698354,2011-01-07 04:13:12,1999.372361626669,7,33,-1.099568486213684,3.4185545444488525,25.294538654250392,25.893457755057867,102.0987065729842,92.94597211841274,-0.0002590179501567,0.1062618941068649,0,0,0
8463,322505.9925260256,2011-01-07 04:13:42,2029.387490653629,7,33,-1.099568486213684,3.4101364612579346,25.294538654250392,25.902625102547898,102.0987065729842,92.97727504728584,-0.0002590179501567,0.1062618941068649,0,0,0
8464,322536.00764375937,2011-01-07 04:14:12,2059.4026084074926,7,33,-1.099568486213684,3.400747060775757,25.294538654250392,25.91179244187593,102.0987065729842,93.00849554820304,-0.0002913951757363,0.1062618941068649,0,0,0
8465,322566.022741729,2011-01-07 04:14:42,2089.417706351985,7,33,-1.099568486213684,3.3900625705718994,25.294538654250392,25.92095977727809,102.0987065729842,93.03962388825704,-0.0003237724304199,0.1062618941068649,0,0,0
8466,322596.03784921224,2011-01-07 04:15:12,2119.4328138402634,7,33,-1.0993878841400146,3.3777592182159424,25.294538654250392,25.930127162418145,102.0987065729842,93.07064552251848,-0.0002913951757363,0.1062618941068649,0,0,0
8467,322626.05297440465,2011-01-07 04:15:42,2149.447939032666,7,33,-1.099568486213684,3.362541913986206,25.294538654250392,25.939294520545804,102.0987065729842,93.10154191110804,-0.0004209041653666,0.1062618941068649,0,0,0
8468,322656.0680858929,2011-01-07 04:16:12,2179.4630505209134,7,33,-1.0997490882873535,3.3445727825164795,25.294538654250392,25.94846191234798,102.0987065729842,93.13228839423054,-0.0005504131549969,0.1062618941068649,0,0,0
8469,322686.0833312247,2011-01-07 04:16:42,2209.4782958677783,7,33,-1.0993878841400146,3.3230419158935547,25.294538654250392,25.95762936126636,102.0987065729842,93.1628548334342,-0.0006475448608398,0.1062618941068649,0,0,0
8470,322716.098308734,2011-01-07 04:17:12,2239.493273362072,7,33,-1.099568486213684,3.296330690383911,25.294538654250392,25.9667966181023,102.0987065729842,93.1931995194858,-0.0007770538213662,0.1062618941068649,0,0,0
8471,322746.11344003666,2011-01-07 04:17:42,2269.5084046647025,7,33,-1.0993878841400146,3.2626585960388184,25.294538654250392,25.97596395204405,102.0987065729842,93.2232695558624,-0.0010036944877356,0.1062618941068649,0,0,0
8472,322776.1285238409,2011-01-07 04:18:12,2299.5234884890037,7,33,-1.0993878841400146,3.219434976577759,25.294538654250392,25.98513120936598,102.0987065729842,93.25298999969256,-0.0013274669181555,0.1062618941068649,0,0,0
8473,322806.1436366725,2011-01-07 04:18:42,2329.538601300549,7,33,-1.099568486213684,3.161641836166382,25.294538654250392,25.99429846471368,102.0987065729842,93.2822519550144,-0.0017483711708337,0.1062618941068649,0,0,0
8474,322836.1587565617,2011-01-07 04:19:12,2359.5537211897345,7,33,-1.0993878841400146,3.08215594291687,25.294538654250392,26.00346567650288,102.0987065729842,93.3108923624032,-0.0024282932281494,0.1062618941068649,0,0,0
8475,322866.1738850773,2011-01-07 04:19:42,2389.56884970542,7,33,-1.0993878841400146,2.966407537460327,25.294538654250392,26.0126329177354,102.0987065729842,93.33865202439917,-0.003593873931095,0.1062618941068649,0,0,0
8476,322896.1911323036,2011-01-07 04:20:12,2419.5860970167955,7,33,-1.099568486213684,2.7952942848205566,25.294538654250392,26.02180082231437,102.0987065729842,93.3651105638796,-0.0052774907089769,0.1062618941068649,0,0,0
8477,322909.82950424287,2011-01-07 04:20:25,2433.224468885916,7,33,-1.099568486213684,2.699781894683838,25.294538654250392,26.02596630639829,102.0987065729842,93.37655792398148,-0.005730724427849,0.1062618941068649,0,0,0
8478,322969.8417287597,2011-01-07 04:21:26,60.01471709607021,8,33,0.0,3.5634422302246094,25.294538654250392,26.02596630639829,102.0987065729842,93.37655792398148,0.0011655807029455,0.1062618941068649,0,0,0
8479,322970.02768957656,2011-01-07 04:21:26,0.187425882969863,9,33,0.0001613661734154,3.5637660026550293,25.29453866265156,26.02596630639829,102.098706602924,93.37655792398148,0.0,0.1035472899675369,0,0,0
8480,322974.8557465752,2011-01-07 04:21:31,5.015482866528888,9,33,0.0008838032954372,3.5712127685546875,25.294539571845508,26.02596630639829,102.09870984697568,93.37655792398148,0.0010684489971026,0.1035472899675369,0,0,0
