Data_Point,Test_Time(s),Date_Time,Step_Time(s),Step_Index,Cycle_Index,Current(A),Voltage(V),Charge_Capacity(Ah),Discharge_Capacity(Ah),Charge_Energy(Wh),Discharge_Energy(Wh),dV/dt(V/s),Internal_Resistance(Ohm),Is_FC_Data,AC_Impedance(Ohm),ACI_Phase_Angle(Deg)
8964,342516.7589222913,2011-01-07 09:47:15,30.01500016078534,1,36,0.0,3.603913545608521,26.775928349453498,27.502212195198616,108.1086302646534,98.62371791256396,0.0006475448608398,0.10130325704813,0,0,0
8965,342546.77404963406,2011-01-07 09:47:45,60.0301274985348,1,36,0.0,3.623339891433716,26.775928349453498,27.502212195198616,108.1086302646534,98.62371791256396,0.0004209041653666,0.10130325704813,0,0,0
8966,342576.78915318253,2011-01-07 09:48:15,90.04523104699405,1,36,0.0,3.6371002197265625,26.775928349453498,27.502212195198616,108.1086302646534,98.62371791256396,0.0003237724304199,0.10130325704813,0,0,0
8967,342606.75738961867,2011-01-07 09:48:45,120.01346748820136,1,36,0.0,3.64762282371521,26.775928349453498,27.502212195198616,108.1086302646534,98.62371791256396,0.0002913951757363,0.10130325704813,0,0,0
8968,342636.77664471685,2011-01-07 09:49:15,30.015154470372316,2,36,0.5501165986061096,3.770979642868042,26.78051476437999,27.502212195198616,108.12583447541712,98.62371791256396,0.0008094310760498,0.10130325704813,0,0,0
8969,342666.7917228971,2011-01-07 09:49:45,60.03023265060613,2,36,0.5501165986061096,3.793967485427856,26.78510118517455,27.502212195198616,108.1431870814912,98.62371791256396,0.0005180359003134,0.10130325704813,0,0,0
8970,342696.80697031406,2011-01-07 09:50:15,90.04548016787993,2,36,0.550297200679779,3.807727813720703,26.789687665669664,27.502212195198616,108.16062118085593,98.62371791256396,0.0003237724304199,0.10130325704813,0,0,0
8971,342726.8219717882,2011-01-07 09:50:45,120.06048157176348,2,36,0.5501165986061096,3.81792664527893,26.794274081191123,27.502212195198616,108.17810899842002,98.62371791256396,0.0002590179501567,0.10130325704813,0,0,0
8972,342756.83708734653,2011-01-07 09:51:15,150.07559719030507,2,36,0.5501165986061096,3.8263447284698486,26.79886049728105,27.502212195198616,108.19563920658416,98.62371791256396,0.0002266406954731,0.10130325704813,0,0,0
8973,342786.8522003035,2011-01-07 09:51:46,180.09071010210062,2,36,0.5499359965324402,3.8339531421661377,26.80344685986253,27.502212195198616,108.21320607124082,98.62371791256396,0.0002265930233988,0.10130325704813,0,0,0
8974,342816.86728598736,2011-01-07 09:52:16,210.1057957709985,2,36,0.5501165986061096,3.840914249420166,26.808033253253765,27.502212195198616,108.2308064243711,98.62371791256396,0.0001295089750783,0.10130325704813,0,0,0
8975,342846.8823911549,2011-01-07 09:52:46,240.1209009184429,2,36,0.5499359965324402,3.8475515842437744,26.81261967644676,27.502212195198616,108.24843794456712,98.62371791256396,0.0001942634553415,0.10130325704813,0,0,0
8976,342876.8975739158,2011-01-07 09:53:16,270.1360836893488,2,36,0.5499359965324402,3.853541374206543,26.817206056551527,27.502212195198616,108.26609854136,98.62371791256396,9.713172767078504e-05,0.10130325704813,0,0,0
8977,342906.91267511336,2011-01-07 09:53:46,300.15118486689903,2,36,0.5501165986061096,3.859854936599731,26.821792350517324,27.502212195198616,108.2837866887308,98.62371791256396,0.0001942634553415,0.10130325704813,0,0,0
8978,342936.9278046065,2011-01-07 09:54:16,330.1663143951078,2,36,0.5501165986061096,3.86535906791687,26.826378617469448,27.502212195198616,108.3015012652596,98.62371791256396,0.0001618862152099,0.10130325704813,0,0,0
8979,342966.94303012395,2011-01-07 09:54:46,360.1815398975138,2,36,0.5501165986061096,3.870701313018799,26.830964950639107,27.502212195198616,108.31924128117927,98.62371791256396,0.0001295089750783,0.10130325704813,0,0,0
8980,342996.9580317183,2011-01-07 09:55:16,390.1965414668095,2,36,0.5501165986061096,3.8758816719055176,26.83555128486549,27.502212195198616,108.3370055515556,98.62371791256396,9.713172767078504e-05,0.10130325704813,0,0,0
8981,343026.9732196872,2011-01-07 09:55:46,420.2117295359203,2,36,0.5501165986061096,3.8809001445770255,26.840137625259032,27.502212195198616,108.35479311426472,98.62371791256396,0.0001618862152099,0.10130325704813,0,0,0
8982,343056.9883772703,2011-01-07 09:56:16,450.2268870388508,2,36,0.5499359965324402,3.8855948448181152,26.84472399905797,27.502212195198616,108.37260346801835,98.62371791256396,9.713172767078504e-05,0.10130325704813,0,0,0
8983,343087.0033630152,2011-01-07 09:56:46,480.2418727636571,2,36,0.5501165986061096,3.890613317489624,26.849310433350645,27.502212195198616,108.39043608393833,98.62371791256396,0.0001618862152099,0.10130325704813,0,0,0
8984,343117.01849842304,2011-01-07 09:57:16,510.2570081715198,2,36,0.550297200679779,3.894822359085083,26.853896796826263,27.502212195198616,108.40828966580531,98.62371791256396,6.47544875391759e-05,0.10130325704813,0,0,0
8985,343147.03361472825,2011-01-07 09:57:46,540.2721244968228,2,36,0.550297200679779,3.899355173110962,26.85848323602891,27.502212195198616,108.42616366296578,98.62371791256396,0.0001618862152099,0.10130325704813,0,0,0
8986,343177.0487096352,2011-01-07 09:58:16,570.2872193836947,2,36,0.550297200679779,3.903564214706421,26.863069661957187,27.502212195198616,108.44405746991885,98.62371791256396,9.713172767078504e-05,0.10130325704813,0,0,0
8987,343207.0638519152,2011-01-07 09:58:46,600.3023616636848,2,36,0.5501165986061096,3.90761137008667,26.86765603527497,27.502212195198616,108.46197007924596,98.62371791256396,0.0001295089750783,0.10130325704813,0,0,0
8988,343237.07897864137,2011-01-07 09:59:16,630.3174883899102,2,36,0.5501165986061096,3.911658525466919,26.872242421956777,27.502212195198616,108.4799010655873,98.62371791256396,0.0001295089750783,0.10130325704813,0,0,0
8989,343267.0962281332,2011-01-07 09:59:46,660.334737976958,2,36,0.5499359965324402,3.915219783782959,26.876829160417063,27.502212195198616,108.49785101026914,98.62371791256396,9.713172767078504e-05,0.10130325704813,0,0,0
8990,343297.10921835457,2011-01-07 10:00:16,690.3477281031186,2,36,0.5501165986061096,3.918943166732788,26.881415166285027,27.502212195198616,108.51581464882211,98.62371791256396,9.713172767078504e-05,0.10130325704813,0,0,0
8991,343327.12428312143,2011-01-07 10:00:46,720.362792869922,2,36,0.5501165986061096,3.922342777252197,26.88600151407297,27.502212195198616,108.53379562232664,98.62371791256396,0.0001295089750783,0.10130325704813,0,0,0
8992,343357.13976369455,2011-01-07 10:01:16,750.3782734831426,2,36,0.5501165986061096,3.9254186153411865,26.89058790518712,27.502212195198616,108.551791996516,98.62371791256396,6.47544875391759e-05,0.10130325704813,0,0,0
8993,343387.1545179224,2011-01-07 10:01:46,780.3930276708874,2,36,0.5501165986061096,3.928494453430176,26.89517416631568,27.502212195198616,108.56980230795396,98.62371791256396,3.237724376958795e-05,0.10130325704813,0,0,0
8994,343417.1697598858,2011-01-07 10:02:16,810.4082696543693,2,36,0.5501165986061096,3.931408405303955,26.89976052212668,27.502212195198616,108.587826986849,98.62371791256396,3.237724376958795e-05,0.10130325704813,0,0,0
8995,343447.18474513444,2011-01-07 10:02:46,840.423254913014,2,36,0.5501165986061096,3.934484243392944,26.904346931958,27.502212195198616,108.60586535507682,98.62371791256396,9.713172767078504e-05,0.10130325704813,0,0,0
8996,343477.1998773443,2011-01-07 10:03:16,870.4383870928314,2,36,0.5501165986061096,3.937398195266724,26.908933247613525,27.502212195198616,108.62391628532411,98.62371791256396,9.713172767078504e-05,0.10130325704813,0,0,0
8997,343507.2149833238,2011-01-07 10:03:46,900.4534930723496,2,36,0.5501165986061096,3.939826488494873,26.91351960363315,27.502212195198616,108.64198003281328,98.62371791256396,6.47544875391759e-05,0.10130325704813,0,0,0
8998,343537.23009802506,2011-01-07 10:04:16,930.4686077736052,2,36,0.550297200679779,3.942740440368652,26.91810588518707,27.502212195198616,108.66005588070011,98.62371791256396,9.713172767078504e-05,0.10130325704813,0,0,0
8999,343567.2452297388,2011-01-07 10:04:46,960.4837395173356,2,36,0.5501165986061096,3.9451687335968018,26.922692292501463,27.502212195198616,108.67814432288036,98.62371791256396,3.237724376958795e-05,0.10130325704813,0,0,0
9000,343597.26034376834,2011-01-07 10:05:16,990.498853526867,2,36,0.5501165986061096,3.947920799255371,26.92727863739852,27.502212195198616,108.6962442169976,98.62371791256396,9.713172767078504e-05,0.10130325704813,0,0,0
9001,343627.27550550684,2011-01-07 10:05:46,1020.514015350566,2,36,0.5501165986061096,3.950187206268311,26.931864926400856,27.502212195198616,108.71435546639698,98.62371791256396,6.47544875391759e-05,0.10130325704813,0,0,0
9002,343657.2905628301,2011-01-07 10:06:16,1050.5290725785803,2,36,0.5499359965324402,3.95277738571167,26.93645127716671,27.502212195198616,108.73247842189195,98.62371791256396,9.713172767078504e-05,0.10130325704813,0,0,0
9003,343687.30565710546,2011-01-07 10:06:46,1080.5441668840033,2,36,0.5499359965324402,3.9552056789398193,26.941037631299267,27.502212195198616,108.75061275430964,98.62371791256396,6.47544875391759e-05,0.10130325704813,0,0,0
9004,343717.3207923378,2011-01-07 10:07:16,1110.5593021114162,2,36,0.550297200679779,3.9576339721679688,26.945624012828063,27.502212195198616,108.76875837511224,98.62371791256396,6.47544875391759e-05,0.10130325704813,0,0,0
9005,343747.3359481065,2011-01-07 10:07:46,1140.5744579501993,2,36,0.5501165986061096,3.960062265396118,26.950210333257576,27.502212195198616,108.78691486315232,98.62371791256396,6.47544875391759e-05,0.10130325704813,0,0,0
9006,343777.3512131123,2011-01-07 10:08:16,1170.5897229009224,2,36,0.5501165986061096,3.962490558624268,26.9547967064052,27.502212195198616,108.80508266682143,98.62371791256396,3.237724376958795e-05,0.10130325704813,0,0,0
9007,343807.3661676795,2011-01-07 10:08:46,1200.6046774329868,2,36,0.5501165986061096,3.964756965637207,26.959383003738623,27.502212195198616,108.82326122573426,98.62371791256396,6.47544875391759e-05,0.10130325704813,0,0,0
9008,343837.3813173729,2011-01-07 10:09:16,1230.6198271264536,2,36,0.5501165986061096,3.9670233726501465,26.96396925558522,27.502212195198616,108.84145051739632,98.62371791256396,0.0,0.10130325704813,0,0,0
9009,343867.39639330754,2011-01-07 10:09:46,1260.634903066103,2,36,0.5499359965324402,3.969613552093506,26.968555594440097,27.502212195198616,108.85965090321014,98.62371791256396,9.713172767078504e-05,0.10130325704813,0,0,0
9010,343897.4119696594,2011-01-07 10:10:16,1290.6504794329717,2,36,0.5501165986061096,3.9720418453216553,26.973141975714498,27.502212195198616,108.87786229597666,98.62371791256396,9.713172767078504e-05,0.10130325704813,0,0,0
9011,343927.42664273,2011-01-07 10:10:46,1320.66515248851,2,36,0.5499359965324402,3.9741463661193848,26.97772822049369,27.502212195198616,108.89608384995462,98.62371791256396,6.47544875391759e-05,0.10130325704813,0,0,0
9012,343957.441781396,2011-01-07 10:11:16,1350.6802912397052,2,36,0.5501165986061096,3.976574659347534,26.98231452564518,27.502212195198616,108.9143162986774,98.62371791256396,6.47544875391759e-05,0.10130325704813,0,0,0
9013,343987.45688647823,2011-01-07 10:11:46,1380.6953962568248,2,36,0.5501165986061096,3.9788410663604736,26.986900927470007,27.502212195198616,108.93255926698198,98.62371791256396,9.713172767078504e-05,0.10130325704813,0,0,0
9014,344017.47210574005,2011-01-07 10:12:16,1410.71061550364,2,36,0.5501165986061096,3.981269359588623,26.99148717542361,27.502212195198616,108.95081248066414,98.62371791256396,6.47544875391759e-05,0.10130325704813,0,0,0
9015,344047.48705252283,2011-01-07 10:12:46,1440.725562306441,2,36,0.5499359965324402,3.983373880386353,26.996073183642245,27.502212195198616,108.96907496422534,98.62371791256396,6.47544875391759e-05,0.10130325704813,0,0,0
9016,344077.50230659643,2011-01-07 10:13:16,1470.7408163600053,2,36,0.5501165986061096,3.985478401184082,27.00065868539781,27.502212195198616,108.98734558037448,98.62371791256396,6.47544875391759e-05,0.10130325704813,0,0,0
9017,344107.5172802612,2011-01-07 10:13:46,1500.755790044804,2,36,0.5497553944587708,3.9877448081970215,27.005244309430147,27.502212195198616,109.00562696738454,98.62371791256396,6.47544875391759e-05,0.10130325704813,0,0,0
9018,344137.5324282304,2011-01-07 10:14:16,1530.7709380039482,2,36,0.5501165986061096,3.990011215209961,27.009829763427607,27.502212195198616,109.02391771617889,98.62371791256396,3.237724376958795e-05,0.10130325704813,0,0,0
9019,344167.54765795334,2011-01-07 10:14:46,1560.7861677268731,2,36,0.5499359965324402,3.992277622222901,27.014415250133204,27.502212195198616,109.04221875279404,98.62371791256396,6.47544875391759e-05,0.10130325704813,0,0,0
9020,344197.56266539224,2011-01-07 10:15:16,1590.801175175823,2,36,0.5499359965324402,3.994381904602051,27.0190010473986,27.502212195198616,109.06053117180188,98.62371791256396,6.47544875391759e-05,0.10130325704813,0,0,0
9021,344227.5779479869,2011-01-07 10:15:46,1620.816457755483,2,36,0.550297200679779,3.99648642539978,27.02358745108996,27.502212195198616,109.07885612864985,98.62371791256396,6.47544875391759e-05,0.10130325704813,0,0,0
9022,344257.5928809903,2011-01-07 10:16:16,1650.8313907689164,2,36,0.550297200679779,3.9989147186279297,27.02817447816869,27.502212195198616,109.0971937846591,98.62371791256396,6.47544875391759e-05,0.10130325704813,0,0,0
9023,344287.6080075561,2011-01-07 10:16:46,1680.8465173096797,2,36,0.550297200679779,4.001019477844238,27.03276152908175,27.502212195198616,109.11554163175344,98.62371791256396,6.47544875391759e-05,0.10130325704813,0,0,0
9024,344317.6232920506,2011-01-07 10:17:16,1710.8618018241618,2,36,0.5499359965324402,4.003123760223389,27.037348309735904,27.502212195198616,109.13389848832236,98.62371791256396,3.23295607813634e-05,0.10130325704813,0,0,0
9025,344347.638247114,2011-01-07 10:17:46,1740.8767568975754,2,36,0.5499359965324402,4.005390167236328,27.041934551505896,27.502212195198616,109.15226325913308,98.62371791256396,3.23295607813634e-05,0.10130325704813,0,0,0
9026,344377.6533537652,2011-01-07 10:18:16,1770.8918635186928,2,36,0.550297200679779,4.007818698883057,27.046520798119836,27.502212195198616,109.17063827380738,98.62371791256396,0.0001295089750783,0.10130325704813,0,0,0
9027,344407.6685740245,2011-01-07 10:18:46,1800.9070838782814,2,36,0.5501165986061096,4.009922981262207,27.051107142880408,27.502212195198616,109.18902381780262,98.62371791256396,6.47544875391759e-05,0.10130325704813,0,0,0
9028,344437.68577283504,2011-01-07 10:19:16,1830.9242827138407,2,36,0.5499359965324402,4.012027740478516,27.05569370836979,27.502212195198616,109.2074204488342,98.62371791256396,6.47544875391759e-05,0.10130325704813,0,0,0
9029,344467.7005855937,2011-01-07 10:19:46,1860.9390953622872,2,36,0.5501165986061096,4.014294147491455,27.06027997050261,27.502212195198616,109.2258260600964,98.62371791256396,6.47544875391759e-05,0.10130325704813,0,0,0
9030,344497.7138226804,2011-01-07 10:20:16,1890.9523324389247,2,36,0.5501165986061096,4.0163984298706055,27.064865990789343,27.502212195198616,109.24424089663552,98.62371791256396,0.0,0.10130325704813,0,0,0
9031,344527.72893604834,2011-01-07 10:20:46,1920.9674458068573,2,36,0.5501165986061096,4.018826961517334,27.069452331045017,27.502212195198616,109.26266733986088,98.62371791256396,6.47544875391759e-05,0.10130325704813,0,0,0
9032,344557.7440912505,2011-01-07 10:21:16,1950.9826010040408,2,36,0.5501165986061096,4.021093368530273,27.074038612991306,27.502212195198616,109.28110376321553,98.62371791256396,6.47544875391759e-05,0.10130325704813,0,0,0
9033,344587.7593021766,2011-01-07 10:21:46,1980.9978119551809,2,36,0.5501165986061096,4.023359775543213,27.07862490932236,27.502212195198616,109.2995507549965,98.62371791256396,6.47544875391759e-05,0.10130325704813,0,0,0
9034,344617.7743148085,2011-01-07 10:22:16,2011.012824587048,2,36,0.5501165986061096,4.025626182556152,27.083211212982977,27.502212195198616,109.31800825914928,98.62371791256396,6.47544875391759e-05,0.10130325704813,0,0,0
9035,344647.7894124522,2011-01-07 10:22:46,2041.027922225778,2,36,0.5501165986061096,4.027892589569092,27.087797498074178,27.502212195198616,109.33647632953206,98.62371791256396,6.47544875391759e-05,0.10130325704813,0,0,0
9036,344677.8045406872,2011-01-07 10:23:16,2071.043050450739,2,36,0.5501165986061096,4.030320644378662,27.092383825019656,27.502212195198616,109.35495519774146,98.62371791256396,9.70840483205393e-05,0.10130325704813,0,0,0
9037,344707.8197707309,2011-01-07 10:23:47,2101.058280499476,2,36,0.5499359965324402,4.032749176025391,27.09697009692523,27.502212195198616,109.37344453263036,98.62371791256396,9.71794142969884e-05,0.10130325704813,0,0,0
9038,344737.8347727162,2011-01-07 10:24:17,2131.0732824647584,2,36,0.5499359965324402,4.035015106201172,27.101556440035864,27.502212195198616,109.39194501352893,98.62371791256396,6.47544875391759e-05,0.10130325704813,0,0,0
9039,344767.84988273086,2011-01-07 10:24:47,2161.0883924893583,2,36,0.5501165986061096,4.0374436378479,27.106142722851384,27.502212195198616,109.41045615188082,98.62371791256396,9.71794142969884e-05,0.10130325704813,0,0,0
9040,344797.8650456723,2011-01-07 10:25:17,2191.1035554358555,2,36,0.5501165986061096,4.039871692657471,27.110729092856072,27.502212195198616,109.42897869828826,98.62371791256396,9.70840483205393e-05,0.10130325704813,0,0,0
9041,344827.88013445894,2011-01-07 10:25:47,2221.118644237561,2,36,0.5501165986061096,4.042300224304199,27.115315356971827,27.502212195198616,109.44751181359536,98.62371791256396,6.47544875391759e-05,0.10130325704813,0,0,0
9042,344857.8953548988,2011-01-07 10:26:17,2251.133864667325,2,36,0.5501165986061096,4.044890403747559,27.11990171293356,27.502212195198616,109.46605665232546,98.62371791256396,0.0001295089750783,0.10130325704813,0,0,0
9043,344887.9103591648,2011-01-07 10:26:47,2281.1488689383536,2,36,0.5501165986061096,4.047156810760498,27.12448799759859,27.502212195198616,109.48461250718437,98.62371791256396,6.47544875391759e-05,0.10130325704813,0,0,0
9044,344917.9254848284,2011-01-07 10:27:17,2311.1639945768684,2,36,0.5501165986061096,4.049746990203857,27.12907429806061,27.502212195198616,109.50317986626224,98.62371791256396,6.47544875391759e-05,0.10130325704813,0,0,0
9045,344947.94058207114,2011-01-07 10:27:47,2341.179091849687,2,36,0.550297200679779,4.052337169647217,27.133660549407416,27.502212195198616,109.52175852669568,98.62371791256396,9.71794142969884e-05,0.10130325704813,0,0,0
9046,344977.9558391021,2011-01-07 10:28:17,2371.194348885684,2,36,0.5501165986061096,4.054927349090576,27.138246966104,27.502212195198616,109.5403496285077,98.62371791256396,0.0001295089750783,0.10130325704813,0,0,0
9047,345007.9708187869,2011-01-07 10:28:47,2401.209328540362,2,36,0.550297200679779,4.0573554039001465,27.142833284181204,27.502212195198616,109.55895210035796,98.62371791256396,0.0,0.10130325704813,0,0,0
9048,345037.9859621145,2011-01-07 10:29:17,2431.2244718980382,2,36,0.5501165986061096,4.059945583343506,27.147419611758817,27.502212195198616,109.57756657697732,98.62371791256396,3.23295607813634e-05,0.10130325704813,0,0,0
9049,345068.0010594324,2011-01-07 10:29:47,2461.239569185894,2,36,0.5501165986061096,4.062697887420654,27.15200590661333,27.502212195198616,109.59619265464153,98.62371791256396,9.71794142969884e-05,0.10130325704813,0,0,0
9050,345098.0161737978,2011-01-07 10:30:17,2491.254683576374,2,36,0.5499359965324402,4.065288066864014,27.156592301135877,27.502212195198616,109.61483139685753,98.62371791256396,6.47544875391759e-05,0.10130325704813,0,0,0
9051,345128.0313156918,2011-01-07 10:30:47,2521.269825450353,2,36,0.5501165986061096,4.068039894104004,27.161178563030266,27.502212195198616,109.63348183093836,98.62371791256396,9.70840483205393e-05,0.10130325704813,0,0,0
9052,345158.04642163124,2011-01-07 10:31:17,2551.284931409821,2,36,0.550297200679779,4.070792198181152,27.16576482901185,27.502212195198616,109.65214479273848,98.62371791256396,9.71794142969884e-05,0.10130325704813,0,0,0
9053,345188.06366095267,2011-01-07 10:31:47,2581.3021707964467,2,36,0.5501165986061096,4.073544025421143,27.170351427300343,27.502212195198616,109.67082160334432,98.62371791256396,0.0001295089750783,0.10130325704813,0,0,0
9054,345218.0766709785,2011-01-07 10:32:17,2611.315180731978,2,36,0.5499359965324402,4.076134204864502,27.174937416505045,27.502212195198616,109.6895085780593,98.62371791256396,6.47544875391759e-05,0.10130325704813,0,0,0
9055,345248.091776988,2011-01-07 10:32:47,2641.330286766634,2,36,0.5499359965324402,4.079048156738281,27.17952370262642,27.502212195198616,109.70820945675403,98.62371791256396,3.23295607813634e-05,0.10130325704813,0,0,0
9056,345278.1070972867,2011-01-07 10:33:17,2671.3456070402385,2,36,0.5501165986061096,4.08180046081543,27.184110029865067,27.502212195198616,109.72692340689804,98.62371791256396,6.47544875391759e-05,0.10130325704813,0,0,0
9057,345308.1220277739,2011-01-07 10:33:47,2701.3605376226133,2,36,0.5499359965324402,4.084714412689209,27.18869626098435,27.502212195198616,109.74565000081354,98.62371791256396,9.71794142969884e-05,0.10130325704813,0,0,0
9058,345338.13711288635,2011-01-07 10:34:17,2731.3756226649493,2,36,0.5499359965324402,4.087628364562988,27.193282587330906,27.502212195198616,109.76439030459706,98.62371791256396,9.71794142969884e-05,0.10130325704813,0,0,0
9059,345368.15222694096,2011-01-07 10:34:47,2761.3907367195934,2,36,0.5501165986061096,4.090542316436768,27.19786887739655,27.502212195198616,109.7831437876637,98.62371791256396,9.71794142969884e-05,0.10130325704813,0,0,0
9060,345398.167355577,2011-01-07 10:35:17,2791.4058653555785,2,36,0.5501165986061096,4.093456268310547,27.20245519654939,27.502212195198616,109.80191087482058,98.62371791256396,6.47544875391759e-05,0.10130325704813,0,0,0
9061,345428.1824639274,2011-01-07 10:35:47,2821.4209736809435,2,36,0.5501165986061096,4.096208095550537,27.20704149019257,27.502212195198616,109.8206915241153,98.62371791256396,6.47544875391759e-05,0.10130325704813,0,0,0
9062,345458.1975892702,2011-01-07 10:36:17,2851.436099048783,2,36,0.5501165986061096,4.099445819854736,27.21162776116321,27.502212195198616,109.83948582268012,98.62371791256396,6.47544875391759e-05,0.10130325704813,0,0,0
9063,345488.21268716955,2011-01-07 10:36:47,2881.451196918088,2,36,0.5501165986061096,4.102521896362305,27.216214128841077,27.502212195198616,109.8582943256821,98.62371791256396,6.47544875391759e-05,0.10130325704813,0,0,0
9064,345518.22781685315,2011-01-07 10:37:17,2911.466326626746,2,36,0.5499359965324402,4.105435848236084,27.220800334044213,27.502212195198616,109.87711609469534,98.62371791256396,9.71794142969884e-05,0.10130325704813,0,0,0
9065,345548.2429240708,2011-01-07 10:37:47,2941.481433829313,2,36,0.5501165986061096,4.108673572540283,27.22538652362927,27.502212195198616,109.89595189121783,98.62371791256396,9.71794142969884e-05,0.10130325704813,0,0,0
9066,345578.25803926325,2011-01-07 10:38:17,2971.4965490418426,2,36,0.5501165986061096,4.111749172210693,27.22997284653931,27.502212195198616,109.91480254207998,98.62371791256396,9.70840483205393e-05,0.10130325704813,0,0,0
9067,345608.27315803966,2011-01-07 10:38:47,3001.511667813242,2,36,0.5501165986061096,4.114824771881104,27.234559147420917,27.502212195198616,109.93366738305122,98.62371791256396,6.46591215627268e-05,0.10130325704813,0,0,0
9068,345638.2882653475,2011-01-07 10:39:17,3031.5267750960084,2,36,0.5501165986061096,4.118224620819092,27.23914534917072,27.502212195198616,109.95254633708085,98.62371791256396,9.71794142969884e-05,0.10130325704813,0,0,0
9069,345668.3034519329,2011-01-07 10:39:47,3061.541961721521,2,36,0.5501165986061096,4.121138572692871,27.243731675036933,27.502212195198616,109.97144043674278,98.62371791256396,3.24249267578125e-05,0.10130325704813,0,0,0
9070,345698.31858696986,2011-01-07 10:40:17,3091.55709671836,2,36,0.5501165986061096,4.124537944793701,27.248318074568843,27.502212195198616,109.99034950329,98.62371791256396,9.70840483205393e-05,0.10130325704813,0,0,0
9071,345728.33356390777,2011-01-07 10:40:47,3121.572073656266,2,36,0.5501165986061096,4.1277756690979,27.252904465357453,27.502212195198616,110.00927347214376,98.62371791256396,9.70840483205393e-05,0.10130325704813,0,0,0
9072,345758.3487660269,2011-01-07 10:41:17,3151.587275810481,2,36,0.5501165986061096,4.1310133934021,27.25749089201,27.502212195198616,110.0282126042748,98.62371791256396,6.47544875391759e-05,0.10130325704813,0,0,0
9073,345788.3638696355,2011-01-07 10:41:47,3181.602379384003,2,36,0.5501165986061096,4.134251117706299,27.26207728304141,27.502212195198616,110.04716680847076,98.62371791256396,9.70840483205393e-05,0.10130325704813,0,0,0
9074,345818.37941082474,2011-01-07 10:42:17,3211.617920633348,2,36,0.550297200679779,4.137812614440918,27.266663756645844,27.502212195198616,110.06613662993472,98.62371791256396,0.0001295089750783,0.10130325704813,0,0,0
9075,345848.3941226168,2011-01-07 10:42:47,3241.632632380317,2,36,0.5501165986061096,4.141212463378906,27.271250121240715,27.502212195198616,110.08512136973664,98.62371791256396,9.71794142969884e-05,0.10130325704813,0,0,0
9076,345878.4092893627,2011-01-07 10:43:17,3271.6477992265336,2,36,0.5501165986061096,4.144611835479736,27.275836613077,27.502212195198616,110.10412225644052,98.62371791256396,0.0001295089750783,0.10130325704813,0,0,0
9077,345908.4243383252,2011-01-07 10:43:47,3301.6628480736604,2,36,0.5501165986061096,4.148173332214356,27.28042294600367,27.502212195198616,110.12313851398352,98.62371791256396,0.0001295089750783,0.10130325704813,0,0,0
9078,345938.4395833362,2011-01-07 10:44:17,3331.6780930997256,2,36,0.550297200679779,4.151411056518555,27.28500930725397,27.502212195198616,110.14217067757312,98.62371791256396,9.70840483205393e-05,0.10130325704813,0,0,0
9079,345968.4545699131,2011-01-07 10:44:47,3361.693079661618,2,36,0.5501165986061096,4.154972553253174,27.28959568073436,27.502212195198616,110.16121884628583,98.62371791256396,9.70840483205393e-05,0.10130325704813,0,0,0
9080,345998.4698324879,2011-01-07 10:45:17,3391.708342251457,2,36,0.5499359965324402,4.158372402191162,27.29418208255851,27.502212195198616,110.18028323709795,98.62371791256396,6.47544875391759e-05,0.10130325704813,0,0,0
9081,346028.4848053156,2011-01-07 10:45:47,3421.7233150690954,2,36,0.5499359965324402,4.161933898925781,27.29876840730018,27.502212195198616,110.19936355495427,98.62371791256396,6.47544875391759e-05,0.10130325704813,0,0,0
9082,346058.5000556599,2011-01-07 10:46:17,3451.738565453515,2,36,0.5501165986061096,4.165657043457031,27.30335481185871,27.502212195198616,110.21846057872293,98.62371791256396,0.0001295089750783,0.10130325704813,0,0,0
9083,346088.5150645825,2011-01-07 10:46:47,3481.7535743611,2,36,0.5501165986061096,4.16921854019165,27.307941146703115,27.502212195198616,110.23757387540148,98.62371791256396,6.47544875391759e-05,0.10130325704813,0,0,0
9084,346118.53014974017,2011-01-07 10:47:17,3511.7686595287487,2,36,0.5499359965324402,4.1727800369262695,27.312527494894955,27.502212195198616,110.25670385594329,98.62371791256396,6.47544875391759e-05,0.10130325704813,0,0,0
9085,346148.5452500856,2011-01-07 10:47:47,3541.7837598642,2,36,0.5499359965324402,4.176503658294678,27.317113855430424,27.502212195198616,110.27585065104206,98.62371791256396,6.47544875391759e-05,0.10130325704813,0,0,0
9086,346178.56049364305,2011-01-07 10:48:17,3571.7990034165923,2,36,0.5501165986061096,4.180226802825928,27.321700207080497,27.502212195198616,110.2950143391676,98.62371791256396,9.70840483205393e-05,0.10130325704813,0,0,0
9087,346208.5755072724,2011-01-07 10:48:47,3601.814017111108,2,36,0.550297200679779,4.184112071990967,27.326286537798747,27.502212195198616,110.31419506000104,98.62371791256396,0.0001295089750783,0.10130325704813,0,0,0
9088,346238.59106673714,2011-01-07 10:49:17,3631.829576505676,2,36,0.5501165986061096,4.187835693359375,27.33087299545584,27.502212195198616,110.3333934616289,98.62371791256396,0.0001295089750783,0.10130325704813,0,0,0
9089,346268.60572808346,2011-01-07 10:49:47,3661.844237831981,2,36,0.5499359965324402,4.191558837890625,27.335459253078305,27.502212195198616,110.35260839461158,98.62371791256396,9.70840483205393e-05,0.10130325704813,0,0,0
9090,346298.62101322954,2011-01-07 10:50:17,3691.8595230281626,2,36,0.5501165986061096,4.195444107055664,27.34004562634082,27.502212195198616,110.3718413104617,98.62371791256396,0.0001295089750783,0.10130325704813,0,0,0
9091,346328.6360882619,2011-01-07 10:50:47,3721.874598030476,2,36,0.5501165986061096,4.199167251586914,27.344632004007146,27.502212195198616,110.39109183294023,98.62371791256396,6.47544875391759e-05,0.10130325704813,0,0,0
9092,346333.97974614654,2011-01-07 10:50:53,3727.218255915127,2,36,0.5499359965324402,4.200138568878174,27.345448535959644,27.502212195198616,110.39452094318564,98.62371791256396,0.0001295089750783,0.10130325704813,0,0,0
9093,346363.9992414358,2011-01-07 10:51:23,30.014898382121597,3,36,0.0,4.096855640411377,27.345448535959644,27.502212195198616,110.39452094318564,98.62371791256396,-0.0004857063177041,0.10130325704813,0,0,0
9094,346394.0143598263,2011-01-07 10:51:53,60.03001678259663,3,36,0.0,4.08358097076416,27.345448535959644,27.502212195198616,110.39452094318564,98.62371791256396,-0.0002590179501567,0.10130325704813,0,0,0
9095,346424.0294706528,2011-01-07 10:52:23,90.04512759917024,3,36,0.0,4.075325012207031,27.345448535959644,27.502212195198616,110.39452094318564,98.62371791256396,-0.0001618385285837,0.10130325704813,0,0,0
9096,346453.9977212844,2011-01-07 10:52:53,120.01337823074432,3,36,0.0,4.069820880889893,27.345448535959644,27.502212195198616,110.39452094318564,98.62371791256396,-0.0001295089750783,0.10130325704813,0,0,0
9097,346454.0044729851,2011-01-07 10:52:53,2.621533669e-06,4,36,1.0240353345870972,4.199976921081543,27.34544853670535,27.502212195198616,110.39452094631756,98.62371791256396,0.0,0.10130325704813,0,0,0
9098,346454.67646968766,2011-01-07 10:52:54,0.671999364184583,4,36,0.9736453890800476,4.199814796447754,27.34563360119632,27.502212195198616,110.39529819094908,98.62371791256396,-3.24249267578125e-05,0.10130325704813,0,0,0
9099,346456.535661997,2011-01-07 10:52:56,2.53119164340356,4,36,0.9234359860420228,4.199976921081543,27.34612241192326,27.502212195198616,110.39735113044166,98.62371791256396,0.0,0.10130325704813,0,0,0
9100,346459.4106317662,2011-01-07 10:52:58,5.406161417687159,4,36,0.8730459809303284,4.199976921081543,27.34683864235523,27.502212195198616,110.4003591978018,98.62371791256396,3.24249267578125e-05,0.10130325704813,0,0,0
9101,346463.31676163874,2011-01-07 10:53:02,9.312291285203122,4,36,0.8230172395706177,4.199814796447754,27.34775778595787,27.502212195198616,110.40421949166888,98.62371791256396,0.0,0.10130325704813,0,0,0
9102,346468.50418125954,2011-01-07 10:53:07,14.499711016302168,4,36,0.7729884386062622,4.199814796447754,27.34890642871032,27.502212195198616,110.40904365481715,98.62371791256396,-3.24249267578125e-05,0.10130325704813,0,0,0
9103,346475.2228497337,2011-01-07 10:53:14,21.21837940520991,4,36,0.7227790951728821,4.199976921081543,27.350300572140625,27.502212195198616,110.41489891038678,98.62371791256396,3.24249267578125e-05,0.10130325704813,0,0,0
9104,346484.0509163821,2011-01-07 10:53:23,30.04644602856349,4,36,0.6727502942085266,4.199814796447754,27.3520094592417,27.502212195198616,110.42207606737834,98.62371791256396,-3.24249267578125e-05,0.10130325704813,0,0,0
9105,346496.28499970713,2011-01-07 10:53:35,42.280529453792525,4,36,0.6227215528488159,4.199814796447754,27.35420625719392,27.502212195198616,110.43130237665892,98.62371791256396,-3.24249267578125e-05,0.10130325704813,0,0,0
9106,346514.26906554267,2011-01-07 10:53:53,60.26459521923872,4,36,0.5726927518844604,4.199976921081543,27.35718321382126,27.502212195198616,110.44380526651712,98.62371791256396,0.0,0.10130325704813,0,0,0
9107,346545.1127786712,2011-01-07 10:54:24,91.1083083326907,4,36,0.5226640105247498,4.199814796447754,27.36185497576272,27.502212195198616,110.46342613995228,98.62371791256396,0.0,0.10130325704813,0,0,0
9108,346605.8456226204,2011-01-07 10:55:25,151.84115227682838,4,36,0.4726352393627167,4.199814796447754,27.370204554604022,27.502212195198616,110.49849347653692,98.62371791256396,0.0,0.10130325704813,0,0,0
9109,346710.3285700189,2011-01-07 10:57:09,256.3240996853697,4,36,0.4226064682006836,4.199814796447754,27.383156556229803,27.502212195198616,110.55289053105172,98.62371791256396,3.23295607813634e-05,0.10130325704813,0,0,0
9110,346847.0448109979,2011-01-07 10:59:26,393.04034065440015,4,36,0.3725776970386505,4.199814796447754,27.398233550584617,27.502212195198616,110.61621242610796,98.62371791256396,-3.24249267578125e-05,0.10130325704813,0,0,0
9111,347011.97952531016,2011-01-07 11:02:11,557.9750549716216,4,36,0.3225489258766174,4.199814796447754,27.41413125458556,27.502212195198616,110.68298122304132,98.62371791256396,0.0,0.10130325704813,0,0,0
9112,347209.88232390746,2011-01-07 11:05:29,755.8778535739071,4,36,0.2723395526409149,4.199653148651123,27.430463500114,27.502212195198616,110.75157503599593,98.62371791256396,-3.23295607813634e-05,0.10130325704813,0,0,0
9113,347454.9718937125,2011-01-07 11:09:34,1000.9674233840494,4,36,0.2221301645040512,4.199653148651123,27.447282109059955,27.502212195198616,110.82221108446498,98.62371791256396,-3.23295607813634e-05,0.10130325704813,0,0,0
9114,347777.76553331857,2011-01-07 11:14:57,1323.7610629950802,4,36,0.1721013933420181,4.199814796447754,27.464901412323584,27.502212195198616,110.89621028131936,98.62371791256396,0.0,0.10130325704813,0,0,0
9115,348231.24006943824,2011-01-07 11:22:30,1777.2355990996791,4,36,0.1220726296305656,4.199814796447754,27.483271350550066,27.502212195198616,110.97336215262102,98.62371791256396,0.0,0.10130325704813,0,0,0
9116,349019.88296562986,2011-01-07 11:35:39,2565.878495306379,4,36,0.0720438584685325,4.199976921081543,27.50402150415285,27.502212195198616,111.06051057075116,98.62371791256396,3.24249267578125e-05,0.10130325704813,0,0,0
9117,349653.6223597367,2011-01-07 11:46:13,3199.6178894082173,4,36,0.0498289167881011,4.199814796447754,27.514673998725428,27.502212195198616,111.10524988130734,98.62371791256396,-3.24249267578125e-05,0.10130325704813,0,0,0
9118,349683.6534909039,2011-01-07 11:46:43,30.01728550155773,5,36,0.0,4.1901021003723145,27.514673998725428,27.502212195198616,111.10524988130734,98.62371791256396,-9.70840483205393e-05,0.10130325704813,0,0,0
9119,349713.6530575497,2011-01-07 11:47:13,60.01685214226226,5,36,0.0,4.188807010650635,27.514673998725428,27.502212195198616,111.10524988130734,98.62371791256396,0.0,0.10130325704813,0,0,0
9120,349713.8379792247,2011-01-07 11:47:13,0.187826205697276,6,36,-1.9243103452026844e-05,4.188483238220215,27.514673998725428,27.502212196202606,111.10524988130734,98.62371791676917,0.0,0.1067831367254257,0,0,0
9121,349718.6658000947,2011-01-07 11:47:18,5.01564709583886,6,36,0.0005225847125984,4.188483238220215,27.514674907123684,27.502212196368024,111.10525368632906,98.623717917462,-6.47544875391759e-05,0.1067831367254257,0,0,0
9122,349738.5085480469,2011-01-07 11:47:38,19.84342354714828,7,36,-1.099568486213684,3.988392353057861,27.51467490715843,27.50827290296303,111.1052536864746,98.6480220402444,-0.0015540600288659,0.1067831367254257,0,0,0
9123,349768.5236409138,2011-01-07 11:48:08,49.85851639894815,7,36,-1.099568486213684,3.943226099014282,27.51467490715843,27.517440279936093,111.1052536864746,98.68436755044038,-0.0010684489971026,0.1067831367254257,0,0,0
9124,349798.5387733643,2011-01-07 11:48:38,79.87364885445264,7,36,-1.0997490882873535,3.910201549530029,27.51467490715843,27.52660757581648,111.1052536864746,98.72035646482252,-0.0007770061492919,0.1067831367254257,0,0,0
9125,349828.553877023,2011-01-07 11:49:08,109.88875251318672,7,36,-1.0993878841400146,3.885432958602905,27.51467490715843,27.535774861190497,111.1052536864746,98.75608401087992,-0.0005827903514727,0.1067831367254257,0,0,0
9126,349858.5689953784,2011-01-07 11:49:38,139.9038708685493,7,36,-1.0993878841400146,3.86519718170166,27.51467490715843,27.54494216323535,111.1052536864746,98.79160785258416,-0.0005180359003134,0.1067831367254257,0,0,0
9127,349888.58411570865,2011-01-07 11:50:08,169.918991198834,7,36,-1.099568486213684,3.8481991291046143,27.51467490715843,27.55410951530548,111.1052536864746,98.82696294533903,-0.0004532813909463,0.1067831367254257,0,0,0
9128,349918.59924495616,2011-01-07 11:50:38,199.93412045135568,7,36,-1.0997490882873535,3.832982063293457,27.51467490715843,27.56327679566582,111.1052536864746,98.8621703881145,-0.0003884792386088,0.1067831367254257,0,0,0
9129,349948.6143817324,2011-01-07 11:51:08,229.9492572426663,7,36,-1.0997490882873535,3.8192217350006095,27.51467490715843,27.57244409537986,111.1052536864746,98.89724520232012,-0.0003885269106831,0.1067831367254257,0,0,0
9130,349978.6294686845,2011-01-07 11:51:38,259.9643441747124,7,36,-1.0993878841400146,3.8062708377838135,27.51467490715843,27.58161137826336,111.1052536864746,98.9321971625938,-0.0003561496851034,0.1067831367254257,0,0,0
9131,350008.6445937516,2011-01-07 11:52:08,289.97946924180263,7,36,-1.0993878841400146,3.7941293716430655,27.51467490715843,27.59077870066013,111.1052536864746,98.9670341194479,-0.0002913951757363,0.1067831367254257,0,0,0
9132,350038.65972381114,2011-01-07 11:52:38,319.99459929632314,7,36,-1.0997490882873535,3.782473564147949,27.51467490715843,27.599945950022757,111.1052536864746,99.00176169871456,-0.0002913951757363,0.1067831367254257,0,0,0
9133,350068.6748290037,2011-01-07 11:53:08,350.00970449890497,7,36,-1.0993878841400146,3.771465301513672,27.51467490715843,27.60911325360068,111.1052536864746,99.03638533010522,-0.0002590179501567,0.1067831367254257,0,0,0
9134,350098.69020918163,2011-01-07 11:53:38,380.0250846918474,7,36,-1.099568486213684,3.7607808113098153,27.51467490715843,27.618280623423228,111.1052536864746,99.0709101806027,-0.0002913951757363,0.1067831367254257,0,0,0
9135,350128.7050609375,2011-01-07 11:54:08,410.03993643272463,7,36,-1.099568486213684,3.750582218170166,27.51467490715843,27.62744789846284,111.1052536864746,99.10534081648782,-0.0002913951757363,0.1067831367254257,0,0,0
9136,350158.72021834523,2011-01-07 11:54:38,440.05509384041767,7,36,-1.0993878841400146,3.7410309314727774,27.51467490715843,27.636615223812488,111.1052536864746,99.13968054557373,-0.0002266406954731,0.1067831367254257,0,0,0
9137,350188.73542128643,2011-01-07 11:55:08,470.07029682169406,7,36,-1.099568486213684,3.731479644775391,27.51467490715843,27.645782548824524,111.1052536864746,99.173931862487,-0.0002913951757363,0.1067831367254257,0,0,0
9138,350218.7509719391,2011-01-07 11:55:38,500.0858475646997,7,36,-1.099568486213684,3.722414016723633,27.51467490715843,27.65494987007359,111.1052536864746,99.20809825462786,-0.0002590179501567,0.1067831367254257,0,0,0
9139,350248.7655394517,2011-01-07 11:56:08,530.1004149418551,7,36,-1.099568486213684,3.713510274887085,27.51467490715843,27.66411700539592,111.1052536864746,99.24218099869464,-0.0002590179501567,0.1067831367254257,0,0,0
9140,350278.780793806,2011-01-07 11:56:38,560.1156693412813,7,36,-1.0993878841400146,3.705092191696167,27.51467490715843,27.67328433502973,111.1052536864746,99.27618477890924,-0.0001942634553415,0.1067831367254257,0,0,0
9141,350308.7959158305,2011-01-07 11:57:08,590.1307913357136,7,36,-1.099568486213684,3.696512222290039,27.51467490715843,27.6824516229627,111.1052536864746,99.31011094170692,-0.0002913951757363,0.1067831367254257,0,0,0
9142,350338.81102223106,2011-01-07 11:57:38,620.1458977563311,7,36,-1.099568486213684,3.688579797744751,27.51467490715843,27.69161896472492,111.1052536864746,99.34396183385068,-0.0001942634553415,0.1067831367254257,0,0,0
9143,350368.82615826547,2011-01-07 11:58:08,650.1610337707054,7,36,-1.099568486213684,3.680647373199463,27.51467490715843,27.70078630189828,111.1052536864746,99.37773910680752,-0.0001942634553415,0.1067831367254257,0,0,0
9144,350398.84113695275,2011-01-07 11:58:38,680.1760124479472,7,36,-1.0997490882873535,3.672714948654175,27.51467490715843,27.70995362103127,111.1052536864746,99.41144416194592,-0.0002266406954731,0.1067831367254257,0,0,0
9145,350428.8562800147,2011-01-07 11:59:08,710.191155620161,7,36,-1.0997490882873535,3.664944648742676,27.51467490715843,27.71912092919354,111.1052536864746,99.44507789937629,-0.0002266406954731,0.1067831367254257,0,0,0
9146,350458.8713697136,2011-01-07 11:59:38,740.2062452088281,7,36,-1.099568486213684,3.6574978828430176,27.51467490715843,27.728288242189173,111.1052536864746,99.47864199639804,-0.0002266406954731,0.1067831367254257,0,0,0
9147,350488.886603206,2011-01-07 12:00:08,770.2214787011475,7,36,-1.099568486213684,3.650213003158569,27.51467490715843,27.737455625022506,111.1052536864746,99.51213841625422,-0.0001942634553415,0.1067831367254257,0,0,0
9148,350518.90162175754,2011-01-07 12:00:38,800.2364972678059,7,36,-1.099568486213684,3.642928123474121,27.51467490715843,27.74662290632609,111.1052536864746,99.54556693892864,-0.0001942634553415,0.1067831367254257,0,0,0
9149,350548.9168455958,2011-01-07 12:01:08,830.2517210960393,7,36,-1.099568486213684,3.635805130004883,27.51467490715843,27.755790197687457,111.1052536864746,99.57893007474031,-0.0001942634553415,0.1067831367254257,0,0,0
9150,350578.93186151586,2011-01-07 12:01:38,860.266737051189,7,36,-1.099568486213684,3.629005908966065,27.51467490715843,27.764957491343143,111.1052536864746,99.61222984168208,-0.0002266406954731,0.1067831367254257,0,0,0
9151,350608.9469518013,2011-01-07 12:02:08,890.2818272864679,7,36,-1.099568486213684,3.622206687927246,27.51467490715843,27.774124803891084,111.1052536864746,99.64546715409368,-0.0001942634553415,0.1067831367254257,0,0,0
9152,350638.9623763097,2011-01-07 12:02:38,920.2972519001204,7,36,-1.0997490882873535,3.6155693531036377,27.51467490715843,27.78329222169521,111.1052536864746,99.678643336539,-0.0001618862152099,0.1067831367254257,0,0,0
9153,350668.9771935345,2011-01-07 12:03:08,950.312069034748,7,36,-1.099568486213684,3.6090939044952393,27.51467490715843,27.79245941259363,111.1052536864746,99.71175865160303,-0.0001618862152099,0.1067831367254257,0,0,0
9154,350698.99230581475,2011-01-07 12:03:38,980.3271813049448,7,36,-1.099568486213684,3.602618455886841,27.51467490715843,27.80162669165636,111.1052536864746,99.74481452378888,-0.0001942634553415,0.1067831367254257,0,0,0
9155,350729.00742318266,2011-01-07 12:04:08,1010.342298672846,7,36,-1.099568486213684,3.5963048934936523,27.51467490715843,27.810793986748624,111.1052536864746,99.7778118006755,-0.0001295089750783,0.1067831367254257,0,0,0
9156,350759.02471761644,2011-01-07 12:04:38,1040.3595931116784,7,36,-1.0993878841400146,3.590315341949463,27.51467490715843,27.81996190164036,111.1052536864746,99.8107542853696,-9.713172767078504e-05,0.1067831367254257,0,0,0
9157,350789.0381264061,2011-01-07 12:05:08,1070.3730019263394,7,36,-1.0993878841400146,3.5843255519866943,27.51467490715843,27.829128678588923,111.1052536864746,99.84363693996995,-0.0001295089750783,0.1067831367254257,0,0,0
9158,350819.0528053864,2011-01-07 12:05:38,1100.3876809166693,7,36,-1.0992072820663452,3.578335762023926,27.51467490715843,27.83829574782588,111.1052536864746,99.87646624876172,-0.0001618862152099,0.1067831367254257,0,0,0
9159,350849.0680158112,2011-01-07 12:06:08,1130.40289130641,7,36,-1.0993878841400146,3.572669744491577,27.51467490715843,27.847462810614346,111.1052536864746,99.90924223933648,-0.0001295089750783,0.1067831367254257,0,0,0
9160,350879.0830178116,2011-01-07 12:06:38,1160.41789332683,7,36,-1.099568486213684,3.5668418407440186,27.51467490715843,27.856629861465706,111.1052536864746,99.9419662839835,-0.0001618862152099,0.1067831367254257,0,0,0
9161,350909.09824289294,2011-01-07 12:07:08,1190.433118403174,7,36,-1.099568486213684,3.56149959564209,27.51467490715843,27.86579690749381,111.1052536864746,99.974639306469,-0.0001295089750783,0.1067831367254257,0,0,0
9162,350939.113245981,2011-01-07 12:07:38,1220.4481214661926,7,36,-1.0997490882873535,3.556319236755371,27.51467490715843,27.874963943032267,111.1052536864746,100.00726354627793,-0.0001295089750783,0.1067831367254257,0,0,0
9163,350969.1283552337,2011-01-07 12:08:08,1250.4632307238812,7,36,-1.099568486213684,3.5511388778686523,27.51467490715843,27.88413124640963,111.1052536864746,100.03984052946085,-9.713172767078504e-05,0.1067831367254257,0,0,0
9164,350999.14350506745,2011-01-07 12:08:38,1280.4783805777477,7,36,-1.099568486213684,3.5459585189819336,27.51467490715843,27.89329863772621,111.1052536864746,100.07237072260304,-0.0001295089750783,0.1067831367254257,0,0,0
9165,351029.1585890372,2011-01-07 12:09:09,1310.4934645273604,7,36,-1.099568486213684,3.540940046310425,27.51467490715843,27.902466017485263,111.1052536864746,100.10485469983114,-0.0001618862152099,0.1067831367254257,0,0,0
9166,351059.1737100441,2011-01-07 12:09:39,1340.5085855343316,7,36,-1.099568486213684,3.536245346069336,27.51467490715843,27.91163336498828,111.1052536864746,100.13729475498324,-0.0001618862152099,0.1067831367254257,0,0,0
9167,351089.18883251474,2011-01-07 12:10:09,1370.5237080099637,7,36,-1.099568486213684,3.531550645828247,27.51467490715843,27.92080064420332,111.1052536864746,100.16969084296802,-9.713172767078504e-05,0.1067831367254257,0,0,0
9168,351119.20395750663,2011-01-07 12:10:39,1400.5388330018664,7,36,-1.0997490882873535,3.526855945587158,27.51467490715843,27.92996800827072,111.1052536864746,100.20204446884614,-0.0001618862152099,0.1067831367254257,0,0,0
9169,351149.21905841853,2011-01-07 12:11:09,1430.5539339087418,7,36,-1.099568486213684,3.5223231315612797,27.51467490715843,27.93913538551019,111.1052536864746,100.2343562573049,-9.713172767078504e-05,0.1067831367254257,0,0,0
9170,351179.234190042,2011-01-07 12:11:39,1460.5690655321723,7,36,-1.099568486213684,3.5176284313201904,27.51467490715843,27.948302640914218,111.1052536864746,100.26662567251805,-0.0001618862152099,0.1067831367254257,0,0,0
9171,351209.2493470637,2011-01-07 12:12:09,1490.5842225488911,7,36,-1.0993878841400146,3.5134193897247314,27.51467490715843,27.95747000498569,111.1052536864746,100.29885349933474,-6.47544875391759e-05,0.1067831367254257,0,0,0
9172,351239.2644350484,2011-01-07 12:12:39,1520.5993105435855,7,36,-1.099568486213684,3.508563041687012,27.51467490715843,27.96663731080595,111.1052536864746,100.33103913574332,-0.0001295089750783,0.1067831367254257,0,0,0
9173,351269.2794969781,2011-01-07 12:13:09,1550.614372493368,7,36,-1.099568486213684,3.5041921138763428,27.51467490715843,27.97580464600144,111.1052536864746,100.3631834860264,-0.0001295089750783,0.1067831367254257,0,0,0
9174,351299.29489074484,2011-01-07 12:13:39,1580.6297662300656,7,36,-1.099568486213684,3.499659299850464,27.51467490715843,27.98497213859987,111.1052536864746,100.39528736965248,-0.0001295089750783,0.1067831367254257,0,0,0
9175,351329.30977401935,2011-01-07 12:14:09,1610.6446495095468,7,36,-1.0997490882873535,3.495288372039795,27.51467490715843,27.99413943289327,111.1052536864746,100.42735084557576,-0.0001295089750783,0.1067831367254257,0,0,0
9176,351359.32489563787,2011-01-07 12:14:39,1640.6597711380673,7,36,-1.0993878841400146,3.490755558013916,27.51467490715843,28.00330679459546,111.1052536864746,100.45937303422022,-0.0001295089750783,0.1067831367254257,0,0,0
9177,351389.3399716828,2011-01-07 12:15:09,1670.6748471779667,7,36,-1.0993878841400146,3.486384630203247,27.51467490715843,28.01247408842473,111.1052536864746,100.49135391461502,-9.713172767078504e-05,0.1067831367254257,0,0,0
9178,351419.3551600376,2011-01-07 12:15:39,1700.6900355528394,7,36,-1.099568486213684,3.481528043746948,27.51467490715843,28.021641435272343,111.1052536864746,100.52329317686797,-0.0001295089750783,0.1067831367254257,0,0,0
9179,351449.3702422178,2011-01-07 12:16:09,1730.7051177129924,7,36,-1.0997490882873535,3.47683334350586,27.51467490715843,28.0308087681052,111.1052536864746,100.55518824772156,-0.0001618862152099,0.1067831367254257,0,0,0
9180,351479.38548932906,2011-01-07 12:16:39,1760.7203648443042,7,36,-1.099568486213684,3.4718148708343506,27.51467490715843,28.039976101082484,111.1052536864746,100.58703882439036,-0.0001295089750783,0.1067831367254257,0,0,0
9181,351509.40262664127,2011-01-07 12:17:09,1790.7375021364787,7,36,-1.0993878841400146,3.466796398162842,27.51467490715843,28.04914402157017,111.1052536864746,100.61884528354136,-0.0001295089750783,0.1067831367254257,0,0,0
9182,351539.4157135988,2011-01-07 12:17:39,1820.750589124048,7,36,-1.099568486213684,3.461616039276123,27.51467490715843,28.05831061308616,111.1052536864746,100.65060033488253,-0.0001295089750783,0.1067831367254257,0,0,0
9183,351569.4307056493,2011-01-07 12:18:09,1850.765581169608,7,36,-1.0997490882873535,3.4559500217437744,27.51467490715843,28.067478666371485,111.1052536864746,100.6823114837192,-0.0001942634553415,0.1067831367254257,0,0,0
9184,351599.44605929614,2011-01-07 12:18:39,1880.780934791326,7,36,-1.099568486213684,3.450284004211426,27.51467490715843,28.076646854788525,111.1052536864746,100.71397106221606,-0.0001942634553415,0.1067831367254257,0,0,0
9185,351629.4611402482,2011-01-07 12:19:09,1910.7960157434684,7,36,-1.0993878841400146,3.444294214248657,27.51467490715843,28.085814125043605,111.1052536864746,100.74557447151632,-0.0001942634553415,0.1067831367254257,0,0,0
9186,351659.47620668926,2011-01-07 12:19:39,1940.8110821994817,7,36,-1.099568486213684,3.4379806518554688,27.51467490715843,28.094981411328213,111.1052536864746,100.7771210201918,-0.0001618862152099,0.1067831367254257,0,0,0
9187,351689.491188805,2011-01-07 12:20:09,1970.826064290231,7,36,-1.099568486213684,3.4308578968048096,27.51467490715843,28.10414874927485,111.1052536864746,100.8086065915824,-0.0002265930233988,0.1067831367254257,0,0,0
9188,351719.5063318971,2011-01-07 12:20:39,2000.841207387257,7,36,-1.099568486213684,3.423411130905152,27.51467490715843,28.11331609261292,111.1052536864746,100.84002620931456,-0.0001942634553415,0.1067831367254257,0,0,0
9189,351749.5214294305,2011-01-07 12:21:09,2030.8563049207253,7,36,-1.099568486213684,3.415154933929444,27.51467490715843,28.122483475014253,111.1052536864746,100.87137255065488,-0.0001942634553415,0.1067831367254257,0,0,0
9190,351779.5365470691,2011-01-07 12:21:39,2060.8714225593017,7,36,-1.099568486213684,3.4057655334472656,27.51467490715843,28.13165085473399,111.1052536864746,100.90263839527388,-0.0002590179501567,0.1067831367254257,0,0,0
9191,351809.5516604872,2011-01-07 12:22:09,2090.8865359723463,7,36,-1.099568486213684,3.395081043243408,27.51467490715843,28.140818196119948,111.1052536864746,100.9338122222125,-0.0002913951757363,0.1067831367254257,0,0,0
9192,351839.5668038198,2011-01-07 12:22:39,2120.9016793300225,7,36,-1.099568486213684,3.382615804672241,27.51467490715843,28.149985543522916,111.1052536864746,100.96488054357658,-0.0003885269106831,0.1067831367254257,0,0,0
9193,351869.58202204405,2011-01-07 12:23:09,2150.9168975392517,7,36,-1.0993878841400146,3.3680460453033447,27.51467490715843,28.159152910175703,111.1052536864746,100.9958249799941,-0.0003885269106831,0.1067831367254257,0,0,0
9194,351899.5970153327,2011-01-07 12:23:39,2180.931890822897,7,36,-1.099568486213684,3.350400686264038,27.51467490715843,28.168320170589062,111.1052536864746,101.02662220317586,-0.0005179882282391,0.1067831367254257,0,0,0
9195,351929.6121576778,2011-01-07 12:24:09,2210.9470331730618,7,36,-1.099568486213684,3.3287079334259038,27.51467490715843,28.177487467972988,111.1052536864746,101.0572405235692,-0.0006475448608398,0.1067831367254257,0,0,0
9196,351959.6272677426,2011-01-07 12:24:39,2240.9621432377617,7,36,-1.099568486213684,3.30183482170105,27.51467490715843,28.18665477619744,111.1052536864746,101.08763780809232,-0.0008094310760498,0.1067831367254257,0,0,0
9197,351989.642407416,2011-01-07 12:25:09,2270.977282911256,7,36,-1.0997490882873535,3.268000841140747,27.51467490715843,28.19582198757347,111.1052536864746,101.11775837425378,-0.0010360240703448,0.1067831367254257,0,0,0
9198,352019.65760818176,2011-01-07 12:25:39,2300.9924836770106,7,36,-1.0997490882873535,3.2247772216796875,27.51467490715843,28.204989329770772,111.1052536864746,101.14752851609074,-0.0013598442310467,0.1067831367254257,0,0,0
9199,352049.6726175856,2011-01-07 12:26:09,2331.007493100882,7,36,-1.0993878841400146,3.1673078536987305,27.51467490715843,28.214156710697225,111.1052536864746,101.17684067341362,-0.0017483711708337,0.1067831367254257,0,0,0
9200,352079.6877739457,2011-01-07 12:26:39,2361.0226494459266,7,36,-1.099568486213684,3.087498188018799,27.51467490715843,28.22332411112258,111.1052536864746,101.20553137219612,-0.0024282932281494,0.1067831367254257,0,0,0
9201,352109.7029320652,2011-01-07 12:27:09,2391.0378076606307,7,36,-1.099568486213684,2.970940351486206,27.51467490715843,28.23249139747023,111.1052536864746,101.23333724840384,-0.0036910057533532,0.1067831367254257,0,0,0
9202,352139.7183784832,2011-01-07 12:27:39,2421.0532540184768,7,36,-1.0993878841400146,2.797075033187866,27.51467490715843,28.24165882336003,111.1052536864746,101.25982447163508,-0.0053422451019287,0.1067831367254257,0,0,0
9203,352153.42085445445,2011-01-07 12:27:53,2434.7557299396185,7,36,-1.099568486213684,2.699620008468628,27.51467490715843,28.24584388678038,111.1052536864746,101.27132898944149,-0.0058278562501072,0.1067831367254257,0,0,0
9204,352213.4448091224,2011-01-07 12:28:53,60.0146152873315,8,36,0.0,3.5598807334899902,27.51467490715843,28.24584388678038,111.1052536864746,101.27132898944149,0.0012303352123126,0.1067831367254257,0,0,0
9205,352213.6270444328,2011-01-07 12:28:53,0.187504508929948,9,36,-0.0018253359012305,3.56036639213562,27.51467490715843,28.245843981852246,111.1052536864746,101.27132932793216,0.0,0.1020214408636093,0,0,0
9206,352218.4552296911,2011-01-07 12:28:58,5.015689787238965,9,36,0.0003419754502829,3.5673274993896484,27.51467581636125,28.24584398352756,111.105256927229,101.2713293339038,0.0010360718006268,0.1020214408636093,0,0,0
