Data_Point,Test_Time(s),Date_Time,Step_Time(s),Step_Index,Cycle_Index,Current(A),Voltage(V),Charge_Capacity(Ah),Discharge_Capacity(Ah),Charge_Energy(Wh),Discharge_Energy(Wh),dV/dt(V/s),Internal_Resistance(Ohm),Is_FC_Data,AC_Impedance(Ohm),ACI_Phase_Angle(Deg)
709,25357.27677879017,2011-01-03 17:40:36,30.013414694315063,1,4,0.0,3.5007925033569336,1.78871807333925,2.59826508451488,7.174432325728506,9.439002852369198,0.0009065627818927,0.0986045151948928,0,0,0
710,25387.29178142211,2011-01-03 17:41:06,60.028417316234304,1,4,0.0,3.527503490447998,1.78871807333925,2.59826508451488,7.174432325728506,9.439002852369198,0.0006151676061563,0.0986045151948928,0,0,0
711,25417.30677531227,2011-01-03 17:41:36,90.04341120137883,1,4,0.0,3.5472536087036133,1.78871807333925,2.59826508451488,7.174432325728506,9.439002852369198,0.0004532813909463,0.0986045151948928,0,0,0
712,25447.275445469437,2011-01-03 17:42:06,120.0120813836022,1,4,0.0,3.562794685363769,1.78871807333925,2.59826508451488,7.174432325728506,9.439002852369198,0.0003885269106831,0.0986045151948928,0,0,0
713,25477.29166222396,2011-01-03 17:42:36,30.01511112734816,2,4,0.5501165986061096,3.700235605239868,1.79330420215075,2.59826508451488,7.19127821555267,9.439002852369198,0.0011979580158367,0.0986045151948928,0,0,0
714,25507.306808092893,2011-01-03 17:43:06,60.03025700630803,2,4,0.5499359965324402,3.73390793800354,1.797890332814252,2.59826508451488,7.208330557849889,9.439002852369198,0.0007446765666827,0.0986045151948928,0,0,0
715,25537.32195903447,2011-01-03 17:43:36,90.045407942873,2,4,0.550297200679779,3.757057428359986,1.802476405407284,2.59826508451488,7.225510685808998,9.439002852369198,0.0005180359003134,0.0986045151948928,0,0,0
716,25567.33707666803,2011-01-03 17:44:06,120.06052557643666,2,4,0.5499359965324402,3.773084163665772,1.807062423819402,2.59826508451488,7.242780099087956,9.439002852369198,0.0003237724304199,0.0986045151948928,0,0,0
717,25597.352249945277,2011-01-03 17:44:36,150.07569885368147,2,4,0.5499359965324402,3.783444881439209,1.811648542281504,2.59826508451488,7.260110209920634,9.439002852369198,0.0001618862152099,0.0986045151948928,0,0,0
718,25627.36973296912,2011-01-03 17:45:06,180.09318205797527,2,4,0.5499359965324402,3.790729761123657,1.816234960612802,2.59826508451488,7.27748052667413,9.439002852369198,0.0001618862152099,0.0986045151948928,0,0,0
719,25657.38250500674,2011-01-03 17:45:36,210.1059539151424,2,4,0.5501165986061096,3.796395778656006,1.820819935848675,2.59826508451488,7.294874398559797,9.439002852369198,9.713172767078504e-05,0.0986045151948928,0,0,0
720,25687.397638580027,2011-01-03 17:46:06,240.1210874683827,2,4,0.5499359965324402,3.801738023757935,1.825405066597885,2.59826508451488,7.31229419693562,9.439002852369198,0.0001295089750783,0.0986045151948928,0,0,0
721,25717.41277446909,2011-01-03 17:46:36,270.1362234476696,2,4,0.5499359965324402,3.8067564964294434,1.829990235259307,2.59826508451488,7.329737649905063,9.439002852369198,9.713172767078504e-05,0.0986045151948928,0,0,0
722,25747.429882117383,2011-01-03 17:47:06,300.1533311160122,2,4,0.5497553944587708,3.811613082885742,1.83457571794183,2.59826508451488,7.347204737087842,9.439002852369198,0.0001618862152099,0.0986045151948928,0,0,0
723,25777.443194210984,2011-01-03 17:47:36,330.1666431244024,2,4,0.5499359965324402,3.816145896911621,1.839161283310832,2.59826508451488,7.364694123446335,9.439002852369198,6.47544875391759e-05,0.0986045151948928,0,0,0
724,25807.458217263826,2011-01-03 17:48:06,360.1816661672168,2,4,0.5499359965324402,3.82084059715271,1.843747328084954,2.59826508451488,7.382206291092802,9.439002852369198,0.0001295089750783,0.0986045151948928,0,0,0
725,25837.473364591395,2011-01-03 17:48:36,390.196814472223,2,4,0.5499359965324402,3.825211524963379,1.848333394224011,2.59826508451488,7.399738732398697,9.439002852369198,0.0001295089750783,0.0986045151948928,0,0,0
726,25867.48848888656,2011-01-03 17:49:06,420.21193778494086,2,4,0.5499359965324402,3.829420566558838,1.852919428509378,2.59826508451488,7.417290701094887,9.439002852369198,9.713172767078504e-05,0.0986045151948928,0,0,0
727,25897.50361087097,2011-01-03 17:49:36,450.22705975431074,2,4,0.5501165986061096,3.833467483520508,1.857505432597545,2.59826508451488,7.434861749891781,9.439002852369198,6.470680091297254e-05,0.0986045151948928,0,0,0
728,25927.518752158485,2011-01-03 17:50:06,480.2422010468398,2,4,0.5501165986061096,3.837676525115967,1.862091463238322,2.59826508451488,7.452451824141504,9.439002852369198,9.713172767078504e-05,0.0986045151948928,0,0,0
729,25957.5338928846,2011-01-03 17:50:36,510.25734177295726,2,4,0.5497553944587708,3.841723680496216,1.866677442155313,2.59826508451488,7.470060520074373,9.439002852369198,9.713172767078504e-05,0.0986045151948928,0,0,0
730,25987.549097164112,2011-01-03 17:51:07,540.2725460574817,2,4,0.550297200679779,3.845770835876465,1.871263499436786,2.59826508451488,7.487688291176323,9.439002852369198,9.713172767078504e-05,0.0986045151948928,0,0,0
731,26017.564308491197,2011-01-03 17:51:37,570.2877574046084,2,4,0.5499359965324402,3.849656105041504,1.875849502856944,2.59826508451488,7.505334485712642,9.439002852369198,6.47544875391759e-05,0.0986045151948928,0,0,0
732,26047.57931447148,2011-01-03 17:52:07,600.3027633548228,2,4,0.5499359965324402,3.853865146636963,1.880435514699796,2.59826508451488,7.522999327810918,9.439002852369198,0.0001295089750783,0.0986045151948928,0,0,0
733,26077.59446151334,2011-01-03 17:52:37,630.3179104016934,2,4,0.5499359965324402,3.857750415802002,1.885021577964202,2.59826508451488,7.540682899861205,9.439002852369198,3.237724376958795e-05,0.0986045151948928,0,0,0
734,26107.60960021441,2011-01-03 17:53:07,660.3330491077762,2,4,0.5499359965324402,3.861959457397461,1.889607643707687,2.59826508451488,7.558384827709926,9.439002852369198,0.0001295089750783,0.0986045151948928,0,0,0
735,26137.62484319037,2011-01-03 17:53:37,690.3482920937568,2,4,0.5501165986061096,3.8658447265625,1.894193641959477,2.59826508451488,7.576104640794316,9.439002852369198,6.47544875391759e-05,0.0986045151948928,0,0,0
736,26167.639858002665,2011-01-03 17:54:07,720.3633068860082,2,4,0.5501165986061096,3.869891881942749,1.898779626366504,2.59826508451488,7.593842289723408,9.439002852369198,0.0001295089750783,0.0986045151948928,0,0,0
737,26197.6550066786,2011-01-03 17:54:37,750.3784555619388,2,4,0.5501165986061096,3.873453378677368,1.903365612991785,2.59826508451488,7.611597517223736,9.439002852369198,9.713172767078504e-05,0.0986045151948928,0,0,0
738,26227.67038913217,2011-01-03 17:55:07,780.3938380305531,2,4,0.5501165986061096,3.8773386478424072,1.907951588831439,2.59826508451488,7.629369725134422,9.439002852369198,0.0001295089750783,0.0986045151948928,0,0,0
739,26257.68539997458,2011-01-03 17:55:37,810.4088488779728,2,4,0.5499359965324402,3.880738258361816,1.912537490901299,2.59826508451488,7.647158410545094,9.439002852369198,9.713172767078504e-05,0.0986045151948928,0,0,0
740,26287.70041085207,2011-01-03 17:56:07,840.4238597354176,2,4,0.5501165986061096,3.884299755096436,1.917123408117584,2.59826508451488,7.664963197184291,9.439002852369198,9.713172767078504e-05,0.0986045151948928,0,0,0
741,26317.715553096976,2011-01-03 17:56:37,870.4390019803202,2,4,0.5499359965324402,3.8875374794006343,1.921709450228435,2.59826508451488,7.682783828279797,9.439002852369198,9.713172767078504e-05,0.0986045151948928,0,0,0
742,26347.732674263963,2011-01-03 17:57:07,900.4561231523181,2,4,0.5501165986061096,3.890613317489624,1.926295801898512,2.59826508451488,7.700620327870801,9.439002852369198,9.713172767078504e-05,0.0986045151948928,0,0,0
743,26377.745840123105,2011-01-03 17:57:37,930.4692890064468,2,4,0.5501165986061096,3.8935272693634033,1.930881518412133,2.59826508451488,7.718468306318116,9.439002852369198,6.47544875391759e-05,0.0986045151948928,0,0,0
744,26407.761006322708,2011-01-03 17:58:07,960.4844552210895,2,4,0.5499359965324402,3.8962793350219727,1.93546761172993,2.59826508451488,7.736330814898798,9.439002852369198,6.47544875391759e-05,0.0986045151948928,0,0,0
745,26437.776272275933,2011-01-03 17:58:37,990.4997212093988,2,4,0.5501165986061096,3.899031400680542,1.940053633345465,2.59826508451488,7.754205474264161,9.439002852369198,6.47544875391759e-05,0.0986045151948928,0,0,0
746,26467.79360883474,2011-01-03 17:59:07,1020.517057818332,2,4,0.5499359965324402,3.9014596939086914,1.944639981887246,2.59826508451488,7.772093323632562,9.439002852369198,6.47544875391759e-05,0.0986045151948928,0,0,0
747,26497.80638272698,2011-01-03 17:59:37,1050.529831610321,2,4,0.5501165986061096,3.904049873352051,1.949225629046749,2.59826508451488,7.789989843669163,9.439002852369198,9.713172767078504e-05,0.0986045151948928,0,0,0
748,26527.82153747805,2011-01-03 18:00:07,1080.544986371418,2,4,0.5501165986061096,3.9063162803649902,1.95381173360887,2.59826508451488,7.80789905861196,9.439002852369198,6.47544875391759e-05,0.0986045151948928,0,0,0
749,26557.836651016405,2011-01-03 18:00:37,1110.5600999047626,2,4,0.5501165986061096,3.90842080116272,1.958397633793861,2.59826508451488,7.825817850153686,9.439002852369198,3.237724376958795e-05,0.0986045151948928,0,0,0
750,26587.85180283517,2011-01-03 18:01:07,1140.575251718514,2,4,0.5501165986061096,3.910525321960449,1.962983605318712,2.59826508451488,7.843747036150582,9.439002852369198,3.237724376958795e-05,0.0986045151948928,0,0,0
751,26617.866937065097,2011-01-03 18:01:37,1170.5903859484408,2,4,0.5501165986061096,3.9127917289733887,1.967569595829893,2.59826508451488,7.861685976701627,9.439002852369198,6.47544875391759e-05,0.0986045151948928,0,0,0
752,26647.8820873751,2011-01-03 18:02:07,1200.6055362835066,2,4,0.5499359965324402,3.914734125137329,1.972155567813248,2.59826508451488,7.879634368902917,9.439002852369198,6.47544875391759e-05,0.0986045151948928,0,0,0
753,26677.89720642219,2011-01-03 18:02:37,1230.6206553105433,2,4,0.5499359965324402,3.9166767597198486,1.976741563038096,2.59826508451488,7.897592119295011,9.439002852369198,6.47544875391759e-05,0.0986045151948928,0,0,0
754,26707.9123604665,2011-01-03 18:03:07,1260.635809349841,2,4,0.5501165986061096,3.918781280517578,1.981327523107936,2.59826508451488,7.915558900306994,9.439002852369198,3.237724376958795e-05,0.0986045151948928,0,0,0
755,26737.927604730667,2011-01-03 18:03:37,1290.6510536340572,2,4,0.5501165986061096,3.9207239151000977,1.985913542675011,2.59826508451488,7.933534965065631,9.439002852369198,6.47544875391759e-05,0.0986045151948928,0,0,0
756,26767.94262301161,2011-01-03 18:04:07,1320.6660719049785,2,4,0.5501165986061096,3.922666549682617,1.990499479995247,2.59826508451488,7.951519589776353,9.439002852369198,6.47544875391759e-05,0.0986045151948928,0,0,0
757,26797.957880313268,2011-01-03 18:04:37,1350.6813292417255,2,4,0.5499359965324402,3.9246091842651367,1.995085479708112,2.59826508451488,7.969513369706994,9.439002852369198,3.237724376958795e-05,0.0986045151948928,0,0,0
758,26827.972929375937,2011-01-03 18:05:07,1380.696378259277,2,4,0.5501165986061096,3.926551818847656,1.999671510327148,2.59826508451488,7.987516089954243,9.439002852369198,6.47544875391759e-05,0.0986045151948928,0,0,0
759,26857.98825791013,2011-01-03 18:05:37,1410.71170681352,2,4,0.5501165986061096,3.928332567214966,2.004257506786095,2.59826508451488,8.00552739079792,9.439002852369198,3.237724376958795e-05,0.0986045151948928,0,0,0
760,26888.00317183599,2011-01-03 18:06:07,1440.726620719331,2,4,0.5499359965324402,3.9304370880126953,2.008843433524784,2.59826508451488,8.023547136567437,9.439002852369198,9.713172767078504e-05,0.0986045151948928,0,0,0
761,26918.018432556168,2011-01-03 18:06:37,1470.7418814846233,2,4,0.550297200679779,3.932379722595215,2.013429496112542,2.59826508451488,8.041576118493245,9.439002852369198,6.47544875391759e-05,0.0986045151948928,0,0,0
762,26948.03538856653,2011-01-03 18:07:07,1500.7588374548875,2,4,0.5497553944587708,3.9339985847473145,2.018015771460891,2.59826508451488,8.05961450384646,9.439002852369198,6.47544875391759e-05,0.0986045151948928,0,0,0
763,26978.048840107684,2011-01-03 18:07:37,1530.7722890110738,2,4,0.5501165986061096,3.935941219329834,2.022601512371554,2.59826508451488,8.077659464116019,9.439002852369198,3.237724376958795e-05,0.0986045151948928,0,0,0
764,27008.06373064024,2011-01-03 18:08:07,1560.787179523582,2,4,0.5501165986061096,3.937721967697144,2.027187512193312,2.59826508451488,8.09571392893324,9.439002852369198,0.0,0.0986045151948928,0,0,0
765,27038.07887817332,2011-01-03 18:08:37,1590.8023270566644,2,4,0.5499359965324402,3.939664602279663,2.031773539257156,2.59826508451488,8.113777233280516,9.439002852369198,6.47544875391759e-05,0.0986045151948928,0,0,0
766,27068.09403403215,2011-01-03 18:09:07,1620.817482945572,2,4,0.5501165986061096,3.941607236862183,2.036359561249764,2.59826508451488,8.1318490698516,9.439002852369198,6.47544875391759e-05,0.0986045151948928,0,0,0
767,27098.109418225064,2011-01-03 18:09:37,1650.8328671284585,2,4,0.5499359965324402,3.943387985229492,2.040945690669716,2.59826508451488,8.149929896408558,9.439002852369198,3.237724376958795e-05,0.0986045151948928,0,0,0
768,27128.124406656618,2011-01-03 18:10:07,1680.8478555600109,2,4,0.5501165986061096,3.945330619812012,2.045531632514979,2.59826508451488,8.168018499906712,9.439002852369198,6.47544875391759e-05,0.0986045151948928,0,0,0
769,27158.139414125617,2011-01-03 18:10:37,1710.8628630189858,2,4,0.5501165986061096,3.947111368179321,2.05011761222012,2.59826508451488,8.186115698550493,9.439002852369198,3.237724376958795e-05,0.0986045151948928,0,0,0
770,27188.154857836867,2011-01-03 18:11:07,1740.8783068505352,2,4,0.5501165986061096,3.949054002761841,2.05470365181205,2.59826508451488,8.20422163418396,9.439002852369198,6.47544875391759e-05,0.0986045151948928,0,0,0
771,27218.16984754159,2011-01-03 18:11:37,1770.8932964499984,2,4,0.5501165986061096,3.9508347511291504,2.059289633702252,2.59826508451488,8.222335801983016,9.439002852369198,3.237724376958795e-05,0.0986045151948928,0,0,0
772,27248.184807978378,2011-01-03 18:12:07,1800.908256891792,2,4,0.5499359965324402,3.95277738571167,2.063875623052445,2.59826508451488,8.240458576830719,9.439002852369198,6.47544875391759e-05,0.0986045151948928,0,0,0
773,27278.19995876457,2011-01-03 18:12:37,1830.9234076829944,2,4,0.5501165986061096,3.95455813407898,2.068461523814274,2.59826508451488,8.258589515810396,9.439002852369198,6.47544875391759e-05,0.0986045151948928,0,0,0
774,27308.21509355088,2011-01-03 18:13:07,1860.9385424392333,2,4,0.5501165986061096,3.956500768661499,2.073047547039506,2.59826508451488,8.276729493756434,9.439002852369198,6.47544875391759e-05,0.0986045151948928,0,0,0
775,27338.23021738489,2011-01-03 18:13:37,1890.9536662682376,2,4,0.5499359965324402,3.9582815170288086,2.077633517276059,2.59826508451488,8.294877635010796,9.439002852369198,3.237724376958795e-05,0.0986045151948928,0,0,0
776,27368.24536111349,2011-01-03 18:14:07,1920.9688100068631,2,4,0.5499359965324402,3.960224151611328,2.082219540964478,2.59826508451488,8.313034509159198,9.439002852369198,9.713172767078504e-05,0.0986045151948928,0,0,0
777,27398.260648374824,2011-01-03 18:14:37,1950.9840972832287,2,4,0.5501165986061096,3.9620048999786377,2.086805587232698,2.59826508451488,8.331200028468972,9.439002852369198,6.47544875391759e-05,0.0986045151948928,0,0,0
778,27428.27565573355,2011-01-03 18:15:07,1980.9991046168911,2,4,0.5501165986061096,3.9637856483459473,2.091391526347497,2.59826508451488,8.349373600768805,9.439002852369198,3.237724376958795e-05,0.0986045151948928,0,0,0
779,27458.290900884927,2011-01-03 18:15:37,2011.014349788319,2,4,0.5499359965324402,3.965566396713257,2.095977604683988,2.59826508451488,8.367556348767183,9.439002852369198,0.0,0.0986045151948928,0,0,0
780,27488.30593223344,2011-01-03 18:16:07,2041.0293811468584,2,4,0.5501165986061096,3.9676709175109854,2.100563659978559,2.59826508451488,8.385747622533064,9.439002852369198,6.47544875391759e-05,0.0986045151948928,0,0,0
781,27518.321076668803,2011-01-03 18:16:37,2071.0445255571576,2,4,0.5499359965324402,3.969451665878296,2.10514974475529,2.59826508451488,8.403947584075638,9.439002852369198,0.0,0.0986045151948928,0,0,0
782,27548.338683761864,2011-01-03 18:17:07,2101.062132665258,2,4,0.5501165986061096,3.971394300460816,2.109736132589727,2.59826508451488,8.422157364784884,9.439002852369198,6.47544875391759e-05,0.0986045151948928,0,0,0
783,27578.351337118693,2011-01-03 18:17:37,2131.074786012061,2,4,0.5501165986061096,3.973336935043335,2.114321808152863,2.59826508451488,8.440373094529775,9.439002852369198,6.47544875391759e-05,0.0986045151948928,0,0,0
784,27608.366418612182,2011-01-03 18:18:07,2161.0898674955274,2,4,0.5501165986061096,3.9752795696258554,2.118908011071248,2.59826508451488,8.458599659228137,9.439002852369198,9.713172767078504e-05,0.0986045151948928,0,0,0
785,27638.381558806977,2011-01-03 18:18:37,2191.1050077203954,2,4,0.5501165986061096,3.977060317993164,2.123494999119258,2.59826508451488,8.476838193103008,9.439002852369198,3.237724376958795e-05,0.0986045151948928,0,0,0
786,27668.39858503735,2011-01-03 18:19:07,2221.12203395077,2,4,0.5501165986061096,3.979002952575684,2.128082078050789,2.59826508451488,8.49508550898607,9.439002852369198,6.47544875391759e-05,0.0986045151948928,0,0,0
787,27698.41188336665,2011-01-03 18:19:37,2251.135332255005,2,4,0.5501165986061096,3.980945587158203,2.132668651532525,2.59826508451488,8.513340064620042,9.439002852369198,6.47544875391759e-05,0.0986045151948928,0,0,0
788,27728.42700020824,2011-01-03 18:20:07,2281.1504490915822,2,4,0.5501165986061096,3.982888221740722,2.137255545604966,2.59826508451488,8.531604777754968,9.439002852369198,3.237724376958795e-05,0.0986045151948928,0,0,0
789,27758.44212764624,2011-01-03 18:20:37,2311.1655765396063,2,4,0.5501165986061096,3.984830856323242,2.141842440710615,2.59826508451488,8.549878419650941,9.439002852369198,3.237724376958795e-05,0.0986045151948928,0,0,0
790,27788.45741150909,2011-01-03 18:21:07,2341.180860407477,2,4,0.5501165986061096,3.9867734909057617,2.146429362953445,2.59826508451488,8.568161283961885,9.439002852369198,3.237724376958795e-05,0.0986045151948928,0,0,0
791,27818.472412221257,2011-01-03 18:21:37,2371.1958611096115,2,4,0.5501165986061096,3.989039897918701,2.151015544203004,2.59826508451488,8.586450191437518,9.439002852369198,9.713172767078504e-05,0.0986045151948928,0,0,0
792,27848.48753548886,2011-01-03 18:22:07,2401.210984382229,2,4,0.5501165986061096,3.9908206462860103,2.155601731504161,2.59826508451488,8.604748282140948,9.439002852369198,6.47544875391759e-05,0.0986045151948928,0,0,0
793,27878.502667157405,2011-01-03 18:22:37,2431.226116050773,2,4,0.5499359965324402,3.9927632808685294,2.16018794995078,2.59826508451488,8.623055771511554,9.439002852369198,3.237724376958795e-05,0.0986045151948928,0,0,0
794,27908.517874835383,2011-01-03 18:23:08,2461.2413237488045,2,4,0.5501165986061096,3.9948675632476807,2.164774124256086,2.59826508451488,8.641372366148477,9.439002852369198,6.47544875391759e-05,0.0986045151948928,0,0,0
795,27938.53299479475,2011-01-03 18:23:38,2491.25644367809,2,4,0.5501165986061096,3.99697208404541,2.16936022677158,2.59826508451488,8.65969814787186,9.439002852369198,3.237724376958795e-05,0.0986045151948928,0,0,0
796,27968.548204487757,2011-01-03 18:24:08,2521.2716533911444,2,4,0.5501165986061096,3.9992384910583496,2.173946394939873,2.59826508451488,8.678033628464041,9.439002852369198,6.47544875391759e-05,0.0986045151948928,0,0,0
797,27998.563274322187,2011-01-03 18:24:38,2551.28672321054,2,4,0.5501165986061096,4.001019477844238,2.178532473743259,2.59826508451488,8.696378363035011,9.439002852369198,3.24249267578125e-05,0.0986045151948928,0,0,0
798,28028.578419364057,2011-01-03 18:25:08,2581.301868252414,2,4,0.5499359965324402,4.003285884857178,2.18311861737938,2.59826508451488,8.714733021969906,9.439002852369198,0.0,0.0986045151948928,0,0,0
799,28058.59354672186,2011-01-03 18:25:38,2611.3169956102133,2,4,0.5499359965324402,4.005390167236328,2.187704711365396,2.59826508451488,8.733097194560498,9.439002852369198,6.47544875391759e-05,0.0986045151948928,0,0,0
800,28088.608682295133,2011-01-03 18:26:08,2641.3321311885006,2,4,0.5499359965324402,4.007494926452637,2.192290802651121,2.59826508451488,8.751471277857357,9.439002852369198,6.47544875391759e-05,0.0986045151948928,0,0,0
801,28118.623830028715,2011-01-03 18:26:38,2671.34727893712,2,4,0.5501165986061096,4.009922981262207,2.196876882628469,2.59826508451488,8.769855309797585,9.439002852369198,9.70840483205393e-05,0.0986045151948928,0,0,0
802,28148.641107510284,2011-01-03 18:27:08,2701.3645563986397,2,4,0.5501165986061096,4.012027740478516,2.201463242128216,2.59826508451488,8.788250584879087,9.439002852369198,9.71794142969884e-05,0.0986045151948928,0,0,0
803,28178.654253880857,2011-01-03 18:27:38,2731.3777027842466,2,4,0.5499359965324402,4.014294147491455,2.206049083181239,2.59826508451488,8.806654013101003,9.439002852369198,6.47544875391759e-05,0.0986045151948928,0,0,0
804,28208.669264367378,2011-01-03 18:28:08,2761.3927132657545,2,4,0.5497553944587708,4.0163984298706055,2.21063514463009,2.59826508451488,8.825068633985477,9.439002852369198,6.47544875391759e-05,0.0986045151948928,0,0,0
805,28238.684386076096,2011-01-03 18:28:38,2791.407834959437,2,4,0.5501165986061096,4.018826961517334,2.215221295366388,2.59826508451488,8.843494091352442,9.439002852369198,9.71794142969884e-05,0.0986045151948928,0,0,0
806,28268.699526927525,2011-01-03 18:29:08,2821.422975820892,2,4,0.5501165986061096,4.021255016326904,2.219807420247747,2.59826508451488,8.861929927765024,9.439002852369198,9.70840483205393e-05,0.0986045151948928,0,0,0
807,28298.714655317897,2011-01-03 18:29:38,2851.438104211265,2,4,0.5501165986061096,4.023683547973633,2.224393511789388,2.59826508451488,8.88037643527712,9.439002852369198,9.71794142969884e-05,0.0986045151948928,0,0,0
808,28328.72983410387,2011-01-03 18:30:08,2881.4532830172893,2,4,0.5501165986061096,4.025787830352783,2.228979683680741,2.59826508451488,8.898834114252836,9.439002852369198,3.23295607813634e-05,0.0986045151948928,0,0,0
809,28358.744837592956,2011-01-03 18:30:38,2911.468286481307,2,4,0.5501165986061096,4.028378009796143,2.233565717875154,2.59826508451488,8.917302240828608,9.439002852369198,9.70840483205393e-05,0.0986045151948928,0,0,0
810,28388.76242709217,2011-01-03 18:31:08,2941.4858761108458,2,4,0.5499359965324402,4.030644416809082,2.238152142988797,2.59826508451488,8.935783028855093,9.439002852369198,3.23295607813634e-05,0.0986045151948928,0,0,0
811,28418.775192157405,2011-01-03 18:31:38,2971.4986410507727,2,4,0.5501165986061096,4.033234596252441,2.242737761115245,2.59826508451488,8.9542717546942,9.439002852369198,6.47544875391759e-05,0.0986045151948928,0,0,0
812,28448.790353399658,2011-01-03 18:32:08,3001.5138022930228,2,4,0.5501165986061096,4.035662651062012,2.247323794316907,2.59826508451488,8.972773542087396,9.439002852369198,9.70840483205393e-05,0.0986045151948928,0,0,0
813,28478.8054486374,2011-01-03 18:32:38,3031.528897550819,2,4,0.5501165986061096,4.03809118270874,2.25190990355673,2.59826508451488,8.991287053030428,9.439002852369198,6.47544875391759e-05,0.0986045151948928,0,0,0
814,28508.820654591087,2011-01-03 18:33:08,3061.544103479441,2,4,0.5501165986061096,4.0406813621521,2.256496012626771,2.59826508451488,9.009812097216662,9.439002852369198,9.71794142969884e-05,0.0986045151948928,0,0,0
815,28538.835904534408,2011-01-03 18:33:38,3091.5593534428112,2,4,0.550297200679779,4.043271541595459,2.261082173032575,2.59826508451488,9.028349043068204,9.439002852369198,6.47544875391759e-05,0.0986045151948928,0,0,0
816,28568.85088435951,2011-01-03 18:34:08,3121.574333247864,2,4,0.5499359965324402,4.045699596405029,2.265668277476985,2.59826508451488,9.046897587389315,9.439002852369198,6.47544875391759e-05,0.0986045151948928,0,0,0
817,28598.86613245322,2011-01-03 18:34:38,3151.5895813616244,2,4,0.5501165986061096,4.048289775848389,2.270254346324932,2.59826508451488,9.065457927095617,9.439002852369198,6.47544875391759e-05,0.0986045151948928,0,0,0
818,28628.881151200327,2011-01-03 18:35:08,3181.60460008367,2,4,0.5501165986061096,4.051042079925537,2.274840469068496,2.59826508451488,9.084030567393455,9.439002852369198,6.47544875391759e-05,0.0986045151948928,0,0,0
819,28658.89640486793,2011-01-03 18:35:38,3211.6198537713226,2,4,0.5501165986061096,4.0536322593688965,2.279426570823819,2.59826508451488,9.102615270301834,9.439002852369198,6.47544875391759e-05,0.0986045151948928,0,0,0
820,28688.91142609121,2011-01-03 18:36:08,3241.634874984577,2,4,0.5501165986061096,4.056384086608887,2.284012762650588,2.59826508451488,9.12121270394464,9.439002852369198,6.47544875391759e-05,0.0986045151948928,0,0,0
821,28718.926565258444,2011-01-03 18:36:38,3271.650014151809,2,4,0.5499359965324402,4.058974266052246,2.288598904032967,2.59826508451488,9.139822309514129,9.439002852369198,3.23295607813634e-05,0.0986045151948928,0,0,0
822,28748.943681097146,2011-01-03 18:37:08,3301.6671300256025,2,4,0.5499359965324402,4.0617265701293945,2.293185388709782,2.59826508451488,9.158445623173598,9.439002852369198,6.47544875391759e-05,0.0986045151948928,0,0,0
823,28778.95696851425,2011-01-03 18:37:38,3331.680417417641,2,4,0.5501165986061096,4.064478397369385,2.297771180459621,2.59826508451488,9.177078667737716,9.439002852369198,6.47544875391759e-05,0.0986045151948928,0,0,0
824,28808.97197566746,2011-01-03 18:38:08,3361.6954245608285,2,4,0.5501165986061096,4.067554473876953,2.302357313442837,2.59826508451488,9.195725890120572,9.439002852369198,9.71794142969884e-05,0.0986045151948928,0,0,0
825,28838.98710722072,2011-01-03 18:38:38,3391.7105561341345,2,4,0.5499359965324402,4.070306301116943,2.306943060187867,2.59826508451488,9.214384389939667,9.439002852369198,6.47544875391759e-05,0.0986045151948928,0,0,0
826,28869.00226670859,2011-01-03 18:39:08,3421.725715622012,2,4,0.5499359965324402,4.073058605194092,2.311528413473667,2.59826508451488,9.233054123213549,9.439002852369198,9.71794142969884e-05,0.0986045151948928,0,0,0
827,28899.017660009205,2011-01-03 18:39:38,3451.7411089125976,2,4,0.550297200679779,4.075972557067871,2.316114147207681,2.59826508451488,9.251738569181876,9.439002852369198,9.71794142969884e-05,0.0986045151948928,0,0,0
828,28929.032552316185,2011-01-03 18:40:08,3481.756001209553,2,4,0.5501165986061096,4.078724384307861,2.320700194164751,2.59826508451488,9.27043767924016,9.439002852369198,3.23295607813634e-05,0.0986045151948928,0,0,0
829,28959.047718921804,2011-01-03 18:40:38,3511.77116783522,2,4,0.5501165986061096,4.0819621086120605,2.32528632913685,2.59826508451488,9.289150565014102,9.439002852369198,0.0001295089750783,0.0986045151948928,0,0,0
830,28989.062839387425,2011-01-03 18:41:08,3541.786288280792,2,4,0.550297200679779,4.084714412689209,2.329872452838115,2.59826508451488,9.307876882184786,9.439002852369198,6.47544875391759e-05,0.0986045151948928,0,0,0
831,29019.07825676304,2011-01-03 18:41:38,3571.801705676455,2,4,0.550297200679779,4.087790012359619,2.33445867448961,2.59826508451488,9.32661729665505,9.439002852369198,9.70840483205393e-05,0.0986045151948928,0,0,0
832,29049.093106679367,2011-01-03 18:42:08,3601.816555572735,2,4,0.5499359965324402,4.090703964233398,2.339044763809934,2.59826508451488,9.34537097209,9.439002852369198,6.47544875391759e-05,0.0986045151948928,0,0,0
833,29079.1082395058,2011-01-03 18:42:38,3631.831688399164,2,4,0.5501165986061096,4.093941688537598,2.343630904338188,2.59826508451488,9.364138769928177,9.439002852369198,9.70840483205393e-05,0.0986045151948928,0,0,0
834,29109.12358959872,2011-01-03 18:43:08,3661.847038492088,2,4,0.5499359965324402,4.096855640411377,2.348217044703916,2.59826508451488,9.382920614940003,9.439002852369198,3.23295607813634e-05,0.0986045151948928,0,0,0
835,29139.13876799873,2011-01-03 18:43:38,3691.8622168921006,2,4,0.5501165986061096,4.099931716918945,2.352803213977478,2.59826508451488,9.401716722754283,9.439002852369198,6.47544875391759e-05,0.0986045151948928,0,0,0
836,29169.1537181599,2011-01-03 18:44:08,3721.8771671384834,2,4,0.5499359965324402,4.1031694412231445,2.357389337542727,2.59826508451488,9.420526993128192,9.439002852369198,6.47544875391759e-05,0.0986045151948928,0,0,0
837,29199.16881680113,2011-01-03 18:44:38,3751.892265684475,2,4,0.5501165986061096,4.106245040893555,2.36197545208594,2.59826508451488,9.439351724893182,9.439002852369198,9.70840483205393e-05,0.0986045151948928,0,0,0
838,29229.183977015826,2011-01-03 18:45:08,3781.907425909189,2,4,0.5499359965324402,4.109482765197754,2.366561576382043,2.59826508451488,9.458191074556366,9.439002852369198,6.47544875391759e-05,0.0986045151948928,0,0,0
839,29259.199095065425,2011-01-03 18:45:38,3811.922543958789,2,4,0.5501165986061096,4.112558841705322,2.37114775913645,2.59826508451488,9.47704539214648,9.439002852369198,3.24249267578125e-05,0.0986045151948928,0,0,0
840,29289.214234989544,2011-01-03 18:46:08,3841.937683877896,2,4,0.5501165986061096,4.115958213806152,2.375733936369037,2.59826508451488,9.495914412000714,9.439002852369198,0.0001295089750783,0.0986045151948928,0,0,0
841,29319.229371986363,2011-01-03 18:46:38,3871.9528208747183,2,4,0.5501165986061096,4.119195938110352,2.380320091260487,2.59826508451488,9.5147982445138,9.439002852369198,6.47544875391759e-05,0.0986045151948928,0,0,0
842,29349.24647306328,2011-01-03 18:47:08,3901.9699219666704,2,4,0.5499359965324402,4.122433662414551,2.384906599739824,2.59826508451488,9.533698705001497,9.439002852369198,6.47544875391759e-05,0.0986045151948928,0,0,0
843,29379.259681438383,2011-01-03 18:47:38,3931.9831303518,2,4,0.5499359965324402,4.125833034515381,2.389492432548752,2.59826508451488,9.55261152025522,9.439002852369198,9.70840483205393e-05,0.0986045151948928,0,0,0
844,29409.27481444526,2011-01-03 18:48:08,3961.9982633586783,2,4,0.5497553944587708,4.129232883453369,2.39407858151932,2.59826508451488,9.571541039758316,9.439002852369198,9.71794142969884e-05,0.0986045151948928,0,0,0
845,29439.289931642736,2011-01-03 18:48:38,3992.013380531093,2,4,0.5501165986061096,4.132632255554199,2.398664711270263,2.59826508451488,9.590485944785003,9.439002852369198,6.47544875391759e-05,0.0986045151948928,0,0,0
846,29469.30738082223,2011-01-03 18:49:08,4022.030829710586,2,4,0.5499359965324402,4.135869979858398,2.403251174577389,2.59826508451488,9.609447705461063,9.439002852369198,6.47544875391759e-05,0.0986045151948928,0,0,0
847,29499.32024039802,2011-01-03 18:49:38,4052.043689286376,2,4,0.5501165986061096,4.139431476593018,2.407837018067661,2.59826508451488,9.628422602876029,9.439002852369198,6.47544875391759e-05,0.0986045151948928,0,0,0
848,29529.335363625527,2011-01-03 18:50:08,4082.0588125138806,2,4,0.5499359965324402,4.142992973327637,2.412423144692039,2.59826508451488,9.647414495726736,9.439002852369198,0.0001295089750783,0.0986045151948928,0,0,0
849,29559.350614771844,2011-01-03 18:50:38,4112.0740636852615,2,4,0.5501165986061096,4.146554470062256,2.417009317752068,2.59826508451488,9.666422787875504,9.439002852369198,0.0001295089750783,0.0986045151948928,0,0,0
850,29589.368094798217,2011-01-03 18:51:08,4142.091543796848,2,4,0.550297200679779,4.149954319000244,2.421595738244921,2.59826508451488,9.685448369710468,9.439002852369198,9.71794142969884e-05,0.0986045151948928,0,0,0
851,29619.38074056112,2011-01-03 18:51:38,4172.104189449474,2,4,0.5501165986061096,4.153515815734863,2.426181509715069,2.59826508451488,9.704487486112937,9.439002852369198,9.71794142969884e-05,0.0986045151948928,0,0,0
852,29649.395923938537,2011-01-03 18:52:08,4202.119372826892,2,4,0.5499359965324402,4.157238960266113,2.430767638440081,2.59826508451488,9.72354434324784,9.439002852369198,0.0001295089750783,0.0986045151948928,0,0,0
853,29679.411183290307,2011-01-03 18:52:38,4232.134632203723,2,4,0.5499359965324402,4.160638809204102,2.435353747461827,2.59826508451488,9.742617606607638,9.439002852369198,6.47544875391759e-05,0.0986045151948928,0,0,0
854,29709.426213886945,2011-01-03 18:53:08,4262.149662775301,2,4,0.5501165986061096,4.164200305938721,2.439939897172198,2.59826508451488,9.76170766551692,9.439002852369198,6.47544875391759e-05,0.0986045151948928,0,0,0
855,29739.441473554503,2011-01-03 18:53:38,4292.1649224428575,2,4,0.5499359965324402,4.167923450469971,2.444526032835526,2.59826508451488,9.78081432123509,9.439002852369198,9.70840483205393e-05,0.0986045151948928,0,0,0
856,29769.45647188573,2011-01-03 18:54:08,4322.179920774082,2,4,0.5501165986061096,4.17180871963501,2.449112119013948,2.59826508451488,9.799937709054928,9.439002852369198,9.70840483205393e-05,0.0986045151948928,0,0,0
857,29799.471624010253,2011-01-03 18:54:38,4352.195072908633,2,4,0.5501165986061096,4.175370216369629,2.453698289061115,2.59826508451488,9.819078453760476,9.439002852369198,9.70840483205393e-05,0.0986045151948928,0,0,0
858,29829.486762290275,2011-01-03 18:55:09,4382.21021117863,2,4,0.5501165986061096,4.179093837738037,2.458284376229663,2.59826508451488,9.83823588014264,9.439002852369198,6.47544875391759e-05,0.0986045151948928,0,0,0
859,29859.501898023947,2011-01-03 18:55:39,4412.225346932354,2,4,0.5499359965324402,4.182979106903076,2.462870427299282,2.59826508451488,9.85741040867766,9.439002852369198,0.0001295089750783,0.0986045151948928,0,0,0
860,29889.51714963141,2011-01-03 18:56:09,4442.240598539823,2,4,0.550297200679779,4.186702251434326,2.467456557563037,2.59826508451488,9.876602527542966,9.439002852369198,0.0001295089750783,0.0986045151948928,0,0,0
861,29919.532163852244,2011-01-03 18:56:39,4472.255612755636,2,4,0.5501165986061096,4.190425872802734,2.472042691444006,2.59826508451488,9.895812112708658,9.439002852369198,6.47544875391759e-05,0.0986045151948928,0,0,0
862,29949.549366412084,2011-01-03 18:57:09,4502.272815320491,2,4,0.5501165986061096,4.194311141967773,2.476629050192111,2.59826508451488,9.91504018600013,9.439002852369198,9.71794142969884e-05,0.0986045151948928,0,0,0
863,29979.562441389724,2011-01-03 18:57:39,4532.285890288103,2,4,0.5501165986061096,4.198195934295654,2.481214854812617,2.59826508451488,9.934283526179929,9.439002852369198,9.70840483205393e-05,0.0986045151948928,0,0,0
864,29992.499723427263,2011-01-03 18:57:52,4545.22317232063,2,4,0.5501165986061096,4.200138568878174,2.483191604829417,2.59826508451488,9.942584031853038,9.439002852369198,0.0001618385285837,0.0986045151948928,0,0,0
865,30022.51605895036,2011-01-03 18:58:22,30.01537165165489,3,4,0.0,4.107216358184815,2.483191604829417,2.59826508451488,9.942584031853038,9.439002852369198,-0.0004209518374409,0.0986045151948928,0,0,0
866,30052.531085897903,2011-01-03 18:58:52,60.03039860421358,3,4,0.0,4.095398902893066,2.483191604829417,2.59826508451488,9.942584031853038,9.439002852369198,-0.0002590179501567,0.0986045151948928,0,0,0
867,30082.546111306616,2011-01-03 18:59:22,90.04542399287455,3,4,0.0,4.088437557220459,2.483191604829417,2.59826508451488,9.942584031853038,9.439002852369198,-0.0001942634553415,0.0986045151948928,0,0,0
868,30112.514372689984,2011-01-03 18:59:52,120.01368539128288,3,4,0.0,4.08390474319458,2.483191604829417,2.59826508451488,9.942584031853038,9.439002852369198,-0.0001619339018361,0.0986045151948928,0,0,0
869,30112.515310129093,2011-01-03 18:59:52,2.636571147e-06,4,4,1.0047101974487305,4.199814796447754,2.483191605565247,2.59826508451488,9.942584034943392,9.439002852369198,0.0,0.0986045151948928,0,0,0
870,30113.218415062925,2011-01-03 18:59:52,0.703107575418736,4,4,0.954681396484375,4.199653148651123,2.483381390225356,2.59826508451488,9.943381086811875,9.439002852369198,-3.23295607813634e-05,0.0986045151948928,0,0,0
871,30115.15589017705,2011-01-03 18:59:54,2.640582689549338,4,4,0.9042913913726808,4.199814796447754,2.483880545220905,2.59826508451488,9.945477423941451,9.439002852369198,0.0,0.0986045151948928,0,0,0
872,30118.11089595068,2011-01-03 18:59:57,5.595588468182239,4,4,0.85426265001297,4.199653148651123,2.484601250939391,2.59826508451488,9.9485042262555,9.439002852369198,-3.23295607813634e-05,0.0986045151948928,0,0,0
873,30122.202666857786,2011-01-03 19:00:01,9.68735940536414,4,4,0.8040532469749451,4.199814796447754,2.485542478217976,2.59826508451488,9.952457179174951,9.439002852369198,0.0,0.0986045151948928,0,0,0
874,30127.54632501311,2011-01-03 19:00:07,15.031017530614765,4,4,0.7540245056152344,4.199814796447754,2.486697382931043,2.59826508451488,9.957307531056353,9.439002852369198,0.0,0.0986045151948928,0,0,0
875,30134.51495457217,2011-01-03 19:00:14,21.99964708966964,4,4,0.7039957046508789,4.199976921081543,2.488106561836255,2.59826508451488,9.963225788825048,9.439002852369198,3.24249267578125e-05,0.0986045151948928,0,0,0
876,30143.7335644996,2011-01-03 19:00:23,31.218257017104165,4,4,0.6539669632911682,4.199814796447754,2.489842400724353,2.59826508451488,9.97051596534547,9.439002852369198,0.0,0.0986045151948928,0,0,0
877,30156.5770889544,2011-01-03 19:00:36,44.0617814668867,4,4,0.6037575602531433,4.199814796447754,2.492080952825917,2.59826508451488,9.979917441923938,9.439002852369198,0.0,0.0986045151948928,0,0,0
878,30175.93614459769,2011-01-03 19:00:55,63.42083711519479,4,4,0.553367555141449,4.199814796447754,2.495183418544325,2.59826508451488,9.992947207706878,9.439002852369198,-3.24249267578125e-05,0.0986045151948928,0,0,0
879,30209.98249642224,2011-01-03 19:01:29,97.46718893472963,4,4,0.5033388137817383,4.199814796447754,2.500158319915877,2.59826508451488,10.013840810942282,9.439002852369198,3.23295607813634e-05,0.0986045151948928,0,0,0
880,30274.325179511245,2011-01-03 19:02:34,161.80987202874857,4,4,0.4533100426197052,4.199814796447754,2.508664159353628,2.59826508451488,10.049563688153963,9.439002852369198,-3.24249267578125e-05,0.0986045151948928,0,0,0
881,30375.9329018392,2011-01-03 19:04:15,263.4175943516919,4,4,0.4032812714576721,4.199653148651123,2.520724018843255,2.59826508451488,10.100212778578989,9.439002852369198,0.0,0.0986045151948928,0,0,0
882,30504.821436660983,2011-01-03 19:06:24,392.3061291835035,4,4,0.353252500295639,4.199976921081543,2.534247580620386,2.59826508451488,10.15700916972845,9.439002852369198,3.24249267578125e-05,0.0986045151948928,0,0,0
883,30660.725306635384,2011-01-03 19:09:00,548.2099991729388,4,4,0.3032237291336059,4.199814796447754,2.548440877803362,2.59826508451488,10.216618279398952,9.439002852369198,-3.24249267578125e-05,0.0986045151948928,0,0,0
884,30850.690841830023,2011-01-03 19:12:10,738.1755344578025,4,4,0.252833753824234,4.199814796447754,2.563085844593305,2.59826508451488,10.278124353928323,9.439002852369198,0.0,0.0986045151948928,0,0,0
885,31089.530683314184,2011-01-03 19:16:09,977.0153758316882,4,4,0.2028049677610397,4.199814796447754,2.578157736786513,2.59826508451488,10.341423505806551,9.439002852369198,0.0,0.0986045151948928,0,0,0
886,31405.150581118327,2011-01-03 19:21:24,1292.6352736558806,4,4,0.1525955945253372,4.199653148651123,2.593650844435533,2.59826508451488,10.406491706002344,9.439002852369198,0.0,0.0986045151948928,0,0,0
887,31871.769915584995,2011-01-03 19:29:11,1759.2546080974892,4,4,0.1023862138390541,4.199814796447754,2.60999945092713,2.59826508451488,10.47515292953795,9.439002852369198,0.0,0.0986045151948928,0,0,0
888,32743.0819670232,2011-01-03 19:43:42,2630.566659681051,4,4,0.0523574464023113,4.199814796447754,2.628045560551583,2.59826508451488,10.550943383265388,9.439002852369198,0.0,0.0986045151948928,0,0,0
889,32813.346378085385,2011-01-03 19:44:53,2700.831070622937,4,4,0.0496483072638511,4.199653148651123,2.629053015132146,2.59826508451488,10.55517452346756,9.439002852369198,-3.23295607813634e-05,0.0986045151948928,0,0,0
890,32843.36145237407,2011-01-03 19:45:23,30.015113272695025,5,4,0.0,4.191073417663574,2.629053015132146,2.59826508451488,10.55517452346756,9.439002852369198,-3.23295607813634e-05,0.0986045151948928,0,0,0
891,32873.3609602884,2011-01-03 19:45:53,60.01462118703538,5,4,0.0,4.189778327941895,2.629053015132146,2.59826508451488,10.55517452346756,9.439002852369198,0.0,0.0986045151948928,0,0,0
892,32873.549425378296,2011-01-03 19:45:53,0.187496453854221,6,4,-1.9243103452026844e-05,4.1896162033081055,2.629053015132146,2.598265085517106,10.55517452346756,9.43900285656814,0.0,0.1011203974485397,0,0,0
893,32878.37955399501,2011-01-03 19:45:58,5.01762510063543,6,4,0.0007031940040178,4.1896162033081055,2.629053839540748,2.59826508568585,10.555177977537332,9.439002857275112,-6.47544875391759e-05,0.1011203974485397,0,0,0
894,32908.39352205026,2011-01-03 19:46:28,30.0150098348962,7,4,-1.0997490882873535,3.994381904602051,2.629053839588694,2.607433665699102,10.555177977738213,9.475849533938897,-0.0010684489971026,0.1011203974485397,0,0,0
895,32938.40866961342,2011-01-03 19:46:58,60.03015739304112,7,4,-1.099568486213684,3.9626524448394775,2.629053839588694,2.616602186689673,10.555177977738213,9.512318518634398,-0.0007122993702068,0.1011203974485397,0,0,0
896,32968.423826133905,2011-01-03 19:47:28,90.04531394359789,7,4,-1.099568486213684,3.939826488494873,2.629053839588694,2.625770722944124,10.555177977738213,9.54853891206652,-0.0004856586456298,0.1011203974485397,0,0,0
897,32998.43920747972,2011-01-03 19:47:58,120.06069528440112,7,4,-1.099568486213684,3.9221808910369873,2.629053839588694,2.634939106935461,10.555177977738213,9.584576174441258,-0.0004209041653666,0.1011203974485397,0,0,0
898,33028.45408252368,2011-01-03 19:48:28,150.07557030830688,7,4,-1.099568486213684,3.90744948387146,2.629053839588694,2.644106833910196,10.555177977738213,9.620464623196828,-0.0003885269106831,0.1011203974485397,0,0,0
899,33058.46920364593,2011-01-03 19:48:58,180.0906914305654,7,4,-1.099568486213684,3.894498586654663,2.629053839588694,2.653274647390291,10.555177977738213,9.656227026298287,-0.0003237724304199,0.1011203974485397,0,0,0
900,33088.484589222295,2011-01-03 19:49:28,210.10607701193743,7,4,-1.0997490882873535,3.882357120513916,2.629053839588694,2.662442528454429,10.555177977738213,9.691875321292349,-0.0003561496851034,0.1011203974485397,0,0,0
901,33118.499617438,2011-01-03 19:49:58,240.1211052326568,7,4,-1.0997490882873535,3.8710250854492183,2.629053839588694,2.671610559275264,10.555177977738213,9.727416513781089,-0.0002913951757363,0.1011203974485397,0,0,0
902,33148.51461759377,2011-01-03 19:50:28,270.1361053733922,7,4,-1.0997490882873535,3.860016822814941,2.629053839588694,2.680779022843046,10.555177977738213,9.762857347832448,-0.0003237724304199,0.1011203974485397,0,0,0
903,33178.52978146257,2011-01-03 19:50:58,300.15126926223815,7,4,-1.0997490882873535,3.849656105041504,2.629053839588694,2.68994757613059,10.555177977738213,9.798200154264132,-0.0002266406954731,0.1011203974485397,0,0,0
904,33208.54489476033,2011-01-03 19:51:28,330.1663825399457,7,4,-1.0997490882873535,3.8392953872680655,2.629053839588694,2.699116142973653,10.555177977738213,9.8334474273983,-0.0002590179501567,0.1011203974485397,0,0,0
905,33238.56002318077,2011-01-03 19:51:58,360.18151099548106,7,4,-1.099568486213684,3.829258680343628,2.629053839588694,2.708284708527381,10.555177977738213,9.868601686178632,-0.0002590179501567,0.1011203974485397,0,0,0
906,33268.57518969617,2011-01-03 19:52:28,390.1966774807983,7,4,-1.099568486213684,3.8195455074310303,2.629053839588694,2.717453327340927,10.555177977738213,9.903665414722427,-0.0002590179501567,0.1011203974485397,0,0,0
907,33298.590421358924,2011-01-03 19:52:58,420.2119091636077,7,4,-1.099568486213684,3.8098323345184326,2.629053839588694,2.726621913762882,10.555177977738213,9.938640610266784,-0.0002266406954731,0.1011203974485397,0,0,0
908,33328.60738981531,2011-01-03 19:53:28,450.22887759994137,7,4,-1.099568486213684,3.800604820251465,2.629053839588694,2.735791011723866,10.555177977738213,9.97353065102185,-0.0002266406954731,0.1011203974485397,0,0,0
909,33358.62070264575,2011-01-03 19:53:58,480.24219044040535,7,4,-1.099568486213684,3.791377305984497,2.629053839588694,2.74495898707566,10.555177977738213,10.0083320638318,-0.0002590179501567,0.1011203974485397,0,0,0
910,33388.63573121734,2011-01-03 19:54:28,510.2572190270366,7,4,-1.099929690361023,3.782473564147949,2.629053839588694,2.75412751896871,10.555177977738213,10.043053000663935,-0.0002590179501567,0.1011203974485397,0,0,0
911,33418.65096749661,2011-01-03 19:54:58,540.2724553163268,7,4,-1.099568486213684,3.773893594741821,2.629053839588694,2.763296127029419,10.555177977738213,10.077693871932553,-0.0002266406954731,0.1011203974485397,0,0,0
912,33448.66598232896,2011-01-03 19:55:28,570.2874701186033,7,4,-1.0997490882873535,3.765313625335693,2.629053839588694,2.772464628084086,10.555177977738213,10.112255688465511,-0.0002590179501567,0.1011203974485397,0,0,0
913,33478.66779384959,2011-01-03 19:55:58,600.2892817595391,7,4,-1.099568486213684,3.757057428359986,2.629053839588694,2.781629125622122,10.555177977738213,10.146725921057593,-0.0002266406954731,0.1011203974485397,0,0,0
914,33508.68063698942,2011-01-03 19:56:28,630.3021247941023,7,4,-1.0997490882873535,3.749125242233277,2.629053839588694,2.790797068777739,10.555177977738213,10.181134488086371,-0.0002266406954731,0.1011203974485397,0,0,0
915,33538.69577754512,2011-01-03 19:56:58,660.3172653497949,7,4,-1.0997490882873535,3.741516590118408,2.629053839588694,2.79996560419085,10.555177977738213,10.215472837642908,-0.0001618862152099,0.1011203974485397,0,0,0
916,33568.711013949694,2011-01-03 19:57:28,690.3325017543724,7,4,-1.0997490882873535,3.73374605178833,2.629053839588694,2.809134189487859,10.555177977738213,10.249740671295497,-0.0001942634553415,0.1011203974485397,0,0,0
917,33598.728416868886,2011-01-03 19:57:58,720.3499046585337,7,4,-1.0997490882873535,3.726137399673462,2.629053839588694,2.818303516157398,10.555177977738213,10.283942123593793,-0.0002590179501567,0.1011203974485397,0,0,0
918,33628.7412008212,2011-01-03 19:58:28,750.3626886108455,7,4,-1.099568486213684,3.7188525199890137,2.629053839588694,2.82747141950456,10.555177977738213,10.318070349645266,-0.0001942634553415,0.1011203974485397,0,0,0
919,33658.75630497116,2011-01-03 19:58:58,780.3777927507789,7,4,-1.099568486213684,3.711567640304565,2.629053839588694,2.836640037400728,10.555177977738213,10.352134103519756,-0.0002266406954731,0.1011203974485397,0,0,0
920,33688.771432925445,2011-01-03 19:59:28,810.3929207301273,7,4,-1.099568486213684,3.704444646835327,2.629053839588694,2.845808703848042,10.555177977738213,10.386131478549723,-0.0001942634553415,0.1011203974485397,0,0,0
921,33718.78658932563,2011-01-03 19:59:58,840.408077105247,7,4,-1.099568486213684,3.697645425796509,2.629053839588694,2.854977332191815,10.555177977738213,10.420063961446878,-0.0001295089750783,0.1011203974485397,0,0,0
922,33748.80185585529,2011-01-03 20:00:28,870.4233436800179,7,4,-1.0993878841400146,3.6905224323272714,2.629053839588694,2.864145964701836,10.555177977738213,10.453933020748927,-0.0001942634553415,0.1011203974485397,0,0,0
923,33778.81683293855,2011-01-03 20:00:58,900.4383207482496,7,4,-1.0997490882873535,3.683561325073242,2.629053839588694,2.873314560790389,10.555177977738213,10.487739002216422,-0.0002266406954731,0.1011203974485397,0,0,0
924,33808.832094480786,2011-01-03 20:01:28,930.453582270428,7,4,-1.0997490882873535,3.677085876464844,2.629053839588694,2.882483196732294,10.555177977738213,10.521483756644338,-0.0001295089750783,0.1011203974485397,0,0,0
925,33838.847124350614,2011-01-03 20:01:59,960.4686121502824,7,4,-1.0997490882873535,3.670610666275024,2.629053839588694,2.891651814219485,10.555177977738213,10.555168255935852,-0.0001618862152099,0.1011203974485397,0,0,0
926,33868.862396389,2011-01-03 20:02:29,990.4838841786452,7,4,-1.0997490882873535,3.664135217666626,2.629053839588694,2.900820398101638,10.555177977738213,10.5887929163138,-0.0001618862152099,0.1011203974485397,0,0,0
927,33898.87738375289,2011-01-03 20:02:59,1020.4988715325118,7,4,-1.0997490882873535,3.657659769058228,2.629053839588694,2.909988933106408,10.555177977738213,10.622358804392714,-0.0002266406954731,0.1011203974485397,0,0,0
928,33928.89265205697,2011-01-03 20:03:29,1050.5141398817052,7,4,-1.099568486213684,3.651508092880249,2.629053839588694,2.919157587943987,10.555177977738213,10.655866596068774,-0.0001942634553415,0.1011203974485397,0,0,0
929,33958.90962454841,2011-01-03 20:03:59,1080.5311123681329,7,4,-1.099568486213684,3.6453564167022714,2.629053839588694,2.928326662752315,10.555177977738213,10.689318200181743,-0.0001618862152099,0.1011203974485397,0,0,0
930,33988.92292397544,2011-01-03 20:04:29,1110.5444117801287,7,4,-1.0997490882873535,3.639042854309082,2.629053839588694,2.937494670176958,10.555177977738213,10.722709727602355,-0.0001942634553415,0.1011203974485397,0,0,0
931,34018.93792571517,2011-01-03 20:04:59,1140.5594135248618,7,4,-1.0997490882873535,3.633214950561523,2.629053839588694,2.94666324990988,10.555177977738213,10.756048510176283,-0.0001942634553415,0.1011203974485397,0,0,0
932,34048.953190926535,2011-01-03 20:05:29,1170.574678736235,7,4,-1.0997490882873535,3.627387046813965,2.629053839588694,2.955831906841013,10.555177977738213,10.78933358000698,-0.0001618862152099,0.1011203974485397,0,0,0
933,34078.96845034347,2011-01-03 20:05:59,1200.5899381331164,7,4,-1.099568486213684,3.6215591430664062,2.629053839588694,2.965000563447262,10.555177977738213,10.82256553678593,-0.0001295089750783,0.1011203974485397,0,0,0
934,34108.98346355679,2011-01-03 20:06:29,1230.6049513464325,7,4,-1.0997490882873535,3.6158931255340576,2.629053839588694,2.974169150420385,10.555177977738213,10.855744662480992,-0.0001295089750783,0.1011203974485397,0,0,0
935,34138.99847132152,2011-01-03 20:06:59,1260.6199591061568,7,4,-1.0997490882873535,3.610550880432129,2.629053839588694,2.983337693792894,10.555177977738213,10.888872724202496,-0.0001295089750783,0.1011203974485397,0,0,0
936,34169.01363607252,2011-01-03 20:07:29,1290.6351239674266,7,4,-1.099568486213684,3.60488486289978,2.629053839588694,2.992506278665562,10.555177977738213,10.921951231280923,-0.0001942634553415,0.1011203974485397,0,0,0
937,34199.028767570635,2011-01-03 20:07:59,1320.65025537532,7,4,-1.099568486213684,3.599704504013061,2.629053839588694,3.001674865831706,10.555177977738213,10.954980962088303,-0.0001942634553415,0.1011203974485397,0,0,0
938,34229.043952100925,2011-01-03 20:08:29,1350.665439885561,7,4,-1.0997490882873535,3.5946860313415527,2.629053839588694,3.010843459718438,10.555177977738213,10.987962927815822,-0.0001295089750783,0.1011203974485397,0,0,0
939,34259.0590347473,2011-01-03 20:08:59,1380.6805225620008,7,4,-1.0997490882873535,3.589667797088623,2.629053839588694,3.020012055735969,10.555177977738213,11.020898451909154,-0.0001618862152099,0.1011203974485397,0,0,0
940,34289.07415351869,2011-01-03 20:09:29,1410.6956413283876,7,4,-1.0997490882873535,3.5846493244171143,2.629053839588694,3.029180608301939,10.555177977738213,11.053788285510816,-0.0001618862152099,0.1011203974485397,0,0,0
941,34319.09163944477,2011-01-03 20:09:59,1440.7131275050897,7,4,-1.0997490882873535,3.5799546241760254,2.629053839588694,3.038349957413968,10.555177977738213,11.08663627881622,-0.0001295089750783,0.1011203974485397,0,0,0
942,34349.1043839638,2011-01-03 20:10:29,1470.7258717684847,7,4,-1.0997490882873535,3.5754218101501465,2.629053839588694,3.047518364891473,10.555177977738213,11.11943805660707,-0.0001295089750783,0.1011203974485397,0,0,0
943,34379.11954015847,2011-01-03 20:10:59,1500.7410279631542,7,4,-1.099929690361023,3.570888996124268,2.629053839588694,3.056687667278943,10.555177977738213,11.152201750776335,-0.0001295089750783,0.1011203974485397,0,0,0
944,34409.13466240854,2011-01-03 20:11:29,1530.7561501881612,7,4,-1.099929690361023,3.566518068313598,2.629053839588694,3.065856829445466,10.555177977738213,11.184924945182338,-0.0001618862152099,0.1011203974485397,0,0,0
945,34439.14981961072,2011-01-03 20:11:59,1560.7713074154046,7,4,-1.099568486213684,3.56263279914856,2.629053839588694,3.075026136901185,10.555177977738213,11.217609555043172,-6.47544875391759e-05,0.1011203974485397,0,0,0
946,34469.1649334398,2011-01-03 20:12:29,1590.7864212444863,7,4,-1.099568486213684,3.5585856437683105,2.629053839588694,3.084195434338812,10.555177977738213,11.250256750855176,-9.713172767078504e-05,0.1011203974485397,0,0,0
947,34499.18007136393,2011-01-03 20:12:59,1620.8015591435576,7,4,-1.099929690361023,3.5542147159576416,2.629053839588694,3.093364749757211,10.555177977738213,11.28286656208082,-0.0001618862152099,0.1011203974485397,0,0,0
948,34529.19520752368,2011-01-03 20:13:29,1650.8166953032944,7,4,-1.099568486213684,3.5503294467926025,2.629053839588694,3.102533649870497,10.555177977738213,11.315438702952475,-0.0001295089750783,0.1011203974485397,0,0,0
949,34559.21231824462,2011-01-03 20:13:59,1680.8338060693577,7,4,-1.0997490882873535,3.5464441776275635,2.629053839588694,3.111702786085335,10.555177977738213,11.3479756789439,-0.0001295089750783,0.1011203974485397,0,0,0
950,34589.22551017875,2011-01-03 20:14:29,1710.8469979834356,7,4,-1.099568486213684,3.5425589084625244,2.629053839588694,3.120870701162211,10.555177977738213,11.380472278100672,-0.0001618862152099,0.1011203974485397,0,0,0
951,34619.24061742643,2011-01-03 20:14:59,1740.862105216077,7,4,-1.099568486213684,3.5388355255126958,2.629053839588694,3.130039229050258,10.555177977738213,11.41293581350196,-9.713172767078504e-05,0.1011203974485397,0,0,0
952,34649.255755671365,2011-01-03 20:15:29,1770.877243476048,7,4,-1.0997490882873535,3.534950256347656,2.629053839588694,3.139207802831523,10.555177977738213,11.445364772384172,-0.0001295089750783,0.1011203974485397,0,0,0
953,34679.27091898377,2011-01-03 20:15:59,1800.8924067884575,7,4,-1.099568486213684,3.531388759613037,2.629053839588694,3.148376385697002,10.555177977738213,11.477759865395962,-9.713172767078504e-05,0.1011203974485397,0,0,0
954,34709.28602531918,2011-01-03 20:16:29,1830.9075131238624,7,4,-1.0997490882873535,3.527665376663208,2.629053839588694,3.157544999432398,10.555177977738213,11.510121003911244,-6.47544875391759e-05,0.1011203974485397,0,0,0
955,34739.30117447129,2011-01-03 20:16:59,1860.9226622509177,7,4,-1.099568486213684,3.523941993713379,2.629053839588694,3.166713622426356,10.555177977738213,11.542448231967604,-9.713172767078504e-05,0.1011203974485397,0,0,0
956,34769.31629848075,2011-01-03 20:17:29,1890.937786280422,7,4,-1.099568486213684,3.52021861076355,2.629053839588694,3.17588215739653,10.555177977738213,11.574741000256967,-0.0001295089750783,0.1011203974485397,0,0,0
957,34799.33145376816,2011-01-03 20:17:59,1920.9529415477805,7,4,-1.0997490882873535,3.5166571140289307,2.629053839588694,3.185050654469443,10.555177977738213,11.60699968095108,-6.47544875391759e-05,0.1011203974485397,0,0,0
958,34829.34669028302,2011-01-03 20:18:29,1950.968178087696,7,4,-1.0997490882873535,3.5126099586486816,2.629053839588694,3.194219203860576,10.555177977738213,11.639224030635726,-9.713172767078504e-05,0.1011203974485397,0,0,0
959,34859.36170071439,2011-01-03 20:18:59,1980.983188504041,7,4,-1.0997490882873535,3.5087249279022217,2.629053839588694,3.203387728565899,10.555177977738213,11.671412646330388,-9.713172767078504e-05,0.1011203974485397,0,0,0
960,34889.37693050248,2011-01-03 20:19:29,2010.998418287116,7,4,-1.099929690361023,3.5046777725219727,2.629053839588694,3.212556333484709,10.555177977738213,11.703565478406626,-0.0001295089750783,0.1011203974485397,0,0,0
961,34919.39200952482,2011-01-03 20:19:59,2041.0134973294985,7,4,-1.0997490882873535,3.5007925033569336,2.629053839588694,3.221724847185159,10.555177977738213,11.735681222456147,-6.47544875391759e-05,0.1011203974485397,0,0,0
962,34949.40734111663,2011-01-03 20:20:29,2071.0288289062746,7,4,-1.099568486213684,3.496745347976685,2.629053839588694,3.230893432061984,10.555177977738213,11.76775979432481,-9.713172767078504e-05,0.1011203974485397,0,0,0
963,34979.42226022541,2011-01-03 20:20:59,2101.043748005028,7,4,-1.099568486213684,3.4922125339508057,2.629053839588694,3.240061891236989,10.555177977738213,11.799799041325032,-9.713172767078504e-05,0.1011203974485397,0,0,0
964,35009.43752777261,2011-01-03 20:21:29,2131.059015577285,7,4,-1.0997490882873535,3.4876797199249268,2.629053839588694,3.249230510018485,10.555177977738213,11.831798316041274,-0.0001618862152099,0.1011203974485397,0,0,0
965,35039.45275225747,2011-01-03 20:21:59,2161.074240047117,7,4,-1.099929690361023,3.482985019683838,2.629053839588694,3.258399059904752,10.555177977738213,11.863754798263278,-0.0001618862152099,0.1011203974485397,0,0,0
966,35069.467814031814,2011-01-03 20:22:29,2191.089301826475,7,4,-1.099568486213684,3.477804660797119,2.629053839588694,3.267567570192173,10.555177977738213,11.895665240567062,-0.0001295089750783,0.1011203974485397,0,0,0
967,35099.482789731635,2011-01-03 20:22:59,2221.104277536321,7,4,-1.099568486213684,3.4723005294799805,2.629053839588694,3.276736081301769,10.555177977738213,11.927526280529928,-0.0001618862152099,0.1011203974485397,0,0,0
968,35129.4979187987,2011-01-03 20:23:29,2251.119406608393,7,4,-1.0997490882873535,3.466148853302002,2.629053839588694,3.285904612940265,10.555177977738213,11.959334245218336,-0.0001618862152099,0.1011203974485397,0,0,0
969,35159.51504622628,2011-01-03 20:23:59,2281.1365340409943,7,4,-1.0997490882873535,3.459349632263184,2.629053839588694,3.295073789602657,10.555177977738213,11.991086167541011,-0.0001942634553415,0.1011203974485397,0,0,0
970,35189.52820654161,2011-01-03 20:24:29,2311.149694326244,7,4,-1.099568486213684,3.452064752578736,2.629053839588694,3.304241809248524,10.555177977738213,12.022770003863474,-0.0001942634553415,0.1011203974485397,0,0,0
971,35219.54335870122,2011-01-03 20:24:59,2341.1648464808445,7,4,-1.099568486213684,3.4436466693878174,2.629053839588694,3.313410363769323,10.555177977738213,12.054382912713493,-0.0002590179501567,0.1011203974485397,0,0,0
972,35249.55846539753,2011-01-03 20:25:29,2371.1799531771494,7,4,-1.0997490882873535,3.43393349647522,2.629053839588694,3.322578910082608,10.555177977738213,12.08591315032104,-0.0002913951757363,0.1011203974485397,0,0,0
973,35279.5736204293,2011-01-03 20:25:59,2401.195108213933,7,4,-1.099568486213684,3.422439813613892,2.629053839588694,3.331747544991598,10.555177977738213,12.117346981847328,-0.0003237724304199,0.1011203974485397,0,0,0
974,35309.58885563589,2011-01-03 20:26:29,2431.210343440575,7,4,-1.0997490882873535,3.408679485321045,2.629053839588694,3.340916182417043,10.555177977738213,12.148665228004909,-0.0003885269106831,0.1011203974485397,0,0,0
975,35339.6038660773,2011-01-03 20:26:59,2461.2253538669456,7,4,-1.0997490882873535,3.392005205154419,2.629053839588694,3.350084741170242,10.555177977738213,12.179844201257914,-0.0004856586456298,0.1011203974485397,0,0,0
976,35369.61912812078,2011-01-03 20:27:29,2491.2406159154352,7,4,-1.099568486213684,3.371607542037964,2.629053839588694,3.359253383481259,10.555177977738213,12.21085403536646,-0.0005827903514727,0.1011203974485397,0,0,0
977,35399.63602363036,2011-01-03 20:27:59,2521.2575115102254,7,4,-1.099568486213684,3.345867872238159,2.629053839588694,3.368417226569573,10.555177977738213,12.241637274356838,-0.0007446765666827,0.1011203974485397,0,0,0
978,35429.63605870855,2011-01-03 20:28:29,2551.257546523258,7,4,-1.099568486213684,3.313166856765747,2.629053839588694,3.377586513914012,10.555177977738213,12.272173035042975,-0.0009713172912597,0.1011203974485397,0,0,0
979,35459.648900520064,2011-01-03 20:28:59,2581.270388334773,7,4,-1.099568486213684,3.2702672481536865,2.629053839588694,3.386754339614366,10.555177977738213,12.302359713959998,-0.0012950419913977,0.1011203974485397,0,0,0
980,35489.663902164546,2011-01-03 20:29:29,2611.2853899842685,7,4,-1.099929690361023,3.2136070728302,2.629053839588694,3.395922831945412,10.555177977738213,12.33209626931646,-0.0017159938579425,0.1011203974485397,0,0,0
981,35519.67910337641,2011-01-03 20:29:59,2641.300591261297,7,4,-1.0997490882873535,3.135901927947998,2.629053839588694,3.405091458286199,10.555177977738213,12.361225515199289,-0.0024282932281494,0.1011203974485397,0,0,0
982,35549.69611977729,2011-01-03 20:30:29,2671.3176076571613,7,4,-1.099568486213684,3.0232295989990234,2.629053839588694,3.414260654219351,10.555177977738213,12.389501324832205,-0.003593826200813,0.1011203974485397,0,0,0
983,35579.70948553965,2011-01-03 20:30:59,2701.3309733292976,7,4,-1.0997490882873535,2.838841676712036,2.629053839588694,3.423428746575064,10.555177977738213,12.416439458018669,-0.0058926581405103,0.1011203974485397,0,0,0
984,35596.94373606982,2011-01-03 20:31:17,2718.5652238594653,7,4,-1.099568486213684,2.699943780899048,2.629053839588694,3.428693236157929,10.555177977738213,12.431023472588551,-0.006572532467544,0.1011203974485397,0,0,0
985,35656.96046430502,2011-01-03 20:32:17,60.01461778856535,8,4,0.0,3.469386577606201,2.629053839588694,3.428693236157929,10.555177977738213,12.431023472588551,0.0014245987404137,0.1011203974485397,0,0,0
986,35657.1474325696,2011-01-03 20:32:17,0.18749836361393,9,4,-1.9243103452026844e-05,3.469710350036621,2.629053839588694,3.428693237160165,10.555177977738213,12.431023476066022,0.0,0.0978845432400703,0,0,0
987,35661.97557370288,2011-01-03 20:32:22,5.015639531987414,9,4,0.0005225847125984,3.478614091873169,2.629054657534211,3.428693237327076,10.555180820021032,12.431023476645157,0.0012627125252038,0.0978845432400703,0,0,0
