Data_Point,Test_Time(s),Date_Time,Step_Time(s),Step_Index,Cycle_Index,Current(A),Voltage(V),Charge_Capacity(Ah),Discharge_Capacity(Ah),Charge_Energy(Wh),Discharge_Energy(Wh),dV/dt(V/s),Internal_Resistance(Ohm),Is_FC_Data,AC_Impedance(Ohm),ACI_Phase_Angle(Deg)
9951,381500.2089053947,2011-01-07 20:37:04,30.01526373770012,1,40,0.0,3.586591958999634,29.77000277691205,30.504333530032604,120.23859389450776,109.34625004743695,0.0006475448608398,0.10130325704813,0,0,0
9952,381530.2238899766,2011-01-07 20:37:34,60.0302481993584,1,40,0.0,3.6079607009887695,29.77000277691205,30.504333530032604,120.23859389450776,109.34625004743695,0.0004856586456298,0.10130325704813,0,0,0
9953,381560.2390284271,2011-01-07 20:38:04,90.04538664980413,1,40,0.0,3.622854232788086,29.77000277691205,30.504333530032604,120.23859389450776,109.34625004743695,0.0003237724304199,0.10130325704813,0,0,0
9954,381590.2074198546,2011-01-07 20:38:34,120.01377812740984,1,40,0.0,3.634671926498413,29.77000277691205,30.504333530032604,120.23859389450776,109.34625004743695,0.0002913951757363,0.10130325704813,0,0,0
9955,381620.23070453614,2011-01-07 20:39:04,30.01512871117246,2,40,0.5499359965324402,3.760942697525024,29.77458942933254,30.504333530032604,120.25574649426422,109.34625004743695,0.0009065627818927,0.10130325704813,0,0,0
9956,381650.24606702,2011-01-07 20:39:34,60.0304912250532,2,40,0.550297200679779,3.785711288452149,29.779176082527677,30.504333530032604,120.27305848392436,109.34625004743695,0.0005180359003134,0.10130325704813,0,0,0
9957,381680.2609932815,2011-01-07 20:40:04,90.04541745658409,2,40,0.550297200679779,3.800766706466675,29.783762665527643,30.504333530032604,120.29045875369864,109.34625004743695,0.0003561496851034,0.10130325704813,0,0,0
9958,381710.276108048,2011-01-07 20:40:34,120.06053224305192,2,40,0.550297200679779,3.810803651809693,29.788349312438164,30.504333530032604,120.30791556957422,109.34625004743695,0.0002266406954731,0.10130325704813,0,0,0
9959,381740.2912401376,2011-01-07 20:41:04,150.07566430758197,2,40,0.5501165986061096,3.8195455074310303,29.792935916400417,30.504333530032604,120.32541469658337,109.34625004743695,0.0002266406954731,0.10130325704813,0,0,0
9960,381770.30644049234,2011-01-07 20:41:34,180.0908646773497,2,40,0.5501165986061096,3.8268303871154794,29.79752248771932,30.504333530032604,120.34294996547442,109.34625004743695,0.0002266406954731,0.10130325704813,0,0,0
9961,381800.3215043318,2011-01-07 20:42:04,210.105928506817,2,40,0.5501165986061096,3.8336293697357178,29.80210912392524,30.504333530032604,120.3605181272152,109.34625004743695,0.0001618385285837,0.10130325704813,0,0,0
9962,381830.3366349627,2011-01-07 20:42:34,240.12105914278663,2,40,0.5501165986061096,3.840104818344116,29.806695636491423,30.504333530032604,120.3781161343798,109.34625004743695,0.0001942634553415,0.10130325704813,0,0,0
9963,381860.3517698292,2011-01-07 20:43:04,270.13619402935007,2,40,0.5501165986061096,3.8460946083068848,29.81128214998605,30.504333530032604,120.39574260675168,109.34625004743695,0.0001942634553415,0.10130325704813,0,0,0
9964,381890.36691856536,2011-01-07 20:43:34,300.1513427453808,2,40,0.5501165986061096,3.8517606258392334,29.815868711285585,30.504333530032604,120.41339615551088,109.34625004743695,0.0001618862152099,0.10130325704813,0,0,0
9965,381920.382061552,2011-01-07 20:44:04,330.1664857321324,2,40,0.5499359965324402,3.857102870941162,29.820455297298142,30.504333530032604,120.43107519570732,109.34625004743695,0.0001295089750783,0.10130325704813,0,0,0
9966,381950.3971995314,2011-01-07 20:44:34,360.1816237264413,2,40,0.5501165986061096,3.862445116043091,29.825041865984936,30.504333530032604,120.44877859963094,109.34625004743695,9.713172767078504e-05,0.10130325704813,0,0,0
9967,381980.4126375935,2011-01-07 20:45:04,390.1970618788365,2,40,0.5501165986061096,3.8674635887146,29.829628378554226,30.504333530032604,120.46650521468938,109.34625004743695,0.0001295089750783,0.10130325704813,0,0,0
9968,382010.4274556353,2011-01-07 20:45:34,420.21187981546313,2,40,0.5499359965324402,3.872158288955689,29.83421484590805,30.504333530032604,120.48425427744316,109.34625004743695,0.0001295089750783,0.10130325704813,0,0,0
9969,382040.4426970925,2011-01-07 20:46:04,450.2271212876708,2,40,0.5501165986061096,3.8770148754119873,29.838801413815247,30.504333530032604,120.50202555902705,109.34625004743695,9.713172767078504e-05,0.10130325704813,0,0,0
9970,382070.4577050327,2011-01-07 20:46:34,480.2421292378697,2,40,0.5501165986061096,3.881547689437866,29.84338797025536,30.504333530032604,120.51981806161568,109.34625004743695,0.0001295089750783,0.10130325704813,0,0,0
9971,382100.4728683702,2011-01-07 20:47:04,510.2572925452667,2,40,0.5501165986061096,3.886080503463745,29.847974533321832,30.504333530032604,120.53763127799304,109.34625004743695,0.0001295089750783,0.10130325704813,0,0,0
9972,382130.4880430359,2011-01-07 20:47:34,540.2724672059595,2,40,0.5501165986061096,3.890289545059204,29.852561087389745,30.504333530032604,120.55546449286724,109.34625004743695,0.0001295089750783,0.10130325704813,0,0,0
9973,382160.5033868032,2011-01-07 20:48:04,570.2878109881551,2,40,0.550297200679779,3.894498586654663,29.857147689750576,30.504333530032604,120.5733173630492,109.34625004743695,0.0001295089750783,0.10130325704813,0,0,0
9974,382190.5182732655,2011-01-07 20:48:34,600.3026974656066,2,40,0.5501165986061096,3.898383855819702,29.86173421889666,30.504333530032604,120.59118827838584,109.34625004743695,9.713172767078504e-05,0.10130325704813,0,0,0
9975,382220.5334135957,2011-01-07 20:49:04,630.3178377656621,2,40,0.5501165986061096,3.902269124984741,29.86632083467367,30.504333530032604,120.60907763331204,109.34625004743695,9.713172767078504e-05,0.10130325704813,0,0,0
9976,382250.5485318908,2011-01-07 20:49:34,660.3329560809248,2,40,0.5501165986061096,3.9059925079345694,29.8709074045607,30.504333530032604,120.62698401647364,109.34625004743695,0.0001295089750783,0.10130325704813,0,0,0
9977,382280.56377693696,2011-01-07 20:50:04,690.3482011270397,2,40,0.5499359965324402,3.9092302322387695,29.875493970604,30.504333530032604,120.64490691742732,109.34625004743695,6.47544875391759e-05,0.10130325704813,0,0,0
9978,382310.5789081544,2011-01-07 20:50:34,720.3633323444584,2,40,0.5501165986061096,3.9127917289733887,29.880080521224585,30.504333530032604,120.66284551798888,109.34625004743695,6.47544875391759e-05,0.10130325704813,0,0,0
9979,382340.593931137,2011-01-07 20:51:04,750.3783553371478,2,40,0.5497553944587708,3.915705442428589,29.88466715970501,30.504333530032604,120.68079947926712,109.34625004743695,3.237724376958795e-05,0.10130325704813,0,0,0
9980,382370.6090741739,2011-01-07 20:51:34,780.393498369012,2,40,0.5499359965324402,3.918943166732788,29.889253683217287,30.504333530032604,120.69876725906208,109.34625004743695,3.237724376958795e-05,0.10130325704813,0,0,0
9981,382400.6242037071,2011-01-07 20:52:04,810.4086279022333,2,40,0.550297200679779,3.922019004821777,29.893840312566265,30.504333530032604,120.71674911166204,109.34625004743695,6.47544875391759e-05,0.10130325704813,0,0,0
9982,382430.6393174961,2011-01-07 20:52:34,840.4237416761777,2,40,0.5499359965324402,3.9247710704803462,29.898426878885022,30.504333530032604,120.73474381085464,109.34625004743695,9.713172767078504e-05,0.10130325704813,0,0,0
9983,382460.654454097,2011-01-07 20:53:04,870.4388782870384,2,40,0.5501165986061096,3.927523136138916,29.903013480749262,30.504333530032604,120.7527511250264,109.34625004743695,6.47544875391759e-05,0.10130325704813,0,0,0
9984,382490.66960592574,2011-01-07 20:53:34,900.4540301258521,2,40,0.5501165986061096,3.9301133155822754,29.90760004201445,30.504333530032604,120.77077032262709,109.34625004743695,0.0001295089750783,0.10130325704813,0,0,0
9985,382520.6848440697,2011-01-07 20:54:04,930.4692682597396,2,40,0.5501165986061096,3.932541608810425,29.91218669131579,30.504333530032604,120.78880160062782,109.34625004743695,9.713172767078504e-05,0.10130325704813,0,0,0
9986,382550.69986900216,2011-01-07 20:54:34,960.4842931722136,2,40,0.5501165986061096,3.934969902038574,29.91677328747823,30.504333530032604,120.80684409019716,109.34625004743695,6.47544875391759e-05,0.10130325704813,0,0,0
9987,382580.7150137282,2011-01-07 20:55:04,990.4994378983004,2,40,0.5501165986061096,3.937398195266724,29.92135993489406,30.504333530032604,120.82489791892353,109.34625004743695,6.47544875391759e-05,0.10130325704813,0,0,0
9988,382610.7303642071,2011-01-07 20:55:34,1020.514788417286,2,40,0.5501165986061096,3.939502716064453,29.92594656390627,30.504333530032604,120.8429626202312,109.34625004743695,3.237724376958795e-05,0.10130325704813,0,0,0
9989,382640.7452689,2011-01-07 20:56:04,1050.529693100111,2,40,0.5501165986061096,3.9419310092926025,29.93053313220345,30.504333530032604,120.86103788938236,109.34625004743695,3.237724376958795e-05,0.10130325704813,0,0,0
9990,382670.7604528338,2011-01-07 20:56:34,1080.5448770238904,2,40,0.5501165986061096,3.944359302520752,29.935119681913367,30.504333530032604,120.87912376404906,109.34625004743695,6.47544875391759e-05,0.10130325704813,0,0,0
9991,382700.7756643413,2011-01-07 20:57:04,1110.5600885364292,2,40,0.5499359965324402,3.9466257095336914,29.939706262247057,30.504333530032604,120.89722038794132,109.34625004743695,6.47544875391759e-05,0.10130325704813,0,0,0
9992,382730.7929526298,2011-01-07 20:57:34,1140.5773768900954,2,40,0.5501165986061096,3.948892116546631,29.94429317092769,30.504333530032604,120.91532871229026,109.34625004743695,3.237724376958795e-05,0.10130325704813,0,0,0
9993,382760.80595749273,2011-01-07 20:58:04,1170.590381687822,2,40,0.5501165986061096,3.95132040977478,29.948879412727127,30.504333530032604,120.93344480830748,109.34625004743695,9.713172767078504e-05,0.10130325704813,0,0,0
9994,382790.8210594021,2011-01-07 20:58:34,1200.6054836122337,2,40,0.5501165986061096,3.95358681678772,29.953466040584235,30.504333530032604,120.95157286773753,109.34625004743695,6.47544875391759e-05,0.10130325704813,0,0,0
9995,382820.8360895927,2011-01-07 20:59:04,1230.6205137878253,2,40,0.550297200679779,3.956015110015869,29.95805262410757,30.504333530032604,120.9697110839365,109.34625004743695,0.0001295089750783,0.10130325704813,0,0,0
9996,382850.8512168052,2011-01-07 20:59:34,1260.6356409802122,2,40,0.5501165986061096,3.9579577445983887,29.962639275831823,30.504333530032604,120.9878597693612,109.34625004743695,6.47544875391759e-05,0.10130325704813,0,0,0
9997,382880.8663427444,2011-01-07 21:00:04,1290.6507669194762,2,40,0.550297200679779,3.960224151611328,29.967225830697632,30.504333530032604,121.00601811318828,109.34625004743695,9.713172767078504e-05,0.10130325704813,0,0,0
9998,382910.8814868991,2011-01-07 21:00:34,1320.6659110841638,2,40,0.5501165986061096,3.9623286724090576,29.971812470408235,30.504333530032604,121.02418690399868,109.34625004743695,3.237724376958795e-05,0.10130325704813,0,0,0
9999,382940.8966104524,2011-01-07 21:01:04,1350.6810346224436,2,40,0.5501165986061096,3.964595079421997,29.976399110153068,30.504333530032604,121.04236574238428,109.34625004743695,6.47544875391759e-05,0.10130325704813,0,0,0
10000,382970.9117212339,2011-01-07 21:01:35,1380.6961454139548,2,40,0.5501165986061096,3.966699600219727,29.980985718097397,30.504333530032604,121.060554462341,109.34625004743695,6.47544875391759e-05,0.10130325704813,0,0,0
10001,383000.9268555239,2011-01-07 21:02:05,1410.7112797190691,2,40,0.5501165986061096,3.968804121017456,29.985572322817777,30.504333530032604,121.07875300958516,109.34625004743695,6.47544875391759e-05,0.10130325704813,0,0,0
10002,383030.9419977087,2011-01-07 21:02:35,1440.7264219088345,2,40,0.5501165986061096,3.971070528030396,29.99015891769072,30.504333530032604,121.0969614286147,109.34625004743695,6.47544875391759e-05,0.10130325704813,0,0,0
10003,383060.9571222795,2011-01-07 21:03:05,1470.7415464746755,2,40,0.5501165986061096,3.973336935043335,29.994745462151943,30.504333530032604,121.1151795379468,109.34625004743695,0.0001295089750783,0.10130325704813,0,0,0
10004,383090.97226285527,2011-01-07 21:03:35,1500.7566870253554,2,40,0.5497553944587708,3.9752795696258554,29.99933204505603,30.504333530032604,121.13340766369696,109.34625004743695,6.47544875391759e-05,0.10130325704813,0,0,0
10005,383120.9873847795,2011-01-07 21:04:05,1530.7718089596378,2,40,0.5501165986061096,3.977384090423584,30.003918706635567,30.504333530032604,121.1516459374397,109.34625004743695,3.237724376958795e-05,0.10130325704813,0,0,0
10006,383151.0025335357,2011-01-07 21:04:35,1560.7869578009809,2,40,0.5499359965324402,3.9794886112213135,30.00850533208201,30.504333530032604,121.16989344626796,109.34625004743695,3.237724376958795e-05,0.10130325704813,0,0,0
10007,383181.01779290254,2011-01-07 21:05:05,1590.8022170976126,2,40,0.550297200679779,3.981916904449463,30.013091884877863,30.504333530032604,121.18815086330326,109.34625004743695,6.47544875391759e-05,0.10130325704813,0,0,0
10008,383211.0328032486,2011-01-07 21:05:35,1620.8172274487954,2,40,0.5499359965324402,3.983697652816773,30.01767842325179,30.504333530032604,121.20641803534096,109.34625004743695,0.0,0.10130325704813,0,0,0
10009,383241.0480743547,2011-01-07 21:06:05,1650.8324985598724,2,40,0.5501165986061096,3.985964059829712,30.02226490465076,30.504333530032604,121.22469466630292,109.34625004743695,6.47544875391759e-05,0.10130325704813,0,0,0
10010,383271.0630687663,2011-01-07 21:06:35,1680.847492946266,2,40,0.5499359965324402,3.9880685806274414,30.026851420526864,30.504333530032604,121.24298123219512,109.34625004743695,3.237724376958795e-05,0.10130325704813,0,0,0
10011,383301.0782015274,2011-01-07 21:07:05,1710.8626257075323,2,40,0.5499359965324402,3.990011215209961,30.0314378501178,30.504333530032604,121.2612770743018,109.34625004743695,3.237724376958795e-05,0.10130325704813,0,0,0
10012,383331.0933152462,2011-01-07 21:07:35,1740.8777395165644,2,40,0.550297200679779,3.9924395084381104,30.03602493014792,30.504333530032604,121.27958537874792,109.34625004743695,9.713172767078504e-05,0.10130325704813,0,0,0
10013,383361.108420469,2011-01-07 21:08:05,1770.892844638946,2,40,0.5501165986061096,3.994381904602051,30.040612274167177,30.504333530032604,121.29790448461418,109.34625004743695,6.47544875391759e-05,0.10130325704813,0,0,0
10014,383391.1235923927,2011-01-07 21:08:35,1800.9080165678306,2,40,0.5501165986061096,3.99648642539978,30.0451995296542,30.504333530032604,121.31623303528268,109.34625004743695,0.0,0.10130325704813,0,0,0
10015,383421.13870561536,2011-01-07 21:09:05,1830.9231297904007,2,40,0.550297200679779,3.9985909461975098,30.049786857338177,30.504333530032604,121.33457165910094,109.34625004743695,3.237724376958795e-05,0.10130325704813,0,0,0
10016,383451.1560306855,2011-01-07 21:09:35,1860.940454945788,2,40,0.550297200679779,4.001019477844238,30.05437449398816,30.504333530032604,121.35292140552548,109.34625004743695,6.47544875391759e-05,0.10130325704813,0,0,0
10017,383481.16914922674,2011-01-07 21:10:05,1890.953573416824,2,40,0.5504778623580933,4.003123760223389,30.05896148597834,30.504333530032604,121.37127850115546,109.34625004743695,6.47544875391759e-05,0.10130325704813,0,0,0
10018,383511.18410900194,2011-01-07 21:10:35,1920.9685331719056,2,40,0.5499359965324402,4.005228519439697,30.063548409975724,30.504333530032604,121.38964521324776,109.34625004743695,3.24249267578125e-05,0.10130325704813,0,0,0
10019,383541.19925758254,2011-01-07 21:11:05,1950.9836817525988,2,40,0.5501165986061096,4.007494926452637,30.068135044100263,30.504333530032604,121.40802080862464,109.34625004743695,6.47544875391759e-05,0.10130325704813,0,0,0
10020,383571.2146012094,2011-01-07 21:11:35,1980.9990253743947,2,40,0.5501165986061096,4.009761333465576,30.07272171022084,30.504333530032604,121.42640661240355,109.34625004743695,6.47544875391759e-05,0.10130325704813,0,0,0
10021,383601.2295333055,2011-01-07 21:12:05,2011.0139574755544,2,40,0.5499359965324402,4.011865615844727,30.07730832735123,30.504333530032604,121.44480226646658,109.34625004743695,6.47544875391759e-05,0.10130325704813,0,0,0
10022,383631.2445821727,2011-01-07 21:12:35,2041.029006347744,2,40,0.5501165986061096,4.014132022857666,30.081894995682863,30.504333530032604,121.46320843064892,109.34625004743695,6.47544875391759e-05,0.10130325704813,0,0,0
10023,383661.2598127928,2011-01-07 21:13:05,2071.044236972917,2,40,0.550297200679779,4.0163984298706055,30.08648168236856,30.504333530032604,121.48162503227536,109.34625004743695,6.47544875391759e-05,0.10130325704813,0,0,0
10024,383691.2749053289,2011-01-07 21:13:35,2101.05932950893,2,40,0.550297200679779,4.018664836883545,30.09106839547914,30.504333530032604,121.50005225013032,109.34625004743695,6.47544875391759e-05,0.10130325704813,0,0,0
10025,383721.2900289724,2011-01-07 21:14:05,2131.0744531424475,2,40,0.5501165986061096,4.020931243896484,30.09565508393035,30.504333530032604,121.51848978555329,109.34625004743695,9.70840483205393e-05,0.10130325704813,0,0,0
10026,383751.305251357,2011-01-07 21:14:35,2161.089675537108,2,40,0.550297200679779,4.023359775543213,30.100241702340885,30.504333530032604,121.53693777062747,109.34625004743695,6.47544875391759e-05,0.10130325704813,0,0,0
10027,383781.3202971816,2011-01-07 21:15:05,2191.104721376739,2,40,0.5499359965324402,4.025626182556152,30.104828334607756,30.504333530032604,121.5553965221214,109.34625004743695,6.47544875391759e-05,0.10130325704813,0,0,0
10028,383811.33544336125,2011-01-07 21:15:35,2221.1198675363985,2,40,0.5499359965324402,4.027892589569092,30.109414980163653,30.504333530032604,121.57386609356476,109.34625004743695,6.47544875391759e-05,0.10130325704813,0,0,0
10029,383841.3505713156,2011-01-07 21:16:05,2251.134995480659,2,40,0.550297200679779,4.030320644378662,30.114001732570564,30.504333530032604,121.59234701976392,109.34625004743695,3.23295607813634e-05,0.10130325704813,0,0,0
10030,383871.36575175566,2011-01-07 21:16:35,2281.150175935794,2,40,0.5501165986061096,4.032749176025391,30.118588352893905,30.504333530032604,121.61083839850144,109.34625004743695,6.47544875391759e-05,0.10130325704813,0,0,0
10031,383901.3808485573,2011-01-07 21:17:05,2311.165272727413,2,40,0.5499359965324402,4.035338878631592,30.123175070417552,30.504333530032604,121.62934131774286,109.34625004743695,6.47544875391759e-05,0.10130325704813,0,0,0
10032,383931.3959928574,2011-01-07 21:17:35,2341.180417057513,2,40,0.5499359965324402,4.037605285644531,30.127761625354427,30.504333530032604,121.64785484675512,109.34625004743695,6.47544875391759e-05,0.10130325704813,0,0,0
10033,383961.41135553166,2011-01-07 21:18:05,2371.195779741818,2,40,0.5499359965324402,4.04003381729126,30.13234750952319,30.504333530032604,121.66637684275425,109.34625004743695,3.24249267578125e-05,0.10130325704813,0,0,0
10034,383991.4262526206,2011-01-07 21:18:35,2401.2106768106664,2,40,0.5499359965324402,4.042623996734619,30.136933305634457,30.504333530032604,121.6849099041163,109.34625004743695,6.47544875391759e-05,0.10130325704813,0,0,0
10035,384021.4413835522,2011-01-07 21:19:05,2431.225807722323,2,40,0.5499359965324402,4.0450520515441895,30.14151908519579,30.504333530032604,121.70345454069364,109.34625004743695,3.23295607813634e-05,0.10130325704813,0,0,0
10036,384051.4565296568,2011-01-07 21:19:35,2461.2409538268453,2,40,0.5501165986061096,4.047804355621338,30.146105084676343,30.504333530032604,121.722011841627,109.34625004743695,6.47544875391759e-05,0.10130325704813,0,0,0
10037,384081.4719363107,2011-01-07 21:20:05,2491.256360495774,2,40,0.550297200679779,4.050232410430908,30.150691886776777,30.504333530032604,121.74058440627968,109.34625004743695,0.0,0.10130325704813,0,0,0
10038,384111.48678231233,2011-01-07 21:20:35,2521.27120648231,2,40,0.5499359965324402,4.052984714508057,30.155278511565644,30.504333530032604,121.75916809642584,109.34625004743695,6.47544875391759e-05,0.10130325704813,0,0,0
10039,384141.5020247469,2011-01-07 21:21:05,2551.2864489620288,2,40,0.5501165986061096,4.055736541748047,30.159865249284547,30.504333530032604,121.77776434067312,109.34625004743695,9.70840483205393e-05,0.10130325704813,0,0,0
10040,384171.5170697645,2011-01-07 21:21:35,2581.301493939511,2,40,0.5501165986061096,4.058488845825195,30.16445197012158,30.504333530032604,121.79637271962564,109.34625004743695,6.47544875391759e-05,0.10130325704813,0,0,0
10041,384201.5324361229,2011-01-07 21:22:05,2611.316860292961,2,40,0.550297200679779,4.060755252838135,30.169038676631185,30.504333530032604,121.8149933203571,109.34625004743695,3.24249267578125e-05,0.10130325704813,0,0,0
10042,384231.547322495,2011-01-07 21:22:35,2641.33174666515,2,40,0.5501165986061096,4.063669204711914,30.17362524752638,30.504333530032604,121.83362550326352,109.34625004743695,6.47544875391759e-05,0.10130325704813,0,0,0
10043,384261.562455527,2011-01-07 21:23:05,2671.3468796970915,2,40,0.550297200679779,4.066421031951904,30.17821188570817,30.504333530032604,121.85227064497845,109.34625004743695,6.47544875391759e-05,0.10130325704813,0,0,0
10044,384291.57760821295,2011-01-07 21:23:35,2701.3620324080784,2,40,0.5501165986061096,4.069334983825684,30.18279855476712,30.504333530032604,121.8709287328191,109.34625004743695,9.70840483205393e-05,0.10130325704813,0,0,0
10045,384321.5927296309,2011-01-07 21:24:05,2731.377153801012,2,40,0.5501165986061096,4.072087287902832,30.187385223005887,30.504333530032604,121.88959960074207,109.34625004743695,9.71794142969884e-05,0.10130325704813,0,0,0
10046,384351.6078543071,2011-01-07 21:24:35,2761.3922784771275,2,40,0.5499359965324402,4.074839115142822,30.19197185196925,30.504333530032604,121.90828334316828,109.34625004743695,6.47544875391759e-05,0.10130325704813,0,0,0
10047,384381.6230004618,2011-01-07 21:25:05,2791.407424656837,2,40,0.550297200679779,4.077915191650391,30.196558467362006,30.504333530032604,121.92698014379523,109.34625004743695,9.71794142969884e-05,0.10130325704813,0,0,0
10048,384411.6381308521,2011-01-07 21:25:35,2821.422555042182,2,40,0.5499359965324402,4.080667018890381,30.201145160112837,30.504333530032604,121.94569061930872,109.34625004743695,6.47544875391759e-05,0.10130325704813,0,0,0
10049,384441.6532635733,2011-01-07 21:26:05,2851.4376877633485,2,40,0.5499359965324402,4.08358097076416,30.20573175734343,30.504333530032604,121.96441409340024,109.34625004743695,3.23295607813634e-05,0.10130325704813,0,0,0
10050,384471.66851042886,2011-01-07 21:26:35,2881.452934603936,2,40,0.5501165986061096,4.0866570472717285,30.210318471786227,30.504333530032604,121.9831516931696,109.34625004743695,6.47544875391759e-05,0.10130325704813,0,0,0
10051,384501.68354160193,2011-01-07 21:27:05,2911.4679657820257,2,40,0.5501165986061096,4.089570999145508,30.2149051053758,30.504333530032604,122.0019026768441,109.34625004743695,6.47544875391759e-05,0.10130325704813,0,0,0
10052,384531.698807876,2011-01-07 21:27:35,2941.483232051035,2,40,0.550297200679779,4.092970371246338,30.21949183595605,30.504333530032604,122.02066797471944,109.34625004743695,0.0001295089750783,0.10130325704813,0,0,0
10053,384561.7137993802,2011-01-07 21:28:05,2971.4982235853204,2,40,0.5501165986061096,4.095560550689697,30.224078501166492,30.504333530032604,122.03944690599788,109.34625004743695,6.47544875391759e-05,0.10130325704813,0,0,0
10054,384591.7289272242,2011-01-07 21:28:35,3001.513351419306,2,40,0.5501165986061096,4.0987982749938965,30.228665148118576,30.504333530032604,122.05823981674878,109.34625004743695,6.47544875391759e-05,0.10130325704813,0,0,0
10055,384621.7440693438,2011-01-07 21:29:05,3031.528493538897,2,40,0.550297200679779,4.102035999298096,30.233251925615697,30.504333530032604,122.07704749282765,109.34625004743695,0.0001295089750783,0.10130325704813,0,0,0
10056,384651.76152721496,2011-01-07 21:29:35,3061.545951530353,2,40,0.550297200679779,4.105273723602295,30.237838945029605,30.504333530032604,122.0958703288656,109.34625004743695,0.0001295089750783,0.10130325704813,0,0,0
10057,384681.7743363299,2011-01-07 21:30:05,3091.5587605100404,2,40,0.5501165986061096,4.108187675476074,30.24242526230246,30.504333530032604,122.11470482971394,109.34625004743695,9.70840483205393e-05,0.10130325704813,0,0,0
10058,384711.7895005196,2011-01-07 21:30:35,3121.573924709661,2,40,0.5501165986061096,4.111425399780273,30.247011933093187,30.504333530032604,122.1335553254834,109.34625004743695,6.47544875391759e-05,0.10130325704813,0,0,0
10059,384741.8046870399,2011-01-07 21:31:05,3151.589111325149,2,40,0.550297200679779,4.114663124084473,30.25159856416721,30.504333530032604,122.15242030339854,109.34625004743695,6.47544875391759e-05,0.10130325704813,0,0,0
10060,384771.8196739977,2011-01-07 21:31:35,3181.6040981727538,2,40,0.5499359965324402,4.117900848388672,30.256185147114564,30.504333530032604,122.171299945244,109.34625004743695,6.47544875391759e-05,0.10130325704813,0,0,0
10061,384801.8349950533,2011-01-07 21:32:05,3211.619419243345,2,40,0.5501165986061096,4.121138572692871,30.260771828473487,30.504333530032604,122.1901949660254,109.34625004743695,6.47544875391759e-05,0.10130325704813,0,0,0
10062,384831.85000416136,2011-01-07 21:32:35,3241.6344283263675,2,40,0.550297200679779,4.12437629699707,30.265358528742865,30.504333530032604,122.2091050983128,109.34625004743695,9.71794142969884e-05,0.10130325704813,0,0,0
10063,384861.86514651147,2011-01-07 21:33:05,3271.649570681545,2,40,0.550297200679779,4.1279377937316895,30.2699451001096,30.504333530032604,122.22802985094091,109.34625004743695,0.0001295089750783,0.10130325704813,0,0,0
10064,384891.88031921233,2011-01-07 21:33:36,3301.6647433973903,2,40,0.5501165986061096,4.13133716583252,30.27453174608744,30.504333530032604,122.24697015125057,109.34625004743695,0.0001295089750783,0.10130325704813,0,0,0
10065,384921.8954326404,2011-01-07 21:34:06,3331.679856835497,2,40,0.5501165986061096,4.134413242340088,30.279118418444227,30.504333530032604,122.26592601611762,109.34625004743695,6.47544875391759e-05,0.10130325704813,0,0,0
10066,384951.91055078525,2011-01-07 21:34:36,3361.694974955273,2,40,0.5501165986061096,4.137812614440918,30.283705087567068,30.504333530032604,122.2848974567673,109.34625004743695,6.47544875391759e-05,0.10130325704813,0,0,0
10067,384981.9256912758,2011-01-07 21:35:06,3391.710115450816,2,40,0.5501165986061096,4.141374111175537,30.288291774009597,30.504333530032604,122.30388470131484,109.34625004743695,9.70840483205393e-05,0.10130325704813,0,0,0
10068,385011.94083572616,2011-01-07 21:35:36,3421.725259916253,2,40,0.5501165986061096,4.144935607910156,30.2928784214786,30.504333530032604,122.32288766697351,109.34625004743695,6.47544875391759e-05,0.10130325704813,0,0,0
10069,385041.955943039,2011-01-07 21:36:06,3451.740367204032,2,40,0.5499359965324402,4.1483354568481445,30.297465004965943,30.504333530032604,122.34190663842084,109.34625004743695,9.71794142969884e-05,0.10130325704813,0,0,0
10070,385071.9710913791,2011-01-07 21:36:36,3481.7555155491377,2,40,0.5501165986061096,4.151896953582764,30.302051607965613,30.504333530032604,122.36094178566836,109.34625004743695,6.47544875391759e-05,0.10130325704813,0,0,0
10071,385101.9862161354,2011-01-07 21:37:06,3511.770640310466,2,40,0.5501165986061096,4.155620098114014,30.306638178475183,30.504333530032604,122.37999309768436,109.34625004743695,0.0001295089750783,0.10130325704813,0,0,0
10072,385132.0013836884,2011-01-07 21:37:36,3541.78580787347,2,40,0.5501165986061096,4.159019947052002,30.31122477659123,30.504333530032604,122.39906093991088,109.34625004743695,9.71794142969884e-05,0.10130325704813,0,0,0
10073,385162.0167840967,2011-01-07 21:38:06,3571.8012082717696,2,40,0.5501165986061096,4.162743091583252,30.315811437218656,30.504333530032604,122.41814547164778,109.34625004743695,0.0001295089750783,0.10130325704813,0,0,0
10074,385192.03161442926,2011-01-07 21:38:36,3601.816038594266,2,40,0.5501165986061096,4.166304588317871,30.32039800626334,30.504333530032604,122.43724622926013,109.34625004743695,9.70840483205393e-05,0.10130325704813,0,0,0
10075,385222.0467571954,2011-01-07 21:39:06,3631.83118136548,2,40,0.5501165986061096,4.170028209686279,30.324984581080265,30.504333530032604,122.45636384333248,109.34625004743695,9.71794142969884e-05,0.10130325704813,0,0,0
10076,385252.0619018864,2011-01-07 21:39:36,3661.8463260514673,2,40,0.550297200679779,4.173913478851318,30.329571138328788,30.504333530032604,122.4754983270241,109.34625004743695,0.0001295089750783,0.10130325704813,0,0,0
10077,385282.0770208433,2011-01-07 21:40:06,3691.8614450083287,2,40,0.550297200679779,4.177636623382568,30.334157720942272,30.504333530032604,122.49464990704828,109.34625004743695,0.0001295089750783,0.10130325704813,0,0,0
10078,385312.0921729327,2011-01-07 21:40:36,3721.876597102779,2,40,0.550297200679779,4.181360244750977,30.338744316780343,30.504333530032604,122.51381869081663,109.34625004743695,0.0001295089750783,0.10130325704813,0,0,0
10079,385342.1073141651,2011-01-07 21:41:06,3751.891738335159,2,40,0.550297200679779,4.184921741485596,30.34333096374353,30.504333530032604,122.53300493512532,109.34625004743695,6.47544875391759e-05,0.10130325704813,0,0,0
10080,385372.124587782,2011-01-07 21:41:36,3781.9090120573583,2,40,0.550297200679779,4.188807010650635,30.34791795955956,30.504333530032604,122.55220996052674,109.34625004743695,6.47544875391759e-05,0.10130325704813,0,0,0
10081,385402.1375691564,2011-01-07 21:42:06,3811.921993326444,2,40,0.5501165986061096,4.192530155181885,30.352504245881512,30.504333530032604,122.57142964334872,109.34625004743695,9.70840483205393e-05,0.10130325704813,0,0,0
10082,385432.1526909002,2011-01-07 21:42:36,3841.937115070252,2,40,0.5501165986061096,4.196415424346924,30.35709087307008,30.504333530032604,122.59066839757976,109.34625004743695,9.71794142969884e-05,0.10130325704813,0,0,0
10083,385458.54288460297,2011-01-07 21:43:02,3868.327308773019,2,40,0.550297200679779,4.200138568878174,30.361123517818267,30.504333530032604,122.6075981692361,109.34625004743695,0.0001295089750783,0.10130325704813,0,0,0
10084,385488.5671218773,2011-01-07 21:43:32,30.01513702188532,3,40,0.0,4.101226806640625,30.361123517818267,30.504333530032604,122.6075981692361,109.34625004743695,-0.0004208564641885,0.10130325704813,0,0,0
10085,385518.5823064478,2011-01-07 21:44:02,60.03032160230112,3,40,0.0,4.088437557220459,30.361123517818267,30.504333530032604,122.6075981692361,109.34625004743695,-0.0002266883820993,0.10130325704813,0,0,0
10086,385548.59758504754,2011-01-07 21:44:32,90.04560019702951,3,40,0.0,4.08050537109375,30.361123517818267,30.504333530032604,122.6075981692361,109.34625004743695,-0.0001618385285837,0.10130325704813,0,0,0
10087,385578.56564926944,2011-01-07 21:45:02,120.01366441901354,3,40,0.0,4.075325012207031,30.361123517818267,30.504333530032604,122.6075981692361,109.34625004743695,-0.0001295089750783,0.10130325704813,0,0,0
10088,385578.5766943625,2011-01-07 21:45:02,0.015605573891854,4,40,1.028911828994751,4.199976921081543,30.361127978029288,30.504333530032604,122.60761690201944,109.34625004743695,0.0,0.10130325704813,0,0,0
10089,385579.15481033525,2011-01-07 21:45:03,0.593721546778124,4,40,0.9788830280303956,4.199814796447754,30.361287849042817,30.504333530032604,122.60828833244412,109.34625004743695,-3.24249267578125e-05,0.10130325704813,0,0,0
10090,385580.8891645196,2011-01-07 21:45:05,2.328075726040285,4,40,0.9288542866706848,4.199814796447754,30.36174643638731,30.504333530032604,122.61021429891096,109.34625004743695,-3.24249267578125e-05,0.10130325704813,0,0,0
10091,385583.5766496645,2011-01-07 21:45:07,5.01556090602733,4,40,0.8784642815589905,4.199814796447754,30.362420122929077,30.504333530032604,122.61304365116176,109.34625004743695,0.0,0.10130325704813,0,0,0
10092,385587.3265581503,2011-01-07 21:45:11,8.765469361716894,4,40,0.8282548785209656,4.199814796447754,30.363307967560097,30.504333530032604,122.61677242275778,109.34625004743695,3.23295607813634e-05,0.10130325704813,0,0,0
10093,385592.24836904753,2011-01-07 21:45:16,13.687280258875967,4,40,0.7780455350875854,4.199814796447754,30.364404741592164,30.504333530032604,122.62137866958878,109.34625004743695,0.0,0.10130325704813,0,0,0
10094,385598.62317624845,2011-01-07 21:45:23,20.062087545112437,4,40,0.72801673412323,4.199814796447754,30.36573661285153,30.504333530032604,122.6269722978738,109.34625004743695,-3.24249267578125e-05,0.10130325704813,0,0,0
10095,385606.9669109326,2011-01-07 21:45:31,28.40582216408588,4,40,0.6778073906898499,4.199814796447754,30.367363485851243,30.504333530032604,122.63380486137314,109.34625004743695,3.23295607813634e-05,0.10130325704813,0,0,0
10096,385618.35741501854,2011-01-07 21:45:42,39.796326260063545,4,40,0.627597987651825,4.199653148651123,30.369424991553537,30.504333530032604,122.64246282572434,109.34625004743695,-3.23295607813634e-05,0.10130325704813,0,0,0
10097,385634.99764119234,2011-01-07 21:45:59,56.43655240869552,4,40,0.5775692462921143,4.199653148651123,30.37220306978461,30.504333530032604,122.65413026720591,109.34625004743695,-3.23295607813634e-05,0.10130325704813,0,0,0
10098,385662.4034336095,2011-01-07 21:46:26,83.84234482093834,4,40,0.5273598432540894,4.199491024017334,30.3763935093815,30.504333530032604,122.67172941501548,109.34625004743695,-6.47544875391759e-05,0.10130325704813,0,0,0
10099,385715.1371080419,2011-01-07 21:47:19,136.57601925838244,4,40,0.4773310720920563,4.199653148651123,30.383717848988137,30.504333530032604,122.70249037818976,109.34625004743695,0.0,0.10130325704813,0,0,0
10100,385809.2760704872,2011-01-07 21:48:53,230.7149817036306,4,40,0.4273023009300232,4.199653148651123,30.395506285625565,30.504333530032604,122.75199976399286,109.34625004743695,-3.23295607813634e-05,0.10130325704813,0,0,0
10101,385935.32090735366,2011-01-07 21:50:59,356.7598185851661,4,40,0.3772735297679901,4.199653148651123,30.4095667861425,30.504333530032604,122.81105147388232,109.34625004743695,-3.23295607813634e-05,0.10130325704813,0,0,0
10102,386088.1937294642,2011-01-07 21:53:32,509.6326408109442,4,40,0.3270641565322876,4.199653148651123,30.42449979612752,30.504333530032604,122.8737676161731,109.34625004743695,-3.23295607813634e-05,0.10130325704813,0,0,0
10103,386271.3624123164,2011-01-07 21:56:35,692.8013235479194,4,40,0.2770353853702545,4.199653148651123,30.43984665237231,30.504333530032604,122.93822174020092,109.34625004743695,-3.23295607813634e-05,0.10130325704813,0,0,0
10104,386497.68670598953,2011-01-07 22:00:22,919.1256172159844,4,40,0.2270066142082214,4.199653148651123,30.455659774191936,30.504333530032604,123.0046341396684,109.34625004743695,-3.23295607813634e-05,0.10130325704813,0,0,0
10105,386788.96319833706,2011-01-07 22:05:13,1210.402109548413,4,40,0.1769778430461883,4.199814796447754,30.471938570252444,30.504333530032604,123.0730023174667,109.34625004743695,0.0,0.10130325704813,0,0,0
10106,387200.4098127891,2011-01-07 22:12:04,1621.848724010611,4,40,0.1269490718841552,4.199653148651123,30.4891587031062,30.504333530032604,123.14532389382362,109.34625004743695,-3.23295607813634e-05,0.10130325704813,0,0,0
10107,387896.8984298972,2011-01-07 22:23:41,2318.337341128659,4,40,0.0767396986484527,4.199653148651123,30.50844067372804,30.504333530032604,123.22630488600008,109.34625004743695,0.0,0.10130325704813,0,0,0
10108,388587.9025742767,2011-01-07 22:35:12,3009.341485493075,4,40,0.0498289167881011,4.199814796447754,30.52045982607205,30.504333530032604,123.2767833124442,109.34625004743695,0.0,0.10130325704813,0,0,0
10109,388617.9153994325,2011-01-07 22:35:42,30.01513974366884,5,40,0.0,4.190749645233154,30.52045982607205,30.504333530032604,123.2767833124442,109.34625004743695,-3.23295607813634e-05,0.10130325704813,0,0,0
10110,388647.9150338271,2011-01-07 22:36:12,60.0147741632993,5,40,0.0,4.189130783081055,30.52045982607205,30.504333530032604,123.2767833124442,109.34625004743695,-6.47544875391759e-05,0.10130325704813,0,0,0
10111,388648.1009857918,2011-01-07 22:36:12,0.18741519132299,6,40,-1.9243103452026844e-05,4.189130783081055,30.52045982607205,30.50433353103439,123.2767833124442,109.3462500516336,0.0,0.1022986695170402,0,0,0
10112,388652.929292608,2011-01-07 22:36:17,5.015722022579352,6,40,0.0005225847125984,4.188968658447266,30.520460666380444,30.50433353120268,123.27678683268604,109.34625005233856,-6.47544875391759e-05,0.1022986695170402,0,0,0
10113,388679.3960876869,2011-01-07 22:36:44,26.46831345121688,7,40,-1.099568486213684,3.988878011703491,30.520460666380444,30.51241842192513,123.27678683268604,109.378700595637,-0.0012950419913977,0.1022986695170402,0,0,0
10114,388709.41120979167,2011-01-07 22:37:14,56.4834355509115,7,40,-1.099568486213684,3.949539661407471,30.520460666380444,30.52158667138826,123.27678683268604,109.41508231429606,-0.0009065627818927,0.1022986695170402,0,0,0
10115,388739.4263715251,2011-01-07 22:37:44,86.49859726934822,7,40,-1.0997490882873535,3.921533346176148,30.520460666380444,30.53075495324127,123.27678683268604,109.451158246318,-0.0006799221155233,0.1022986695170402,0,0,0
10116,388769.44147408113,2011-01-07 22:38:14,116.51369983535892,7,40,-1.099568486213684,3.9000027179718018,30.520460666380444,30.5399231934412,123.27678683268604,109.4870098069843,-0.0005180359003134,0.1022986695170402,0,0,0
10117,388799.4567578237,2011-01-07 22:38:44,146.52898359295477,7,40,-1.0997490882873535,3.882033348083496,30.520460666380444,30.549091478014653,123.27678683268604,109.52268287014525,-0.0004856586456298,0.1022986695170402,0,0,0
10118,388829.4717419244,2011-01-07 22:39:14,176.54396769872605,7,40,-1.099568486213684,3.86649227142334,30.520460666380444,30.55825972063021,123.27678683268604,109.5582024233916,-0.0004209041653666,0.1022986695170402,0,0,0
10119,388859.4892087329,2011-01-07 22:39:44,206.56143459738115,7,40,-1.099568486213684,3.8522462844848633,30.520460666380444,30.56742870213037,123.27678683268604,109.59358797688456,-0.0003885269106831,0.1022986695170402,0,0,0
10120,388889.50202217867,2011-01-07 22:40:14,236.57424793292515,7,40,-1.099568486213684,3.838809728622437,30.520460666380444,30.57659622731173,123.27678683268604,109.62884150071054,-0.0003237724304199,0.1022986695170402,0,0,0
10121,388919.5171456017,2011-01-07 22:40:44,266.5893713609304,7,40,-1.099568486213684,3.826182842254639,30.520460666380444,30.585764547214417,123.27678683268604,109.66397872329088,-0.0003237724304199,0.1022986695170402,0,0,0
10122,388949.53230613214,2011-01-07 22:41:14,296.6045319064437,7,40,-1.0997490882873535,3.8142032623291016,30.520460666380444,30.594932825594835,123.27678683268604,109.69900242153798,-0.0002913951757363,0.1022986695170402,0,0,0
10123,388979.5476299496,2011-01-07 22:41:44,326.6198556988186,7,40,-1.0997490882873535,3.8023855686187744,30.520460666380444,30.604101112562223,123.27678683268604,109.73391672532816,-0.0003237724304199,0.1022986695170402,0,0,0
10124,389009.5625608979,2011-01-07 22:42:14,356.63478667216754,7,40,-1.0997490882873535,3.791053533554077,30.520460666380444,30.613269352899163,123.27678683268604,109.76872573291423,-0.0003237724304199,0.1022986695170402,0,0,0
10125,389039.57770227565,2011-01-07 22:42:44,386.6499280348715,7,40,-1.099568486213684,3.7802071571350098,30.520460666380444,30.622437672970936,123.27678683268604,109.80343447399557,-0.0003237724304199,0.1022986695170402,0,0,0
10126,389069.5929495422,2011-01-07 22:43:14,416.6651753065332,7,40,-1.099568486213684,3.7700083255767822,30.520460666380444,30.63160603589996,123.27678683268604,109.83804586540296,-0.0002266406954731,0.1022986695170402,0,0,0
10127,389099.6079691916,2011-01-07 22:43:44,446.68019494586514,7,40,-1.0997490882873535,3.7599713802337646,30.520460666380444,30.6407743388398,123.27678683268604,109.87256296522264,-0.0002266406954731,0.1022986695170402,0,0,0
10128,389129.6230985695,2011-01-07 22:44:14,476.6953243186866,7,40,-1.0997490882873535,3.750096559524536,30.520460666380444,30.649942688701472,123.27678683268604,109.90698988089386,-0.0002913951757363,0.1022986695170402,0,0,0
10129,389159.6382524684,2011-01-07 22:44:44,506.7104782376847,7,40,-1.0997490882873535,3.7407071590423584,30.520460666380444,30.6591109769356,123.27678683268604,109.94132938494715,-0.0002913951757363,0.1022986695170402,0,0,0
10130,389189.6533618765,2011-01-07 22:45:14,536.7255876206854,7,40,-1.0997490882873535,3.7316415309906006,30.520460666380444,30.668279292635425,123.27678683268604,109.97558391606287,-0.0002266406954731,0.1022986695170402,0,0,0
10131,389219.6685028984,2011-01-07 22:45:44,566.7407286425398,7,40,-1.0993878841400146,3.7230615615844727,30.520460666380444,30.677447564340163,123.27678683268604,110.00975623299774,-0.0001618862152099,0.1022986695170402,0,0,0
10132,389249.6836317198,2011-01-07 22:46:14,596.7558574890496,7,40,-1.0993878841400146,3.7144815921783447,30.520460666380444,30.68661587725161,123.27678683268604,110.04384937639828,-0.0002266406954731,0.1022986695170402,0,0,0
10133,389279.6988278339,2011-01-07 22:46:44,626.7710535831611,7,40,-1.0997490882873535,3.705739736557007,30.520460666380444,30.695784212755168,123.27678683268604,110.07786478574708,-0.0002590179501567,0.1022986695170402,0,0,0
10134,389309.71390232496,2011-01-07 22:47:14,656.7861280942503,7,40,-1.0997490882873535,3.697645425796509,30.520460666380444,30.704952517421937,123.27678683268604,110.11180390761548,-0.0002266406954731,0.1022986695170402,0,0,0
10135,389339.72905314126,2011-01-07 22:47:44,686.801278885453,7,40,-1.0997490882873535,3.6897130012512207,30.520460666380444,30.71412088483147,123.27678683268604,110.14566909454476,-0.0002266406954731,0.1022986695170402,0,0,0
10136,389369.744306498,2011-01-07 22:48:14,716.8165322673433,7,40,-1.0997490882873535,3.6817805767059326,30.520460666380444,30.723289279553057,123.27678683268604,110.17946130809582,-0.0002266406954731,0.1022986695170402,0,0,0
10137,389399.7592997617,2011-01-07 22:48:44,746.8315255108887,7,40,-1.0997490882873535,3.6740100383758554,30.520460666380444,30.73245760068188,123.27678683268604,110.21318202923152,-0.0002590179501567,0.1022986695170402,0,0,0
10138,389429.77457020106,2011-01-07 22:49:14,776.8467959853789,7,40,-1.099568486213684,3.666725397109986,30.520460666380444,30.741626096598683,123.27678683268604,110.24683354848712,-0.0001618862152099,0.1022986695170402,0,0,0
10139,389459.7895765172,2011-01-07 22:49:44,806.8618022914803,7,40,-1.099568486213684,3.659278631210327,30.520460666380444,30.75079442160884,123.27678683268604,110.28041628647684,-0.0001942634553415,0.1022986695170402,0,0,0
10140,389489.80511023774,2011-01-07 22:50:14,836.8773360120608,7,40,-1.0997490882873535,3.651831865310669,30.520460666380444,30.75996287317578,123.27678683268604,110.31393229455244,-0.0002266406954731,0.1022986695170402,0,0,0
10141,389519.81997404376,2011-01-07 22:50:44,866.892199818008,7,40,-1.099568486213684,3.6448707580566406,30.520460666380444,30.769131067535504,123.27678683268604,110.34738172242191,-0.0001942634553415,0.1022986695170402,0,0,0
10142,389549.835413775,2011-01-07 22:51:14,896.9076395443259,7,40,-1.0997490882873535,3.637909650802612,30.520460666380444,30.77829948818845,123.27678683268604,110.38076740699596,-0.0001942634553415,0.1022986695170402,0,0,0
10143,389579.8501355119,2011-01-07 22:51:44,926.9223612862056,7,40,-1.0997490882873535,3.630948543548584,30.520460666380444,30.78746758705312,123.27678683268604,110.4140885571844,-0.0001942634553415,0.1022986695170402,0,0,0
10144,389609.8654090791,2011-01-07 22:52:14,956.9376348433788,7,40,-1.099568486213684,3.624311208724976,30.520460666380444,30.79663586160077,123.27678683268604,110.44734797297252,-0.0001942634553415,0.1022986695170402,0,0,0
10145,389639.8803798416,2011-01-07 22:52:44,986.9526055858446,7,40,-1.0997490882873535,3.617511987686157,30.520460666380444,30.80580414927003,123.27678683268604,110.48054631887088,-0.0001942634553415,0.1022986695170402,0,0,0
10146,389669.8956379604,2011-01-07 22:53:14,1016.967863729603,7,40,-1.099568486213684,3.6111984252929688,30.520460666380444,30.814972456658367,123.27678683268604,110.51368466328934,-0.0001618862152099,0.1022986695170402,0,0,0
10147,389699.9106560106,2011-01-07 22:53:44,1046.9828817899995,7,40,-1.0997490882873535,3.60488486289978,30.520460666380444,30.824140747244744,123.27678683268604,110.5467639881886,-0.0001942634553415,0.1022986695170402,0,0,0
10148,389729.925907959,2011-01-07 22:54:14,1076.9981337182671,7,40,-1.099568486213684,3.5987331867218018,30.520460666380444,30.833309104507865,123.27678683268604,110.57978650842072,-0.0001618862152099,0.1022986695170402,0,0,0
10149,389759.941038209,2011-01-07 22:54:44,1107.0132639983497,7,40,-1.0997490882873535,3.5925815105438232,30.520460666380444,30.8424774051652,123.27678683268604,110.61275273099668,-0.0001942634553415,0.1022986695170402,0,0,0
10150,389789.95606526686,2011-01-07 22:55:14,1137.0282910461458,7,40,-1.0997490882873535,3.586753845214844,30.520460666380444,30.85164570294216,123.27678683268604,110.64566352233692,-0.0001295089750783,0.1022986695170402,0,0,0
10151,389819.9713216412,2011-01-07 22:55:44,1167.0435474305193,7,40,-1.0997490882873535,3.580925941467285,30.520460666380444,30.86081408775557,123.27678683268604,110.67852108074467,-0.0001618862152099,0.1022986695170402,0,0,0
10152,389849.98631728574,2011-01-07 22:56:14,1197.058543039961,7,40,-1.0997490882873535,3.5752599239349365,30.520460666380444,30.869982338401083,123.27678683268604,110.71132638013238,-0.0001942634553415,0.1022986695170402,0,0,0
10153,389880.0014531246,2011-01-07 22:56:44,1227.0736788788984,7,40,-1.099568486213684,3.569917678833008,30.520460666380444,30.87915066972468,123.27678683268604,110.74408145312891,-0.0001295089750783,0.1022986695170402,0,0,0
10154,389910.0167496792,2011-01-07 22:57:14,1257.088975528625,7,40,-1.099568486213684,3.564575433731079,30.520460666380444,30.88831904171295,123.27678683268604,110.77678724892822,-0.0001618862152099,0.1022986695170402,0,0,0
10155,389940.0319576429,2011-01-07 22:57:44,1287.104183437182,7,40,-1.0997490882873535,3.5593950748443604,30.520460666380444,30.897487322199595,123.27678683268604,110.8094445550858,-0.0001618862152099,0.1022986695170402,0,0,0
10156,389970.0468622504,2011-01-07 22:58:14,1317.1190879946944,7,40,-1.099568486213684,3.554376602172852,30.520460666380444,30.906655608641767,123.27678683268604,110.84205478343924,-0.0001295089750783,0.1022986695170402,0,0,0
10157,390000.06204573816,2011-01-07 22:58:44,1347.134271572612,7,40,-1.0997490882873535,3.549196243286133,30.520460666380444,30.915823951794003,123.27678683268604,110.8746190961498,-0.0001942634553415,0.1022986695170402,0,0,0
10158,390030.0771327203,2011-01-07 22:59:14,1377.1493584695702,7,40,-1.099568486213684,3.544663429260254,30.520460666380444,30.9249923140949,123.27678683268604,110.90713873739254,-9.713172767078504e-05,0.1022986695170402,0,0,0
10159,390060.094713182,2011-01-07 22:59:44,1407.1669389513092,7,40,-1.0997490882873535,3.539968729019165,30.520460666380444,30.93416135055893,123.27678683268604,110.9396173017717,-9.713172767078504e-05,0.1022986695170402,0,0,0
10160,390090.1075579861,2011-01-07 23:00:14,1437.1797837552824,7,40,-1.099568486213684,3.535274028778076,30.520460666380444,30.94332902183007,123.27678683268604,110.97204837997847,-0.0001295089750783,0.1022986695170402,0,0,0
10161,390120.1225386732,2011-01-07 23:00:44,1467.194764417471,7,40,-1.099568486213684,3.5305793285369877,30.520460666380444,30.95249733262232,123.27678683268604,111.00443884198276,-0.0001295089750783,0.1022986695170402,0,0,0
10162,390150.1377137299,2011-01-07 23:01:14,1497.209939484176,7,40,-1.099568486213684,3.5260465145111084,30.520460666380444,30.96166569542251,123.27678683268604,111.03678751800255,-0.0001295089750783,0.1022986695170402,0,0,0
10163,390180.15281793,2011-01-07 23:01:44,1527.2250436742345,7,40,-1.1001102924346924,3.521513700485229,30.520460666380444,30.970834063604613,123.27678683268604,111.06909479552266,-0.0001295089750783,0.1022986695170402,0,0,0
10164,390210.1679573178,2011-01-07 23:02:14,1557.240183092091,7,40,-1.0993878841400146,3.5171427726745605,30.520460666380444,30.98000240279035,123.27678683268604,111.10136151154782,-9.713172767078504e-05,0.1022986695170402,0,0,0
10165,390240.1830676682,2011-01-07 23:02:44,1587.2552934374903,7,40,-1.0993878841400146,3.512771844863892,30.520460666380444,30.989170696006305,123.27678683268604,111.13358783366095,-9.713172767078504e-05,0.1022986695170402,0,0,0
10166,390270.1982136374,2011-01-07 23:03:14,1617.2704393866252,7,40,-1.099568486213684,3.5084011554718018,30.520460666380444,30.998339036773245,123.27678683268604,111.16577388315504,-9.713172767078504e-05,0.1022986695170402,0,0,0
10167,390300.21334964177,2011-01-07 23:03:45,1647.285575385962,7,40,-1.0997490882873535,3.503706455230713,30.520460666380444,31.007507405387617,123.27678683268604,111.19791932614363,-0.0001618862152099,0.1022986695170402,0,0,0
10168,390330.2284734406,2011-01-07 23:04:15,1677.3006991848915,7,40,-1.099568486213684,3.499497413635254,30.520460666380444,31.01667579615598,123.27678683268604,111.23002459099617,-0.0001295089750783,0.1022986695170402,0,0,0
10169,390360.24360827205,2011-01-07 23:04:45,1707.3158340163177,7,40,-1.0997490882873535,3.495126485824585,30.520460666380444,31.025844145334315,123.27678683268604,111.2620892853656,-9.713172767078504e-05,0.1022986695170402,0,0,0
10170,390390.25876418105,2011-01-07 23:05:15,1737.3309899202627,7,40,-1.099568486213684,3.490593671798706,30.520460666380444,31.03501251775969,123.27678683268604,111.29411272286283,-9.713172767078504e-05,0.1022986695170402,0,0,0
10171,390420.2739887662,2011-01-07 23:05:45,1767.3462146106451,7,40,-1.0997490882873535,3.4857370853424072,30.520460666380444,31.04418089126936,123.27678683268604,111.32609397898314,-0.0001618862152099,0.1022986695170402,0,0,0
10172,390450.2892848394,2011-01-07 23:06:15,1797.3615106939603,7,40,-1.099568486213684,3.4810423851013184,30.520460666380444,31.053349359338668,123.27678683268604,111.35803255417264,-0.0001618862152099,0.1022986695170402,0,0,0
10173,390480.30427566194,2011-01-07 23:06:45,1827.37650143126,7,40,-1.0997490882873535,3.4761857986450195,30.520460666380444,31.06251755868744,123.27678683268604,111.38992519624004,-0.0001295089750783,0.1022986695170402,0,0,0
10174,390510.3192888002,2011-01-07 23:07:15,1857.3915145493384,7,40,-1.0997490882873535,3.471005439758301,30.520460666380444,31.07168580640999,123.27678683268604,111.42177216613264,-0.0001295089750783,0.1022986695170402,0,0,0
10175,390540.3344327793,2011-01-07 23:07:45,1887.406658523551,7,40,-1.099568486213684,3.465825080871582,30.520460666380444,31.08085413882625,123.27678683268604,111.45357148288583,-0.0001295089750783,0.1022986695170402,0,0,0
10176,390570.34969836666,2011-01-07 23:08:15,1917.421924155973,7,40,-1.099568486213684,3.4601590633392334,30.520460666380444,31.09002247520308,123.27678683268604,111.48532173348228,-0.0001618862152099,0.1022986695170402,0,0,0
10177,390600.3647051941,2011-01-07 23:08:45,1947.4369310334987,7,40,-1.0997490882873535,3.454331159591675,30.520460666380444,31.09919069921133,123.27678683268604,111.51701937206003,-0.0001618862152099,0.1022986695170402,0,0,0
10178,390630.3799710921,2011-01-07 23:09:15,1977.452196856396,7,40,-1.0997490882873535,3.4480175971984863,30.520460666380444,31.108359084813145,123.27678683268604,111.54866185139888,-0.0001942634553415,0.1022986695170402,0,0,0
10179,390660.3949682454,2011-01-07 23:09:45,2007.4671939996608,7,40,-1.0997490882873535,3.441056489944458,30.520460666380444,31.117527388832222,123.27678683268604,111.58024367011372,-0.0002266406954731,0.1022986695170402,0,0,0
10180,390690.4100856484,2011-01-07 23:10:15,2037.4823113976367,7,40,-1.099568486213684,3.4337716102600098,30.520460666380444,31.126695671953488,123.27678683268604,111.61176012386134,-0.0002266406954731,0.1022986695170402,0,0,0
10181,390720.4252293921,2011-01-07 23:10:45,2067.4974551362625,7,40,-1.099568486213684,3.425515651702881,30.520460666380444,31.135863997527657,123.27678683268604,111.64320510476485,-0.0002266406954731,0.1022986695170402,0,0,0
10182,390750.4403855567,2011-01-07 23:11:15,2097.5126113108827,7,40,-1.0997490882873535,3.416126251220703,30.520460666380444,31.145032301928357,123.27678683268604,111.67456953357068,-0.0002913951757363,0.1022986695170402,0,0,0
10183,390780.4576953387,2011-01-07 23:11:45,2127.529921133055,7,40,-1.0997490882873535,3.4054417610168457,30.520460666380444,31.15420132871972,123.27678683268604,111.7058449004931,-0.0003237724304199,0.1022986695170402,0,0,0
10184,390810.4706314252,2011-01-07 23:12:15,2157.542857169407,7,40,-1.099568486213684,3.3929765224456787,30.520460666380444,31.16336895532825,123.27678683268604,111.73700984250438,-0.0003885269106831,0.1022986695170402,0,0,0
10185,390840.4857797202,2011-01-07 23:12:45,2187.558005504488,7,40,-1.0997490882873535,3.3782448768615723,30.520460666380444,31.1725373351232,123.27678683268604,111.76805313936124,-0.0004209041653666,0.1022986695170402,0,0,0
10186,390870.50129594206,2011-01-07 23:13:15,2217.573521731469,7,40,-1.0993878841400146,3.360437393188477,30.520460666380444,31.18170577076233,123.27678683268604,111.79894697996085,-0.0004856586456298,0.1022986695170402,0,0,0
10187,390900.5162587799,2011-01-07 23:13:45,2247.5884845391597,7,40,-1.0997490882873535,3.338421106338501,30.520460666380444,31.190874105541827,123.27678683268604,111.82965882507384,-0.0006475448608398,0.1022986695170402,0,0,0
10188,390930.5311626808,2011-01-07 23:14:15,2277.60338843001,7,40,-1.099568486213684,3.3107385635375977,30.520460666380444,31.20004235284077,123.27678683268604,111.8601436787818,-0.0007770538213662,0.1022986695170402,0,0,0
10189,390960.5462935474,2011-01-07 23:14:45,2307.6185192965545,7,40,-1.0997490882873535,3.275285482406616,30.520460666380444,31.209210676436967,123.27678683268604,111.8903419725858,-0.0011008263099938,0.1022986695170402,0,0,0
10190,390990.561560092,2011-01-07 23:15:15,2337.633785866313,7,40,-1.099568486213684,3.2294719219207764,30.520460666380444,31.21837903924522,123.27678683268604,111.9201697515276,-0.0013274669181555,0.1022986695170402,0,0,0
10191,391020.57657503465,2011-01-07 23:15:45,2367.6488007838766,7,40,-1.0993878841400146,3.1677935123443604,30.520460666380444,31.22754733353269,123.27678683268604,111.94950863288705,-0.0018131255637854,0.1022986695170402,0,0,0
10192,391050.59171558527,2011-01-07 23:16:15,2397.663941339569,7,40,-1.099568486213684,3.08167028427124,30.520460666380444,31.236715673932395,123.27678683268604,111.97817912434648,-0.0025901794433593,0.1022986695170402,0,0,0
10193,391080.6068339758,2011-01-07 23:16:45,2427.679059735032,7,40,-1.099568486213684,2.9534566402435303,30.520460666380444,31.245884110922617,123.27678683268604,112.00588629340062,-0.0040147779509425,0.1022986695170402,0,0,0
10194,391110.62208407954,2011-01-07 23:17:15,2457.694309939002,7,40,-1.099568486213684,2.7590320110321045,30.520460666380444,31.255052546755756,123.27678683268604,112.03212571648471,-0.005892610643059,0.1022986695170402,0,0,0
10195,391118.43444012455,2011-01-07 23:17:23,2465.506665898856,7,40,-1.099568486213684,2.699943780899048,30.520460666380444,31.257438900012072,123.27678683268604,112.03863935253445,-0.0060868738219141,0.1022986695170402,0,0,0
10196,391178.4567698022,2011-01-07 23:18:23,60.01466727189303,8,40,0.0,3.545796632766724,30.520460666380444,31.257438900012072,123.27678683268604,112.03863935253445,0.0013598442310467,0.1022986695170402,0,0,0
10197,391178.6530539644,2011-01-07 23:18:23,0.187540588852216,9,40,0.0007031940040178,3.546606063842773,30.52046070301306,31.257438900012072,123.27678696260747,112.03863935253445,0.0,0.1011203974485397,0,0,0
10198,391183.465577168,2011-01-07 23:18:28,5.000063827539406,9,40,0.0005225847125984,3.553729057312012,30.52046153733978,31.257438900179007,123.27678992481144,112.03863935312732,0.0011655807029455,0.1011203974485397,0,0,0
