Data_Point,Test_Time(s),Date_Time,Step_Time(s),Step_Index,Cycle_Index,Current(A),Voltage(V),Charge_Capacity(Ah),Discharge_Capacity(Ah),Charge_Energy(Wh),Discharge_Energy(Wh),dV/dt(V/s),Internal_Resistance(Ohm),Is_FC_Data,AC_Impedance(Ohm),ACI_Phase_Angle(Deg)
11698,449443.3052889974,2011-01-08 15:29:35,30.01740687906783,1,47,0.0,3.5802783966064453,35.04505305331704,35.781922066738176,141.58517496981085,128.22941022482348,0.0007122993702068,0.1019293591380119,0,0,0
11699,449473.31816636754,2011-01-08 15:30:05,60.03028422414325,1,47,0.0,3.601970911026001,35.04505305331704,35.781922066738176,141.58517496981085,128.22941022482348,0.0004856586456298,0.1019293591380119,0,0,0
11700,449503.3333147978,2011-01-08 15:30:35,90.04543265446189,1,47,0.0,3.617673873901367,35.04505305331704,35.781922066738176,141.58517496981085,128.22941022482348,0.0003885269106831,0.1019293591380119,0,0,0
11701,449533.3038663891,2011-01-08 15:31:05,120.01598445626024,1,47,0.0,3.629653453826904,35.04505305331704,35.781922066738176,141.58517496981085,128.22941022482348,0.0003237724304199,0.1019293591380119,0,0,0
11702,449563.3174045044,2011-01-08 15:31:36,30.01512585906413,2,47,0.550297200679779,3.756247997283936,35.04963956379812,35.781922066738176,141.60230338956015,128.22941022482348,0.0009388923645019,0.1019293591380119,0,0,0
11703,449593.3325852954,2011-01-08 15:32:06,60.03030667509793,2,47,0.5497553944587708,3.7816641330718994,35.05422610743138,35.781922066738176,141.619594851508,128.22941022482348,0.0005180359003134,0.1019293591380119,0,0,0
11704,449623.3477020417,2011-01-08 15:32:36,90.04542342145038,2,47,0.5499359965324402,3.796881437301636,35.05881259489391,35.781922066738176,141.63697712008545,128.22941022482348,0.0003237724304199,0.1019293591380119,0,0,0
11705,449653.3628663767,2011-01-08 15:33:06,120.06058775640828,2,47,0.5501165986061096,3.807242155075073,35.0633991491666,35.781922066738176,141.65441696973042,128.22941022482348,0.0001942634553415,0.1019293591380119,0,0,0
11706,449683.3779685568,2011-01-08 15:33:36,150.07568991640704,2,47,0.5501165986061096,3.815984010696411,35.06798572947916,35.781922066738176,141.6718992274367,128.22941022482348,0.0002590179501567,0.1019293591380119,0,0,0
11707,449713.3929991133,2011-01-08 15:34:06,180.09072049299797,2,47,0.550297200679779,3.8231070041656494,35.07257225745381,35.781922066738176,141.68941729616404,128.22941022482348,0.0001942634553415,0.1019293591380119,0,0,0
11708,449743.4082503298,2011-01-08 15:34:36,210.10597169445387,2,47,0.5499359965324402,3.829906225204468,35.07715877371906,35.781922066738176,141.7069677205781,128.22941022482348,0.0001942634553415,0.1019293591380119,0,0,0
11709,449773.4233879331,2011-01-08 15:35:06,240.12110929277583,2,47,0.5501165986061096,3.836057662963867,35.08174524371179,35.781922066738176,141.7245479969199,128.22941022482348,0.0001942634553415,0.1019293591380119,0,0,0
11710,449803.43863936514,2011-01-08 15:35:36,270.1363607649064,2,47,0.5501165986061096,3.842047452926636,35.08633177848972,35.781922066738176,141.74215655052544,128.22941022482348,0.0001295089750783,0.1019293591380119,0,0,0
11711,449833.45356172207,2011-01-08 15:36:06,300.15128310674294,2,47,0.5501165986061096,3.847713470458984,35.090918227448995,35.781922066738176,141.75979122507118,128.22941022482348,9.713172767078504e-05,0.1019293591380119,0,0,0
11712,449863.4689411982,2011-01-08 15:36:36,330.1666625778864,2,47,0.5501165986061096,3.853055715560913,35.09550481590772,35.781922066738176,141.77745157402785,128.22941022482348,0.0001295089750783,0.1019293591380119,0,0,0
11713,449893.4840704808,2011-01-08 15:37:06,360.18179188053307,2,47,0.5501165986061096,3.858397960662842,35.10009129335212,35.781922066738176,141.7951354787927,128.22941022482348,0.0001618862152099,0.1019293591380119,0,0,0
11714,449923.4990745864,2011-01-08 15:37:36,390.1967959661002,2,47,0.550297200679779,3.8632545471191406,35.10467783550253,35.781922066738176,141.81284271848045,128.22941022482348,0.0001295089750783,0.1019293591380119,0,0,0
11715,449953.5142436832,2011-01-08 15:38:06,420.2119650629261,2,47,0.5501165986061096,3.8679492473602295,35.109264389280085,35.781922066738176,141.83057234900951,128.22941022482348,9.713172767078504e-05,0.1019293591380119,0,0,0
11716,449983.52936168766,2011-01-08 15:38:36,450.2270830473642,2,47,0.5501165986061096,3.872482061386109,35.11385098129341,35.781922066738176,141.8483238776082,128.22941022482348,9.713172767078504e-05,0.1019293591380119,0,0,0
11717,450013.54668948974,2011-01-08 15:39:06,480.2444108593726,2,47,0.550297200679779,3.8773386478424072,35.11843783953462,35.781922066738176,141.8660974073182,128.22941022482348,0.0001618862152099,0.1019293591380119,0,0,0
11718,450043.5597740211,2011-01-08 15:39:36,510.2574954008452,2,47,0.5499359965324402,3.881547689437866,35.123024089114494,35.781922066738176,141.88388918270616,128.22941022482348,0.0001295089750783,0.1019293591380119,0,0,0
11719,450073.5748038659,2011-01-08 15:40:06,540.2725252456121,2,47,0.5501165986061096,3.885918617248535,35.127610666009744,35.781922066738176,141.90170226611005,128.22941022482348,0.0001295089750783,0.1019293591380119,0,0,0
11720,450103.59004398977,2011-01-08 15:40:36,570.2877654446467,2,47,0.5501165986061096,3.889965772628784,35.132197191747224,35.781922066738176,141.91953456148644,128.22941022482348,9.713172767078504e-05,0.1019293591380119,0,0,0
11721,450133.60528082045,2011-01-08 15:41:06,600.3030021750362,2,47,0.5499359965324402,3.894012928009033,35.1367837761488,35.781922066738176,141.93738584394444,128.22941022482348,9.713172767078504e-05,0.1019293591380119,0,0,0
11722,450163.62021840527,2011-01-08 15:41:36,630.3179397648755,2,47,0.5501165986061096,3.897898197174072,35.141370244613675,35.781922066738176,141.95525442957563,128.22941022482348,0.0001295089750783,0.1019293591380119,0,0,0
11723,450193.6353458783,2011-01-08 15:42:06,660.3330672379623,2,47,0.550297200679779,3.901621580123901,35.14595744977297,35.781922066738176,141.97314339078957,128.22941022482348,0.0001295089750783,0.1019293591380119,0,0,0
11724,450223.6504938425,2011-01-08 15:42:36,690.3482151971066,2,47,0.5501165986061096,3.905183076858521,35.15054478937787,35.781922066738176,141.99104952514858,128.22941022482348,9.713172767078504e-05,0.1019293591380119,0,0,0
11725,450253.665756708,2011-01-08 15:43:06,720.3634780876954,2,47,0.5501165986061096,3.9085826873779297,35.15513130635478,35.781922066738176,142.00896818729478,128.22941022482348,9.713172767078504e-05,0.1019293591380119,0,0,0
11726,450283.68078912416,2011-01-08 15:43:36,750.3785104737963,2,47,0.5501165986061096,3.911658525466919,35.15971778037929,35.781922066738176,142.02690189599147,128.22941022482348,6.47544875391759e-05,0.1019293591380119,0,0,0
11727,450313.6959561058,2011-01-08 15:44:06,780.3936774603628,2,47,0.5501165986061096,3.914896011352539,35.164304264868534,35.781922066738176,142.04485005760907,128.22941022482348,9.713172767078504e-05,0.1019293591380119,0,0,0
11728,450343.7110946514,2011-01-08 15:44:36,810.4088160060458,2,47,0.550297200679779,3.917971849441528,35.16889081930853,35.781922066738176,142.06281212585264,128.22941022482348,9.713172767078504e-05,0.1019293591380119,0,0,0
11729,450373.726272079,2011-01-08 15:45:06,840.4239934436595,2,47,0.550297200679779,3.920562028884888,35.1734773324032,35.781922066738176,142.0807872426024,128.22941022482348,6.47544875391759e-05,0.1019293591380119,0,0,0
11730,450403.7413935421,2011-01-08 15:45:36,870.4391149067676,2,47,0.5499359965324402,3.923152208328247,35.17806385997717,35.781922066738176,142.0987750478271,128.22941022482348,6.47544875391759e-05,0.1019293591380119,0,0,0
11731,450433.7565229751,2011-01-08 15:46:06,900.4542443597891,2,47,0.5501165986061096,3.9257423877716064,35.18265038216428,35.781922066738176,142.11677503010355,128.22941022482348,3.237724376958795e-05,0.1019293591380119,0,0,0
11732,450463.7716826534,2011-01-08 15:46:36,930.4694040281164,2,47,0.5501165986061096,3.928332567214966,35.187236927930385,35.781922066738176,142.13478680907352,128.22941022482348,3.237724376958795e-05,0.1019293591380119,0,0,0
11733,450493.7868371388,2011-01-08 15:47:06,960.4845585035008,2,47,0.5499359965324402,3.9307608604431152,35.19182347736266,35.781922066738176,142.15281011670973,128.22941022482348,6.47544875391759e-05,0.1019293591380119,0,0,0
11734,450523.8020635536,2011-01-08 15:47:36,990.4997849231931,2,47,0.5501165986061096,3.9333510398864746,35.196410074349295,35.781922066738176,142.1708448320575,128.22941022482348,6.47544875391759e-05,0.1019293591380119,0,0,0
11735,450553.8170901401,2011-01-08 15:48:06,1020.514811499815,2,47,0.5501165986061096,3.935617446899414,35.20099660810282,35.781922066738176,142.1888902705992,128.22941022482348,3.237724376958795e-05,0.1019293591380119,0,0,0
11736,450583.83223061066,2011-01-08 15:48:36,1050.5299519652826,2,47,0.5501165986061096,3.938045740127564,35.205583163684445,35.781922066738176,142.20694653815127,128.22941022482348,6.47544875391759e-05,0.1019293591380119,0,0,0
11737,450613.84737483045,2011-01-08 15:49:06,1080.54509619012,2,47,0.5499359965324402,3.940312147140503,35.21016966111308,35.781922066738176,142.22501333399626,128.22941022482348,6.47544875391759e-05,0.1019293591380119,0,0,0
11738,450643.86278227135,2011-01-08 15:49:36,1110.5605036610475,2,47,0.550297200679779,3.9425785541534415,35.21475623852372,35.781922066738176,142.24309104231858,128.22941022482348,3.237724376958795e-05,0.1019293591380119,0,0,0
11739,450673.8776435609,2011-01-08 15:50:06,1140.5753649256608,2,47,0.5501165986061096,3.944844961166382,35.21934272786384,35.781922066738176,142.26117890839652,128.22941022482348,6.47544875391759e-05,0.1019293591380119,0,0,0
11740,450703.89279834216,2011-01-08 15:50:36,1170.5905197318702,2,47,0.5501165986061096,3.9472732543945312,35.22392926423164,35.781922066738176,142.27927736892602,128.22941022482348,9.713172767078504e-05,0.1019293591380119,0,0,0
11741,450733.907957384,2011-01-08 15:51:06,1200.6056788337858,2,47,0.550297200679779,3.9493777751922607,35.22851578106842,35.781922066738176,142.29738604123412,128.22941022482348,9.713172767078504e-05,0.1019293591380119,0,0,0
11742,450763.9231917935,2011-01-08 15:51:36,1230.6209131732164,2,47,0.5497553944587708,3.9514822959899902,35.233102366647536,35.781922066738176,142.31550521412265,128.22941022482348,3.237724376958795e-05,0.1019293591380119,0,0,0
11743,450793.9382019091,2011-01-08 15:52:06,1260.6359232637496,2,47,0.5501165986061096,3.95391058921814,35.2376888867899,35.781922066738176,142.3336342581292,128.22941022482348,6.47544875391759e-05,0.1019293591380119,0,0,0
11744,450823.953349382,2011-01-08 15:52:36,1290.6510707366822,2,47,0.5499359965324402,3.955853223800659,35.242275459751944,35.781922066738176,142.35177365735578,128.22941022482348,3.237724376958795e-05,0.1019293591380119,0,0,0
11745,450853.9684972711,2011-01-08 15:53:06,1320.6662186256517,2,47,0.5499359965324402,3.958119630813599,35.24686207708045,35.781922066738176,142.36992325543804,128.22941022482348,3.237724376958795e-05,0.1019293591380119,0,0,0
11746,450883.98364282417,2011-01-08 15:53:36,1350.6813642790491,2,47,0.5501165986061096,3.960224151611328,35.25144870881023,35.781922066738176,142.38808290560817,128.22941022482348,0.0,0.1019293591380119,0,0,0
11747,450913.998787856,2011-01-08 15:54:06,1380.6965092457356,2,47,0.5501165986061096,3.962490558624268,35.25603529715972,35.781922066738176,142.40625228238108,128.22941022482348,9.713172767078504e-05,0.1019293591380119,0,0,0
11748,450944.0139142264,2011-01-08 15:54:36,1410.7116355910116,2,47,0.5499359965324402,3.964595079421997,35.260621877200364,35.781922066738176,142.4244314652127,128.22941022482348,3.237724376958795e-05,0.1019293591380119,0,0,0
11749,450974.0290627519,2011-01-08 15:55:06,1440.7267841065425,2,47,0.550297200679779,3.966861486434937,35.26520842837272,35.781922066738176,142.44262032612744,128.22941022482348,6.47544875391759e-05,0.1019293591380119,0,0,0
11750,451004.04419044056,2011-01-08 15:55:36,1470.7419117951663,2,47,0.550297200679779,3.968966007232666,35.26979490554623,35.781922066738176,142.4608185343523,128.22941022482348,6.47544875391759e-05,0.1019293591380119,0,0,0
11751,451034.0593272268,2011-01-08 15:56:06,1500.7570485814647,2,47,0.5497553944587708,3.9709086418151855,35.27438144611999,35.781922066738176,142.4790267092564,128.22941022482348,3.237724376958795e-05,0.1019293591380119,0,0,0
11752,451064.0745968793,2011-01-08 15:56:36,1530.772318253956,2,47,0.550297200679779,3.973175048828125,35.27896806078647,35.781922066738176,142.49724479541084,128.22941022482348,9.713172767078504e-05,0.1019293591380119,0,0,0
11753,451094.0898372036,2011-01-08 15:57:06,1560.7875585783029,2,47,0.5501165986061096,3.975117683410645,35.283554645706666,35.781922066738176,142.51547244446402,128.22941022482348,6.47544875391759e-05,0.1019293591380119,0,0,0
11754,451124.10496345366,2011-01-08 15:57:36,1590.8026849336038,2,47,0.5501165986061096,3.977384090423584,35.288141239650166,35.781922066738176,142.53370982075648,128.22941022482348,9.713172767078504e-05,0.1019293591380119,0,0,0
11755,451154.1198920611,2011-01-08 15:58:06,1620.8176134207563,2,47,0.5501165986061096,3.9794886112213135,35.292727796408954,35.781922066738176,142.55195635861767,128.22941022482348,9.713172767078504e-05,0.1019293591380119,0,0,0
11756,451184.1350312183,2011-01-08 15:58:36,1650.8327525779634,2,47,0.550297200679779,3.981593132019043,35.29731428553231,35.781922066738176,142.57021264785774,128.22941022482348,6.47544875391759e-05,0.1019293591380119,0,0,0
11757,451214.1524856459,2011-01-08 15:59:06,1680.8502071007742,2,47,0.5501165986061096,3.983697652816773,35.301901141525505,35.781922066738176,142.5884800860915,128.22941022482348,9.713172767078504e-05,0.1019293591380119,0,0,0
11758,451244.16538286046,2011-01-08 15:59:36,1710.8631043153705,2,47,0.5499359965324402,3.985640287399292,35.3064872535549,35.781922066738176,142.60675425947068,128.22941022482348,3.237724376958795e-05,0.1019293591380119,0,0,0
11759,451274.1805877866,2011-01-08 16:00:06,1740.878309166307,2,47,0.5501165986061096,3.987906694412232,35.31107375720654,35.781922066738176,142.62503967718868,128.22941022482348,6.47544875391759e-05,0.1019293591380119,0,0,0
11760,451304.1957185378,2011-01-08 16:00:36,1770.8934399175637,2,47,0.5501165986061096,3.989849328994751,35.315660194227895,35.781922066738176,142.64333434379574,128.22941022482348,3.237724376958795e-05,0.1019293591380119,0,0,0
11761,451334.2109235843,2011-01-08 16:01:06,1800.9086449589745,2,47,0.5501165986061096,3.9921157360076895,35.32024664717311,35.781922066738176,142.66163878025722,128.22941022482348,9.713172767078504e-05,0.1019293591380119,0,0,0
11762,451364.2258714748,2011-01-08 16:01:36,1830.9235928294363,2,47,0.5501165986061096,3.994220018386841,35.32483308456831,35.781922066738176,142.67995287825045,128.22941022482348,9.70840483205393e-05,0.1019293591380119,0,0,0
11763,451394.2410368674,2011-01-08 16:02:06,1860.9387582220304,2,47,0.5501165986061096,3.9963245391845694,35.32941949083155,35.781922066738176,142.69827663348545,128.22941022482348,6.47544875391759e-05,0.1019293591380119,0,0,0
11764,451424.2561815384,2011-01-08 16:02:36,1890.9539029030043,2,47,0.5499359965324402,3.9984290599823,35.33400598058569,35.781922066738176,142.71661060040856,128.22941022482348,6.47544875391759e-05,0.1019293591380119,0,0,0
11765,451454.27132043993,2011-01-08 16:03:07,1920.9690417945496,2,47,0.550297200679779,4.000695705413818,35.33859244678141,35.781922066738176,142.73495420544123,128.22941022482348,9.71794142969884e-05,0.1019293591380119,0,0,0
11766,451484.2864505797,2011-01-08 16:03:37,1950.9841719342824,2,47,0.5499359965324402,4.002799987792969,35.34317890973608,35.781922066738176,142.753307830818,128.22941022482348,6.47544875391759e-05,0.1019293591380119,0,0,0
11767,451514.301581717,2011-01-08 16:04:07,1980.9993030765136,2,47,0.550297200679779,4.005066394805908,35.34776533648157,35.781922066738176,142.77167132863406,128.22941022482348,6.47544875391759e-05,0.1019293591380119,0,0,0
11768,451544.3167589439,2011-01-08 16:04:37,2011.0144803236528,2,47,0.5501165986061096,4.007171154022217,35.352351831405336,35.781922066738176,142.79004519659264,128.22941022482348,3.24249267578125e-05,0.1019293591380119,0,0,0
11769,451574.3318782667,2011-01-08 16:05:07,2041.029599621364,2,47,0.5499359965324402,4.009275436401367,35.35693829585396,35.781922066738176,142.808429062323,128.22941022482348,3.23295607813634e-05,0.1019293591380119,0,0,0
11770,451604.3470120705,2011-01-08 16:05:37,2071.0447334302416,2,47,0.5501165986061096,4.011541843414307,35.36152469054563,35.781922066738176,142.82682290843465,128.22941022482348,3.23295607813634e-05,0.1019293591380119,0,0,0
11771,451634.36215308745,2011-01-08 16:06:07,2101.0598744470835,2,47,0.5501165986061096,4.013970375061035,35.366111199990435,35.781922066738176,142.84522753951765,128.22941022482348,6.47544875391759e-05,0.1019293591380119,0,0,0
11772,451664.3772931369,2011-01-08 16:06:37,2131.0750144965145,2,47,0.5501165986061096,4.0160746574401855,35.370697645941014,35.781922066738176,142.8636422200807,128.22941022482348,6.47544875391759e-05,0.1019293591380119,0,0,0
11773,451694.3924448855,2011-01-08 16:07:07,2161.09016624009,2,47,0.5499359965324402,4.018503189086914,35.375284079802604,35.781922066738176,142.8820673892458,128.22941022482348,9.71794142969884e-05,0.1019293591380119,0,0,0
11774,451724.40772105416,2011-01-08 16:07:37,2191.1054424288227,2,47,0.5499359965324402,4.0206074714660645,35.37987060235801,35.781922066738176,142.90050343547915,128.22941022482348,6.47544875391759e-05,0.1019293591380119,0,0,0
11775,451754.422728027,2011-01-08 16:08:07,2221.120449406598,2,47,0.5501165986061096,4.023197650909424,35.3844570352545,35.781922066738176,142.9189499250708,128.22941022482348,6.47544875391759e-05,0.1019293591380119,0,0,0
11776,451784.4378501367,2011-01-08 16:08:37,2251.1355714862425,2,47,0.5501165986061096,4.025626182556152,35.38904343951136,35.781922066738176,142.93740717067672,128.22941022482348,6.47544875391759e-05,0.1019293591380119,0,0,0
11777,451814.4530016045,2011-01-08 16:09:07,2281.1507229591443,2,47,0.5499359965324402,4.027892589569092,35.39362988200112,35.781922066738176,142.95587555888577,128.22941022482348,6.47544875391759e-05,0.1019293591380119,0,0,0
11778,451844.46813223045,2011-01-08 16:09:37,2311.165853590101,2,47,0.5499359965324402,4.030482769012451,35.39821630982053,35.781922066738176,142.97435490058604,128.22941022482348,9.71794142969884e-05,0.1019293591380119,0,0,0
11779,451874.4832907109,2011-01-08 16:10:07,2341.181012070468,2,47,0.5501165986061096,4.032749176025391,35.40280272883658,35.781922066738176,142.99284539638913,128.22941022482348,6.47544875391759e-05,0.1019293591380119,0,0,0
11780,451904.498418655,2011-01-08 16:10:37,2371.196140014729,2,47,0.5501165986061096,4.035177230834961,35.4073891984366,35.781922066738176,143.01134741384948,128.22941022482348,3.24249267578125e-05,0.1019293591380119,0,0,0
11781,451934.5157638203,2011-01-08 16:11:07,2401.2134851799874,2,47,0.5501165986061096,4.037605285644531,35.411975946149056,35.781922066738176,143.02986193072752,128.22941022482348,0.0,0.1019293591380119,0,0,0
11782,451964.5287249392,2011-01-08 16:11:37,2431.22644629384,2,47,0.550297200679779,4.04035758972168,35.41656211751025,35.781922066738176,143.04838561903892,128.22941022482348,9.71794142969884e-05,0.1019293591380119,0,0,0
11783,451994.5439130685,2011-01-08 16:12:07,2461.241634428113,2,47,0.5499359965324402,4.042623996734619,35.4211485638393,35.781922066738176,143.0669220359895,128.22941022482348,3.24249267578125e-05,0.1019293591380119,0,0,0
11784,452024.55923098617,2011-01-08 16:12:37,2491.2569523859465,2,47,0.5501165986061096,4.045375823974609,35.42573503416861,35.781922066738176,143.08547032178012,128.22941022482348,6.47544875391759e-05,0.1019293591380119,0,0,0
11785,452054.5745002527,2011-01-08 16:13:07,2521.272221647413,2,47,0.5501165986061096,4.047966003417969,35.430321571451486,35.781922066738176,143.1040307098164,128.22941022482348,6.47544875391759e-05,0.1019293591380119,0,0,0
11786,452084.5892642398,2011-01-08 16:13:37,2551.286985599494,2,47,0.5501165986061096,4.050718307495117,35.434908042880835,35.781922066738176,143.1226027756125,128.22941022482348,6.47544875391759e-05,0.1019293591380119,0,0,0
11787,452114.6044093118,2011-01-08 16:14:07,2581.302130661418,2,47,0.5501165986061096,4.053308486938477,35.43949457992565,35.781922066738176,143.14118714974077,128.22941022482348,9.71794142969884e-05,0.1019293591380119,0,0,0
11788,452144.61954358185,2011-01-08 16:14:37,2611.317264941469,2,47,0.550297200679779,4.055898666381836,35.444081096616486,35.781922066738176,143.15978367852497,128.22941022482348,6.47544875391759e-05,0.1019293591380119,0,0,0
11789,452174.6347121223,2011-01-08 16:15:07,2641.332433501959,2,47,0.5501165986061096,4.058650493621826,35.44866765483641,35.781922066738176,143.1783926886407,128.22941022482348,9.70840483205393e-05,0.1019293591380119,0,0,0
11790,452204.64995350427,2011-01-08 16:15:37,2671.3476748739163,2,47,0.5501165986061096,4.0612406730651855,35.45325423737096,35.781922066738176,143.1970140966425,128.22941022482348,6.47544875391759e-05,0.1019293591380119,0,0,0
11791,452234.6649714544,2011-01-08 16:16:07,2701.362692814014,2,47,0.5501165986061096,4.064154624938965,35.45784069164421,35.781922066738176,143.2156473681098,128.22941022482348,6.47544875391759e-05,0.1019293591380119,0,0,0
11792,452264.6801090878,2011-01-08 16:16:37,2731.3778304424104,2,47,0.5499359965324402,4.066744804382324,35.46242717279919,35.781922066738176,143.23429345687487,128.22941022482348,3.23295607813634e-05,0.1019293591380119,0,0,0
11793,452294.6952616584,2011-01-08 16:17:07,2761.392983013048,2,47,0.5499359965324402,4.069658756256104,35.46701362216065,35.781922066738176,143.2529522372863,128.22941022482348,9.70840483205393e-05,0.1019293591380119,0,0,0
11794,452324.7103919936,2011-01-08 16:17:37,2791.408113348268,2,47,0.5501165986061096,4.072572708129883,35.47160007339583,35.781922066738176,143.2716239720924,128.22941022482348,9.70840483205393e-05,0.1019293591380119,0,0,0
11795,452354.7255314315,2011-01-08 16:18:07,2821.423252791187,2,47,0.5501165986061096,4.075325012207031,35.47618651296582,35.781922066738176,143.29030868709594,128.22941022482348,6.47544875391759e-05,0.1019293591380119,0,0,0
11796,452384.7407267237,2011-01-08 16:18:37,2851.4384480883127,2,47,0.5499359965324402,4.0782389640808105,35.480772940044595,35.781922066738176,143.30900662913018,128.22941022482348,6.47544875391759e-05,0.1019293591380119,0,0,0
11797,452414.7558291744,2011-01-08 16:19:07,2881.453550534024,2,47,0.5501165986061096,4.08115291595459,35.48535943220836,35.781922066738176,143.3277182157917,128.22941022482348,9.71794142969884e-05,0.1019293591380119,0,0,0
11798,452444.7710838545,2011-01-08 16:19:37,2911.468805234199,2,47,0.550297200679779,4.084228515625,35.48994587998662,35.781922066738176,143.3464429887054,128.22941022482348,0.0001295089750783,0.1019293591380119,0,0,0
11799,452474.7860935642,2011-01-08 16:20:07,2941.483814928745,2,47,0.5501165986061096,4.087304592132568,35.494532357481084,35.781922066738176,143.365181607895,128.22941022482348,0.0001295089750783,0.1019293591380119,0,0,0
11800,452504.80136970273,2011-01-08 16:20:37,2971.499091087402,2,47,0.5499359965324402,4.090056419372559,35.49911883926549,35.781922066738176,143.38393400873983,128.22941022482348,9.70840483205393e-05,0.1019293591380119,0,0,0
11801,452534.8165184037,2011-01-08 16:21:07,3001.514239783383,2,47,0.5501165986061096,4.093132495880127,35.50370534274801,35.781922066738176,143.40270046835704,128.22941022482348,6.47544875391759e-05,0.1019293591380119,0,0,0
11802,452564.8317878706,2011-01-08 16:21:37,3031.529509235325,2,47,0.5501165986061096,4.096370220184326,35.50829184582878,35.781922066738176,143.4214810112697,128.22941022482348,0.0001295089750783,0.1019293591380119,0,0,0
11803,452594.8466830348,2011-01-08 16:22:07,3061.544404394414,2,47,0.5499359965324402,4.099445819854736,35.51287830759897,35.781922066738176,143.4402755838663,128.22941022482348,9.70840483205393e-05,0.1019293591380119,0,0,0
11804,452624.8618079064,2011-01-08 16:22:37,3091.559529261004,2,47,0.5501165986061096,4.102683544158936,35.51746483626962,35.781922066738176,143.45908481698666,128.22941022482348,0.0001295089750783,0.1019293591380119,0,0,0
11805,452654.87694849214,2011-01-08 16:23:07,3121.5746698517846,2,47,0.5501165986061096,4.105597496032715,35.52205132732394,35.781922066738176,143.47790841288835,128.22941022482348,6.47544875391759e-05,0.1019293591380119,0,0,0
11806,452684.8923297528,2011-01-08 16:23:37,3151.590051112388,2,47,0.5501165986061096,4.108997344970703,35.52663782297806,35.781922066738176,143.49674663845423,128.22941022482348,9.71794142969884e-05,0.1019293591380119,0,0,0
11807,452714.9072441949,2011-01-08 16:24:07,3181.604965554536,2,47,0.5499359965324402,4.112235069274902,35.53122426323315,35.781922066738176,143.51559937582044,128.22941022482348,0.0001295089750783,0.1019293591380119,0,0,0
11808,452744.9224911558,2011-01-08 16:24:37,3211.620212540485,2,47,0.5501165986061096,4.115472316741943,35.53581073807253,35.781922066738176,143.53446696881804,128.22941022482348,9.70840483205393e-05,0.1019293591380119,0,0,0
11809,452774.9376471449,2011-01-08 16:25:07,3241.6353685246304,2,47,0.5501165986061096,4.118710041046143,35.54039726823961,35.781922066738176,143.553349770735,128.22941022482348,0.0001295089750783,0.1019293591380119,0,0,0
11810,452804.9526712002,2011-01-08 16:25:37,3271.6503925799684,2,47,0.5501165986061096,4.122109889984131,35.54498375414908,35.781922066738176,143.5722474905509,128.22941022482348,0.0001295089750783,0.1019293591380119,0,0,0
11811,452834.96793304326,2011-01-08 16:26:07,3301.665654417934,2,47,0.5501165986061096,4.125185489654541,35.549570232032096,35.781922066738176,143.5911603333584,128.22941022482348,3.23295607813634e-05,0.1019293591380119,0,0,0
11812,452864.98301045655,2011-01-08 16:26:37,3331.6807319014315,2,47,0.5501165986061096,4.12874698638916,35.55415674792809,35.781922066738176,143.61008871152063,128.22941022482348,9.70840483205393e-05,0.1019293591380119,0,0,0
11813,452894.99808727344,2011-01-08 16:27:07,3361.69580864308,2,47,0.5499359965324402,4.131984710693359,35.558743254519435,35.781922066738176,143.62903253997686,128.22941022482348,9.70840483205393e-05,0.1019293591380119,0,0,0
11814,452925.01321950334,2011-01-08 16:27:37,3391.7109408579845,2,47,0.5501165986061096,4.1355462074279785,35.56332971224479,35.781922066738176,143.64799169960543,128.22941022482348,9.70840483205393e-05,0.1019293591380119,0,0,0
11815,452955.02826798457,2011-01-08 16:28:07,3421.725989349224,2,47,0.550297200679779,4.138946056365967,35.56791619465558,35.781922066738176,143.66696669197714,128.22941022482348,9.71794142969884e-05,0.1019293591380119,0,0,0
11816,452985.0435957168,2011-01-08 16:28:37,3451.741317111493,2,47,0.5501165986061096,4.142345428466797,35.57250277592487,35.781922066738176,143.68595798185083,128.22941022482348,6.47544875391759e-05,0.1019293591380119,0,0,0
11817,453015.058972817,2011-01-08 16:29:07,3481.7566942167405,2,47,0.5501165986061096,4.145906925201416,35.577089346959674,35.781922066738176,143.70496531691103,128.22941022482348,9.70840483205393e-05,0.1019293591380119,0,0,0
11818,453045.0737506437,2011-01-08 16:29:37,3511.771471998288,2,47,0.5501165986061096,4.149468421936035,35.58167577489535,35.781922066738176,143.72398832066276,128.22941022482348,9.70840483205393e-05,0.1019293591380119,0,0,0
11819,453075.0888314754,2011-01-08 16:30:07,3541.7865528301304,2,47,0.550297200679779,4.153029918670654,35.58626217277533,35.781922066738176,143.74302742737555,128.22941022482348,9.70840483205393e-05,0.1019293591380119,0,0,0
11820,453105.1040395846,2011-01-08 16:30:37,3571.8017609441995,2,47,0.5501165986061096,4.156591415405273,35.59084870022657,35.781922066738176,143.76208337670033,128.22941022482348,9.70840483205393e-05,0.1019293591380119,0,0,0
11821,453135.12145325553,2011-01-08 16:31:07,3601.819174615195,2,47,0.5501165986061096,4.160152912139893,35.595435540615625,35.781922066738176,143.78115714912255,128.22941022482348,0.0001295089750783,0.1019293591380119,0,0,0
11822,453165.1344814868,2011-01-08 16:31:37,3631.8322028663742,2,47,0.550297200679779,4.163876533508301,35.60002162399455,35.781922066738176,143.80024449883817,128.22941022482348,9.71794142969884e-05,0.1019293591380119,0,0,0
11823,453195.1494583744,2011-01-08 16:32:07,3661.847179734106,2,47,0.5501165986061096,4.16743803024292,35.604608059813,35.781922066738176,143.81934996319012,128.22941022482348,9.71794142969884e-05,0.1019293591380119,0,0,0
11824,453225.16466399736,2011-01-08 16:32:37,3691.8623853619792,2,47,0.550297200679779,4.171323299407959,35.60919449150873,35.781922066738176,143.8384722952181,128.22941022482348,0.0001295089750783,0.1019293591380119,0,0,0
11825,453255.179711476,2011-01-08 16:33:07,3721.8774328306704,2,47,0.5497553944587708,4.174884796142578,35.61378024423604,35.781922066738176,143.8576087074998,128.22941022482348,9.71794142969884e-05,0.1019293591380119,0,0,0
11826,453285.1948352349,2011-01-08 16:33:37,3751.892556614562,2,47,0.5499359965324402,4.178607940673828,35.61836583674454,35.781922066738176,143.87676153068793,128.22941022482348,6.47544875391759e-05,0.1019293591380119,0,0,0
11827,453315.21009689744,2011-01-08 16:34:07,3781.9078182570406,2,47,0.5499359965324402,4.182493209838867,35.62295161861584,35.781922066738176,143.89593247071474,128.22941022482348,0.0001295089750783,0.1019293591380119,0,0,0
11828,453345.225137118,2011-01-08 16:34:37,3811.92285848268,2,47,0.5501165986061096,4.186216831207275,35.62753726652855,35.781922066738176,143.91512009032886,128.22941022482348,9.71794142969884e-05,0.1019293591380119,0,0,0
11829,453375.24025097216,2011-01-08 16:35:08,3841.937972331811,2,47,0.5501165986061096,4.189939975738525,35.632122863321875,35.781922066738176,143.93432501869984,128.22941022482348,9.70840483205393e-05,0.1019293591380119,0,0,0
11830,453405.255513572,2011-01-08 16:35:38,3871.9532349567385,2,47,0.5501165986061096,4.1939873695373535,35.63670855080635,35.781922066738176,143.95354783719182,128.22941022482348,0.0001619339018361,0.1019293591380119,0,0,0
11831,453435.27055518114,2011-01-08 16:36:08,3901.9682765407633,2,47,0.550297200679779,4.197872161865234,35.641294793758235,35.781922066738176,143.97279075283168,128.22941022482348,0.0001295089750783,0.1019293591380119,0,0,0
11832,453452.1296485492,2011-01-08 16:36:24,3918.8273699289,2,47,0.550297200679779,4.200138568878174,35.643871007334866,35.781922066738176,143.98360780159956,128.22941022482348,0.0001295089750783,0.1019293591380119,0,0,0
11833,453482.13058417593,2011-01-08 16:36:55,30.015102701347978,3,47,0.0,4.102521896362305,35.643871007334866,35.781922066738176,143.98360780159956,128.22941022482348,-0.0004532813909463,0.1019293591380119,0,0,0
11834,453512.14573951846,2011-01-08 16:37:25,60.030258043894015,3,47,0.0,4.089894771575928,35.643871007334866,35.781922066738176,143.98360780159956,128.22941022482348,-0.0002913475036621,0.1019293591380119,0,0,0
11835,453542.16086927225,2011-01-08 16:37:55,90.04538777260248,3,47,0.0,4.0824480056762695,35.643871007334866,35.781922066738176,143.98360780159956,128.22941022482348,-0.0001618385285837,0.1019293591380119,0,0,0
11836,453572.1291302195,2011-01-08 16:38:25,120.01364871988648,3,47,0.0,4.077267646789551,35.643871007334866,35.781922066738176,143.98360780159956,128.22941022482348,-0.0001295089750783,0.1019293591380119,0,0,0
11837,453572.1325022995,2011-01-08 16:38:25,0.015600721798945,4,47,1.0233129262924194,4.199814796447754,35.64387544189624,35.781922066738176,143.98362642593602,128.22941022482348,0.0,0.1019293591380119,0,0,0
11838,453572.8512374787,2011-01-08 16:38:25,0.734335901014837,4,47,0.9727423191070556,4.199653148651123,35.64407322164275,35.781922066738176,143.98445705290402,128.22941022482348,-3.23295607813634e-05,0.1019293591380119,0,0,0
11839,453574.6793478373,2011-01-08 16:38:27,2.562446259523736,4,47,0.9225329160690308,4.199814796447754,35.64455338183444,35.781922066738176,143.98647361902297,128.22941022482348,0.0,0.1019293591380119,0,0,0
11840,453577.46054241486,2011-01-08 16:38:30,5.343640862225855,4,47,0.8721429705619812,4.199814796447754,35.645245584047494,35.781922066738176,143.98938070875838,128.22941022482348,0.0,0.1019293591380119,0,0,0
11841,453581.3042510494,2011-01-08 16:38:34,9.187349471760388,4,47,0.8221141695976257,4.199814796447754,35.64614882843786,35.781922066738176,143.9931741326833,128.22941022482348,3.23295607813634e-05,0.1019293591380119,0,0,0
11842,453586.35102269234,2011-01-08 16:38:39,14.234121114547024,4,47,0.7719048261642456,4.199814796447754,35.64726464643715,35.781922066738176,143.99786034445995,128.22941022482348,3.23295607813634e-05,0.1019293591380119,0,0,0
11843,453592.8509180515,2011-01-08 16:38:45,20.734016498812423,4,47,0.7218760251998901,4.199814796447754,35.648611425716155,35.781922066738176,144.0035165491679,128.22941022482348,0.0,0.1019293591380119,0,0,0
11844,453601.3976583731,2011-01-08 16:38:54,29.28075679539776,4,47,0.6718472838401794,4.199814796447754,35.65026334980044,35.781922066738176,144.0104543020819,128.22941022482348,0.0,0.1019293591380119,0,0,0
11845,453613.11622768856,2011-01-08 16:39:06,40.99932611084549,4,47,0.6214572787284851,4.199653148651123,35.65236477004733,35.781922066738176,144.01927985193026,128.22941022482348,-3.23295607813634e-05,0.1019293591380119,0,0,0
11846,453630.58468445775,2011-01-08 16:39:23,58.467782875011565,4,47,0.5714285373687744,4.199814796447754,35.65525163900556,35.781922066738176,144.03140414585883,128.22941022482348,0.0,0.1019293591380119,0,0,0
11847,453659.4748618992,2011-01-08 16:39:52,87.35796033151856,4,47,0.521399736404419,4.199814796447754,35.65961979282816,35.781922066738176,144.0497495167402,128.22941022482348,0.0,0.1019293591380119,0,0,0
11848,453715.5679305908,2011-01-08 16:40:48,143.45102900806626,4,47,0.4713709652423858,4.199814796447754,35.66731504116089,35.781922066738176,144.0820680340007,128.22941022482348,0.0,0.1019293591380119,0,0,0
11849,453810.956778024,2011-01-08 16:42:24,238.83987644629693,4,47,0.4213421940803528,4.199814796447754,35.67910496710047,35.781922066738176,144.13158344852792,128.22941022482348,3.23295607813634e-05,0.1019293591380119,0,0,0
11850,453937.42353911046,2011-01-08 16:44:30,365.3066375678614,4,47,0.3713134229183197,4.199653148651123,35.693008207877455,35.781922066738176,144.1899743406919,128.22941022482348,-3.23295607813634e-05,0.1019293591380119,0,0,0
11851,454089.6241507106,2011-01-08 16:47:02,517.5072491278263,4,47,0.3211040496826172,4.199814796447754,35.70762922991548,35.781922066738176,144.25137984400232,128.22941022482348,0.0,0.1019293591380119,0,0,0
11852,454273.2618152696,2011-01-08 16:50:06,701.144913686804,4,47,0.2710752785205841,4.199814796447754,35.72271077263089,35.781922066738176,144.31471945433148,128.22941022482348,0.0,0.1019293591380119,0,0,0
11853,454496.7917183815,2011-01-08 16:53:49,924.6748169040532,4,47,0.221046507358551,4.199814796447754,35.73795926271266,35.781922066738176,144.3787601896938,128.22941022482348,0.0,0.1019293591380119,0,0,0
11854,454790.64414929046,2011-01-08 16:58:43,1218.527247732811,4,47,0.1708371341228485,4.199653148651123,35.75390222368934,35.781922066738176,144.44571763013218,128.22941022482348,-3.23295607813634e-05,0.1019293591380119,0,0,0
11855,455212.27796244127,2011-01-08 17:05:45,1640.1610608686265,4,47,0.1206277534365654,4.199491024017334,35.77082730410647,35.781922066738176,144.51679971933572,128.22941022482348,-9.71794142969884e-05,0.1019293591380119,0,0,0
11856,455952.31287971325,2011-01-08 17:18:05,2380.195978135507,4,47,0.0705989822745323,4.199976921081543,35.78997745991598,35.781922066738176,144.5972267028802,128.22941022482348,3.24249267578125e-05,0.1019293591380119,0,0,0
11857,456493.3354958161,2011-01-08 17:27:06,2921.218594243345,4,47,0.0498289167881011,4.199814796447754,35.79897617839788,35.781922066738176,144.63501968939937,128.22941022482348,0.0,0.1019293591380119,0,0,0
11858,456523.3545833616,2011-01-08 17:27:36,30.015556171535213,5,47,0.0,4.190749645233154,35.79897617839788,35.781922066738176,144.63501968939937,128.22941022482348,-6.47544875391759e-05,0.1019293591380119,0,0,0
11859,456553.353945307,2011-01-08 17:28:06,60.01491817221383,5,47,0.0,4.1892924308776855,35.79897617839788,35.781922066738176,144.63501968939937,128.22941022482348,-3.24249267578125e-05,0.1019293591380119,0,0,0
11860,456553.545851041,2011-01-08 17:28:06,0.187550538650174,6,47,-1.9243103452026844e-05,4.1892924308776855,35.79897617839788,35.78192206774069,144.63501968939937,128.2294102290233,0.0,0.1035472899675369,0,0,0
11861,456558.3738434235,2011-01-08 17:28:11,5.015542901153644,6,47,0.0007031940040178,4.189130783081055,35.7989770871429,35.781922067911,144.63502349648965,128.2294102297368,-3.23295607813634e-05,0.1035472899675369,0,0,0
11862,456586.9403756663,2011-01-08 17:28:40,28.56183270034548,7,47,-1.099568486213684,3.989039897918701,35.7989770871429,35.790646573218766,144.63502349648965,128.2644370266501,-0.001230287598446,0.1035472899675369,0,0,0
11863,456616.9555041068,2011-01-08 17:29:10,58.57696114585583,7,47,-1.099568486213684,3.9514822959899902,35.7989770871429,35.799814894832686,144.63502349648965,128.3008279109277,-0.0008418083307333,0.1035472899675369,0,0,0
11864,456646.9706912837,2011-01-08 17:29:40,88.59214832274284,7,47,-1.099568486213684,3.9246091842651367,35.7989770871429,35.808983198357026,144.63502349648965,128.33692639924038,-0.0005827903514727,0.1035472899675369,0,0,0
11865,456676.9858044812,2011-01-08 17:30:10,118.60726152025046,7,47,-1.0997490882873535,3.903726100921631,35.7989770871429,35.81815150046327,144.63502349648965,128.37280921397357,-0.0004856586456298,0.1035472899675369,0,0,0
11866,456707.00095509697,2011-01-08 17:30:40,148.62241213601592,7,47,-1.0993878841400146,3.886404275894165,35.7989770871429,35.82731978003708,144.63502349648965,128.40851710499476,-0.0003885269106831,0.1035472899675369,0,0,0
11867,456737.0160714975,2011-01-08 17:31:10,178.63752853149387,7,47,-1.099568486213684,3.870539426803589,35.7989770871429,35.83648805776401,144.63502349648965,128.44407376354775,-0.0003885269106831,0.1035472899675369,0,0,0
11868,456767.031248479,2011-01-08 17:31:40,208.65270553803325,7,47,-1.0997490882873535,3.856293439865112,35.7989770871429,35.84565636770427,144.63502349648965,128.47949395247088,-0.0003561496851034,0.1035472899675369,0,0,0
11869,456797.046359882,2011-01-08 17:32:10,238.66781691600605,7,47,-1.0997490882873535,3.8428568840026855,35.7989770871429,35.85482526483721,144.63502349648965,128.51478979214684,-0.0003237724304199,0.1035472899675369,0,0,0
11870,456827.06150077353,2011-01-08 17:32:40,268.68295780753573,7,47,-1.0997490882873535,3.8303918838500977,35.7989770871429,35.86399428616782,144.63502349648965,128.54996726575925,-0.0003237724304199,0.1035472899675369,0,0,0
11871,456857.0767505314,2011-01-08 17:33:10,298.6982075954687,7,47,-1.099568486213684,3.8180885314941406,35.7989770871429,35.87316339715971,144.63502349648965,128.58503163690574,-0.0003237724304199,0.1035472899675369,0,0,0
11872,456887.0918954078,2011-01-08 17:33:40,328.71335245188004,7,47,-1.099929690361023,3.806432723999024,35.7989770871429,35.882332479974814,144.63502349648965,128.61998696681104,-0.0003237724304199,0.1035472899675369,0,0,0
11873,456917.10692181904,2011-01-08 17:34:10,358.72837885807706,7,47,-1.099568486213684,3.795424461364746,35.7989770871429,35.891500837352865,144.63502349648965,128.65483528760743,-0.0002590179501567,0.1035472899675369,0,0,0
11874,456947.122073703,2011-01-08 17:34:40,388.7435307470156,7,47,-1.0997490882873535,3.7847399711608887,35.7989770871429,35.900669077976644,144.63502349648965,128.68958290901583,-0.0002590179501567,0.1035472899675369,0,0,0
11875,456977.13770507695,2011-01-08 17:35:10,418.7591621209785,7,47,-1.099568486213684,3.774217367172241,35.7989770871429,35.90983750477399,144.63502349648965,128.72423459071857,-0.0002913951757363,0.1035472899675369,0,0,0
11876,457007.1523322732,2011-01-08 17:35:40,448.77378931220886,7,47,-1.0997490882873535,3.7643423080444336,35.7989770871429,35.91900563642503,144.63502349648965,128.7587912223774,-0.0002266406954731,0.1035472899675369,0,0,0
11877,457037.1676005772,2011-01-08 17:36:10,478.7890576313273,7,47,-1.099568486213684,3.754629135131836,35.7989770871429,35.928173990195994,144.63502349648965,128.79325817047206,-0.0002266406954731,0.1035472899675369,0,0,0
11878,457067.18262341456,2011-01-08 17:36:40,508.804080453592,7,47,-1.099568486213684,3.7450780868530273,35.7989770871429,35.937342213262674,144.63502349648965,128.8276372520026,-0.0002590179501567,0.1035472899675369,0,0,0
11879,457097.19799468527,2011-01-08 17:37:10,538.8194517242974,7,47,-1.0997490882873535,3.73617434501648,35.7989770871429,35.94651063665608,144.63502349648965,128.86193226782288,-0.0002266406954731,0.1035472899675369,0,0,0
11880,457127.2128982554,2011-01-08 17:37:40,568.8343552893365,7,47,-1.0997490882873535,3.7271087169647217,35.7989770871429,35.95567886033617,144.63502349648965,128.8961443332006,-0.0002590179501567,0.1035472899675369,0,0,0
11881,457157.22816208826,2011-01-08 17:38:10,598.8496191322989,7,47,-1.099568486213684,3.718690633773804,35.7989770871429,35.964847209268434,144.63502349648965,128.93027696299472,-0.0002266406954731,0.1035472899675369,0,0,0
11882,457187.243226013,2011-01-08 17:38:40,628.8646830870787,7,47,-1.0997490882873535,3.709948778152466,35.7989770871429,35.97401550257031,144.63502349648965,128.9643308027739,-0.0002266406954731,0.1035472899675369,0,0,0
11883,457217.25832231337,2011-01-08 17:39:10,658.8797793523859,7,47,-1.099929690361023,3.701854467391968,35.7989770871429,35.98318382513959,144.63502349648965,128.99830831485124,-0.0002266406954731,0.1035472899675369,0,0,0
11884,457247.2735825474,2011-01-08 17:39:40,688.8950395963786,7,47,-1.0997490882873535,3.6937601566314697,35.7989770871429,35.99235222260616,144.63502349648965,129.03221104890133,-0.0002266406954731,0.1035472899675369,0,0,0
11885,457277.2885832845,2011-01-08 17:40:10,718.9100403336007,7,47,-1.0997490882873535,3.6858277320861816,35.7989770871429,36.00152058269631,144.63502349648965,129.06604014076547,-0.0001942634553415,0.1035472899675369,0,0,0
11886,457307.3037252638,2011-01-08 17:40:40,748.9251822978039,7,47,-1.0997490882873535,3.678057193756104,35.7989770871429,36.01068891430368,144.63502349648965,129.0997976457841,-0.0001942634553415,0.1035472899675369,0,0,0
11887,457337.318923012,2011-01-08 17:41:10,778.9403801563126,7,47,-1.0997490882873535,3.6704487800598153,35.7989770871429,36.019857320412214,144.63502349648965,129.13348521771147,-0.0002266406954731,0.1035472899675369,0,0,0
11888,457367.33404760296,2011-01-08 17:41:40,808.9555046419538,7,47,-1.099568486213684,3.663002014160156,35.7989770871429,36.02902576362133,144.63502349648965,129.1671039530806,-0.0001942634553415,0.1035472899675369,0,0,0
11889,457397.3491999931,2011-01-08 17:42:10,838.9706570371543,7,47,-1.0997490882873535,3.655879020690918,35.7989770871429,36.038194208481656,144.63502349648965,129.20065559263173,-0.0001942634553415,0.1035472899675369,0,0,0
11890,457427.3645541612,2011-01-08 17:42:40,868.9860112052346,7,47,-1.0997490882873535,3.64875602722168,35.7989770871429,36.04736266546953,144.63502349648965,129.23414149706642,-0.0001942634553415,0.1035472899675369,0,0,0
11891,457457.3794630896,2011-01-08 17:43:10,899.0009201286283,7,47,-1.099568486213684,3.6416330337524414,35.7989770871429,36.05653098449121,144.63502349648965,129.26756154791943,-0.0001942634553415,0.1035472899675369,0,0,0
11892,457487.3946025826,2011-01-08 17:43:40,929.0160596216724,7,47,-1.0997490882873535,3.634833812713623,35.7989770871429,36.06569942185139,144.63502349648965,129.3009187792428,-0.0001618862152099,0.1035472899675369,0,0,0
11893,457517.4098750521,2011-01-08 17:44:10,959.0313321061724,7,47,-1.099568486213684,3.6280345916748047,35.7989770871429,36.07486784014934,144.63502349648965,129.33421377470725,-0.0001942634553415,0.1035472899675369,0,0,0
11894,457547.42714400747,2011-01-08 17:44:40,989.0486012369288,7,47,-1.099568486213684,3.621397256851196,35.7989770871429,36.08403689947927,144.63502349648965,129.3674498721033,-0.0001942634553415,0.1035472899675369,0,0,0
11895,457577.4400464801,2011-01-08 17:45:10,1019.061503524168,7,47,-1.099568486213684,3.615083694458008,35.7989770871429,36.09320462946962,144.63502349648965,129.4006213208922,-0.0001942634553415,0.1035472899675369,0,0,0
11896,457607.4551900383,2011-01-08 17:45:40,1049.076647107406,7,47,-1.0997490882873535,3.60860824584961,35.7989770871429,36.10237303545205,144.63502349648965,129.43373670379785,-0.0002266406954731,0.1035472899675369,0,0,0
11897,457637.470312524,2011-01-08 17:46:10,1079.0917695629878,7,47,-1.0997490882873535,3.602618455886841,35.7989770871429,36.11154139596167,144.63502349648965,129.46679487682147,-0.0001618862152099,0.1035472899675369,0,0,0
11898,457667.48546955566,2011-01-08 17:46:40,1109.1069265947438,7,47,-1.0997490882873535,3.5966286659240723,35.7989770871429,36.12070984336592,144.63502349648965,129.49979776619222,-0.0001618862152099,0.1035472899675369,0,0,0
11899,457697.5005841567,2011-01-08 17:47:10,1139.1220411957493,7,47,-1.0997490882873535,3.5908010005950928,35.7989770871429,36.12987822225413,144.63502349648965,129.53274638199937,-0.0001618862152099,0.1035472899675369,0,0,0
11900,457727.5157289429,2011-01-08 17:47:40,1169.1371859819858,7,47,-1.099568486213684,3.584973096847534,35.7989770871429,36.13904670216029,144.63502349648965,129.56564167323057,-0.0001618862152099,0.1035472899675369,0,0,0
11901,457757.5308964208,2011-01-08 17:48:10,1199.1523534597766,7,47,-1.0993878841400146,3.5794689655303955,35.7989770871429,36.14821520423028,144.63502349648965,129.59848448898552,-0.0001295089750783,0.1035472899675369,0,0,0
11902,457787.54601677606,2011-01-08 17:48:41,1229.1674738201364,7,47,-1.0993878841400146,3.573964834213257,35.7989770871429,36.157383581364016,144.63502349648965,129.63127620192617,-0.0001295089750783,0.1035472899675369,0,0,0
11903,457817.5611672064,2011-01-08 17:49:11,1259.1826242704894,7,47,-1.0997490882873535,3.568460702896118,35.7989770871429,36.1665520192192,144.63502349648965,129.66401828334762,-0.0001618862152099,0.1035472899675369,0,0,0
11904,457847.5762593816,2011-01-08 17:49:41,1289.1977164405905,7,47,-1.0997490882873535,3.5634422302246094,35.7989770871429,36.17572039645895,144.63502349648965,129.6967115994974,-0.0001295089750783,0.1035472899675369,0,0,0
11905,457877.5914236964,2011-01-08 17:50:11,1319.2128807554984,7,47,-1.099568486213684,3.5584237575531006,35.7989770871429,36.18488872670984,144.63502349648965,129.7293585223775,-9.713172767078504e-05,0.1035472899675369,0,0,0
11906,457907.6065572797,2011-01-08 17:50:41,1349.228014323776,7,47,-1.099568486213684,3.553405284881592,35.7989770871429,36.194057078106,144.63502349648965,129.7619598856102,-0.0001618862152099,0.1035472899675369,0,0,0
11907,457937.6216787779,2011-01-08 17:51:11,1379.2431358169592,7,47,-1.0997490882873535,3.548548698425293,35.7989770871429,36.2032254350361,144.63502349648965,129.79451649780103,-0.0001618862152099,0.1035472899675369,0,0,0
11908,457967.63698422455,2011-01-08 17:51:41,1409.2584413037107,7,47,-1.099568486213684,3.543853998184204,35.7989770871429,36.21239390617164,144.63502349648965,129.82702970792604,-0.0001618862152099,0.1035472899675369,0,0,0
11909,457997.6519413481,2011-01-08 17:52:11,1439.2733983821215,7,47,-1.099568486213684,3.5391592979431152,35.7989770871429,36.221562246288094,144.63502349648965,129.8594995378809,-0.0001295089750783,0.1035472899675369,0,0,0
11910,458027.6671467956,2011-01-08 17:52:41,1469.2886038646318,7,47,-1.0997490882873535,3.5346264839172363,35.7989770871429,36.23073064702954,144.63502349648965,129.8919277184585,-0.0001295089750783,0.1035472899675369,0,0,0
11911,458057.68239656347,2011-01-08 17:53:11,1499.30385362249,7,47,-1.099929690361023,3.5300936698913574,35.7989770871429,36.23989908074154,144.63502349648965,129.92431518154925,-0.0001618862152099,0.1035472899675369,0,0,0
11912,458087.6974074109,2011-01-08 17:53:41,1529.3188644548725,7,47,-1.0997490882873535,3.5258846282958984,35.7989770871429,36.24906750513063,144.63502349648965,129.95666231959075,-9.713172767078504e-05,0.1035472899675369,0,0,0
11913,458117.7125461169,2011-01-08 17:54:11,1559.3340031559426,7,47,-1.0997490882873535,3.5216755867004395,35.7989770871429,36.25823593018777,144.63502349648965,129.9889698528341,-9.713172767078504e-05,0.1035472899675369,0,0,0
11914,458147.7276959306,2011-01-08 17:54:41,1589.3491529697092,7,47,-1.099568486213684,3.5173046588897705,35.7989770871429,36.26740430915932,144.63502349648965,130.02123713272394,-9.713172767078504e-05,0.1035472899675369,0,0,0
11915,458177.7428443209,2011-01-08 17:55:11,1619.3643013699527,7,47,-1.099929690361023,3.5129337310791016,35.7989770871429,36.27657272363533,144.63502349648965,130.05346457504746,-0.0001295089750783,0.1035472899675369,0,0,0
11916,458207.7580675577,2011-01-08 17:55:41,1649.3795247019495,7,47,-1.0997490882873535,3.508563041687012,35.7989770871429,36.28574122447742,144.63502349648965,130.085652869577,-0.0001295089750783,0.1035472899675369,0,0,0
11917,458237.77312667534,2011-01-08 17:56:11,1679.394583734461,7,47,-1.0997490882873535,3.5041921138763428,35.7989770871429,36.29490967593435,144.63502349648965,130.1178008702252,-0.0001295089750783,0.1035472899675369,0,0,0
11918,458267.7904112346,2011-01-08 17:56:41,1709.4118682936703,7,47,-1.0997490882873535,3.499983072280884,35.7989770871429,36.30407870446288,144.63502349648965,130.14991075745078,-9.713172767078504e-05,0.1035472899675369,0,0,0
11919,458297.80337019806,2011-01-08 17:57:11,1739.4248272421264,7,47,-1.099568486213684,3.495450258255005,35.7989770871429,36.31324647098481,144.63502349648965,130.18197623473577,-0.0001295089750783,0.1035472899675369,0,0,0
11920,458327.8185185934,2011-01-08 17:57:41,1769.4399756423702,7,47,-1.0997490882873535,3.490755558013916,35.7989770871429,36.322414908341614,144.63502349648965,130.21400272564233,-9.713172767078504e-05,0.1035472899675369,0,0,0
11921,458357.8345690768,2011-01-08 17:58:11,1799.456026125883,7,47,-1.099568486213684,3.486222743988037,35.7989770871429,36.33158362971773,144.63502349648965,130.24598788990323,-9.713172767078504e-05,0.1035472899675369,0,0,0
11922,458387.8492353004,2011-01-08 17:58:41,1829.4706924696936,7,47,-1.099568486213684,3.4813661575317383,35.7989770871429,36.34075195237616,144.63502349648965,130.27792781752396,-9.713172767078504e-05,0.1035472899675369,0,0,0
11923,458417.8639392178,2011-01-08 17:59:11,1859.4853962618367,7,47,-1.099568486213684,3.4761857986450195,35.7989770871429,36.3499201557133,144.63502349648965,130.30982144583672,-0.0001295089750783,0.1035472899675369,0,0,0
11924,458447.8791017933,2011-01-08 17:59:41,1889.5005588424224,7,47,-1.0997490882873535,3.470843553543091,35.7989770871429,36.35908852771071,144.63502349648965,130.34166809542955,-0.0001618862152099,0.1035472899675369,0,0,0
11925,458477.8942240434,2011-01-08 18:00:11,1919.5156810874792,7,47,-1.0997490882873535,3.465501308441162,35.7989770871429,36.36825687978716,144.63502349648965,130.37346579904346,-0.0001618862152099,0.1035472899675369,0,0,0
11926,458507.90944269375,2011-01-08 18:00:41,1949.5308998430703,7,47,-1.0997490882873535,3.4595115184783936,35.7989770871429,36.377425291537925,144.63502349648965,130.40521264123294,-0.0001942634553415,0.1035472899675369,0,0,0
11927,458537.9246448279,2011-01-08 18:01:11,1979.546101881998,7,47,-1.0997490882873535,3.453521728515625,35.7989770871429,36.38659371377091,144.63502349648965,130.43690520353923,-0.0001618862152099,0.1035472899675369,0,0,0
11928,458567.9396452544,2011-01-08 18:01:41,2009.5611023134584,7,47,-1.0997490882873535,3.4470462799072266,35.7989770871429,36.39576206847458,144.63502349648965,130.4685393642877,-0.0001618862152099,0.1035472899675369,0,0,0
11929,458597.9549125158,2011-01-08 18:02:11,2039.576369564916,7,47,-1.099568486213684,3.4399232864379883,35.7989770871429,36.404930533362425,144.63502349648965,130.50011073163657,-0.0001942634553415,0.1035472899675369,0,0,0
11930,458627.9699417341,2011-01-08 18:02:41,2069.5913987881336,7,47,-1.0997490882873535,3.4316670894622803,35.7989770871429,36.414098936930806,144.63502349648965,130.53161177562072,-0.0002266406954731,0.1035472899675369,0,0,0
11931,458657.98508884606,2011-01-08 18:03:11,2099.606545910192,7,47,-1.0997490882873535,3.4222779273986816,35.7989770871429,36.42326736857422,144.63502349648965,130.56303361634815,-0.0002913951757363,0.1035472899675369,0,0,0
11932,458688.0002431762,2011-01-08 18:03:41,2129.621700225177,7,47,-1.0997490882873535,3.411917209625244,35.7989770871429,36.43243582647671,144.63502349648965,130.59436557327723,-0.0002913951757363,0.1035472899675369,0,0,0
11933,458718.015351682,2011-01-08 18:04:11,2159.6368087209657,7,47,-1.0997490882873535,3.399613857269287,35.7989770871429,36.44160427372694,144.63502349648965,130.62559335884472,-0.0003561496851034,0.1035472899675369,0,0,0
11934,458748.0305153502,2011-01-08 18:04:41,2189.6519724895124,7,47,-1.0997490882873535,3.3847203254699707,35.7989770871429,36.450772751261056,144.63502349648965,130.65669695616646,-0.0004856586456298,0.1035472899675369,0,0,0
11935,458778.0457472736,2011-01-08 18:05:11,2219.667204317684,7,47,-1.0997490882873535,3.366912841796875,35.7989770871429,36.459941135244165,144.63502349648965,130.6876506603555,-0.0005180359003134,0.1035472899675369,0,0,0
11936,458808.0607618905,2011-01-08 18:05:41,2249.682218944524,7,47,-1.0997490882873535,3.3448965549468994,35.7989770871429,36.46910956837775,144.63502349648965,130.71842206412524,-0.0006475448608398,0.1035472899675369,0,0,0
11937,458838.0760434375,2011-01-08 18:06:11,2279.6975004916094,7,47,-1.099568486213684,3.317375898361206,35.7989770871429,36.47827800826457,144.63502349648965,130.7489679850678,-0.0008094310760498,0.1035472899675369,0,0,0
11938,458868.0910712674,2011-01-08 18:06:41,2309.71252833138,7,47,-1.099568486213684,3.2819228172302246,35.7989770871429,36.48744632943274,144.63502349648965,130.77922684031776,-0.0010360718006268,0.1035472899675369,0,0,0
11939,458898.106464207,2011-01-08 18:07:11,2339.727921261066,7,47,-1.0997490882873535,3.235137939453125,35.7989770871429,36.496614825246745,144.63502349648965,130.809113059712,-0.0013922214275225,0.1035472899675369,0,0,0
11940,458928.12132748665,2011-01-08 18:07:41,2369.7427845356888,7,47,-1.099568486213684,3.172650098800659,35.7989770871429,36.505783233736736,144.63502349648965,130.8385033170098,-0.0019102573860436,0.1035472899675369,0,0,0
11941,458958.136474313,2011-01-08 18:08:11,2399.757931351985,7,47,-1.099568486213684,3.0849080085754395,35.7989770871429,36.51495170235758,144.63502349648965,130.86721217056402,-0.0026873112656176,0.1035472899675369,0,0,0
11942,458988.1516223072,2011-01-08 18:08:41,2429.7730793562414,7,47,-1.099568486213684,2.9532947540283203,35.7989770871429,36.52412011472245,144.63502349648965,130.89493834551774,-0.0042090415954589,0.1035472899675369,0,0,0
11943,459017.83890676463,2011-01-08 18:09:11,2459.460363893859,7,47,-1.099568486213684,2.753204107284546,35.7989770871429,36.53318852340637,144.63502349648965,130.92086314793852,-0.0060545443557202,0.1035472899675369,0,0,0
11944,459024.6822663774,2011-01-08 18:09:18,2466.303723416438,7,47,-1.0997490882873535,2.699943780899048,35.7989770871429,36.5352789167095,144.63502349648965,130.9265628963756,-0.0062163830734789,0.1035472899675369,0,0,0
11945,459084.6945479208,2011-01-08 18:10:18,60.01464189865511,8,47,0.0,3.539806842803955,35.7989770871429,36.5352789167095,144.63502349648965,130.9265628963756,0.0013598442310467,0.1035472899675369,0,0,0
11946,459084.88076863147,2011-01-08 18:10:18,0.187622703507203,9,47,-1.9243103452026844e-05,3.539806842803955,35.7989770871429,36.53527891771241,144.63502349648965,130.92656289992567,0.0,0.1005837768316268,0,0,0
11947,459089.70869824255,2011-01-08 18:10:23,5.015552294564915,9,47,0.0007031940040178,3.547739267349243,35.79897794178086,36.53527891779602,144.63502652573035,130.92656290022163,0.0011332035064697,0.1005837768316268,0,0,0
