Data_Point,Test_Time(s),Date_Time,Step_Time(s),Step_Index,Cycle_Index,Current(A),Voltage(V),Charge_Capacity(Ah),Discharge_Capacity(Ah),Charge_Energy(Wh),Discharge_Energy(Wh),dV/dt(V/s),Internal_Resistance(Ohm),Is_FC_Data,AC_Impedance(Ohm),ACI_Phase_Angle(Deg)
12198,468790.6893506564,2011-01-08 20:52:05,30.01532696027021,1,49,0.0,3.5827066898345947,36.55226779092424,37.28754683444439,147.68241815407492,133.61898761070347,0.0007122993702068,0.10130325704813,0,0,0
12199,468820.7043279201,2011-01-08 20:52:35,60.03030420895154,1,49,0.0,3.6043992042541504,36.55226779092424,37.28754683444439,147.68241815407492,133.61898761070347,0.0004856586456298,0.10130325704813,0,0,0
12200,468850.7194703454,2011-01-08 20:53:05,90.04544662929146,1,49,0.0,3.6197783946990967,36.55226779092424,37.28754683444439,147.68241815407492,133.61898761070347,0.0003561496851034,0.10130325704813,0,0,0
12201,468880.6877320648,2011-01-08 20:53:35,120.0137083735618,1,49,0.0,3.631596088409424,36.55226779092424,37.28754683444439,147.68241815407492,133.61898761070347,0.0002913951757363,0.10130325704813,0,0,0
12202,468910.6880295012,2011-01-08 20:54:05,30.015124480628646,2,49,0.5499359965324402,3.757866859436035,36.55685334306562,37.28754683444439,147.69955120313367,133.61898761070347,0.0009065627818927,0.10130325704813,0,0,0
12203,468940.70316385146,2011-01-08 20:54:35,60.03025880078041,2,49,0.5497553944587708,3.782959222793579,36.56143885840175,37.28754683444439,147.71684547710646,133.61898761070347,0.0005180359003134,0.10130325704813,0,0,0
12204,468970.7207260125,2011-01-08 20:55:05,90.04782107714611,2,49,0.5499359965324402,3.798176527023315,36.56602469714624,37.28754683444439,147.73423109644014,133.61898761070347,0.0003561496851034,0.10130325704813,0,0,0
12205,469000.73342724366,2011-01-08 20:55:35,120.06052224814152,2,49,0.5501165986061096,3.808537244796753,36.57061002227626,37.28754683444439,147.75167180925857,133.61898761070347,0.0002590179501567,0.10130325704813,0,0,0
12206,469030.7485621201,2011-01-08 20:56:05,150.0756570895925,2,49,0.5501165986061096,3.816955327987671,36.57519641708853,37.28754683444439,147.7691591776426,133.61898761070347,0.0002266406954731,0.10130325704813,0,0,0
12207,469060.76369370846,2011-01-08 20:56:35,180.0907886578858,2,49,0.5501165986061096,3.824240207672119,36.57978280122106,37.28754683444439,147.78668240926476,133.61898761070347,0.0001618862152099,0.10130325704813,0,0,0
12208,469090.7789810952,2011-01-08 20:57:05,210.1060760695888,2,49,0.5499359965324402,3.8310394287109375,36.58436917659996,37.28754683444439,147.80423784936457,133.61898761070347,0.0001618862152099,0.10130325704813,0,0,0
12209,469120.7939725693,2011-01-08 20:57:35,240.12106755374933,2,49,0.5501165986061096,3.837352752685547,36.588955470046415,37.28754683444439,147.82182282119814,133.61898761070347,0.0001618862152099,0.10130325704813,0,0,0
12210,469150.8091451098,2011-01-08 20:58:05,270.1362400640828,2,49,0.5501165986061096,3.843342542648315,36.59354184504226,37.28754683444439,147.83943598861646,133.61898761070347,0.0001618862152099,0.10130325704813,0,0,0
12211,469180.8242787132,2011-01-08 20:58:35,300.1513736624356,2,49,0.5501165986061096,3.849008560180664,36.598128295102896,37.28754683444439,147.85707600637653,133.61898761070347,0.0001618862152099,0.10130325704813,0,0,0
12212,469210.83942644665,2011-01-08 20:59:06,330.16652139100523,2,49,0.550297200679779,3.8543508052825928,36.60271468063784,37.28754683444439,147.87474101742058,133.61898761070347,0.0001942634553415,0.10130325704813,0,0,0
12213,469240.8547042344,2011-01-08 20:59:36,360.18179919877235,2,49,0.5501165986061096,3.8593692779541016,36.60730109038085,37.28754683444439,147.89243033553686,133.61898761070347,0.0001295089750783,0.10130325704813,0,0,0
12214,469270.8696876034,2011-01-08 21:00:06,390.1967825526698,2,49,0.5501165986061096,3.8643877506256095,36.61188751355109,37.28754683444439,147.91014290349065,133.61898761070347,0.0001295089750783,0.10130325704813,0,0,0
12215,469300.88485390827,2011-01-08 21:00:36,420.2119488775872,2,49,0.5501165986061096,3.869082450866699,36.616473942627024,37.28754683444439,147.9278778415725,133.61898761070347,0.0001295089750783,0.10130325704813,0,0,0
12216,469330.899974835,2011-01-08 21:01:06,450.2270697943336,2,49,0.5501165986061096,3.873939037322998,36.62106035139448,37.28754683444439,147.9456343120659,133.61898761070347,0.0001295089750783,0.10130325704813,0,0,0
12217,469360.91514214734,2011-01-08 21:01:36,480.2422372119744,2,49,0.5499359965324402,3.878471851348877,36.62564673182974,37.28754683444439,147.96341170705657,133.61898761070347,0.0001618862152099,0.10130325704813,0,0,0
12218,469390.93024503416,2011-01-08 21:02:06,510.2573399885098,2,49,0.550297200679779,3.883004665374756,36.6302331211845,37.28754683444439,147.98120969943793,133.61898761070347,0.0001942634553415,0.10130325704813,0,0,0
12219,469420.9453857252,2011-01-08 21:02:36,540.2724806745273,2,49,0.5499359965324402,3.887051820755005,36.63481951769534,37.28754683444439,147.99902765437466,133.61898761070347,9.713172767078504e-05,0.10130325704813,0,0,0
12220,469450.960533153,2011-01-08 21:03:06,570.2876281023474,2,49,0.550297200679779,3.891260862350464,36.639405953644285,37.28754683444439,148.01686506753418,133.61898761070347,9.713172767078504e-05,0.10130325704813,0,0,0
12221,469480.9757963093,2011-01-08 21:03:36,600.3028912886733,2,49,0.5501165986061096,3.894984245300293,36.64399242774645,37.28754683444439,148.03472128414967,133.61898761070347,6.47544875391759e-05,0.10130325704813,0,0,0
12222,469510.99081386346,2011-01-08 21:04:06,630.3179088127332,2,49,0.5499359965324402,3.899031400680542,36.64857884163151,37.28754683444439,148.05259493341728,133.61898761070347,0.0001295089750783,0.10130325704813,0,0,0
12223,469541.00593483023,2011-01-08 21:04:36,660.3330297796045,2,49,0.5501165986061096,3.902754783630371,36.65316526746346,37.28754683444439,148.07048599490912,133.61898761070347,9.713172767078504e-05,0.10130325704813,0,0,0
12224,469571.0210832856,2011-01-08 21:05:06,690.3481782349857,2,49,0.5499359965324402,3.90615439414978,36.65775170066921,37.28754683444439,148.08839354317794,133.61898761070347,6.47544875391759e-05,0.10130325704813,0,0,0
12225,469601.0362176208,2011-01-08 21:05:36,720.3633125751874,2,49,0.5501165986061096,3.9095540046691895,36.66233810664241,37.28754683444439,148.10631672965903,133.61898761070347,9.713172767078504e-05,0.10130325704813,0,0,0
12226,469631.0513802565,2011-01-08 21:06:06,750.3784752159228,2,49,0.5501165986061096,3.9126298427581783,36.66692448685408,37.28754683444439,148.1242548368074,133.61898761070347,6.47544875391759e-05,0.10130325704813,0,0,0
12227,469661.06649586005,2011-01-08 21:06:36,780.3935908144144,2,49,0.550297200679779,3.915705442428589,36.67151087397661,37.28754683444439,148.14220732944867,133.61898761070347,3.237724376958795e-05,0.10130325704813,0,0,0
12228,469691.0816379294,2011-01-08 21:07:06,810.4087328788673,2,49,0.5499359965324402,3.918619394302368,36.67609729684409,37.28754683444439,148.16017358075842,133.61898761070347,6.47544875391759e-05,0.10130325704813,0,0,0
12229,469721.0832761883,2011-01-08 21:07:36,840.4103711477068,2,49,0.5497553944587708,3.9213714599609375,36.680681587565005,37.28754683444439,148.17814455808738,133.61898761070347,6.47544875391759e-05,0.10130325704813,0,0,0
12230,469751.0964142331,2011-01-08 21:08:06,870.4235092376384,2,49,0.5501165986061096,3.924123525619507,36.68526767620362,37.28754683444439,148.19613518650044,133.61898761070347,6.47544875391759e-05,0.10130325704813,0,0,0
12231,469781.1114249853,2011-01-08 21:08:36,900.4385199346833,2,49,0.5501165986061096,3.926875591278076,36.68985401569896,37.28754683444439,148.21413890489302,133.61898761070347,9.713172767078504e-05,0.10130325704813,0,0,0
12232,469811.1266132098,2011-01-08 21:09:06,930.4537081641938,2,49,0.5501165986061096,3.9293038845062256,36.69444028901589,37.28754683444439,148.23215409099856,133.61898761070347,3.237724376958795e-05,0.10130325704813,0,0,0
12233,469841.1419149824,2011-01-08 21:09:36,960.4690099316758,2,49,0.5501165986061096,3.931732177734375,36.69902670143549,37.28754683444439,148.25018127531868,133.61898761070347,6.47544875391759e-05,0.10130325704813,0,0,0
12234,469871.15685710846,2011-01-08 21:10:06,990.483952087896,2,49,0.550297200679779,3.934160470962525,36.703613053649725,37.28754683444439,148.26821943885935,133.61898761070347,3.237724376958795e-05,0.10130325704813,0,0,0
12235,469901.1719688724,2011-01-08 21:10:36,1020.4990638267684,2,49,0.5501165986061096,3.936588764190674,36.70819943571826,37.28754683444439,148.2862687232437,133.61898761070347,6.47544875391759e-05,0.10130325704813,0,0,0
12236,469931.187107784,2011-01-08 21:11:06,1050.5142027333509,2,49,0.5501165986061096,3.938855171203613,36.71278579880609,37.28754683444439,148.30432883174691,133.61898761070347,3.237724376958795e-05,0.10130325704813,0,0,0
12237,469961.2023877923,2011-01-08 21:11:36,1080.5294827566397,2,49,0.5497553944587708,3.9412834644317623,36.71737216887127,37.28754683444439,148.32239975694412,133.61898761070347,3.237724376958795e-05,0.10130325704813,0,0,0
12238,469991.2173889305,2011-01-08 21:12:06,1110.5444838848362,2,49,0.5501165986061096,3.943549871444702,36.72195854016383,37.28754683444439,148.34048128688755,133.61898761070347,3.237724376958795e-05,0.10130325704813,0,0,0
12239,470021.2325345538,2011-01-08 21:12:36,1140.5596295081589,2,49,0.5501165986061096,3.9458162784576416,36.72654492925767,37.28754683444439,148.3585734075831,133.61898761070347,3.237724376958795e-05,0.10130325704813,0,0,0
12240,470051.2470925626,2011-01-08 21:13:06,1170.5741872061908,2,49,0.5501165986061096,3.948082685470581,36.73113124407123,37.28754683444439,148.37667555717672,133.61898761070347,6.47544875391759e-05,0.10130325704813,0,0,0
12241,470081.2471839362,2011-01-08 21:13:36,1200.5742788854527,2,49,0.5501165986061096,3.950349092483521,36.73571534896824,37.28754683444439,148.39477927531607,133.61898761070347,3.237724376958795e-05,0.10130325704813,0,0,0
12242,470111.26243088697,2011-01-08 21:14:06,1230.58952592654,2,49,0.5499359965324402,3.95245361328125,36.74030172717589,37.28754683444439,148.41290215692817,133.61898761070347,0.0,0.10130325704813,0,0,0
12243,470141.27749778406,2011-01-08 21:14:36,1260.604592773528,2,49,0.550297200679779,3.9548819065094,36.74488812123909,37.28754683444439,148.43103529496335,133.61898761070347,9.713172767078504e-05,0.10130325704813,0,0,0
12244,470171.2926093124,2011-01-08 21:15:06,1290.619704266788,2,49,0.5501165986061096,3.956986427307129,36.74947450634812,37.28754683444439,148.4491785115076,133.61898761070347,6.47544875391759e-05,0.10130325704813,0,0,0
12245,470201.30774043465,2011-01-08 21:15:36,1320.6348353889691,2,49,0.5501165986061096,3.959252834320069,36.75406089599477,37.28754683444439,148.46733168603106,133.61898761070347,6.47544875391759e-05,0.10130325704813,0,0,0
12246,470231.32299214735,2011-01-08 21:16:06,1350.650087227012,2,49,0.5501165986061096,3.961357355117798,36.7586473294569,37.28754683444439,148.48549512399262,133.61898761070347,0.0,0.10130325704813,0,0,0
12247,470261.3381425275,2011-01-08 21:16:36,1380.6652374768655,2,49,0.5501165986061096,3.9634618759155273,36.76323370910311,37.28754683444439,148.50366826284858,133.61898761070347,3.237724376958795e-05,0.10130325704813,0,0,0
12248,470291.35315693886,2011-01-08 21:17:06,1410.68025189318,2,49,0.5501165986061096,3.965566396713257,36.76782015319505,37.28754683444439,148.52185155174956,133.61898761070347,3.237724376958795e-05,0.10130325704813,0,0,0
12249,470321.3683033892,2011-01-08 21:17:36,1440.6953983385515,2,49,0.5501165986061096,3.9676709175109854,36.77240657664127,37.28754683444439,148.540044543192,133.61898761070347,3.237724376958795e-05,0.10130325704813,0,0,0
12250,470351.3834428221,2011-01-08 21:18:06,1470.7105377764583,2,49,0.5501165986061096,3.969775438308716,36.77699308182997,37.28754683444439,148.55824760265372,133.61898761070347,3.237724376958795e-05,0.10130325704813,0,0,0
12251,470381.3988685135,2011-01-08 21:18:36,1500.7259634828342,2,49,0.550297200679779,3.9720418453216553,36.781579538230496,37.28754683444439,148.57646020737488,133.61898761070347,6.47544875391759e-05,0.10130325704813,0,0,0
12252,470411.41371220927,2011-01-08 21:19:06,1530.7408071636232,2,49,0.5501165986061096,3.9741463661193848,36.78616594809871,37.28754683444439,148.59468238303936,133.61898761070347,6.47544875391759e-05,0.10130325704813,0,0,0
12253,470441.4288726496,2011-01-08 21:19:36,1560.7559676189117,2,49,0.5501165986061096,3.976250886917114,36.79075250453697,37.28754683444439,148.61291488385564,133.61898761070347,3.237724376958795e-05,0.10130325704813,0,0,0
12254,470471.4440010048,2011-01-08 21:20:06,1590.7710959591598,2,49,0.5499359965324402,3.978031635284424,36.79533901851891,37.28754683444439,148.63115656920917,133.61898761070347,3.237724376958795e-05,0.10130325704813,0,0,0
12255,470501.45934073685,2011-01-08 21:20:36,1620.7864357965236,2,49,0.5501165986061096,3.980459928512573,36.79992541767477,37.28754683444439,148.649407647815,133.61898761070347,3.237724376958795e-05,0.10130325704813,0,0,0
12256,470531.4742643469,2011-01-08 21:21:06,1650.8013593012586,2,49,0.5501165986061096,3.982564449310303,36.804511741953775,37.28754683444439,148.66766812726237,133.61898761070347,3.237724376958795e-05,0.10130325704813,0,0,0
12257,470561.4894218599,2011-01-08 21:21:36,1680.8165168994262,2,49,0.5501165986061096,3.984668970108032,36.80909806982847,37.28754683444439,148.68593819939989,133.61898761070347,6.47544875391759e-05,0.10130325704813,0,0,0
12258,470591.5045637138,2011-01-08 21:22:06,1710.8316586681422,2,49,0.5501165986061096,3.9867734909057617,36.81368447702732,37.28754683444439,148.70421833156914,133.61898761070347,3.237724376958795e-05,0.10130325704813,0,0,0
12259,470621.519683172,2011-01-08 21:22:36,1740.8467781212407,2,49,0.5501165986061096,3.988878011703491,36.81827081237198,37.28754683444439,148.72250784912265,133.61898761070347,9.713172767078504e-05,0.10130325704813,0,0,0
12260,470651.5348431511,2011-01-08 21:23:06,1770.8619381203923,2,49,0.5501165986061096,3.9909825325012207,36.8228571156774,37.28754683444439,148.740806932576,133.61898761070347,6.47544875391759e-05,0.10130325704813,0,0,0
12261,470681.54996297,2011-01-08 21:23:36,1800.8770579193529,2,49,0.550297200679779,3.99324893951416,36.8274434234525,37.28754683444439,148.75911582635462,133.61898761070347,0.0001295089750783,0.10130325704813,0,0,0
12262,470711.5651141071,2011-01-08 21:24:06,1830.8922090564176,2,49,0.5499359965324402,3.9951913356781006,36.83202973176704,37.28754683444439,148.77743454519583,133.61898761070347,6.47544875391759e-05,0.10130325704813,0,0,0
12263,470741.5802426429,2011-01-08 21:24:36,1860.9073375971648,2,49,0.550297200679779,3.99745774269104,36.83661603614938,37.28754683444439,148.79576314534384,133.61898761070347,6.47544875391759e-05,0.10130325704813,0,0,0
12264,470771.5953404269,2011-01-08 21:25:06,1890.922435371233,2,49,0.550297200679779,3.99972414970398,36.84120285905634,37.28754683444439,148.81410371109007,133.61898761070347,9.713172767078504e-05,0.10130325704813,0,0,0
12265,470801.6104862157,2011-01-08 21:25:36,1920.9375811900427,2,49,0.550297200679779,4.001828670501709,36.84579004685176,37.28754683444439,148.8324557506571,133.61898761070347,3.23295607813634e-05,0.10130325704813,0,0,0
12266,470831.62585524574,2011-01-08 21:26:06,1950.9529501951013,2,49,0.5501165986061096,4.004095077514648,36.85037712193165,37.28754683444439,148.85081739689176,133.61898761070347,9.70840483205393e-05,0.10130325704813,0,0,0
12267,470861.6408054922,2011-01-08 21:26:36,1980.967900441485,2,49,0.5501165986061096,4.006199836730957,36.85496428429612,37.28754683444439,148.86918947565,133.61898761070347,9.71794142969884e-05,0.10130325704813,0,0,0
12268,470891.65593022347,2011-01-08 21:27:06,2010.9830251777507,2,49,0.550297200679779,4.0084662437438965,36.85955153664336,37.28754683444439,148.88757206930296,133.61898761070347,9.71794142969884e-05,0.10130325704813,0,0,0
12269,470921.6710691601,2011-01-08 21:27:36,2040.9981641194208,2,49,0.5501165986061096,4.010732650756836,36.864138718545234,37.28754683444439,148.90596444272305,133.61898761070347,6.47544875391759e-05,0.10130325704813,0,0,0
12270,470951.6886125493,2011-01-08 21:28:06,2071.015707613976,2,49,0.5499359965324402,4.012675285339356,36.86872603796432,37.28754683444439,148.92436762856263,133.61898761070347,3.24249267578125e-05,0.10130325704813,0,0,0
12271,470981.70133791567,2011-01-08 21:28:36,2101.028432869999,2,49,0.5501165986061096,4.015103340148926,36.8733121465778,37.28754683444439,148.94277625444028,133.61898761070347,6.47544875391759e-05,0.10130325704813,0,0,0
12272,471011.7166202146,2011-01-08 21:29:06,2131.043715274221,2,49,0.5501165986061096,4.017369747161865,36.87789867751759,37.28754683444439,148.96119705793035,133.61898761070347,3.23295607813634e-05,0.10130325704813,0,0,0
12273,471041.7316243102,2011-01-08 21:29:36,2161.058719264552,2,49,0.550297200679779,4.019636154174805,36.88248525963024,37.28754683444439,148.97962857809108,133.61898761070347,6.47544875391759e-05,0.10130325704813,0,0,0
12274,471071.7467843394,2011-01-08 21:30:06,2191.073879323854,2,49,0.5501165986061096,4.022064685821533,36.887071715686254,37.28754683444439,148.99807022431304,133.61898761070347,9.71794142969884e-05,0.10130325704813,0,0,0
12275,471101.7619572357,2011-01-08 21:30:36,2221.089052195086,2,49,0.5501165986061096,4.024492740631104,36.89165828173712,37.28754683444439,149.016523095431,133.61898761070347,9.70840483205393e-05,0.10130325704813,0,0,0
12276,471131.7770310952,2011-01-08 21:31:06,2251.104126054552,2,49,0.5501165986061096,4.026759147644043,36.896244765647296,37.28754683444439,149.03498642880453,133.61898761070347,3.23295607813634e-05,0.10130325704813,0,0,0
12277,471161.7921779064,2011-01-08 21:31:36,2281.119272860822,2,49,0.5501165986061096,4.029187679290772,36.90083127339062,37.28754683444439,149.05346095832348,133.61898761070347,6.47544875391759e-05,0.10130325704813,0,0,0
12278,471191.8073152492,2011-01-08 21:32:07,2311.134410213532,2,49,0.5501165986061096,4.031777858734131,36.90541775847492,37.28754683444439,149.07194639199776,133.61898761070347,9.71794142969884e-05,0.10130325704813,0,0,0
12279,471221.8224505868,2011-01-08 21:32:37,2341.149545541195,2,49,0.5501165986061096,4.034205913543701,36.91000424213203,37.28754683444439,149.09044305609137,133.61898761070347,9.70840483205393e-05,0.10130325704813,0,0,0
12280,471251.8375914885,2011-01-08 21:33:07,2371.164686447762,2,49,0.5501165986061096,4.036633968353272,36.91459075745743,37.28754683444439,149.10895116993933,133.61898761070347,6.47544875391759e-05,0.10130325704813,0,0,0
12281,471281.8529090603,2011-01-08 21:33:37,2401.1800040497087,2,49,0.550297200679779,4.039224147796631,36.91917735247223,37.28754683444439,149.12747110272812,133.61898761070347,9.70840483205393e-05,0.10130325704813,0,0,0
12282,471311.8678712715,2011-01-08 21:34:07,2431.1949662308366,2,49,0.5501165986061096,4.041652679443359,36.92376382715544,37.28754683444439,149.14600202406731,133.61898761070347,6.47544875391759e-05,0.10130325704813,0,0,0
12283,471341.88299933606,2011-01-08 21:34:37,2461.2100942853726,2,49,0.550297200679779,4.044242858886719,36.92835030293685,37.28754683444439,149.1645446760447,133.61898761070347,9.71794142969884e-05,0.10130325704813,0,0,0
12284,471371.898160448,2011-01-08 21:35:07,2491.2252554073225,2,49,0.550297200679779,4.046994686126709,36.9329368172259,37.28754683444439,149.1830993169526,133.61898761070347,9.70840483205393e-05,0.10130325704813,0,0,0
12285,471401.9134041708,2011-01-08 21:35:37,2521.2404991351523,2,49,0.5499359965324402,4.0494232177734375,36.93752337977243,37.28754683444439,149.2016661825373,133.61898761070347,6.47544875391759e-05,0.10130325704813,0,0,0
12286,471431.9284296095,2011-01-08 21:36:07,2551.255524568925,2,49,0.550297200679779,4.052013397216797,36.9421098981217,37.28754683444439,149.22024489112715,133.61898761070347,3.24249267578125e-05,0.10130325704813,0,0,0
12287,471461.9437945044,2011-01-08 21:36:37,2581.270889458728,2,49,0.550297200679779,4.054765224456787,36.946696437432905,37.28754683444439,149.23883594600915,133.61898761070347,3.23295607813634e-05,0.10130325704813,0,0,0
12288,471491.958713964,2011-01-08 21:37:07,2611.2858089434435,2,49,0.5501165986061096,4.0573554039001465,36.95128294759174,37.28754683444439,149.2574391516104,133.61898761070347,3.23295607813634e-05,0.10130325704813,0,0,0
12289,471521.9738344397,2011-01-08 21:37:37,2641.300929389016,2,49,0.5499359965324402,4.060269355773926,36.955869486663175,37.28754683444439,149.27605496684396,133.61898761070347,9.70840483205393e-05,0.10130325704813,0,0,0
12290,471551.98898084497,2011-01-08 21:38:07,2671.3160757993,2,49,0.5499359965324402,4.062859535217285,36.96045605499618,37.28754683444439,149.2946830265341,133.61898761070347,9.70840483205393e-05,0.10130325704813,0,0,0
12291,471582.0041061727,2011-01-08 21:38:37,2701.331201122028,2,49,0.5501165986061096,4.0657734870910645,36.965042551817845,37.28754683444439,149.31332350378327,133.61898761070347,9.70840483205393e-05,0.10130325704813,0,0,0
12292,471612.0192356808,2011-01-08 21:39:07,2731.3463306552485,2,49,0.5501165986061096,4.068363666534424,36.96962912159333,37.28754683444439,149.3319771517582,133.61898761070347,3.23295607813634e-05,0.10130325704813,0,0,0
12293,471642.0344942357,2011-01-08 21:39:37,2761.3615892200564,2,49,0.5501165986061096,4.071115970611572,36.9742157139836,37.28754683444439,149.35064384674124,133.61898761070347,3.24249267578125e-05,0.10130325704813,0,0,0
12294,471672.05169910623,2011-01-08 21:40:07,2791.378794256069,2,49,0.5501165986061096,4.074029922485352,36.978802573056825,37.28754683444439,149.36932465466737,133.61898761070347,9.71794142969884e-05,0.10130325704813,0,0,0
12295,471702.0647943293,2011-01-08 21:40:37,2821.391889323776,2,49,0.550297200679779,4.077105522155762,36.983388840581554,37.28754683444439,149.38801627547684,133.61898761070347,9.70840483205393e-05,0.10130325704813,0,0,0
12296,471732.07978150767,2011-01-08 21:41:07,2851.4068764570934,2,49,0.5501165986061096,4.07985782623291,36.98797545787358,37.28754683444439,149.40672271103827,133.61898761070347,3.24249267578125e-05,0.10130325704813,0,0,0
12297,471762.09494664974,2011-01-08 21:41:37,2881.422041599062,2,49,0.5501165986061096,4.0827717781066895,36.99256208980323,37.28754683444439,149.42544251643693,133.61898761070347,6.47544875391759e-05,0.10130325704813,0,0,0
12298,471792.1102659159,2011-01-08 21:42:07,2911.437360895231,2,49,0.550297200679779,4.0858473777771,36.99714868027675,37.28754683444439,149.44417571801276,133.61898761070347,6.47544875391759e-05,0.10130325704813,0,0,0
12299,471822.12519587664,2011-01-08 21:42:37,2941.452290830994,2,49,0.5501165986061096,4.088761329650879,37.00173523267189,37.28754683444439,149.46292245127992,133.61898761070347,6.47544875391759e-05,0.10130325704813,0,0,0
12300,471852.1403374198,2011-01-08 21:43:07,2971.467432369135,2,49,0.5501165986061096,4.091837406158447,37.00632186241791,37.28754683444439,149.481683330318,133.61898761070347,9.71794142969884e-05,0.10130325704813,0,0,0
12301,471882.15547974,2011-01-08 21:43:37,3001.4825746942383,2,49,0.5501165986061096,4.094913005828857,37.01090840216217,37.28754683444439,149.5004578035166,133.61898761070347,9.70840483205393e-05,0.10130325704813,0,0,0
12302,471912.1706391826,2011-01-08 21:44:07,3031.497734157053,2,49,0.5499359965324402,4.097989082336426,37.01549502840279,37.28754683444439,149.51924674294617,133.61898761070347,9.71794142969884e-05,0.10130325704813,0,0,0
12303,471942.1857240796,2011-01-08 21:44:37,3061.5128190289643,2,49,0.5499359965324402,4.101064682006836,37.02008164299092,37.28754683444439,149.5380497654741,133.61898761070347,9.70840483205393e-05,0.10130325704813,0,0,0
12304,471972.2008988906,2011-01-08 21:45:07,3091.5279939553197,2,49,0.550297200679779,4.104302406311035,37.02466827645178,37.28754683444439,149.55686708410013,133.61898761070347,9.70840483205393e-05,0.10130325704813,0,0,0
12305,472002.2160056322,2011-01-08 21:45:37,3121.5431005764367,2,49,0.5499359965324402,4.107378482818604,37.029254857355696,37.28754683444439,149.57569867570055,133.61898761070347,9.71794142969884e-05,0.10130325704813,0,0,0
12306,472032.23127592617,2011-01-08 21:46:07,3151.55837089554,2,49,0.5501165986061096,4.110616207122803,37.033841467438336,37.28754683444439,149.59454499154245,133.61898761070347,9.71794142969884e-05,0.10130325704813,0,0,0
12307,472062.24629967567,2011-01-08 21:46:37,3181.573394650128,2,49,0.5501165986061096,4.113691806793213,37.03842803035484,37.28754683444439,149.6134058125714,133.61898761070347,6.47544875391759e-05,0.10130325704813,0,0,0
12308,472092.26141662255,2011-01-08 21:47:07,3211.588511571917,2,49,0.5501165986061096,4.117091178894043,37.04301463127591,37.28754683444439,149.6322816205557,133.61898761070347,9.70840483205393e-05,0.10130325704813,0,0,0
12309,472122.27658036107,2011-01-08 21:47:37,3241.6036753354515,2,49,0.5501165986061096,4.120328903198242,37.047601290545074,37.28754683444439,149.65117268804724,133.61898761070347,6.47544875391759e-05,0.10130325704813,0,0,0
12310,472152.2917063455,2011-01-08 21:48:07,3271.618801294765,2,49,0.5501165986061096,4.123566627502441,37.05218794256485,37.28754683444439,149.67007882399218,133.61898761070347,3.23295607813634e-05,0.10130325704813,0,0,0
12311,472182.30696043407,2011-01-08 21:48:37,3301.634055393442,2,49,0.5501165986061096,4.12696647644043,37.05677458872393,37.28754683444439,149.68900019075022,133.61898761070347,9.71794142969884e-05,0.10130325704813,0,0,0
12312,472212.3219627453,2011-01-08 21:49:07,3331.6490576945616,2,49,0.5501165986061096,4.13036584854126,37.06136118030193,37.28754683444439,149.70793675092727,133.61898761070347,9.70840483205393e-05,0.10130325704813,0,0,0
12313,472242.33725325967,2011-01-08 21:49:37,3361.6643482490977,2,49,0.5499359965324402,4.133765697479248,37.06594787198416,37.28754683444439,149.7268891920395,133.61898761070347,9.71794142969884e-05,0.10130325704813,0,0,0
12314,472272.3522628189,2011-01-08 21:50:07,3391.679357773219,2,49,0.5501165986061096,4.137327194213867,37.07053451318876,37.28754683444439,149.74585705800357,133.61898761070347,0.0001295089750783,0.10130325704813,0,0,0
12315,472302.3676610919,2011-01-08 21:50:37,3421.6947560612607,2,49,0.5501165986061096,4.140564918518066,37.07512128997694,37.28754683444439,149.7648412347935,133.61898761070347,6.47544875391759e-05,0.10130325704813,0,0,0
12316,472332.3825423063,2011-01-08 21:51:07,3451.7096372806072,2,49,0.5501165986061096,4.1441264152526855,37.07970797176953,37.28754683444439,149.78384088680738,133.61898761070347,9.71794142969884e-05,0.10130325704813,0,0,0
12317,472362.3976873632,2011-01-08 21:51:37,3481.724782317468,2,49,0.5501165986061096,4.147525787353516,37.08429466343412,37.28754683444439,149.802857015182,133.61898761070347,3.23295607813634e-05,0.10130325704813,0,0,0
12318,472392.4128178237,2011-01-08 21:52:07,3511.73991279805,2,49,0.5499359965324402,4.151249408721924,37.08888129188697,37.28754683444439,149.82188897567983,133.61898761070347,0.0001295089750783,0.10130325704813,0,0,0
12319,472422.4280676165,2011-01-08 21:52:37,3541.7551625960086,2,49,0.5501165986061096,4.154810905456543,37.09346789542747,37.28754683444439,149.84093707597196,133.61898761070347,9.71794142969884e-05,0.10130325704813,0,0,0
12320,472452.4430759678,2011-01-08 21:53:07,3571.770170922144,2,49,0.5501165986061096,4.158210277557373,37.09805443059417,37.28754683444439,149.8600012769766,133.61898761070347,6.47544875391759e-05,0.10130325704813,0,0,0
12321,472482.45834231697,2011-01-08 21:53:37,3601.785437271353,2,49,0.550297200679779,4.162095546722412,37.10264103604458,37.28754683444439,149.87908225050467,133.61898761070347,0.0001295089750783,0.10130325704813,0,0,0
12322,472512.4733611193,2011-01-08 21:54:07,3631.8004560685854,2,49,0.5501165986061096,4.165657043457031,37.10722762878395,37.28754683444439,149.89817979358966,133.61898761070347,0.0001295089750783,0.10130325704813,0,0,0
12323,472542.48850166495,2011-01-08 21:54:37,3661.815596634304,2,49,0.550297200679779,4.16921854019165,37.11181424066967,37.28754683444439,149.91729418555306,133.61898761070347,6.47544875391759e-05,0.10130325704813,0,0,0
12324,472572.5036200654,2011-01-08 21:55:07,3691.83071501473,2,49,0.5501165986061096,4.1731038093566895,37.11640083594625,37.28754683444439,149.93642541803965,133.61898761070347,0.0001295089750783,0.10130325704813,0,0,0
12325,472602.5188984095,2011-01-08 21:55:37,3721.845993378882,2,49,0.5499359965324402,4.176665306091309,37.12098755467764,37.28754683444439,149.95557427554817,133.61898761070347,9.70840483205393e-05,0.10130325704813,0,0,0
12326,472632.5339082895,2011-01-08 21:56:07,3751.8610032438537,2,49,0.5501165986061096,4.180388927459717,37.12557420262155,37.28754683444439,149.97473993349297,133.61898761070347,9.71794142969884e-05,0.10130325704813,0,0,0
12327,472662.5490420182,2011-01-08 21:56:37,3781.876136967519,2,49,0.5501165986061096,4.184112071990967,37.13016084631819,37.28754683444439,149.99392281564258,133.61898761070347,9.70840483205393e-05,0.10130325704813,0,0,0
12328,472692.56418192224,2011-01-08 21:57:07,3811.891276871588,2,49,0.5501165986061096,4.188159465789795,37.13474747452553,37.28754683444439,150.0131229028857,133.61898761070347,0.0001295089750783,0.10130325704813,0,0,0
12329,472722.5793205029,2011-01-08 21:57:37,3841.9064154523594,2,49,0.5501165986061096,4.192044734954834,37.1393341223007,37.28754683444439,150.0323405636553,133.61898761070347,0.0001619339018361,0.10130325704813,0,0,0
12330,472752.59448285314,2011-01-08 21:58:07,3871.921577827431,2,49,0.5499359965324402,4.195605754852295,37.14392018794864,37.28754683444439,150.05157328176344,133.61898761070347,9.70840483205393e-05,0.10130325704813,0,0,0
12331,472782.60960213566,2011-01-08 21:58:37,3901.936697110106,2,49,0.5501165986061096,4.199653148651123,37.14850599505821,37.28754683444439,150.07082257079097,133.61898761070347,0.0001619339018361,0.10130325704813,0,0,0
12332,472785.6720557775,2011-01-08 21:58:40,3904.999150756887,2,49,0.5501165986061096,4.200138568878174,37.14897388355401,37.28754683444439,150.07278757311147,133.61898761070347,0.0001618385285837,0.10130325704813,0,0,0
12333,472815.67335176974,2011-01-08 21:59:11,30.015294644729945,3,49,0.0,4.102198123931885,37.14897388355401,37.28754683444439,150.07278757311147,133.61898761070347,-0.0004856109735555,0.10130325704813,0,0,0
12334,472845.6883548228,2011-01-08 21:59:41,60.03029767767359,3,49,0.0,4.089894771575928,37.14897388355401,37.28754683444439,150.07278757311147,133.61898761070347,-0.0002913475036621,0.10130325704813,0,0,0
12335,472875.7036212169,2011-01-08 22:00:11,90.04556411209475,3,49,0.0,4.0822858810424805,37.14897388355401,37.28754683444439,150.07278757311147,133.61898761070347,-0.0001942634553415,0.10130325704813,0,0,0
12336,472905.671869212,2011-01-08 22:00:41,120.01381208203522,3,49,0.0,4.077267646789551,37.14897388355401,37.28754683444439,150.07278757311147,133.61898761070347,-9.70840483205393e-05,0.10130325704813,0,0,0
12337,472905.6753080757,2011-01-08 22:00:41,2.541333786e-06,4,49,1.0395677089691162,4.199976921081543,37.14897388428786,37.28754683444439,150.07278757619366,133.61898761070347,0.0,0.10130325704813,0,0,0
12338,472906.0348328069,2011-01-08 22:00:41,0.359527302662019,4,49,0.9889971613883972,4.199814796447754,37.14907407099802,37.28754683444439,150.07320833651357,133.61898761070347,-3.24249267578125e-05,0.10130325704813,0,0,0
12339,472907.5661773186,2011-01-08 22:00:43,1.890871809355625,4,49,0.9380653500556946,4.199653148651123,37.14948290562828,37.28754683444439,150.07492534243215,133.61898761070347,-6.47544875391759e-05,0.10130325704813,0,0,0
12340,472910.06598598097,2011-01-08 22:00:45,4.390680476726612,4,49,0.8878559470176697,4.199653148651123,37.150115909780176,37.28754683444439,150.07758382162316,133.61898761070347,-3.23295607813634e-05,0.10130325704813,0,0,0
12341,472913.5503039384,2011-01-08 22:00:49,7.874998429161911,4,49,0.8376466035842896,4.199814796447754,37.15094987501179,37.28754683444439,150.08108629534286,133.61898761070347,3.23295607813634e-05,0.10130325704813,0,0,0
12342,472918.2064968088,2011-01-08 22:00:53,12.531191299469446,4,49,0.7876178026199341,4.199814796447754,37.15199972058467,37.28754683444439,150.08549542445255,133.61898761070347,0.0,0.10130325704813,0,0,0
12343,472924.2532532363,2011-01-08 22:00:59,18.577947732039856,4,49,0.737408459186554,4.199814796447754,37.15327886216173,37.28754683444439,150.09086757330272,133.61898761070347,-3.24249267578125e-05,0.10130325704813,0,0,0
12344,472932.1125075664,2011-01-08 22:01:07,26.43720206206237,4,49,0.6873796582221985,4.199814796447754,37.1548316281843,37.28754683444439,150.09738890562284,133.61898761070347,0.0,0.10130325704813,0,0,0
12345,472942.61233754834,2011-01-08 22:01:18,36.93703204409452,4,49,0.6371703147888184,4.199653148651123,37.15676003497898,37.28754683444439,150.1054878607087,133.61898761070347,0.0,0.10130325704813,0,0,0
12346,472957.8464739537,2011-01-08 22:01:33,52.171168444430734,4,49,0.5871415138244629,4.199653148651123,37.15934452751092,37.28754683444439,150.11634224028214,133.61898761070347,-3.23295607813634e-05,0.10130325704813,0,0,0
12347,472982.1898570747,2011-01-08 22:01:57,76.51455159050248,4,49,0.536932110786438,4.199814796447754,37.1631317311739,37.28754683444439,150.13224776343628,133.61898761070347,0.0,0.10130325704813,0,0,0
12348,473027.8608220821,2011-01-08 22:02:43,122.1855165578056,4,49,0.4869033694267273,4.199814796447754,37.16959400577118,37.28754683444439,150.1593880979724,133.61898761070347,0.0,0.10130325704813,0,0,0
12349,473111.0626027852,2011-01-08 22:04:06,205.38729726086555,4,49,0.4368745982646942,4.199814796447754,37.18022791748857,37.28754683444439,150.20404854234542,133.61898761070347,-3.24249267578125e-05,0.10130325704813,0,0,0
12350,473228.92009104975,2011-01-08 22:06:04,323.24478553548846,4,49,0.3868458271026611,4.199814796447754,37.19369186262084,37.28754683444439,150.26059457243267,133.61898761070347,3.23295607813634e-05,0.10130325704813,0,0,0
12351,473372.761746479,2011-01-08 22:08:28,467.0864409948642,4,49,0.336817055940628,4.199653148651123,37.20813864313588,37.28754683444439,150.32126839809095,133.61898761070347,0.0,0.10130325704813,0,0,0
12352,473546.8368221142,2011-01-08 22:11:22,641.1615165847959,4,49,0.2867882847785949,4.199814796447754,37.2232012268364,37.28754683444439,150.38452836134238,133.61898761070347,0.0,0.10130325704813,0,0,0
12353,473757.8802564991,2011-01-08 22:14:53,852.204950974737,4,49,0.2367595136165619,4.199653148651123,37.23851464270527,37.28754683444439,150.44884180173523,133.61898761070347,-6.47544875391759e-05,0.10130325704813,0,0,0
12354,474026.0324355526,2011-01-08 22:19:21,1120.3571300433389,4,49,0.1865501403808593,4.199814796447754,37.25422735549171,37.28754683444439,150.5148322379325,133.61898761070347,-3.24249267578125e-05,0.10130325704813,0,0,0
12355,474398.1979942273,2011-01-08 22:25:33,1492.5226887029985,4,49,0.1363407671451568,4.199653148651123,37.27080829373964,37.28754683444439,150.5844690787438,133.61898761070347,-3.23295607813634e-05,0.10130325704813,0,0,0
12356,474993.938332124,2011-01-08 22:35:29,2088.263026604769,4,49,0.0863119885325431,4.199814796447754,37.28891439762087,37.28754683444439,150.66051130716477,133.61898761070347,0.0,0.10130325704813,0,0,0
12357,475831.4090932692,2011-01-08 22:49:26,2925.7337877398286,4,49,0.0498289167881011,4.199653148651123,37.304356584320544,37.28754683444439,150.72536560505753,133.61898761070347,-3.23295607813634e-05,0.10130325704813,0,0,0
12358,475861.4283638927,2011-01-08 22:49:57,30.0151181498504,5,49,0.0,4.190749645233154,37.304356584320544,37.28754683444439,150.72536560505753,133.61898761070347,-6.47544875391759e-05,0.10130325704813,0,0,0
12359,475891.4279148292,2011-01-08 22:50:27,60.01466911147784,5,49,0.0,4.189454555511475,37.304356584320544,37.28754683444439,150.72536560505753,133.61898761070347,-3.23295607813634e-05,0.10130325704813,0,0,0
12360,475891.60503692005,2011-01-08 22:50:27,0.187658733304544,6,49,-1.9243103452026844e-05,4.189130783081055,37.304356584320544,37.287546835447486,150.72536560505753,133.61898761490556,0.0,0.1022060960531234,0,0,0
12361,475896.4351540331,2011-01-08 22:50:32,5.017775946589962,6,49,0.0007031940040178,4.189130783081055,37.30435745150282,37.28754683561379,150.72536923801616,133.61898761560224,-6.47544875391759e-05,0.1022060960531234,0,0,0
12362,475924.5158046978,2011-01-08 22:51:00,28.093305361053705,7,49,-1.0997490882873535,3.989039897918701,37.30435745150282,37.29612825957933,150.72536923801616,133.65343828353946,-0.001230287598446,0.1022060960531234,0,0,0
12363,475954.5309682658,2011-01-08 22:51:30,58.10846895917518,7,49,-1.0997490882873535,3.95099663734436,37.30435745150282,37.305296557417385,150.72536923801616,133.68982680515813,-0.0008418083307333,0.1022060960531234,0,0,0
12364,475984.546084556,2011-01-08 22:52:00,88.12358524437829,7,49,-1.099568486213684,3.923799753189087,37.30435745150282,37.314464858451295,150.72536923801616,133.72591946532262,-0.0006475448608398,0.1022060960531234,0,0,0
12365,476014.56123459537,2011-01-08 22:52:30,118.1387352686696,7,49,-1.0997490882873535,3.902431011199951,37.30435745150282,37.3236331531515,150.72536923801616,133.76179265082558,-0.0005180359003134,0.1022060960531234,0,0,0
12366,476044.5763417629,2011-01-08 22:53:00,148.15384242612356,7,49,-1.0993878841400146,3.8847854137420654,37.30435745150282,37.33280143168633,150.72536923801616,133.79748760949363,-0.0004209041653666,0.1022060960531234,0,0,0
12367,476074.5914952709,2011-01-08 22:53:30,178.16899594412226,7,49,-1.0997490882873535,3.869082450866699,37.30435745150282,37.341969669736905,150.72536923801616,133.83302964551444,-0.0003885269106831,0.1022060960531234,0,0,0
12368,476104.6067401315,2011-01-08 22:54:00,208.184240804775,7,49,-1.0997490882873535,3.8545126914978023,37.30435745150282,37.35113796028055,150.72536923801616,133.86843478163732,-0.0003885269106831,0.1022060960531234,0,0,0
12369,476134.621753029,2011-01-08 22:54:30,238.19925372736668,7,49,-1.0997490882873535,3.841238021850586,37.30435745150282,37.36030620383844,150.72536923801616,133.90371236403502,-0.0003561496851034,0.1022060960531234,0,0,0
12370,476164.6369026624,2011-01-08 22:55:00,268.2144033306086,7,49,-1.099568486213684,3.828449249267578,37.30435745150282,37.36947447575244,150.72536923801616,133.9388705308884,-0.0003561496851034,0.1022060960531234,0,0,0
12371,476194.6520486566,2011-01-08 22:55:30,298.2295493198433,7,49,-1.099568486213684,3.816469669342041,37.30435745150282,37.37864273876042,150.72536923801616,133.97391520361862,-0.0002913951757363,0.1022060960531234,0,0,0
12372,476224.6674621425,2011-01-08 22:56:00,328.244962825812,7,49,-1.0993878841400146,3.804813861846924,37.30435745150282,37.38781104895443,150.72536923801616,134.0088509652642,-0.0002590179501567,0.1022060960531234,0,0,0
12373,476254.6822605254,2011-01-08 22:56:30,358.2597612187297,7,49,-1.099929690361023,3.7934818267822266,37.30435745150282,37.3969792232876,150.72536923801616,134.0436817325402,-0.0002590179501567,0.1022060960531234,0,0,0
12374,476284.6974408452,2011-01-08 22:57:00,388.2749415385268,7,49,-1.0997490882873535,3.782797336578369,37.30435745150282,37.406147514526005,150.72536923801616,134.07841260010903,-0.0002913951757363,0.1022060960531234,0,0,0
12375,476314.71259096975,2011-01-08 22:57:30,418.2900916380055,7,49,-1.099568486213684,3.772436618804932,37.30435745150282,37.41531577632098,150.72536923801616,134.11304678657223,-0.0002590179501567,0.1022060960531234,0,0,0
12376,476344.7278772837,2011-01-08 22:58:00,448.3053779770351,7,49,-1.0997490882873535,3.762399673461914,37.30435745150282,37.42448411987284,150.72536923801616,134.14758792204793,-0.0002913951757363,0.1022060960531234,0,0,0
12377,476374.7428110741,2011-01-08 22:58:30,478.3203117473549,7,49,-1.099568486213684,3.7525248527526855,37.30435745150282,37.4336523397264,150.72536923801616,134.18203784849462,-0.0002913475036621,0.1022060960531234,0,0,0
12378,476404.75799502287,2011-01-08 22:59:00,508.3354956961968,7,49,-1.0997490882873535,3.7432973384857178,37.30435745150282,37.44282059456091,150.72536923801616,134.2163999635179,-0.0002590179501567,0.1022060960531234,0,0,0
12379,476434.77315560856,2011-01-08 22:59:30,538.350656311885,7,49,-1.099568486213684,3.73423171043396,37.30435745150282,37.451988905421885,150.72536923801616,134.25067730511077,-0.0002266406954731,0.1022060960531234,0,0,0
12380,476464.7882657384,2011-01-08 23:00:00,568.3657664116721,7,49,-1.099568486213684,3.725166082382202,37.30435745150282,37.46115717329508,150.72536923801616,134.28487216294863,-0.0002590179501567,0.1022060960531234,0,0,0
12381,476494.8033034077,2011-01-08 23:00:30,598.3808040759277,7,49,-1.0997490882873535,3.716586112976074,37.30435745150282,37.47032541929383,150.72536923801616,134.3189870034447,-0.0003237724304199,0.1022060960531234,0,0,0
12382,476524.8185166896,2011-01-08 23:01:00,628.3960173779265,7,49,-1.0997490882873535,3.7080061435699454,37.30435745150282,37.47949374011716,150.72536923801616,134.35302312463665,-0.0002266406954731,0.1022060960531234,0,0,0
12383,476554.83366291947,2011-01-08 23:01:30,658.411163607761,7,49,-1.0997490882873535,3.6997499465942383,37.30435745150282,37.488662149237946,150.72536923801616,134.38698296704,-0.0002266406954731,0.1022060960531234,0,0,0
12384,476584.84892012086,2011-01-08 23:02:00,688.4264208141831,7,49,-1.0997490882873535,3.69181752204895,37.30435745150282,37.49783053409799,150.72536923801616,134.42086758162705,-0.0002266406954731,0.1022060960531234,0,0,0
12385,476614.8639249633,2011-01-08 23:02:30,718.4414256516241,7,49,-1.0997490882873535,3.683561325073242,37.30435745150282,37.50699878235751,150.72536923801616,134.45467751951708,-0.0002266406954731,0.1022060960531234,0,0,0
12386,476644.87908243615,2011-01-08 23:03:00,748.4565831244795,7,49,-1.0997490882873535,3.675952672958374,37.30435745150282,37.51616710664915,150.72536923801616,134.48841598944864,-0.0002266406954731,0.1022060960531234,0,0,0
12387,476674.8944530452,2011-01-08 23:03:30,778.4719537184984,7,49,-1.0997490882873535,3.668506145477295,37.30435745150282,37.52533553881244,150.72536923801616,134.52208460278496,-0.0001942634553415,0.1022060960531234,0,0,0
12388,476704.9093466704,2011-01-08 23:04:00,808.4868473337395,7,49,-1.099568486213684,3.6610593795776367,37.30435745150282,37.53450378665576,150.72536923801616,134.55568409129717,-0.0001942634553415,0.1022060960531234,0,0,0
12389,476734.924486374,2011-01-08 23:04:30,838.5019870373084,7,49,-1.099929690361023,3.6536126136779785,37.30435745150282,37.54367216894224,150.72536923801616,134.58921673579073,-0.0002590179501567,0.1022060960531234,0,0,0
12390,476764.93961898494,2011-01-08 23:05:00,868.5171196782751,7,49,-1.099568486213684,3.6463277339935294,37.30435745150282,37.55284063395101,150.72536923801616,134.62268320440413,-0.0002590179501567,0.1022060960531234,0,0,0
12391,476794.9570295081,2011-01-08 23:05:30,898.5345303718499,7,49,-1.0997490882873535,3.639366626739502,37.30435745150282,37.56200964516079,150.72536923801616,134.65608602400286,-0.0002266406954731,0.1022060960531234,0,0,0
12392,476824.9699047379,2011-01-08 23:06:00,928.547405406166,7,49,-1.0993878841400146,3.6327292919158936,37.30435745150282,37.571177294387645,150.72536923801616,134.68941977108835,-0.0001618862152099,0.1022060960531234,0,0,0
12393,476854.9850538148,2011-01-08 23:06:30,958.5625545131712,7,49,-1.099929690361023,3.6256062984466553,37.30435745150282,37.58034565787464,150.72536923801616,134.72269313009966,-0.0001942634553415,0.1022060960531234,0,0,0
12394,476885.0002045208,2011-01-08 23:07:00,988.5777052141492,7,49,-1.099568486213684,3.619130849838257,37.30435745150282,37.58951396847147,150.72536923801616,134.75590439525743,-0.0001942634553415,0.1022060960531234,0,0,0
12395,476915.0153250215,2011-01-08 23:07:30,1018.5928257148586,7,49,-1.0997490882873535,3.6126554012298575,37.30435745150282,37.59868231556474,150.72536923801616,134.78905582846312,-0.0001618862152099,0.1022060960531234,0,0,0
12396,476945.0304399483,2011-01-08 23:08:00,1048.607940641676,7,49,-1.0997490882873535,3.60634183883667,37.30435745150282,37.60785067720386,150.72536923801616,134.82214862562034,-0.0001618862152099,0.1022060960531234,0,0,0
12397,476975.04558765184,2011-01-08 23:08:30,1078.623088320121,7,49,-1.0997490882873535,3.600028276443481,37.30435745150282,37.61701907378555,150.72536923801616,134.8551844037101,-0.0001942634553415,0.1022060960531234,0,0,0
12398,477005.0607318867,2011-01-08 23:09:00,1108.6382325499708,7,49,-1.0997490882873535,3.594200372695923,37.30435745150282,37.62618747606289,150.72536923801616,134.88816404754792,-9.713172767078504e-05,0.1022060960531234,0,0,0
12399,477035.07590794086,2011-01-08 23:09:31,1138.653408609149,7,49,-1.0997490882873535,3.5882108211517334,37.30435745150282,37.63535587346284,150.72536923801616,134.92108907421425,-0.0001618862152099,0.1022060960531234,0,0,0
12400,477065.0910348676,2011-01-08 23:10:01,1168.668535565949,7,49,-1.099568486213684,3.582382917404175,37.30435745150282,37.644524335580016,150.72536923801616,134.95396079859512,-0.0001295089750783,0.1022060960531234,0,0,0
12401,477095.1060295949,2011-01-08 23:10:31,1198.6835302731422,7,49,-1.099568486213684,3.576716899871826,37.30435745150282,37.65369271206172,150.72536923801616,134.98677980162526,-0.0001618862152099,0.1022060960531234,0,0,0
12402,477125.1212546411,2011-01-08 23:11:01,1228.6987553093863,7,49,-1.0997490882873535,3.5712127685546875,37.30435745150282,37.66286112365688,150.72536923801616,135.01954795546325,-0.0001618862152099,0.1022060960531234,0,0,0
12403,477155.1364566248,2011-01-08 23:11:31,1258.7139573182394,7,49,-1.099568486213684,3.565870523452759,37.30435745150282,37.67202949591522,150.72536923801616,135.0522664747822,-0.0001618862152099,0.1022060960531234,0,0,0
12404,477185.1516979166,2011-01-08 23:12:01,1288.7291986250343,7,49,-1.099568486213684,3.56101393699646,37.30435745150282,37.68119788002495,150.72536923801616,135.0849372232431,-6.47544875391759e-05,0.1022060960531234,0,0,0
12405,477215.1667036363,2011-01-08 23:12:31,1318.744204299562,7,49,-1.0993878841400146,3.555833578109741,37.30435745150282,37.69036619018416,150.72536923801616,135.11756125450745,-0.0001295089750783,0.1022060960531234,0,0,0
12406,477245.1818462972,2011-01-08 23:13:01,1348.759346995589,7,49,-1.099568486213684,3.5509769916534424,37.30435745150282,37.699534581674136,150.72536923801616,135.15013979938172,-9.713172767078504e-05,0.1022060960531234,0,0,0
12407,477275.19698408106,2011-01-08 23:13:31,1378.7744847693482,7,49,-1.0997490882873535,3.546120405197144,37.30435745150282,37.70870288946923,150.72536923801616,135.1826739322741,-9.713172767078504e-05,0.1022060960531234,0,0,0
12408,477305.2122289617,2011-01-08 23:14:01,1408.789729650051,7,49,-1.0997490882873535,3.5412638187408447,37.30435745150282,37.717871053839474,150.72536923801616,135.2151639683094,-0.0001618862152099,0.1022060960531234,0,0,0
12409,477335.2272863,2011-01-08 23:14:31,1438.8047869733027,7,49,-1.0997490882873535,3.536731004714966,37.30435745150282,37.7270392947593,150.72536923801616,135.2476115173129,-9.713172767078504e-05,0.1022060960531234,0,0,0
12410,477365.24242869526,2011-01-08 23:15:01,1468.819929373593,7,49,-1.0997490882873535,3.532198190689087,37.30435745150282,37.73620777991262,150.72536923801616,135.2800175380163,-0.0001295089750783,0.1022060960531234,0,0,0
12411,477395.2575622635,2011-01-08 23:15:31,1498.835062926833,7,49,-1.0993878841400146,3.527827262878418,37.30435745150282,37.74537624471347,150.72536923801616,135.3123827331973,-9.713172767078504e-05,0.1022060960531234,0,0,0
12412,477425.2727553602,2011-01-08 23:16:01,1528.850256063574,7,49,-1.099568486213684,3.523294448852539,37.30435745150282,37.75454482790579,150.72536923801616,135.3447074680394,-0.0001618862152099,0.1022060960531234,0,0,0
12413,477455.2878024629,2011-01-08 23:16:31,1558.8653031513156,7,49,-1.0997490882873535,3.51892352104187,37.30435745150282,37.76371396780704,150.72536923801616,135.3769938274191,-0.0001618862152099,0.1022060960531234,0,0,0
12414,477485.3029144124,2011-01-08 23:17:01,1588.880415105725,7,49,-1.0997490882873535,3.514714479446411,37.30435745150282,37.77288307107991,150.72536923801616,135.40924007335656,-0.0001295089750783,0.1022060960531234,0,0,0
12415,477515.3202140943,2011-01-08 23:17:31,1618.8977147675746,7,49,-1.0997490882873535,3.5103437900543213,37.30435745150282,37.78205283937172,150.72536923801616,135.44144877676948,-9.713172767078504e-05,0.1022060960531234,0,0,0
12416,477545.3333551466,2011-01-08 23:18:01,1648.9108558499645,7,49,-1.099929690361023,3.5059728622436523,37.30435745150282,37.79122141988192,150.72536923801616,135.47361370418795,-0.0001295089750783,0.1022060960531234,0,0,0
12417,477575.348362395,2011-01-08 23:18:31,1678.9258630583147,7,49,-1.0997490882873535,3.5016019344329834,37.30435745150282,37.80039057385245,150.72536923801616,135.5057404140363,-0.0001295089750783,0.1022060960531234,0,0,0
12418,477605.36369205714,2011-01-08 23:19:01,1708.9411927303431,7,49,-1.099929690361023,3.4970691204071045,37.30435745150282,37.8095597887898,150.72536923801616,135.537826681983,-0.0001295089750783,0.1022060960531234,0,0,0
12419,477635.3788633343,2011-01-08 23:19:31,1738.956364042691,7,49,-1.0997490882873535,3.4926981925964355,37.30435745150282,37.81872816923875,150.72536923801616,135.56986960805926,-9.713172767078504e-05,0.1022060960531234,0,0,0
12420,477665.3937925383,2011-01-08 23:20:01,1768.9712932115426,7,49,-1.099568486213684,3.4880034923553467,37.30435745150282,37.82789651936663,150.72536923801616,135.60187073456345,-9.713172767078504e-05,0.1022060960531234,0,0,0
12421,477695.4089239511,2011-01-08 23:20:31,1798.9864246244483,7,49,-1.099568486213684,3.483470678329468,37.30435745150282,37.83706488034402,150.72536923801616,135.633829717825,-9.713172767078504e-05,0.1022060960531234,0,0,0
12422,477725.42404299823,2011-01-08 23:21:01,1829.0015436915853,7,49,-1.099568486213684,3.478614091873169,37.30435745150282,37.84623330698052,150.72536923801616,135.66574505851324,-0.0001618862152099,0.1022060960531234,0,0,0
12423,477755.4391933283,2011-01-08 23:21:31,1859.0166939915632,7,49,-1.0997490882873535,3.47359561920166,37.30435745150282,37.85540172438414,150.72536923801616,135.69761544938342,-0.0001618862152099,0.1022060960531234,0,0,0
12424,477785.4543173026,2011-01-08 23:22:01,1889.0318179659305,7,49,-1.099568486213684,3.4684152603149414,37.30435745150282,37.864570004846826,150.72536923801616,135.72943817928532,-0.0001295089750783,0.1022060960531234,0,0,0
12425,477815.4694578382,2011-01-08 23:22:31,1919.046958531648,7,49,-1.099568486213684,3.4627492427825928,37.30435745150282,37.87373833771467,150.72536923801616,135.761211627617,-9.713172767078504e-05,0.1022060960531234,0,0,0
12426,477845.48462044896,2011-01-08 23:23:01,1949.0621212124831,7,49,-1.099568486213684,3.456759452819824,37.30435745150282,37.882906677584806,150.72536923801616,135.7929317818494,-0.0001942634553415,0.1022060960531234,0,0,0
12427,477875.49974150606,2011-01-08 23:23:31,1979.0772421743425,7,49,-1.099568486213684,3.4506077766418457,37.30435745150282,37.89207503287306,150.72536923801616,135.8245967882025,-0.0002266406954731,0.1022060960531234,0,0,0
12428,477905.5148923223,2011-01-08 23:24:01,2009.0923930156696,7,49,-1.0993878841400146,3.4439704418182373,37.30435745150282,37.90124342250327,150.72536923801616,135.85620189083562,-0.0001618862152099,0.1022060960531234,0,0,0
12429,477935.5299987329,2011-01-08 23:24:31,2039.1074994062128,7,49,-1.099929690361023,3.436361789703369,37.30435745150282,37.910411736733735,150.72536923801616,135.88774156000125,-0.0001618862152099,0.1022060960531234,0,0,0
12430,477965.5451411984,2011-01-08 23:25:01,2069.1226418716647,7,49,-1.099568486213684,3.42810583114624,37.30435745150282,37.919580113509824,150.72536923801616,135.9192093163587,-0.0001942634553415,0.1022060960531234,0,0,0
12431,477995.5602846914,2011-01-08 23:25:31,2099.137785354653,7,49,-1.0997490882873535,3.4185545444488525,37.30435745150282,37.92874852709148,150.72536923801616,135.95059563675758,-0.0002590179501567,0.1022060960531234,0,0,0
12432,478025.5756645635,2011-01-08 23:26:01,2129.1531652368208,7,49,-1.099568486213684,3.407546281814575,37.30435745150282,37.93791700301104,150.72536923801616,135.98188869795086,-0.0002913951757363,0.1022060960531234,0,0,0
12433,478055.59055134165,2011-01-08 23:26:31,2159.168052035072,7,49,-1.099568486213684,3.3944334983825684,37.30435745150282,37.94708527851757,150.72536923801616,136.01307187091965,-0.0003885269106831,0.1022060960531234,0,0,0
12434,478085.6058253601,2011-01-08 23:27:01,2189.1833260433696,7,49,-1.099568486213684,3.379054307937622,37.30435745150282,37.95625369644136,150.72536923801616,136.0441250814665,-0.0003885269106831,0.1022060960531234,0,0,0
12435,478115.6208506133,2011-01-08 23:27:31,2219.1983513067185,7,49,-1.099568486213684,3.3599517345428467,37.30435745150282,37.96542202804756,150.72536923801616,136.0750201100661,-0.0005504131549969,0.1022060960531234,0,0,0
12436,478145.6362360444,2011-01-08 23:28:01,2249.2137367276905,7,49,-1.099568486213684,3.3366403579711914,37.30435745150282,37.97459051784213,150.72536923801616,136.10572237674376,-0.0006799221155233,0.1022060960531234,0,0,0
12437,478175.6511099405,2011-01-08 23:28:31,2279.2286106338106,7,49,-1.0997490882873535,3.307015180587769,37.30435745150282,37.98375883027239,150.72536923801616,136.13618351829362,-0.0009065627818927,0.1022060960531234,0,0,0
12438,478205.6663690516,2011-01-08 23:29:01,2309.2438697600173,7,49,-1.099568486213684,3.269134044647217,37.30435745150282,37.99292721022845,150.72536923801616,136.1663379668008,-0.0011331557761877,0.1022060960531234,0,0,0
12439,478235.68140618457,2011-01-08 23:29:31,2339.258906872899,7,49,-1.099568486213684,3.219273090362549,37.30435745150282,38.00209550941542,150.72536923801616,136.1960915791956,-0.0014569759368896,0.1022060960531234,0,0,0
12440,478265.6967636008,2011-01-08 23:30:01,2369.2742643041115,7,49,-1.099568486213684,3.1514430046081543,37.30435745150282,38.01126399587315,150.72536923801616,136.2253117845739,-0.0020721436012536,0.1022060960531234,0,0,0
12441,478295.7116698274,2011-01-08 23:30:31,2399.289170490684,7,49,-1.099929690361023,3.0552828311920166,37.30435745150282,38.020432314756405,150.72536923801616,136.25379184722252,-0.0030110836960375,0.1022060960531234,0,0,0
12442,478325.7269508081,2011-01-08 23:31:01,2429.3044515014344,7,49,-1.0993878841400146,2.9081287384033203,37.30435745150282,38.02960077377472,150.72536923801616,136.28117994450653,-0.0047270776703953,0.1022060960531234,0,0,0
12443,478353.77320818114,2011-01-08 23:31:29,2457.3507088443507,7,49,-1.099929690361023,2.707876205444336,37.30435745150282,38.03816778234287,150.72536923801616,136.3052711810209,-0.0062163830734789,0.1022060960531234,0,0,0
12444,478354.8356928448,2011-01-08 23:31:30,2458.413193508051,7,49,-1.099568486213684,2.699943780899048,37.30435745150282,38.03849232817152,150.72536923801616,136.30614871678057,-0.0061840056441724,0.1022060960531234,0,0,0
12445,478414.84635893744,2011-01-08 23:32:30,60.0124005675684,8,49,0.0,3.5425589084625244,37.30435745150282,38.03849232817152,150.72536923801616,136.30614871678057,0.0012627125252038,0.1022060960531234,0,0,0
12446,478415.0488050702,2011-01-08 23:32:31,0.187633705928622,9,49,-1.9243103452026844e-05,3.5430445671081543,37.30435745150282,38.03849232917448,150.72536923801616,136.3061487203341,0.0,0.10130325704813,0,0,0
12447,478419.876701614,2011-01-08 23:32:36,5.015530254634627,9,49,0.0008838032954372,3.5509769916534424,37.3043582923425,38.03849232935268,150.7253722210136,136.30614872096544,0.0011332035064697,0.10130325704813,0,0,0
