Data_Point,Test_Time(s),Date_Time,Step_Time(s),Step_Index,Cycle_Index,Current(A),Voltage(V),Charge_Capacity(Ah),Discharge_Capacity(Ah),Charge_Energy(Wh),Discharge_Energy(Wh),dV/dt(V/s),Internal_Resistance(Ohm),Is_FC_Data,AC_Impedance(Ohm),ACI_Phase_Angle(Deg)
1267,45942.00216497175,2011-01-03 23:23:43,30.01522876052623,1,6,0.0,3.486384630203247,3.460861442947347,4.27032267791726,13.904033692907367,15.478217846872852,0.0008418083307333,0.096440702676773,0,0,0
1268,45972.01953469321,2011-01-03 23:24:13,60.03259840178599,1,6,0.0,3.5134193897247314,3.460861442947347,4.27032267791726,13.904033692907367,15.478217846872852,0.0006474971887655,0.096440702676773,0,0,0
1269,46002.03261212697,2011-01-03 23:24:43,90.04567584556895,1,6,0.0,3.5334932804107666,3.460861442947347,4.27032267791726,13.904033692907367,15.478217846872852,0.0004856586456298,0.096440702676773,0,0,0
1270,46032.00095973022,2011-01-03 23:25:13,120.0140234538388,1,6,0.0,3.5495200157165527,3.460861442947347,4.27032267791726,13.904033692907367,15.478217846872852,0.0004209041653666,0.096440702676773,0,0,0
1271,46062.01745664362,2011-01-03 23:25:43,30.017436803649097,2,6,0.5501165986061096,3.688579797744751,3.46544836423042,4.27032267791726,13.920823709116553,15.478217846872852,0.0012627125252038,0.096440702676773,0,0,0
1272,46092.03060712945,2011-01-03 23:26:13,60.03058718922545,2,6,0.5499359965324402,3.723709106445313,3.470034566822155,4.27032267791726,13.937826733627135,15.478217846872852,0.0007770538213662,0.096440702676773,0,0,0
1273,46122.04619811776,2011-01-03 23:26:43,90.04617817252229,2,6,0.5499359965324402,3.7483158111572266,3.474621221057259,4.27032267791726,13.954965864349234,15.478217846872852,0.0005504131549969,0.096440702676773,0,0,0
1274,46152.060897238254,2011-01-03 23:27:13,120.0608772930226,2,6,0.5501165986061096,3.7654755115509033,3.479207667683834,4.27032267791726,13.97219929619246,15.478217846872852,0.0003561496851034,0.096440702676773,0,0,0
1275,46182.07630752621,2011-01-03 23:27:43,150.0762876060335,2,6,0.5501165986061096,3.7768075466156006,3.483794211879864,4.27032267791726,13.98949789816486,15.478217846872852,0.0002266406954731,0.096440702676773,0,0,0
1276,46212.09132986728,2011-01-03 23:28:13,180.09130992203646,2,6,0.5501165986061096,3.784254312515259,3.488380694339921,4.27032267791726,14.006838065227583,15.478217846872852,0.0001618862152099,0.096440702676773,0,0,0
1277,46242.106545956216,2011-01-03 23:28:43,210.1065260109812,2,6,0.550297200679779,3.7902441024780273,3.49296718597305,4.27032267791726,14.024208640840705,15.478217846872852,0.0001295089750783,0.096440702676773,0,0,0
1278,46272.12176842606,2011-01-03 23:29:13,240.12174849085417,2,6,0.5501165986061096,3.795748233795166,3.497553737153121,4.27032267791726,14.041605347137413,15.478217846872852,0.0001618862152099,0.096440702676773,0,0,0
1279,46302.137007286765,2011-01-03 23:29:44,270.1369873665906,2,6,0.5501165986061096,3.800604820251465,3.502140323889881,4.27032267791726,14.059025980709889,15.478217846872852,0.0001295089750783,0.096440702676773,0,0,0
1280,46332.15220499991,2011-01-03 23:30:14,300.15218507472474,2,6,0.5499359965324402,3.805461406707764,3.506726909301025,4.27032267791726,14.07646896684508,15.478217846872852,0.0001295089750783,0.096440702676773,0,0,0
1281,46362.16742113396,2011-01-03 23:30:44,330.1674011887319,2,6,0.5499359965324402,3.8098323345184326,3.511313495202705,4.27032267791726,14.09393331201861,15.478217846872852,9.713172767078504e-05,0.096440702676773,0,0,0
1282,46392.182646731606,2011-01-03 23:31:14,360.18262679640026,2,6,0.5499359965324402,3.814365148544312,3.515900053687231,4.27032267791726,14.111418203296262,15.478217846872852,9.713172767078504e-05,0.096440702676773,0,0,0
1283,46422.19983019887,2011-01-03 23:31:44,390.1998102636571,2,6,0.5501165986061096,3.818736076354981,3.520486824727872,4.27032267791726,14.128923984129724,15.478217846872852,0.0001295089750783,0.096440702676773,0,0,0
1284,46452.21308983172,2011-01-03 23:32:14,420.2130699015238,2,6,0.5501165986061096,3.8227832317352295,3.525073053614591,4.27032267791726,14.146446987845628,15.478217846872852,9.713172767078504e-05,0.096440702676773,0,0,0
1285,46482.228305574805,2011-01-03 23:32:44,450.2282856345816,2,6,0.5501165986061096,3.8268303871154794,3.529659597096617,4.27032267791726,14.163990094356445,15.478217846872852,6.47544875391759e-05,0.096440702676773,0,0,0
1286,46512.24353005967,2011-01-03 23:33:14,480.243510134489,2,6,0.5499359965324402,3.8310394287109375,3.534246096997672,4.27032267791726,14.181551764281558,15.478217846872852,9.713172767078504e-05,0.096440702676773,0,0,0
1287,46542.25909511335,2011-01-03 23:33:44,510.2590752382862,2,6,0.5501165986061096,3.8349244594573975,3.538832686882457,4.27032267791726,14.199132397704073,15.478217846872852,6.47544875391759e-05,0.096440702676773,0,0,0
1288,46572.27415833129,2011-01-03 23:34:14,540.2741383960794,2,6,0.5501165986061096,3.839133501052856,3.543419140845874,4.27032267791726,14.216731113913148,15.478217846872852,0.0001295089750783,0.096440702676773,0,0,0
1289,46602.2891995093,2011-01-03 23:34:44,570.2891795640674,2,6,0.5501165986061096,3.8431806564331055,3.54800565303581,4.27032267791726,14.234348744070152,15.478217846872852,0.0001295089750783,0.096440702676773,0,0,0
1290,46632.30442658062,2011-01-03 23:35:14,600.3044066353837,2,6,0.5501165986061096,3.8472278118133545,3.552592135443087,4.27032267791726,14.251984909687652,15.478217846872852,6.47544875391759e-05,0.096440702676773,0,0,0
1291,46662.31965222337,2011-01-03 23:35:44,630.3196322831518,2,6,0.5501165986061096,3.851274967193604,3.557178607948674,4.27032267791726,14.269639696985156,15.478217846872852,9.713172767078504e-05,0.096440702676773,0,0,0
1292,46692.33487044263,2011-01-03 23:36:14,660.3348504973935,2,6,0.5499359965324402,3.855322122573853,3.561765124906922,4.27032267791726,14.287313129714308,15.478217846872852,9.713172767078504e-05,0.096440702676773,0,0,0
1293,46722.35011813534,2011-01-03 23:36:44,690.350098215167,2,6,0.5501165986061096,3.859207391738892,3.566351692847622,4.27032267791726,14.305005044313374,15.478217846872852,9.713172767078504e-05,0.096440702676773,0,0,0
1294,46752.36531017436,2011-01-03 23:37:14,720.3652902291095,2,6,0.5501165986061096,3.86309266090393,3.570938217505149,4.27032267791726,14.322714755924451,15.478217846872852,6.47544875391759e-05,0.096440702676773,0,0,0
1295,46782.38288766864,2011-01-03 23:37:44,750.3828679138777,2,6,0.5501165986061096,3.8669779300689697,3.575525088151379,4.27032267791726,14.340443363186138,15.478217846872852,9.713172767078504e-05,0.096440702676773,0,0,0
1296,46812.39587238632,2011-01-03 23:38:14,780.3958524611338,2,6,0.5501165986061096,3.870701313018799,3.58011123840096,4.27032267791726,14.35818641196956,15.478217846872852,9.713172767078504e-05,0.096440702676773,0,0,0
1297,46842.41097347365,2011-01-03 23:38:44,810.4109535334218,2,6,0.550297200679779,3.874262809753418,3.584697723938373,4.27032267791726,14.375947383535914,15.478217846872852,9.713172767078504e-05,0.096440702676773,0,0,0
1298,46872.42631224335,2011-01-03 23:39:14,840.426292318162,2,6,0.5499359965324402,3.877500534057617,3.589284301725701,4.27032267791726,14.393724606429744,15.478217846872852,6.47544875391759e-05,0.096440702676773,0,0,0
1299,46902.44143428289,2011-01-03 23:39:44,870.4414143627193,2,6,0.5499359965324402,3.8809001445770255,3.593870866299136,4.27032267791726,14.411517115474911,15.478217846872852,6.47544875391759e-05,0.096440702676773,0,0,0
1300,46932.45664368517,2011-01-03 23:40:14,900.4566237700113,2,6,0.5501165986061096,3.8838140964508057,3.598457425887366,4.27032267791726,14.4293241940522,15.478217846872852,6.47544875391759e-05,0.096440702676773,0,0,0
1301,46962.47196618433,2011-01-03 23:40:44,930.4719462541256,2,6,0.5499359965324402,3.886889934539795,3.603044070316604,4.27032267791726,14.44714541488274,15.478217846872852,9.713172767078504e-05,0.096440702676773,0,0,0
1302,46992.48705917146,2011-01-03 23:41:14,960.4870392262252,2,6,0.5499359965324402,3.889642000198364,3.607630629774693,4.27032267791726,14.464979449851434,15.478217846872852,3.237724376958795e-05,0.096440702676773,0,0,0
1303,47022.50434969553,2011-01-03 23:41:44,990.5043297703508,2,6,0.5501165986061096,3.8923940658569336,3.612217509873587,4.27032267791726,14.482827163189816,15.478217846872852,6.47544875391759e-05,0.096440702676773,0,0,0
1304,47052.51755686764,2011-01-03 23:42:14,1020.5175369224066,2,6,0.550297200679779,3.894822359085083,3.616803774413359,4.27032267791726,14.50068427823932,15.478217846872852,6.47544875391759e-05,0.096440702676773,0,0,0
1305,47082.53288041942,2011-01-03 23:42:44,1050.5328604942315,2,6,0.5501165986061096,3.8970887660980233,3.621390406214055,4.27032267791726,14.518553594740991,15.478217846872852,6.47544875391759e-05,0.096440702676773,0,0,0
1306,47112.54794804334,2011-01-03 23:43:14,1080.5479281081311,2,6,0.550297200679779,3.899517059326172,3.62597692870179,4.27032267791726,14.536433204915957,15.478217846872852,0.0001295089750783,0.096440702676773,0,0,0
1307,47142.56334081763,2011-01-03 23:43:44,1110.5633208924553,2,6,0.5501165986061096,3.901621580123901,3.630563548778852,4.27032267791726,14.55432339500038,15.478217846872852,6.47544875391759e-05,0.096440702676773,0,0,0
1308,47172.57841080746,2011-01-03 23:44:14,1140.5783908672383,2,6,0.550297200679779,3.903726100921631,3.63515013713281,4.27032267791726,14.572223396613571,15.478217846872852,6.47544875391759e-05,0.096440702676773,0,0,0
1309,47202.5936120494,2011-01-03 23:44:44,1170.5935921091798,2,6,0.550297200679779,3.9059925079345694,3.639736783774905,4.27032267791726,14.590133181674355,15.478217846872852,0.0001295089750783,0.096440702676773,0,0,0
1310,47232.608834634535,2011-01-03 23:45:14,1200.608814694315,2,6,0.5501165986061096,3.90777325630188,3.644323385822063,4.27032267791726,14.608052171811885,15.478217846872852,6.47544875391759e-05,0.096440702676773,0,0,0
1311,47262.62408003653,2011-01-03 23:45:44,1230.624060086292,2,6,0.5501165986061096,3.9097158908844,3.648909967945259,4.27032267791726,14.625980302865893,15.478217846872852,0.0,0.096440702676773,0,0,0
1312,47292.639403678535,2011-01-03 23:46:14,1260.6393837333044,2,6,0.550297200679779,3.911820411682129,3.653496669081797,4.27032267791726,14.643917943240403,15.478217846872852,6.47544875391759e-05,0.096440702676773,0,0,0
1313,47322.65449766316,2011-01-03 23:46:44,1290.6544777179276,2,6,0.5499359965324402,3.913762807846069,3.658083233307222,4.27032267791726,14.661864025804684,15.478217846872852,3.23295607813634e-05,0.096440702676773,0,0,0
1314,47352.66987660799,2011-01-03 23:47:14,1320.6698566828095,2,6,0.550297200679779,3.915705442428589,3.662669820345794,4.27032267791726,14.679819120781064,15.478217846872852,6.47544875391759e-05,0.096440702676773,0,0,0
1315,47382.68495482332,2011-01-03 23:47:44,1350.6849348780809,2,6,0.5501165986061096,3.9174861907958975,3.667256355422334,4.27032267791726,14.6977827574395,15.478217846872852,3.237724376958795e-05,0.096440702676773,0,0,0
1316,47412.70043635382,2011-01-03 23:48:14,1380.700416423625,2,6,0.5501165986061096,3.919590711593628,3.671842896155069,4.27032267791726,14.71575522974872,15.478217846872852,6.47544875391759e-05,0.096440702676773,0,0,0
1317,47442.71538399371,2011-01-03 23:48:44,1410.7153640484746,2,6,0.5501165986061096,3.9213714599609375,3.676429445058922,4.27032267791726,14.733736454490746,15.478217846872852,6.47544875391759e-05,0.096440702676773,0,0,0
1318,47472.73072938993,2011-01-03 23:49:14,1440.7307094647429,2,6,0.5501165986061096,3.923314094543457,3.681016055035879,4.27032267791726,14.751726691358746,15.478217846872852,6.47544875391759e-05,0.096440702676773,0,0,0
1319,47502.745357719,2011-01-03 23:49:44,1470.745337773759,2,6,0.550297200679779,3.925256729125977,3.685523830786186,4.27032267791726,14.769416169859666,15.478217846872852,6.47544875391759e-05,0.096440702676773,0,0,0
1320,47532.74565094056,2011-01-03 23:50:14,1500.7456310203893,2,6,0.5499359965324402,3.926875591278076,3.69018682385064,4.27032267791726,14.7877234861345,15.478217846872852,3.237724376958795e-05,0.096440702676773,0,0,0
1321,47562.76079148122,2011-01-03 23:50:44,1530.7607716011444,2,6,0.5501165986061096,3.9289801120758057,3.694773353785327,4.27032267791726,14.80573924169614,15.478217846872852,6.47544875391759e-05,0.096440702676773,0,0,0
1322,47592.77587127046,2011-01-03 23:51:14,1560.7758513202134,2,6,0.5501165986061096,3.9307608604431152,3.699359885082525,4.27032267791726,14.82376370282031,15.478217846872852,3.237724376958795e-05,0.096440702676773,0,0,0
1323,47622.7910301819,2011-01-03 23:51:44,1590.7910102366668,2,6,0.5499359965324402,3.9327034950256343,3.70394635676531,4.27032267791726,14.841796517861251,15.478217846872852,6.47544875391759e-05,0.096440702676773,0,0,0
1324,47652.808256430784,2011-01-03 23:52:14,1620.8082364905613,2,6,0.550297200679779,3.934808015823364,3.708532457375382,4.27032267791726,14.85983641548818,15.478217846872852,9.713172767078504e-05,0.096440702676773,0,0,0
1325,47682.82145517689,2011-01-03 23:52:44,1650.8214352316545,2,6,0.5501165986061096,3.936426877975464,3.713117993570721,4.27032267791726,14.8778826969348,15.478217846872852,3.237724376958795e-05,0.096440702676773,0,0,0
1326,47712.83674918504,2011-01-03 23:53:14,1680.83672926486,2,6,0.5501165986061096,3.938207626342773,3.717703766450701,4.27032267791726,14.895938404791227,15.478217846872852,3.237724376958795e-05,0.096440702676773,0,0,0
1327,47742.852116500886,2011-01-03 23:53:44,1710.8520965756964,2,6,0.5501165986061096,3.940150260925293,3.7222895023289,4.27032267791726,14.914002620936376,15.478217846872852,3.237724376958795e-05,0.096440702676773,0,0,0
1328,47772.8671917037,2011-01-03 23:54:14,1740.8671717584596,2,6,0.5501165986061096,3.942092895507813,3.726875293902107,4.27032267791726,14.932075613287836,15.478217846872852,6.47544875391759e-05,0.096440702676773,0,0,0
1329,47802.88244149162,2011-01-03 23:54:44,1770.8824215714549,2,6,0.5499359965324402,3.943873643875122,3.731461052621454,4.27032267791726,14.950157026215104,15.478217846872852,3.237724376958795e-05,0.096440702676773,0,0,0
1330,47832.897668397534,2011-01-03 23:55:14,1800.8976484522964,2,6,0.5501165986061096,3.9458162784576416,3.736047606840426,4.27032267791726,14.968250250239029,15.478217846872852,3.237724376958795e-05,0.096440702676773,0,0,0
1331,47862.91284763463,2011-01-03 23:55:44,1830.912827689395,2,6,0.5501165986061096,3.947597026824951,3.740634276297207,4.27032267791726,14.986352486716026,15.478217846872852,6.47544875391759e-05,0.096440702676773,0,0,0
1332,47892.9303904926,2011-01-03 23:56:14,1860.930370737839,2,6,0.550297200679779,3.9493777751922607,3.745221276619275,4.27032267791726,15.004464519565987,15.478217846872852,0.0,0.096440702676773,0,0,0
1333,47922.943318980135,2011-01-03 23:56:44,1890.9432990599653,2,6,0.5501165986061096,3.95132040977478,3.749807552725435,4.27032267791726,15.022582277523284,15.478217846872852,3.237724376958795e-05,0.096440702676773,0,0,0
1334,47952.95851749028,2011-01-03 23:57:14,1920.9584975450352,2,6,0.5501165986061096,3.95310115814209,3.754394198158305,4.27032267791726,15.040710002174103,15.478217846872852,3.237724376958795e-05,0.096440702676773,0,0,0
1335,47982.97373918318,2011-01-03 23:57:44,1950.9737192379469,2,6,0.550297200679779,3.9552056789398193,3.75898085748247,4.27032267791726,15.058846316951486,15.478217846872852,9.713172767078504e-05,0.096440702676773,0,0,0
1336,48012.990848746245,2011-01-03 23:58:14,1980.990828806024,2,6,0.5501165986061096,3.956986427307129,3.763567821913984,4.27032267791726,15.076992492732662,15.478217846872852,3.237724376958795e-05,0.096440702676773,0,0,0
1337,48043.00447312817,2011-01-03 23:58:44,2011.004453192958,2,6,0.5501165986061096,3.9587671756744394,3.76815424858825,4.27032267791726,15.095145034898104,15.478217846872852,3.237724376958795e-05,0.096440702676773,0,0,0
1338,48073.01942879306,2011-01-03 23:59:14,2041.0194088578453,2,6,0.5499359965324402,3.960547924041748,3.772740866857023,4.27032267791726,15.113306979421614,15.478217846872852,0.0,0.096440702676773,0,0,0
1339,48103.03464875666,2011-01-03 23:59:44,2071.0346288114224,2,6,0.550297200679779,3.9626524448394775,3.777327582445694,4.27032267791726,15.131477969163084,15.478217846872852,6.47544875391759e-05,0.096440702676773,0,0,0
1340,48133.04988553717,2011-01-04 00:00:14,2101.049865616999,2,6,0.5501165986061096,3.964433193206787,3.781914211149856,4.27032267791726,15.149657235450944,15.478217846872852,0.0,0.096440702676773,0,0,0
1341,48163.065071024845,2011-01-04 00:00:44,2131.0650510796136,2,6,0.5501165986061096,3.966375827789306,3.786500868993134,4.27032267791726,15.167845255922936,15.478217846872852,6.47544875391759e-05,0.096440702676773,0,0,0
1342,48193.08029486811,2011-01-04 00:01:14,2161.0802749278973,2,6,0.550297200679779,3.968318462371826,3.791087578009124,4.27032267791726,15.186042219774007,15.478217846872852,9.713172767078504e-05,0.096440702676773,0,0,0
1343,48223.095515012166,2011-01-04 00:01:44,2191.0954950919986,2,6,0.5501165986061096,3.970099210739136,3.795674206417763,4.27032267791726,15.204247622042429,15.478217846872852,3.237724376958795e-05,0.096440702676773,0,0,0
1344,48253.11271079512,2011-01-04 00:02:15,2221.1126908549,2,6,0.5501165986061096,3.972203731536865,3.800261229849659,4.27032267791726,15.222463466659091,15.478217846872852,6.47544875391759e-05,0.096440702676773,0,0,0
1345,48283.126095334286,2011-01-04 00:02:45,2251.1260754090968,2,6,0.5501165986061096,3.9741463661193848,3.804847614848037,4.27032267791726,15.240685606704709,15.478217846872852,3.237724376958795e-05,0.096440702676773,0,0,0
1346,48313.14119586522,2011-01-04 00:03:15,2281.1411759249977,2,6,0.5501165986061096,3.9759271144866943,3.809434302905924,4.27032267791726,15.258917877814856,15.478217846872852,3.237724376958795e-05,0.096440702676773,0,0,0
1347,48343.15644920701,2011-01-04 00:03:45,2311.156429306888,2,6,0.5499359965324402,3.977707862854004,3.814020966287085,4.27032267791726,15.27715897169946,15.478217846872852,0.0,0.096440702676773,0,0,0
1348,48373.1716486244,2011-01-04 00:04:15,2341.171628674157,2,6,0.5501165986061096,3.979974269866944,3.818607561807987,4.27032267791726,15.295408707779076,15.478217846872852,3.237724376958795e-05,0.096440702676773,0,0,0
1349,48403.18687134488,2011-01-04 00:04:45,2371.1868513996424,2,6,0.5501165986061096,3.982078790664673,3.823194157606631,4.27032267791726,15.313667829159945,15.478217846872852,6.47544875391759e-05,0.096440702676773,0,0,0
1350,48433.202080922594,2011-01-04 00:05:15,2401.202060982372,2,6,0.5499359965324402,3.9838595390319824,3.827780788825451,4.27032267791726,15.331936317733565,15.478217846872852,3.237724376958795e-05,0.096440702676773,0,0,0
1351,48463.21730462551,2011-01-04 00:05:45,2431.21728468028,2,6,0.5501165986061096,3.985964059829712,3.832367390937055,4.27032267791726,15.350213962742158,15.478217846872852,3.237724376958795e-05,0.096440702676773,0,0,0
1352,48493.23275230165,2011-01-04 00:06:15,2461.232732381474,2,6,0.5501165986061096,3.9880685806274414,3.836953999971295,4.27032267791726,15.36850101025361,15.478217846872852,3.237724376958795e-05,0.096440702676773,0,0,0
1353,48523.24800452064,2011-01-04 00:06:45,2491.2479845754037,2,6,0.5499359965324402,3.990173101425171,3.841540622788389,4.27032267791726,15.386797434082856,15.478217846872852,6.47544875391759e-05,0.096440702676773,0,0,0
1354,48553.26306433009,2011-01-04 00:07:15,2521.2630444800884,2,6,0.5499359965324402,3.9921157360076895,3.846127225068964,4.27032267791726,15.405103427589385,15.478217846872852,0.0,0.096440702676773,0,0,0
1355,48583.27820460007,2011-01-04 00:07:45,2551.278184654832,2,6,0.5499359965324402,3.994220018386841,3.850713802549145,4.27032267791726,15.423418964880517,15.478217846872852,3.237724376958795e-05,0.096440702676773,0,0,0
1356,48613.2934440773,2011-01-04 00:08:15,2581.293424132068,2,6,0.5499359965324402,3.9963245391845694,3.855300403417552,4.27032267791726,15.441744329691067,15.478217846872852,3.237724376958795e-05,0.096440702676773,0,0,0
1357,48643.30865621139,2011-01-04 00:08:45,2611.308636271168,2,6,0.5501165986061096,3.9985909461975098,3.859887008828335,4.27032267791726,15.460079607059017,15.478217846872852,3.237724376958795e-05,0.096440702676773,0,0,0
1358,48673.32395134234,2011-01-04 00:09:15,2641.323931492335,2,6,0.550297200679779,4.000857353210449,3.864473600232559,4.27032267791726,15.478424775709971,15.478217846872852,6.47544875391759e-05,0.096440702676773,0,0,0
1359,48703.33911351692,2011-01-04 00:09:45,2671.339093596733,2,6,0.550297200679779,4.003123760223389,3.869060216860374,4.27032267791726,15.496780169066753,15.478217846872852,6.47544875391759e-05,0.096440702676773,0,0,0
1360,48733.35678104559,2011-01-04 00:10:15,2701.3567613008577,2,6,0.5499359965324402,4.005066394805908,3.873647165625195,4.27032267791726,15.515147046567645,15.478217846872852,0.0,0.096440702676773,0,0,0
1361,48763.36957123846,2011-01-04 00:10:45,2731.3695513182856,2,6,0.5501165986061096,4.007494926452637,3.878233648994974,4.27032267791726,15.533522453654095,15.478217846872852,6.47544875391759e-05,0.096440702676773,0,0,0
1362,48793.38475910205,2011-01-04 00:11:15,2761.384739161834,2,6,0.5501165986061096,4.009922981262207,3.882820957398486,4.27032267791726,15.551911564862795,15.478217846872852,9.70840483205393e-05,0.096440702676773,0,0,0
1363,48823.40011335535,2011-01-04 00:11:45,2791.4000934201395,2,6,0.5501165986061096,4.012027740478516,3.887408276061243,4.27032267791726,15.570311204798612,15.478217846872852,6.47544875391759e-05,0.096440702676773,0,0,0
1364,48853.41711680896,2011-01-04 00:12:15,2821.4170968887843,2,6,0.550297200679779,4.014455795288086,3.891995817740832,4.27032267791726,15.588722386363608,15.478217846872852,6.47544875391759e-05,0.096440702676773,0,0,0
1365,48883.43043545389,2011-01-04 00:12:45,2851.430415508652,2,6,0.5501165986061096,4.016722202301025,3.896582480123438,4.27032267791726,15.607140840968148,15.478217846872852,3.23295607813634e-05,0.096440702676773,0,0,0
1366,48913.44566275578,2011-01-04 00:13:15,2881.445642815556,2,6,0.550297200679779,4.019150733947754,3.901169108282417,4.27032267791726,15.625570117828357,15.478217846872852,0.0,0.096440702676773,0,0,0
1367,48943.46088694993,2011-01-04 00:13:45,2911.460867029751,2,6,0.550297200679779,4.021902561187744,3.905755754780496,4.27032267791726,15.644010396820866,15.478217846872852,9.70840483205393e-05,0.096440702676773,0,0,0
1368,48973.47613513887,2011-01-04 00:14:15,2941.476115188624,2,6,0.5501165986061096,4.024007320404053,3.910342312012154,4.27032267791726,15.66246152479784,15.478217846872852,3.24249267578125e-05,0.096440702676773,0,0,0
1369,49003.491330436,2011-01-04 00:14:45,2971.4913105208366,2,6,0.5501165986061096,4.026597499847412,3.914928865721916,4.27032267791726,15.680923875678488,15.478217846872852,9.71794142969884e-05,0.096440702676773,0,0,0
1370,49033.506564690215,2011-01-04 00:15:15,3001.50654474498,2,6,0.550297200679779,4.029187679290772,3.91951536974348,4.27032267791726,15.699397381432805,15.478217846872852,9.71794142969884e-05,0.096440702676773,0,0,0
1371,49063.5217863731,2011-01-04 00:15:45,3031.521766432879,2,6,0.5501165986061096,4.031615734100342,3.92410191499137,4.27032267791726,15.717882431699069,15.478217846872852,3.23295607813634e-05,0.096440702676773,0,0,0
1372,49093.53701089807,2011-01-04 00:16:15,3061.5369909528363,2,6,0.5501165986061096,4.03404426574707,3.928688453951823,4.27032267791726,15.736379112108088,15.478217846872852,6.47544875391759e-05,0.096440702676773,0,0,0
1373,49123.55222185924,2011-01-04 00:16:45,3091.552201939064,2,6,0.550297200679779,4.036633968353272,3.933275063466891,4.27032267791726,15.754887779848588,15.478217846872852,9.70840483205393e-05,0.096440702676773,0,0,0
1374,49153.567448765134,2011-01-04 00:17:15,3121.5674288449677,2,6,0.5501165986061096,4.039224147796631,3.937861652189989,4.27032267791726,15.773408217760409,15.478217846872852,9.70840483205393e-05,0.096440702676773,0,0,0
1375,49183.58281775015,2011-01-04 00:17:45,3151.582797840001,2,6,0.5499359965324402,4.04181432723999,3.94244824448877,4.27032267791726,15.791940475927444,15.478217846872852,3.23295607813634e-05,0.096440702676773,0,0,0
1376,49213.59803173886,2011-01-04 00:18:15,3181.598011828712,2,6,0.5501165986061096,4.04440450668335,3.94703488100142,4.27032267791726,15.810484965753488,15.478217846872852,9.70840483205393e-05,0.096440702676773,0,0,0
1377,49243.61326687528,2011-01-04 00:18:45,3211.6132469450786,2,6,0.5501165986061096,4.047156810760498,3.95162144808882,4.27032267791726,15.829041244093606,15.478217846872852,6.47544875391759e-05,0.096440702676773,0,0,0
1378,49273.62834779233,2011-01-04 00:19:15,3241.6283278420838,2,6,0.5501165986061096,4.049908638000488,3.956208003792873,4.27032267791726,15.847609804792045,15.478217846872852,9.70840483205393e-05,0.096440702676773,0,0,0
1379,49303.64357846763,2011-01-04 00:19:45,3271.6435585223944,2,6,0.5501165986061096,4.052498817443848,3.960794621524647,4.27032267791726,15.866190891275416,15.478217846872852,6.47544875391759e-05,0.096440702676773,0,0,0
1380,49333.65893281616,2011-01-04 00:20:15,3301.658912885962,2,6,0.5501165986061096,4.055251121520996,3.965381183725733,4.27032267791726,15.884784269306294,15.478217846872852,3.24249267578125e-05,0.096440702676773,0,0,0
1381,49363.67428639778,2011-01-04 00:20:45,3331.674266472593,2,6,0.550297200679779,4.058165073394775,3.969967781407172,4.27032267791726,15.90339039545652,15.478217846872852,0.0001295089750783,0.096440702676773,0,0,0
1382,49393.68939906897,2011-01-04 00:21:15,3361.6893791387765,2,6,0.5501165986061096,4.060593128204346,3.974554345983563,4.27032267791726,15.922009042065731,15.478217846872852,3.23295607813634e-05,0.096440702676773,0,0,0
1383,49423.7044655701,2011-01-04 00:21:45,3391.7044456499275,2,6,0.550297200679779,4.063669204711914,3.979140797485365,4.27032267791726,15.94063953104833,15.478217846872852,9.71794142969884e-05,0.096440702676773,0,0,0
1384,49453.72181495587,2011-01-04 00:22:15,3421.7217950457293,2,6,0.5501165986061096,4.066259384155273,3.983727645954917,4.27032267791726,15.959284644174318,15.478217846872852,9.71794142969884e-05,0.096440702676773,0,0,0
1385,49483.73500336622,2011-01-04 00:22:45,3451.73498344605,2,6,0.5499359965324402,4.069011211395264,3.988313877762617,4.27032267791726,15.977940299747676,15.478217846872852,3.23295607813634e-05,0.096440702676773,0,0,0
1386,49513.75013365633,2011-01-04 00:23:15,3481.750113736158,2,6,0.5499359965324402,4.072087287902832,3.992900377741961,4.27032267791726,15.99661022924938,15.478217846872852,6.47544875391759e-05,0.096440702676773,0,0,0
1387,49543.7654196094,2011-01-04 00:23:45,3511.765399684213,2,6,0.5501165986061096,4.074839115142822,3.997486827728109,4.27032267791726,16.01529325854155,15.478217846872852,6.47544875391759e-05,0.096440702676773,0,0,0
1388,49573.780603598345,2011-01-04 00:24:15,3541.780583648092,2,6,0.5501165986061096,4.077915191650391,4.002073319542531,4.27032267791726,16.03399003747595,15.478217846872852,9.71794142969884e-05,0.096440702676773,0,0,0
1389,49603.79596122003,2011-01-04 00:24:45,3571.7959413048675,2,6,0.5501165986061096,4.080990791320801,4.00665998711681,4.27032267791726,16.05270124072133,15.478217846872852,6.47544875391759e-05,0.096440702676773,0,0,0
1390,49633.81104576613,2011-01-04 00:25:15,3601.811025825905,2,6,0.5501165986061096,4.08390474319458,4.01124655368673,4.27032267791726,16.07142567749146,15.478217846872852,6.47544875391759e-05,0.096440702676773,0,0,0
1391,49663.826266476586,2011-01-04 00:25:45,3631.8262465564176,2,6,0.5499359965324402,4.086980819702148,4.01583310821971,4.27032267791726,16.0901639543598,15.478217846872852,9.71794142969884e-05,0.096440702676773,0,0,0
1392,49693.84150090123,2011-01-04 00:26:15,3661.84148098106,2,6,0.5501165986061096,4.089894771575928,4.02041967523118,4.27032267791726,16.108916246031797,15.478217846872852,3.24249267578125e-05,0.096440702676773,0,0,0
1393,49723.85674335589,2011-01-04 00:26:45,3691.8567234106554,2,6,0.5501165986061096,4.092970371246338,4.025006270435642,4.27032267791726,16.127682686043155,15.478217846872852,6.47544875391759e-05,0.096440702676773,0,0,0
1394,49753.871935495146,2011-01-04 00:27:15,3721.871915574972,2,6,0.5501165986061096,4.096370220184326,4.029592810316075,4.27032267791726,16.14646304149176,15.478217846872852,9.71794142969884e-05,0.096440702676773,0,0,0
1395,49783.88717652124,2011-01-04 00:27:45,3751.8871565810177,2,6,0.5501165986061096,4.099445819854736,4.034179367665484,4.27032267791726,16.165257805371137,15.478217846872852,9.70840483205393e-05,0.096440702676773,0,0,0
1396,49813.90472029148,2011-01-04 00:28:15,3781.904700446498,2,6,0.5501165986061096,4.102359771728516,4.038766332159836,4.27032267791726,16.184068623781002,15.478217846872852,6.47544875391759e-05,0.096440702676773,0,0,0
1397,49843.91761650358,2011-01-04 00:28:45,3811.91759658842,2,6,0.5501165986061096,4.105759620666504,4.043352489133926,4.27032267791726,16.202890698176898,15.478217846872852,9.71794142969884e-05,0.096440702676773,0,0,0
1398,49873.93284119396,2011-01-04 00:29:15,3841.932821273791,2,6,0.550297200679779,4.108997344970703,4.047939103146135,4.27032267791726,16.221729416013194,15.478217846872852,6.47544875391759e-05,0.096440702676773,0,0,0
1399,49903.94806413499,2011-01-04 00:29:45,3871.948044214812,2,6,0.5501165986061096,4.112235069274902,4.05252566798337,4.27032267791726,16.24058271756298,15.478217846872852,9.71794142969884e-05,0.096440702676773,0,0,0
1400,49933.96532349639,2011-01-04 00:30:15,3901.965303576221,2,6,0.5499359965324402,4.115472316741943,4.057112530102701,4.27032267791726,16.25945209517112,15.478217846872852,9.70840483205393e-05,0.096440702676773,0,0,0
1401,49963.97852728006,2011-01-04 00:30:45,3931.978507339832,2,6,0.550297200679779,4.118710041046143,4.061698777842787,4.27032267791726,16.2783340312738,15.478217846872852,9.70840483205393e-05,0.096440702676773,0,0,0
1402,49993.993870144965,2011-01-04 00:31:15,3961.993850224791,2,6,0.5501165986061096,4.121947765350342,4.066285390435313,4.27032267791726,16.297232572931335,15.478217846872852,6.47544875391759e-05,0.096440702676773,0,0,0
1403,50024.00899418951,2011-01-04 00:31:45,3992.0089742693326,2,6,0.5501165986061096,4.125185489654541,4.070871930420545,4.27032267791726,16.31614603236987,15.478217846872852,3.23295607813634e-05,0.096440702676773,0,0,0
1404,50054.02608659982,2011-01-04 00:32:15,4022.0260666545855,2,6,0.5501165986061096,4.128909111022949,4.075458815891456,4.27032267791726,16.335076395251427,15.478217846872852,0.0001295089750783,0.096440702676773,0,0,0
1405,50084.039425906245,2011-01-04 00:32:45,4052.039405966023,2,6,0.5501165986061096,4.132146835327148,4.080045092024884,4.27032267791726,16.354019796573358,15.478217846872852,0.0001295089750783,0.096440702676773,0,0,0
1406,50114.054776410194,2011-01-04 00:33:15,4082.0547564900216,2,6,0.5499359965324402,4.135384559631348,4.084631685141607,4.27032267791726,16.37298008392365,15.478217846872852,3.24249267578125e-05,0.096440702676773,0,0,0
1407,50144.06988159774,2011-01-04 00:33:45,4112.069861657516,2,6,0.5499359965324402,4.138946056365967,4.089218246271298,4.27032267791726,16.39195598172469,15.478217846872852,6.47544875391759e-05,0.096440702676773,0,0,0
1408,50174.08526627185,2011-01-04 00:34:16,4142.085246366714,2,6,0.550297200679779,4.142507553100586,4.093804838581626,4.27032267791726,16.410947946839322,15.478217846872852,9.71794142969884e-05,0.096440702676773,0,0,0
1409,50204.10034450722,2011-01-04 00:34:46,4172.100324577023,2,6,0.5501165986061096,4.146069049835205,4.098391357777857,4.27032267791726,16.429955806894547,15.478217846872852,9.71794142969884e-05,0.096440702676773,0,0,0
1410,50234.115586174914,2011-01-04 00:35:16,4202.115566254743,2,6,0.5501165986061096,4.149792194366455,4.102977832140907,4.27032267791726,16.44897984970533,15.478217846872852,0.0001295089750783,0.096440702676773,0,0,0
1411,50264.130795181205,2011-01-04 00:35:46,4232.130775235973,2,6,0.5499359965324402,4.153192043304443,4.107564350698135,4.27032267791726,16.468020367350412,15.478217846872852,0.0001295089750783,0.096440702676773,0,0,0
1412,50294.14603635266,2011-01-04 00:36:16,4262.146016432493,2,6,0.5501165986061096,4.156753540039063,4.112150917402209,4.27032267791726,16.487077400349886,15.478217846872852,9.71794142969884e-05,0.096440702676773,0,0,0
1413,50324.16123184027,2011-01-04 00:36:46,4292.161211925105,2,6,0.5499359965324402,4.160315036773682,4.116737417757122,4.27032267791726,16.50615053950576,15.478217846872852,9.71794142969884e-05,0.096440702676773,0,0,0
1414,50354.17646264088,2011-01-04 00:37:16,4322.176442720704,2,6,0.5501165986061096,4.164038181304932,4.12132393881508,4.27032267791726,16.525240428431513,15.478217846872852,0.0001295089750783,0.096440702676773,0,0,0
1415,50384.19169881487,2011-01-04 00:37:46,4352.191678874657,2,6,0.5501165986061096,4.167599678039551,4.125910470511101,4.27032267791726,16.544347045630843,15.478217846872852,9.70840483205393e-05,0.096440702676773,0,0,0
1416,50414.20719363351,2011-01-04 00:38:16,4382.207173798544,2,6,0.5501165986061096,4.17148494720459,4.130497078071872,4.27032267791726,16.56347081796082,15.478217846872852,0.0001295089750783,0.096440702676773,0,0,0
1417,50444.22241202318,2011-01-04 00:38:46,4412.222392087972,2,6,0.550297200679779,4.175208568572998,4.135083675169638,4.27032267791726,16.58261146697864,15.478217846872852,0.0001295089750783,0.096440702676773,0,0,0
1418,50474.23776614114,2011-01-04 00:39:16,4442.237746281116,2,6,0.5501165986061096,4.178770065307617,4.139670283446912,4.27032267791726,16.601769154724295,15.478217846872852,6.47544875391759e-05,0.096440702676773,0,0,0
1419,50504.25263370144,2011-01-04 00:39:46,4472.25261376122,2,6,0.550297200679779,4.182493209838867,4.144256791508774,4.27032267791726,16.6209435667375,15.478217846872852,9.70840483205393e-05,0.096440702676773,0,0,0
1420,50534.2680645306,2011-01-04 00:40:16,4502.268044585351,2,6,0.5501165986061096,4.186216831207275,4.148843373372528,4.27032267791726,16.640135449708275,15.478217846872852,9.71794142969884e-05,0.096440702676773,0,0,0
1421,50564.28305753354,2011-01-04 00:40:46,4532.283037613359,2,6,0.5501165986061096,4.189939975738525,4.153429825545579,4.27032267791726,16.659344151010316,15.478217846872852,9.70840483205393e-05,0.096440702676773,0,0,0
1422,50594.29830177764,2011-01-04 00:41:16,4562.298281952712,2,6,0.5501165986061096,4.1938252449035645,4.158016346063732,4.27032267791726,16.678570638680796,15.478217846872852,6.47544875391759e-05,0.096440702676773,0,0,0
1423,50624.31353206197,2011-01-04 00:41:46,4592.313512116737,2,6,0.5499359965324402,4.197548389434815,4.16260287493531,4.27032267791726,16.697814694526755,15.478217846872852,6.47544875391759e-05,0.096440702676773,0,0,0
1424,50641.68841456529,2011-01-04 00:42:03,4609.688394660154,2,6,0.550297200679779,4.200138568878174,4.165257912066347,4.27032267791726,16.70896270309756,15.478217846872852,9.70840483205393e-05,0.096440702676773,0,0,0
1425,50671.70586405806,2011-01-04 00:42:33,30.01535382221845,3,6,0.0,4.111587524414063,4.165257912066347,4.27032267791726,16.70896270309756,15.478217846872852,-0.0003885269106831,0.096440702676773,0,0,0
1426,50701.722932248005,2011-01-04 00:43:03,60.03242199211882,3,6,0.0,4.100417137145996,4.165257912066347,4.27032267791726,16.70896270309756,15.478217846872852,-0.0002590179501567,0.096440702676773,0,0,0
1427,50731.73632111796,2011-01-04 00:43:33,90.0458108821216,3,6,0.0,4.094103813171387,4.165257912066347,4.27032267791726,16.70896270309756,15.478217846872852,-0.0001618385285837,0.096440702676773,0,0,0
1428,50761.70454257683,2011-01-04 00:44:03,120.0140323460008,3,6,0.0,4.090056419372559,4.165257912066347,4.27032267791726,16.70896270309756,15.478217846872852,-6.47544875391759e-05,0.096440702676773,0,0,0
1429,50761.71981091859,2011-01-04 00:44:03,0.015357395354576,4,6,0.9989306926727296,4.199814796447754,4.165262173448099,4.27032267791726,16.70898060011169,15.478217846872852,0.0,0.096440702676773,0,0,0
1430,50762.56359776003,2011-01-04 00:44:04,0.859144256840125,4,6,0.9483600854873656,4.199653148651123,4.165488923182028,4.27032267791726,16.709932878277577,15.478217846872852,-3.23295607813634e-05,0.096440702676773,0,0,0
1431,50764.516627185294,2011-01-04 00:44:06,2.812173662050032,4,6,0.8983312845230103,4.199653148651123,4.165988911763685,4.27032267791726,16.712032674786514,15.478217846872852,-3.23295607813634e-05,0.096440702676773,0,0,0
1432,50767.50294607584,2011-01-04 00:44:09,5.798492582667572,4,6,0.8479413390159607,4.199653148651123,4.166712108655207,4.27032267791726,16.71506988337928,15.478217846872852,0.0,0.096440702676773,0,0,0
1433,50771.56539106373,2011-01-04 00:44:13,9.860937575572969,4,6,0.7979125380516052,4.199814796447754,4.16763959710497,4.27032267791726,16.71896507528949,15.478217846872852,0.0,0.096440702676773,0,0,0
1434,50776.969717553206,2011-01-04 00:44:19,15.265264065054444,4,6,0.7477031350135803,4.199814796447754,4.168798309036944,4.27032267791726,16.723831354295445,15.478217846872852,3.23295607813634e-05,0.096440702676773,0,0,0
1435,50783.98513294696,2011-01-04 00:44:26,22.280679443767543,4,6,0.6976743936538696,4.199814796447754,4.170204445524051,4.27032267791726,16.72973675076451,15.478217846872852,0.0,0.096440702676773,0,0,0
1436,50793.21939080886,2011-01-04 00:44:35,31.514937310682004,4,6,0.6476456522941589,4.199653148651123,4.171927019926195,4.27032267791726,16.736971087373057,15.478217846872852,-3.23295607813634e-05,0.096440702676773,0,0,0
1437,50806.28170286468,2011-01-04 00:44:48,44.577249341435575,4,6,0.5976168513298035,4.199814796447754,4.174181155545272,4.27032267791726,16.746437853935518,15.478217846872852,0.0,0.096440702676773,0,0,0
1438,50826.093943664826,2011-01-04 00:45:08,64.38949014158364,4,6,0.5474074482917786,4.199814796447754,4.177322231490836,4.27032267791726,16.75962955094891,15.478217846872852,3.23295607813634e-05,0.096440702676773,0,0,0
1439,50861.03098844527,2011-01-04 00:45:43,99.32653492203646,4,6,0.4973787069320678,4.199653148651123,4.182369684896381,4.27032267791726,16.780827525761524,15.478217846872852,-3.23295607813634e-05,0.096440702676773,0,0,0
1440,50925.60837239103,2011-01-04 00:46:47,163.90391887781857,4,6,0.4473499357700348,4.199814796447754,4.190803539453223,4.27032267791726,16.81624746852205,15.478217846872852,0.0,0.096440702676773,0,0,0
1441,51024.13820457972,2011-01-04 00:48:26,262.4337510614917,4,6,0.3973211646080017,4.199491024017334,4.202336021890441,4.27032267791726,16.864680840884628,15.478217846872852,-6.47544875391759e-05,0.096440702676773,0,0,0
1442,51148.13660819989,2011-01-04 00:50:30,386.4321547618681,4,6,0.3472923934459686,4.199653148651123,4.215143657370635,4.27032267791726,16.918469606543383,15.478217846872852,0.0,0.096440702676773,0,0,0
1443,51297.13461183048,2011-01-04 00:52:59,535.4301583323052,4,6,0.2972636222839355,4.199653148651123,4.228467832365363,4.27032267791726,16.9744276183563,15.478217846872852,0.0,0.096440702676773,0,0,0
1444,51479.72597469369,2011-01-04 00:56:01,718.021521185493,4,6,0.2472348511219024,4.199653148651123,4.242251973810477,4.27032267791726,17.03231739307672,15.478217846872852,-3.23295607813634e-05,0.096440702676773,0,0,0
1445,51707.66044846101,2011-01-04 00:59:49,945.955994957818,4,6,0.1972060799598693,4.199653148651123,4.256275843795737,4.27032267791726,17.091214002568343,15.478217846872852,-3.23295607813634e-05,0.096440702676773,0,0,0
1446,52012.7815448015,2011-01-04 01:04:54,1251.0770913033252,4,6,0.1471773236989975,4.199653148651123,4.270776612996404,4.27032267791726,17.15211345138627,15.478217846872852,-3.23295607813634e-05,0.096440702676773,0,0,0
1447,52468.43183402735,2011-01-04 01:12:30,1706.72738051914,4,6,0.0971485450863838,4.199814796447754,4.286022892712015,4.27032267791726,17.21614368728552,15.478217846872852,-3.24249267578125e-05,0.096440702676773,0,0,0
1448,53289.71781213817,2011-01-04 01:26:11,2528.01335860992,4,6,0.0496483072638511,4.199653148651123,4.302156516405987,4.27032267791726,17.28390068211761,15.478217846872852,0.0,0.096440702676773,0,0,0
1449,53319.73498382328,2011-01-04 01:26:42,30.01527638421913,5,6,0.0,4.191558837890625,4.302156516405987,4.27032267791726,17.28390068211761,15.478217846872852,0.0,0.096440702676773,0,0,0
1450,53349.734670989375,2011-01-04 01:27:12,60.014963530260026,5,6,0.0,4.1901021003723145,4.302156516405987,4.27032267791726,17.28390068211761,15.478217846872852,-6.47544875391759e-05,0.096440702676773,0,0,0
1451,53349.93370400949,2011-01-04 01:27:12,0.200364414772201,6,6,-1.9243103452026844e-05,4.1901021003723145,4.302156516405987,4.270322678908472,17.28390068211761,15.478217851026209,-3.23295607813634e-05,0.0973391383886337,0,0,0
1452,53354.74681408575,2011-01-04 01:27:17,5.013474491039205,6,6,0.0007031940040178,4.190263748168945,4.302157206333511,4.270322679075763,17.28390357308907,15.478217851727171,0.0,0.0973391383886337,0,0,0
1453,53384.76088530831,2011-01-04 01:27:47,30.015204129137235,7,6,-1.0997490882873535,4.007332801818848,4.302157206333511,4.279492758065491,17.28390357308907,15.515176217852211,-0.0010037422180175,0.0973391383886337,0,0,0
1454,53414.77611836454,2011-01-04 01:28:17,60.0304371853697,7,6,-1.0997490882873535,3.977707862854004,4.302157206333511,4.288662868551579,17.28390357308907,15.551780274995467,-0.0006799221155233,0.0973391383886337,0,0,0
1455,53444.791359009694,2011-01-04 01:28:47,90.04567783051604,7,6,-1.099929690361023,3.956986427307129,4.302157206333511,4.297832816237277,17.28390357308907,15.5881565224043,-0.0004856586456298,0.0973391383886337,0,0,0
1456,53474.80669876184,2011-01-04 01:29:17,120.06101760773004,7,6,-1.0997490882873535,3.940959692001343,4.302157206333511,4.307002891096819,17.28390357308907,15.624367097889833,-0.0003885269106831,0.0973391383886337,0,0,0
1457,53504.82180426517,2011-01-04 01:29:47,150.07612309101145,7,6,-1.099929690361023,3.927361249923706,4.302157206333511,4.316172837038497,17.28390357308907,15.660441991448522,-0.0003237724304199,0.0973391383886337,0,0,0
1458,53534.83706237384,2011-01-04 01:30:17,180.09138120469478,7,6,-1.0997490882873535,3.915057897567749,4.302157206333511,4.325342896474947,17.28390357308907,15.696398509167867,-0.0003561496851034,0.0973391383886337,0,0,0
1459,53564.85229095392,2011-01-04 01:30:47,210.1066097897838,7,6,-1.0997490882873535,3.903402328491211,4.302157206333511,4.334512978757235,17.28390357308907,15.732245626250084,-0.0002913951757363,0.0973391383886337,0,0,0
1460,53594.86750618573,2011-01-04 01:31:17,240.12182503161725,7,6,-1.0997490882873535,3.8923940658569336,4.302157206333511,4.343683009693033,17.28390357308907,15.767989022986365,-0.0002913951757363,0.0973391383886337,0,0,0
1461,53624.88273261044,2011-01-04 01:31:47,270.13705142624696,7,6,-1.0997490882873535,3.881709575653076,4.302157206333511,4.352852942305839,17.28390357308907,15.803633009609872,-0.0002913951757363,0.0973391383886337,0,0,0
1462,53654.897991596285,2011-01-04 01:32:17,300.1523104271415,7,6,-1.1001102924346924,3.871348857879639,4.302157206333511,4.362023003475031,17.28390357308907,15.839180810042492,-0.0002590179501567,0.0973391383886337,0,0,0
1463,53684.91321335436,2011-01-04 01:32:47,330.16753217519044,7,6,-1.0997490882873535,3.861150026321411,4.302157206333511,4.371193042209975,17.28390357308907,15.874633808482944,-0.0002913951757363,0.0973391383886337,0,0,0
1464,53714.92844080663,2011-01-04 01:33:17,360.1827596525186,7,6,-1.099929690361023,3.850951194763184,4.302157206333511,4.380363110413232,17.28390357308907,15.9099944013623,-0.0002913951757363,0.0973391383886337,0,0,0
1465,53744.94367251951,2011-01-04 01:33:47,390.1979913403405,7,6,-1.099568486213684,3.841399908065796,4.302157206333511,4.389533161589237,17.28390357308907,15.945264111410536,-0.0002266406954731,0.0973391383886337,0,0,0
1466,53774.95891298922,2011-01-04 01:34:17,420.2132318401247,7,6,-1.099929690361023,3.831686973571777,4.302157206333511,4.398703209858619,17.28390357308907,15.980445026653369,-0.0002590179501567,0.0973391383886337,0,0,0
1467,53804.97613009031,2011-01-04 01:34:47,450.2304489111323,7,6,-1.099929690361023,3.8224594593048096,4.302157206333511,4.407873917526867,17.28390357308907,16.015541555438958,-0.0002266406954731,0.0973391383886337,0,0,0
1468,53834.98948890034,2011-01-04 01:35:17,480.2438077362041,7,6,-1.099929690361023,3.813231945037842,4.302157206333511,4.417043391596291,17.28390357308907,16.05054878549173,-0.0002266406954731,0.0973391383886337,0,0,0
1469,53865.00458978216,2011-01-04 01:35:47,510.2589086079922,7,6,-1.1001102924346924,3.804166316986084,4.302157206333511,4.426213420061136,17.28390357308907,16.08547442539145,-0.0002590179501567,0.0973391383886337,0,0,0
1470,53895.019834322,2011-01-04 01:36:17,540.2741531428329,7,6,-1.099568486213684,3.795586347579956,4.302157206333511,4.435383506009598,17.28390357308907,16.120319535019444,-0.0001942634553415,0.0973391383886337,0,0,0
1471,53925.03506943336,2011-01-04 01:36:47,570.2893882642123,7,6,-1.0997490882873535,3.787168264389038,4.302157206333511,4.444553596356506,17.28390357308907,16.155085155419872,-0.0001618862152099,0.0973391383886337,0,0,0
1472,53955.05069136379,2011-01-04 01:37:17,600.3050102096764,7,6,-1.099929690361023,3.7784264087677,4.302157206333511,4.45372382815024,17.28390357308907,16.189773838700113,-0.0002266406954731,0.0973391383886337,0,0,0
1473,53985.06554254326,2011-01-04 01:37:47,630.3198613991794,7,6,-1.099568486213684,3.770493984222412,4.302157206333511,4.462893761956913,17.28390357308907,16.224385945076186,-0.0001942634553415,0.0973391383886337,0,0,0
1474,54015.08087516264,2011-01-04 01:38:17,660.335193998504,7,6,-1.099929690361023,3.762399673461914,4.302157206333511,4.472063929539536,17.28390357308907,16.258925304431745,-0.0002266406954731,0.0973391383886337,0,0,0
1475,54045.09626776651,2011-01-04 01:38:47,690.3505867026281,7,6,-1.099929690361023,3.754791021347046,4.302157206333511,4.481234117465632,17.28390357308907,16.293393080788363,-0.0001942634553415,0.0973391383886337,0,0,0
1476,54075.11138763565,2011-01-04 01:39:17,720.3657064765262,7,6,-1.0997490882873535,3.747344493865967,4.302157206333511,4.490404186279708,17.28390357308907,16.32779050915229,-0.0001942634553415,0.0973391383886337,0,0,0
1477,54105.12642103428,2011-01-04 01:39:47,750.3807398601128,7,6,-1.099568486213684,3.740059614181519,4.302157206333511,4.49957414938955,17.28390357308907,16.362119044457074,-0.0001618862152099,0.0973391383886337,0,0,0
1478,54135.14165406043,2011-01-04 01:40:17,780.3959728812579,7,6,-1.0997490882873535,3.7327747344970703,4.302157206333511,4.50874415034367,17.28390357308907,16.396380528686397,-0.0001618862152099,0.0973391383886337,0,0,0
1479,54165.15690119174,2011-01-04 01:40:47,810.4112200225948,7,6,-1.0997490882873535,3.725651741027832,4.302157206333511,4.517914159687428,17.28390357308907,16.43057657646077,-0.0001618862152099,0.0973391383886337,0,0,0
1480,54195.17213447855,2011-01-04 01:41:17,840.4264532993769,7,6,-1.099929690361023,3.718690633773804,4.302157206333511,4.527084151710344,17.28390357308907,16.464708547145847,-0.0001942634553415,0.0973391383886337,0,0,0
1481,54225.18735097852,2011-01-04 01:41:47,870.4416697943334,7,6,-1.0997490882873535,3.711891412734986,4.302157206333511,4.536254164083186,17.28390357308907,16.498777202930224,-0.0001295089750783,0.0973391383886337,0,0,0
1482,54255.202708033794,2011-01-04 01:42:17,900.4570268947223,7,6,-1.1001102924346924,3.705092191696167,4.302157206333511,4.545424184003069,17.28390357308907,16.532783275179597,-0.0001295089750783,0.0973391383886337,0,0,0
1483,54285.21781980274,2011-01-04 01:42:47,930.472138628582,7,6,-1.099929690361023,3.6982929706573486,4.302157206333511,4.554594153399115,17.28390357308907,16.566727926311643,-0.0001942634553415,0.0973391383886337,0,0,0
1484,54315.2330448039,2011-01-04 01:43:17,960.4873636297384,7,6,-1.099929690361023,3.69197940826416,4.302157206333511,4.56376416155728,17.28390357308907,16.600612306011932,-0.0001618862152099,0.0973391383886337,0,0,0
1485,54345.24840011984,2011-01-04 01:43:47,990.5027189506924,7,6,-1.0997490882873535,3.685342073440552,4.302157206333511,4.572934225749004,17.28390357308907,16.634437252742497,-0.0001942634553415,0.0973391383886337,0,0,0
1486,54375.26350995397,2011-01-04 01:44:17,1020.5178287998552,7,6,-1.099929690361023,3.6790285110473633,4.302157206333511,4.582104113626305,17.28390357308907,16.668203119389005,-0.0001618862152099,0.0973391383886337,0,0,0
1487,54405.28134567184,2011-01-04 01:44:47,1050.5356646029334,7,6,-1.0997490882873535,3.6728768348693848,4.302157206333511,4.591274980460929,17.28390357308907,16.701914974327416,-0.0001618862152099,0.0973391383886337,0,0,0
1488,54435.29400401108,2011-01-04 01:45:17,1080.5483228469416,7,6,-1.0997490882873535,3.666725397109986,4.302157206333511,4.600444169693015,17.28390357308907,16.735563952130565,-0.0001618862152099,0.0973391383886337,0,0,0
1489,54465.30933055531,2011-01-04 01:45:47,1110.5636493961874,7,6,-1.0997490882873535,3.660735607147217,4.302157206333511,4.609614164658415,17.28390357308907,16.769160634032946,-0.0001618862152099,0.0973391383886337,0,0,0
1490,54495.32444081049,2011-01-04 01:46:17,1140.578759631312,7,6,-1.1001102924346924,3.654745817184448,4.302157206333511,4.618784090610812,17.28390357308907,16.802702810751235,-0.0001942634553415,0.0973391383886337,0,0,0
1491,54525.3415690902,2011-01-04 01:46:47,1170.5958879160369,7,6,-1.099929690361023,3.6490797996521,4.302157206333511,4.627954634111499,17.28390357308907,16.836193822400475,-0.0001942634553415,0.0973391383886337,0,0,0
1492,54555.35492303311,2011-01-04 01:47:17,1200.6092418589408,7,6,-1.099929690361023,3.643575668334961,4.302157206333511,4.637123958628307,17.28390357308907,16.869627870173037,-0.0001295089750783,0.0973391383886337,0,0,0
1493,54585.37014762825,2011-01-04 01:47:47,1230.624466539298,7,6,-1.0997490882873535,3.637909650802612,4.302157206333511,4.646293909257714,17.28390357308907,16.90301277992389,-0.0001618862152099,0.0973391383886337,0,0,0
1494,54615.38539055408,2011-01-04 01:48:17,1260.639709399966,7,6,-1.0997490882873535,3.632567405700684,4.302157206333511,4.655463836067729,17.28390357308907,16.936347274176278,-0.0001618862152099,0.0973391383886337,0,0,0
1495,54645.40061552516,2011-01-04 01:48:47,1290.654934345985,7,6,-1.099929690361023,3.627063274383545,4.302157206333511,4.664633814907902,17.28390357308907,16.96963261054547,-0.0001618862152099,0.0973391383886337,0,0,0
1496,54675.415962349936,2011-01-04 01:49:17,1320.6702811807893,7,6,-1.099929690361023,3.622044801712036,4.302157206333511,4.673803725437749,17.28390357308907,17.002869430094194,-0.0001295089750783,0.0973391383886337,0,0,0
1497,54705.43107429933,2011-01-04 01:49:47,1350.6853931251735,7,6,-1.099929690361023,3.616864442825317,4.302157206333511,4.682973643480093,17.28390357308907,17.036059251273677,-0.0001618862152099,0.0973391383886337,0,0,0
1498,54735.446316202615,2011-01-04 01:50:17,1380.7006350184306,7,6,-1.0997490882873535,3.6120078563690186,4.302157206333511,4.692143622084352,17.28390357308907,17.06920321809421,-9.713172767078504e-05,0.0973391383886337,0,0,0
1499,54765.46156021114,2011-01-04 01:50:48,1410.7158790570345,7,6,-1.099929690361023,3.6068274974823,4.302157206333511,4.701313594369918,17.28390357308907,17.102302270388236,-0.0001618862152099,0.0973391383886337,0,0,0
1500,54795.47687141214,2011-01-04 01:51:18,1440.7311902730653,7,6,-1.0997490882873535,3.602294683456421,4.302157206333511,4.71048342000937,17.28390357308907,17.13535709043969,-0.0001618862152099,0.0973391383886337,0,0,0
1501,54825.491993536896,2011-01-04 01:51:48,1470.7463123827847,7,6,-1.0997490882873535,3.597599983215332,4.302157206333511,4.719653054743758,17.28390357308907,17.168368709681666,-0.0001618862152099,0.0973391383886337,0,0,0
1502,54855.50722231246,2011-01-04 01:52:18,1500.7615411483237,7,6,-1.099568486213684,3.593390941619873,4.302157206333511,4.728822665821618,17.28390357308907,17.201338829344266,-0.0001295089750783,0.0973391383886337,0,0,0
1503,54885.52246259671,2011-01-04 01:52:48,1530.7767814425954,7,6,-1.0997490882873535,3.589020252227783,4.302157206333511,4.737992304980647,17.28390357308907,17.234268706019687,-9.713172767078504e-05,0.0973391383886337,0,0,0
1504,54915.53765992389,2011-01-04 01:53:18,1560.79197876978,7,6,-1.0997490882873535,3.584973096847534,4.302157206333511,4.747162108568664,17.28390357308907,17.267159983743085,-9.713172767078504e-05,0.0973391383886337,0,0,0
1505,54945.552941516085,2011-01-04 01:53:48,1590.807260331904,7,6,-1.099929690361023,3.580764055252075,4.302157206333511,4.756332081180664,17.28390357308907,17.300013878421776,-9.713172767078504e-05,0.0973391383886337,0,0,0
1506,54975.56813986081,2011-01-04 01:54:18,1620.8224586966749,7,6,-1.0997490882873535,3.576716899871826,4.302157206333511,4.76550205696723,17.28390357308907,17.332830968850743,-0.0001295089750783,0.0973391383886337,0,0,0
1507,55005.58550762238,2011-01-04 01:54:48,1650.8398264833122,7,6,-1.099929690361023,3.572831630706787,4.302157206333511,4.774672685070637,17.28390357308907,17.365614482180757,-0.0001295089750783,0.0973391383886337,0,0,0
1508,55035.59875421274,2011-01-04 01:55:18,1680.8530730586233,7,6,-1.0997490882873535,3.569108247756958,4.302157206333511,4.783842016475453,17.28390357308907,17.398358478977638,-9.713172767078504e-05,0.0973391383886337,0,0,0
1509,55065.61386224737,2011-01-04 01:55:48,1710.8681810732132,7,6,-1.0997490882873535,3.565546751022339,4.302157206333511,4.793011986133283,17.28390357308907,17.431070259319412,-6.47544875391759e-05,0.0973391383886337,0,0,0
1510,55095.629085083136,2011-01-04 01:56:18,1740.8834039089732,7,6,-1.099929690361023,3.56198525428772,4.302157206333511,4.802181888735717,17.28390357308907,17.46374816911485,-6.47544875391759e-05,0.0973391383886337,0,0,0
1511,55125.64431931229,2011-01-04 01:56:48,1770.8986381381287,7,6,-1.099929690361023,3.55826187133789,4.302157206333511,4.811351894937576,17.28390357308907,17.496393574362628,-6.47544875391759e-05,0.0973391383886337,0,0,0
1512,55155.65958307004,2011-01-04 01:57:18,1800.9139019810914,7,6,-1.099929690361023,3.554538488388061,4.302157206333511,4.820521851683116,17.28390357308907,17.529005827830794,-0.0001295089750783,0.0973391383886337,0,0,0
1513,55185.674909779686,2011-01-04 01:57:48,1830.929228620562,7,6,-1.0997490882873535,3.5509769916534424,4.302157206333511,4.829691834131947,17.28390357308907,17.56158526084033,-9.713172767078504e-05,0.0973391383886337,0,0,0
1514,55215.69001552863,2011-01-04 01:58:18,1860.944334349456,7,6,-1.099929690361023,3.547577381134033,4.302157206333511,4.838861755545385,17.28390357308907,17.59413164131467,-6.47544875391759e-05,0.0973391383886337,0,0,0
1515,55245.707641403504,2011-01-04 01:58:48,1890.9619603295905,7,6,-1.0997490882873535,3.543853998184204,4.302157206333511,4.848032489901561,17.28390357308907,17.62664803930484,-6.47544875391759e-05,0.0973391383886337,0,0,0
1516,55275.7204766286,2011-01-04 01:59:18,1920.9747954544405,7,6,-1.099929690361023,3.540130615234375,4.302157206333511,4.857201772129615,17.28390357308907,17.659126015063336,-0.0001295089750783,0.0973391383886337,0,0,0
1517,55305.73570375004,2011-01-04 01:59:48,1950.9900225959311,7,6,-1.099929690361023,3.536407232284546,4.302157206333511,4.866371912456565,17.28390357308907,17.691573647031348,-9.713172767078504e-05,0.0973391383886337,0,0,0
1518,55335.75106267498,2011-01-04 02:00:18,1981.005381520867,7,6,-1.099929690361023,3.5328457355499268,4.302157206333511,4.875542797500055,17.28390357308907,17.72398991772166,-9.713172767078504e-05,0.0973391383886337,0,0,0
1519,55365.766208203066,2011-01-04 02:00:48,2011.0205270238905,7,6,-1.099929690361023,3.5291223526000977,4.302157206333511,4.884713367716544,17.28390357308907,17.75637089110287,-9.713172767078504e-05,0.0973391383886337,0,0,0
1520,55395.78154939881,2011-01-04 02:01:18,2041.0358682396893,7,6,-1.099929690361023,3.5252370834350586,4.302157206333511,4.893883439657182,17.28390357308907,17.78871570239055,-9.713172767078504e-05,0.0973391383886337,0,0,0
1521,55425.796661488566,2011-01-04 02:01:48,2071.0509803093864,7,6,-1.0997490882873535,3.521513700485229,4.302157206333511,4.903053470891309,17.28390357308907,17.821024630849923,-6.47544875391759e-05,0.0973391383886337,0,0,0
1522,55455.812038854456,2011-01-04 02:02:18,2101.066357720395,7,6,-1.0997490882873535,3.5173046588897705,4.302157206333511,4.912223539522033,17.28390357308907,17.85329727132892,-0.0001295089750783,0.0973391383886337,0,0,0
1523,55485.82714422245,2011-01-04 02:02:48,2131.0814630482896,7,6,-1.099929690361023,3.5130956172943115,4.302157206333511,4.921393532128921,17.28390357308907,17.885531782913315,-0.0001618862152099,0.0973391383886337,0,0,0
1524,55515.84236333894,2011-01-04 02:03:18,2161.096682159768,7,6,-1.099929690361023,3.5087249279022217,4.302157206333511,4.930563546353117,17.28390357308907,17.917727143658052,-0.0001295089750783,0.0973391383886337,0,0,0
1525,55545.85759569844,2011-01-04 02:03:48,2191.111914524276,7,6,-1.0997490882873535,3.5041921138763428,4.302157206333511,4.939733551265134,17.28390357308907,17.94988159343883,-0.0001295089750783,0.0973391383886337,0,0,0
1526,55575.87287122552,2011-01-04 02:04:18,2221.127190146596,7,6,-1.0997490882873535,3.499497413635254,4.302157206333511,4.948903603668127,17.28390357308907,17.981993054557126,-6.47544875391759e-05,0.0973391383886337,0,0,0
1527,55605.8900766926,2011-01-04 02:04:48,2251.144395518446,7,6,-1.0997490882873535,3.494155168533325,4.302157206333511,4.958074259837692,17.28390357308907,18.01406089048284,-0.0001618862152099,0.0973391383886337,0,0,0
1528,55635.90342908164,2011-01-04 02:05:18,2281.157747922515,7,6,-1.099929690361023,3.4886510372161865,4.302157206333511,4.967243713362556,17.28390357308907,18.046075317509768,-0.0001295089750783,0.0973391383886337,0,0,0
1529,55665.918555176286,2011-01-04 02:05:48,2311.1728740221783,7,6,-1.099929690361023,3.482499361038208,4.302157206333511,4.976413711627859,17.28390357308907,18.078038458035017,-0.0001618862152099,0.0973391383886337,0,0,0
1530,55695.933769566,2011-01-04 02:06:18,2341.1880883868257,7,6,-1.099929690361023,3.4757001399993896,4.302157206333511,4.98558371193794,17.28390357308907,18.109942671360148,-0.0002266406954731,0.0973391383886337,0,0,0
1531,55725.94904061692,2011-01-04 02:06:48,2371.203359442765,7,6,-1.099929690361023,3.4682533740997314,4.302157206333511,4.99475369834469,17.28390357308907,18.1417815983512,-0.0001942634553415,0.0973391383886337,0,0,0
1532,55755.96437349194,2011-01-04 02:07:18,2401.218692322789,7,6,-1.0997490882873535,3.4595115184783936,4.302157206333511,5.003923749728092,17.28390357308907,18.173546968154582,-0.0002590179501567,0.0973391383886337,0,0,0
1533,55785.9794656871,2011-01-04 02:07:48,2431.23378451294,7,6,-1.099929690361023,3.449636459350586,4.302157206333511,5.013093713409282,17.28390357308907,18.205226709660675,-0.0002913951757363,0.0973391383886337,0,0,0
1534,55815.99483964952,2011-01-04 02:08:18,2461.249158490391,7,6,-1.0997490882873535,3.437494993209839,4.302157206333511,5.02226374393877,17.28390357308907,18.23680558240966,-0.0003237724304199,0.0973391383886337,0,0,0
1535,55846.00995557883,2011-01-04 02:08:48,2491.2642743996576,7,6,-1.099929690361023,3.422925472259521,4.302157206333511,5.031433698706093,17.28390357308907,18.26826254442154,-0.0004209041653666,0.0973391383886337,0,0,0
1536,55876.02564213532,2011-01-04 02:09:18,2521.2799609912395,7,6,-1.099929690361023,3.404794216156006,4.302157206333511,5.040603888825166,17.28390357308907,18.29957142645271,-0.0005504131549969,0.0973391383886337,0,0,0
1537,55906.04040355109,2011-01-04 02:09:48,2551.294722371912,7,6,-1.0997490882873535,3.3822920322418213,4.302157206333511,5.049773782053077,17.28390357308907,18.33069368011013,-0.0006475448608398,0.0973391383886337,0,0,0
1538,55936.05577283685,2011-01-04 02:10:18,2581.310091672707,7,6,-1.099929690361023,3.3529906272888184,4.302157206333511,5.058943886758483,17.28390357308907,18.361579974224465,-0.0008741855854168,0.0973391383886337,0,0,0
1539,55966.0711079374,2011-01-04 02:10:48,2611.325426763241,7,6,-1.0997490882873535,3.3144619464874268,4.302157206333511,5.068113963177745,17.28390357308907,18.392158388513444,-0.0011655807029455,0.0973391383886337,0,0,0
1540,55996.08635515894,2011-01-04 02:11:18,2641.3406739797647,7,6,-1.099929690361023,3.2629823684692383,4.302157206333511,5.077283924478988,17.28390357308907,18.422327758159923,-0.0015540600288659,0.0973391383886337,0,0,0
1541,56026.1017120488,2011-01-04 02:11:48,2671.3560309698787,7,6,-1.1001102924346924,3.1923999786376958,4.302157206333511,5.086453945955619,17.28390357308907,18.451943758592645,-0.0021692751906812,0.0973391383886337,0,0,0
1542,56056.11661581935,2011-01-04 02:12:18,2701.3709346351675,7,6,-1.0997490882873535,3.091221570968628,4.302157206333511,5.09562389535088,17.28390357308907,18.48078326797341,-0.0031729699112474,0.0973391383886337,0,0,0
1543,56086.131846173856,2011-01-04 02:12:48,2731.3861650297663,7,6,-1.099929690361023,2.9248030185699463,4.302157206333511,5.104793890793294,17.28390357308907,18.508442546268206,-0.0056659700348973,0.0973391383886337,0,0,0
1544,56109.2252824377,2011-01-04 02:13:11,2754.479601263534,7,6,-1.0997490882873535,2.724550247192383,4.302157206333511,5.111849229993561,17.28390357308907,18.528399896492004,-0.0074467658996582,0.0973391383886337,0,0,0
1545,56111.88152952775,2011-01-04 02:13:14,2757.135848343564,7,6,-1.0997490882873535,2.699943780899048,4.302157206333511,5.11266076488286,17.28390357308907,18.5306009998006,-0.0074143409729003,0.0973391383886337,0,0,0
1546,56171.89611646872,2011-01-04 02:14:14,60.01487945572041,8,6,0.0,3.43328595161438,4.302157206333511,5.11266076488286,17.28390357308907,18.5306009998006,0.0014893055194988,0.0973391383886337,0,0,0
1547,56172.08414017058,2011-01-04 02:14:14,0.187520493769086,9,6,-0.0014641173183918,3.4340953826904297,4.302157206333511,5.112660841147307,17.28390357308907,18.53060126169997,0.0,0.0971632748842239,0,0,0
1548,56176.91014977644,2011-01-04 02:14:19,5.013530009408063,9,6,0.0003419754502829,3.442513465881348,4.302157885466308,5.112660841904023,17.283905908459708,18.53060126430149,0.0012950897216796,0.0971632748842239,0,0,0
