Data_Point,Test_Time(s),Date_Time,Step_Time(s),Step_Index,Cycle_Index,Current(A),Voltage(V),Charge_Capacity(Ah),Discharge_Capacity(Ah),Charge_Energy(Wh),Discharge_Energy(Wh),dV/dt(V/s),Internal_Resistance(Ohm),Is_FC_Data,AC_Impedance(Ohm),ACI_Phase_Angle(Deg)
7010,238003.9410962837,2010-10-11 08:36:24,30.015718811885005,1,21,0.0,3.3819682598114014,20.802789041702624,20.758392919165992,82.75328651285695,76.04260557565692,0.0006799221155233,0.0914954170584678,0,0,0
7011,238033.9556919263,2010-10-11 08:36:54,60.03031434922422,1,21,0.0,3.404146671295166,20.802789041702624,20.758392919165992,82.75328651285695,76.04260557565692,0.0005504131549969,0.0914954170584678,0,0,0
7012,238063.97082857724,2010-10-11 08:37:24,90.04545097512262,1,21,0.0,3.420497179031372,20.802789041702624,20.758392919165992,82.75328651285695,76.04260557565692,0.0004532813909463,0.0914954170584678,0,0,0
7013,238093.94146195232,2010-10-11 08:37:54,120.01608448055153,1,21,0.0,3.43312406539917,20.802789041702624,20.758392919165992,82.75328651285695,76.04260557565692,0.0002913951757363,0.0914954170584678,0,0,0
7014,238123.9500048548,2010-10-11 08:38:24,30.015169522887813,2,21,0.5501165986061096,3.5886964797973637,20.807375967215485,20.758392919165992,82.76958539792736,76.04260557565692,0.0016188621520996,0.0914954170584678,0,0,0
7015,238153.96499636903,2010-10-11 08:38:54,60.03016099201086,2,21,0.5501165986061096,3.6366145610809326,20.81196231971209,20.758392919165992,82.78616048170144,76.04260557565692,0.0011008263099938,0.0914954170584678,0,0,0
7016,238183.98027328457,2010-10-11 08:39:24,90.04543789251676,2,21,0.5501165986061096,3.671743869781494,20.81654867043445,20.758392919165992,82.80292350239824,76.04260557565692,0.0008094310760498,0.0914954170584678,0,0,0
7017,238213.995402898,2010-10-11 08:39:54,120.06056751095036,2,21,0.5501165986061096,3.6994261741638175,20.82113483478726,20.758392919165992,82.81982844615115,76.04260557565692,0.0006799221155233,0.0914954170584678,0,0,0
7018,238244.01045243183,2010-10-11 08:40:24,150.0756170548135,2,21,0.5499359965324402,3.721928358078003,20.82572099807265,20.758392919165992,82.83684821087874,76.04260557565692,0.0005180359003134,0.0914954170584678,0,0,0
7019,238274.02571980865,2010-10-11 08:40:54,180.09088443158333,2,21,0.5499359965324402,3.7407071590423584,20.83030724706476,20.758392919165992,82.8539628135819,76.04260557565692,0.0004209041653666,0.0914954170584678,0,0,0
7020,238304.04074209952,2010-10-11 08:41:24,210.10590675761128,2,21,0.5501165986061096,3.755924224853516,20.834893522740547,20.758392919165992,82.87115522388919,76.04260557565692,0.0003561496851034,0.0914954170584678,0,0,0
7021,238334.05601410783,2010-10-11 08:41:54,240.12117872081188,2,21,0.5497553944587708,3.766284942626953,20.83947983110132,20.758392919165992,82.88840655703933,76.04260557565692,0.0002266406954731,0.0914954170584678,0,0,0
7022,238364.0710481581,2010-10-11 08:42:24,270.1362127911101,2,21,0.5501165986061096,3.772436618804932,20.844066132186096,20.758392919165992,82.90569505624386,76.04260557565692,0.0001295089750783,0.0914954170584678,0,0,0
7023,238394.08624726973,2010-10-11 08:42:54,300.1514119328172,2,21,0.550297200679779,3.7764837741851807,20.84865246545469,20.758392919165992,82.92300630304157,76.04260557565692,0.0001295089750783,0.0914954170584678,0,0,0
7024,238424.10134405133,2010-10-11 08:43:24,330.1665087093988,2,21,0.5501165986061096,3.7800452709198,20.853238728122555,20.758392919165992,82.94033400039639,76.04260557565692,0.0001295089750783,0.0914954170584678,0,0,0
7025,238454.11649251173,2010-10-11 08:43:54,360.1816571497424,2,21,0.5499359965324402,3.783121109008789,20.85782502488648,20.758392919165992,82.95767702507355,76.04260557565692,6.47544875391759e-05,0.0914954170584678,0,0,0
7026,238484.13164624525,2010-10-11 08:44:25,390.1968108832783,2,21,0.5501165986061096,3.7861969470977774,20.86241122306555,20.758392919165992,82.97503450272607,76.04260557565692,3.237724376958795e-05,0.0914954170584678,0,0,0
7027,238514.1468171416,2010-10-11 08:44:55,420.2119817795892,2,21,0.5499359965324402,3.7894346714019775,20.866997510849583,20.758392919165992,82.99240703531926,76.04260557565692,3.237724376958795e-05,0.0914954170584678,0,0,0
7028,238544.1639452759,2010-10-11 08:45:25,450.2291100242143,2,21,0.5499359965324402,3.7926723957061768,20.87158412487376,20.758392919165992,83.00979530698743,76.04260557565692,9.713172767078504e-05,0.0914954170584678,0,0,0
7029,238574.1771076113,2010-10-11 08:45:55,480.2422722543107,2,21,0.5501165986061096,3.795910120010376,20.876170074238065,20.758392919165992,83.02719541130902,76.04260557565692,0.0001295089750783,0.0914954170584678,0,0,0
7030,238604.1922789988,2010-10-11 08:46:25,510.25744365688325,2,21,0.5501165986061096,3.7988240718841553,20.880756349715373,20.758392919165992,83.04461086443791,76.04260557565692,6.47544875391759e-05,0.0914954170584678,0,0,0
7031,238634.20742321864,2010-10-11 08:46:55,540.2725878265832,2,21,0.5501165986061096,3.801738023757935,20.885342595636395,20.758392919165992,83.06204007535726,76.04260557565692,6.47544875391759e-05,0.0914954170584678,0,0,0
7032,238664.22275845453,2010-10-11 08:47:25,570.2879230624787,2,21,0.5499359965324402,3.804813861846924,20.889928927605485,20.758392919165992,83.0794832781525,76.04260557565692,9.713172767078504e-05,0.0914954170584678,0,0,0
7033,238694.237837522,2010-10-11 08:47:55,600.3030021700238,2,21,0.5501165986061096,3.807565927505493,20.8945152278137,20.758392919165992,83.09693993383583,76.04260557565692,3.237724376958795e-05,0.0914954170584678,0,0,0
7034,238724.2528611964,2010-10-11 08:48:25,630.3180257992998,2,21,0.5501165986061096,3.810479879379273,20.899101523653144,20.758392919165992,83.11441006346774,76.04260557565692,3.237724376958795e-05,0.0914954170584678,0,0,0
7035,238754.26801932085,2010-10-11 08:48:55,660.3331839538542,2,21,0.5501165986061096,3.813717603683472,20.903687798123467,20.758392919165992,83.13189360769984,76.04260557565692,9.713172767078504e-05,0.0914954170584678,0,0,0
7036,238784.2832821212,2010-10-11 08:49:25,690.3484467391808,2,21,0.5499359965324402,3.816631555557251,20.908274058052267,20.758392919165992,83.14939075602356,76.04260557565692,9.713172767078504e-05,0.0914954170584678,0,0,0
7037,238814.2983271789,2010-10-11 08:49:55,720.3634918119004,2,21,0.5501165986061096,3.8195455074310303,20.91286031862396,20.758392919165992,83.16690142397513,76.04260557565692,9.713172767078504e-05,0.0914954170584678,0,0,0
7038,238844.31346314817,2010-10-11 08:50:25,750.3786277811622,2,21,0.5499359965324402,3.8224594593048096,20.91744657590501,20.758392919165992,83.18442584276606,76.04260557565692,6.47544875391759e-05,0.0914954170584678,0,0,0
7039,238874.3286180947,2010-10-11 08:50:55,780.3937827026589,2,21,0.550297200679779,3.825697183609009,20.92203279764788,20.758392919165992,83.20196413069255,76.04260557565692,3.237724376958795e-05,0.0914954170584678,0,0,0
7040,238904.34380447963,2010-10-11 08:51:25,810.4089691226595,2,21,0.5501165986061096,3.828934907913208,20.92661904095555,20.758392919165992,83.21951686085212,76.04260557565692,9.713172767078504e-05,0.0914954170584678,0,0,0
7041,238934.35891758188,2010-10-11 08:51:55,840.4240822199173,2,21,0.5501165986061096,3.8321726322174072,20.93120528119929,20.758392919165992,83.23708432574264,76.04260557565692,9.713172767078504e-05,0.0914954170584678,0,0,0
7042,238964.37406387183,2010-10-11 08:52:25,870.439228534964,2,21,0.5501165986061096,3.835572004318237,20.935791530583323,20.758392919165992,83.25466680925477,76.04260557565692,0.0001295089750783,0.0914954170584678,0,0,0
7043,238994.38922648755,2010-10-11 08:52:55,900.454391120562,2,21,0.5499359965324402,3.8386478424072266,20.940377782702157,20.758392919165992,83.27226457521816,76.04260557565692,6.47544875391759e-05,0.0914954170584678,0,0,0
7044,239024.40438394036,2010-10-11 08:53:25,930.4695485483052,2,21,0.5501165986061096,3.841885566711426,20.944963979573757,20.758392919165992,83.28987737692779,76.04260557565692,9.713172767078504e-05,0.0914954170584678,0,0,0
7045,239054.41950998487,2010-10-11 08:53:55,960.4846745878187,2,21,0.5499359965324402,3.845285177230835,20.949550251369025,20.758392919165992,83.30750560067864,76.04260557565692,6.47544875391759e-05,0.0914954170584678,0,0,0
7046,239084.43469064552,2010-10-11 08:54:25,990.4998552785404,2,21,0.5501165986061096,3.848522901535034,20.954136508881728,20.758392919165992,83.3251488235534,76.04260557565692,6.47544875391759e-05,0.0914954170584678,0,0,0
7047,239114.4498515469,2010-10-11 08:54:55,1020.5150161849532,2,21,0.5501165986061096,3.8519225120544434,20.95872276636732,20.758392919165992,83.34280691334375,76.04260557565692,9.713172767078504e-05,0.0914954170584678,0,0,0
7048,239144.46694845345,2010-10-11 08:55:25,1050.5321130964865,2,21,0.5501165986061096,3.8549983501434326,20.963309324921436,20.758392919165992,83.3604806795116,76.04260557565692,9.713172767078504e-05,0.0914954170584678,0,0,0
7049,239174.4801277812,2010-10-11 08:55:55,1080.5452924442457,2,21,0.5501165986061096,3.858074188232422,20.96789522804101,20.758392919165992,83.37816629451915,76.04260557565692,6.47544875391759e-05,0.0914954170584678,0,0,0
7050,239204.49527334937,2010-10-11 08:56:25,1110.560437982356,2,21,0.5501165986061096,3.860988140106201,20.972481464934543,20.758392919165992,83.39586721086347,76.04260557565692,6.47544875391759e-05,0.0914954170584678,0,0,0
7051,239234.5104589473,2010-10-11 08:56:55,1140.575623610383,2,21,0.5501165986061096,3.863902091979981,20.977067766062067,20.758392919165992,83.41358211216829,76.04260557565692,3.237724376958795e-05,0.0914954170584678,0,0,0
7052,239264.5255944855,2010-10-11 08:57:25,1170.5907592438075,2,21,0.5501165986061096,3.8669779300689697,20.98165402295304,20.758392919165992,83.43131009998842,76.04260557565692,9.713172767078504e-05,0.0914954170584678,0,0,0
7053,239294.54089071412,2010-10-11 08:57:55,1200.6060554624603,2,21,0.5499359965324402,3.869406223297119,20.986240308584968,20.758392919165992,83.44905111161145,76.04260557565692,3.237724376958795e-05,0.0914954170584678,0,0,0
7054,239324.555907752,2010-10-11 08:58:25,1230.6210723900335,2,21,0.550297200679779,3.8723201751708975,20.99082658567753,20.758392919165992,83.46680444577427,76.04260557565692,9.713172767078504e-05,0.0914954170584678,0,0,0
7055,239354.5711814044,2010-10-11 08:58:55,1260.6363460424443,2,21,0.5501165986061096,3.874748468399048,20.995412909774902,20.758392919165992,83.48456962290541,76.04260557565692,9.713172767078504e-05,0.0914954170584678,0,0,0
7056,239384.5861775953,2010-10-11 08:59:25,1290.6513422283233,2,21,0.5501165986061096,3.877176761627197,20.99999912484054,20.758392919165992,83.50234542255,76.04260557565692,9.713172767078504e-05,0.0914954170584678,0,0,0
7057,239414.60146028525,2010-10-11 08:59:55,1320.666624918258,2,21,0.550297200679779,3.879281282424927,21.004585401977767,20.758392919165992,83.52013196380355,76.04260557565692,9.713172767078504e-05,0.0914954170584678,0,0,0
7058,239444.61650820504,2010-10-11 09:00:25,1350.6816728330607,2,21,0.5501165986061096,3.8812239170074463,21.009171660431043,20.758392919165992,83.53792818329207,76.04260557565692,6.47544875391759e-05,0.0914954170584678,0,0,0
7059,239474.6316475026,2010-10-11 09:00:55,1380.6968121406428,2,21,0.5501165986061096,3.883328437805176,21.013757889253284,20.758392919165992,83.55573336145245,76.04260557565692,9.713172767078504e-05,0.0914954170584678,0,0,0
7060,239504.64679019363,2010-10-11 09:01:25,1410.7119548216324,2,21,0.5501165986061096,3.885109186172485,21.01834421817413,20.758392919165992,83.57354733962818,76.04260557565692,6.47544875391759e-05,0.0914954170584678,0,0,0
7061,239534.66193973672,2010-10-11 09:01:55,1440.7271043446744,2,21,0.5499359965324402,3.886566162109375,21.0229304542596,20.758392919165992,83.59136871963987,76.04260557565692,0.0,0.0914954170584678,0,0,0
7062,239564.67749883057,2010-10-11 09:02:25,1470.7426634836052,2,21,0.5499359965324402,3.8881850242614746,21.027516750770467,20.758392919165992,83.6091974716921,76.04260557565692,6.47544875391759e-05,0.0914954170584678,0,0,0
7063,239594.6922577852,2010-10-11 09:02:55,1500.7574224181806,2,21,0.5501165986061096,3.8894801139831534,21.032103000033217,20.758392919165992,83.62703271800837,76.04260557565692,3.237724376958795e-05,0.0914954170584678,0,0,0
7064,239624.70972200212,2010-10-11 09:03:25,1530.7748867504397,2,21,0.5501165986061096,3.890937089920044,21.03668970842968,20.758392919165992,83.64487584548475,76.04260557565692,6.47544875391759e-05,0.0914954170584678,0,0,0
7065,239654.72259025453,2010-10-11 09:03:55,1560.787754857491,2,21,0.5501165986061096,3.8920702934265137,21.041275683501706,20.758392919165992,83.66272196813001,76.04260557565692,6.47544875391759e-05,0.0914954170584678,0,0,0
7066,239684.73772222383,2010-10-11 09:04:25,1590.8028869571085,2,21,0.5499359965324402,3.893203496932984,21.04586198598277,20.758392919165992,83.68057485956395,76.04260557565692,3.237724376958795e-05,0.0914954170584678,0,0,0
7067,239714.7530107834,2010-10-11 09:04:55,1620.81817545151,2,21,0.5499359965324402,3.894174814224243,21.050448328496017,20.758392919165992,83.69843330032758,76.04260557565692,0.0,0.0914954170584678,0,0,0
7068,239744.769924759,2010-10-11 09:05:25,1650.8350893819982,2,21,0.5499359965324402,3.895308017730713,21.05503497910845,20.758392919165992,83.71629768528325,76.04260557565692,3.237724376958795e-05,0.0914954170584678,0,0,0
7069,239774.78552327107,2010-10-11 09:05:55,1680.850687924134,2,21,0.5501165986061096,3.896441221237183,21.05962131641058,20.758392919165992,83.73416599196109,76.04260557565692,0.0,0.0914954170584678,0,0,0
7070,239804.7983318447,2010-10-11 09:06:25,1710.86349647776,2,21,0.5501165986061096,3.897574424743652,21.06420729016165,20.758392919165992,83.75203790684473,76.04260557565692,0.0,0.0914954170584678,0,0,0
7071,239834.81362327648,2010-10-11 09:06:55,1740.8787878994572,2,21,0.5501165986061096,3.898707628250122,21.068793556229707,20.758392919165992,83.76991598735556,76.04260557565692,3.237724376958795e-05,0.0914954170584678,0,0,0
7072,239864.82865484053,2010-10-11 09:07:25,1770.893819463509,2,21,0.5501165986061096,3.899840831756592,21.07337982154495,20.758392919165992,83.78779915750322,76.04260557565692,3.237724376958795e-05,0.0914954170584678,0,0,0
7073,239894.843788093,2010-10-11 09:07:55,1800.90895273605,2,21,0.5501165986061096,3.9009740352630615,21.07796615032309,20.758392919165992,83.80568749701261,76.04260557565692,3.237724376958795e-05,0.0914954170584678,0,0,0
7074,239924.85894394183,2010-10-11 09:08:25,1830.9241085497704,2,21,0.5501165986061096,3.901945352554321,21.08255240445288,20.758392919165992,83.82358061328587,76.04260557565692,3.237724376958795e-05,0.0914954170584678,0,0,0
7075,239954.8740967631,2010-10-11 09:08:55,1860.9392613710324,2,21,0.5501165986061096,3.903078556060791,21.087138713044595,20.758392919165992,83.84147895935604,76.04260557565692,3.237724376958795e-05,0.0914954170584678,0,0,0
7076,239984.88924193528,2010-10-11 09:09:25,1890.954406593356,2,21,0.5501165986061096,3.9042117595672607,21.091725004639013,20.758392919165992,83.85938232846402,76.04260557565692,3.237724376958795e-05,0.0914954170584678,0,0,0
7077,240014.9045080038,2010-10-11 09:09:55,1920.9696726067275,2,21,0.5501165986061096,3.9053449630737305,21.096311362246325,20.758392919165992,83.8772911188048,76.04260557565692,3.237724376958795e-05,0.0914954170584678,0,0,0
7078,240044.9196711608,2010-10-11 09:10:25,1950.9848357737744,2,21,0.5501165986061096,3.9064781665802,21.100897652543257,20.758392919165992,83.89520471756347,76.04260557565692,0.0,0.0914954170584678,0,0,0
7079,240074.9348107892,2010-10-11 09:10:55,1980.999975397144,2,21,0.5499359965324402,3.90761137008667,21.105483879147727,20.758392919165992,83.91312337951149,76.04260557565692,3.237724376958795e-05,0.0914954170584678,0,0,0
7080,240104.94984451865,2010-10-11 09:11:25,2011.015009156668,2,21,0.5499359965324402,3.90874457359314,21.110070080981263,20.758392919165992,83.93104718700273,76.04260557565692,3.237724376958795e-05,0.0914954170584678,0,0,0
7081,240134.96510516363,2010-10-11 09:11:55,2041.030269816697,2,21,0.5499359965324402,3.90987777709961,21.11465628384025,20.758392919165992,83.9489763913488,76.04260557565692,3.237724376958795e-05,0.0914954170584678,0,0,0
7082,240164.9801339508,2010-10-11 09:12:25,2071.045298593803,2,21,0.5501165986061096,3.911172866821289,21.11924252636795,20.758392919165992,83.96691111072067,76.04260557565692,3.237724376958795e-05,0.0914954170584678,0,0,0
7083,240194.99530529825,2010-10-11 09:12:55,2101.060469931213,2,21,0.5501165986061096,3.912306070327759,21.123828766282745,20.758392919165992,83.98485131140463,76.04260557565692,0.0,0.0914954170584678,0,0,0
7084,240225.01043982888,2010-10-11 09:13:25,2131.0756044618897,2,21,0.5499359965324402,3.913439273834229,21.128415052422177,20.758392919165992,84.00279725267094,76.04260557565692,0.0,0.0914954170584678,0,0,0
7085,240255.02571647376,2010-10-11 09:13:55,2161.090881096733,2,21,0.5499359965324402,3.914734125137329,21.13300132519777,20.758392919165992,84.02074874619991,76.04260557565692,3.237724376958795e-05,0.0914954170584678,0,0,0
7086,240285.04078566656,2010-10-11 09:14:25,2191.105950329668,2,21,0.5499359965324402,3.9161911010742183,21.13758768391172,20.758392919165992,84.03870616198677,76.04260557565692,9.713172767078504e-05,0.0914954170584678,0,0,0
7087,240315.055905651,2010-10-11 09:14:55,2221.1210702589533,2,21,0.5499359965324402,3.9171624183654794,21.14217395769515,20.758392919165992,84.05666898150332,76.04260557565692,0.0,0.0914954170584678,0,0,0
7088,240345.07298022183,2010-10-11 09:15:25,2251.138144864894,2,21,0.5499359965324402,3.918457508087158,21.14676052147819,20.758392919165992,84.0746387068209,76.04260557565692,3.237724376958795e-05,0.0914954170584678,0,0,0
7089,240375.086204667,2010-10-11 09:15:55,2281.1513693000247,2,21,0.5501165986061096,3.920076370239258,21.15134648583992,20.758392919165992,84.09261200136517,76.04260557565692,6.47544875391759e-05,0.0914954170584678,0,0,0
7090,240405.10136364863,2010-10-11 09:16:26,2311.1665282615904,2,21,0.5499359965324402,3.9210476875305176,21.155932787177584,20.758392919165992,84.11059254263223,76.04260557565692,3.237724376958795e-05,0.0914954170584678,0,0,0
7091,240435.1165177481,2010-10-11 09:16:56,2341.1816824462508,2,21,0.5501165986061096,3.9225046634674072,21.16051906280508,20.758392919165992,84.12857896760846,76.04260557565692,3.237724376958795e-05,0.0914954170584678,0,0,0
7092,240465.13165116092,2010-10-11 09:17:26,2371.196815768916,2,21,0.5501165986061096,3.923799753189087,21.165105294073737,20.758392919165992,84.14657132072612,76.04260557565692,3.237724376958795e-05,0.0914954170584678,0,0,0
7093,240495.14682358108,2010-10-11 09:17:56,2401.211988214088,2,21,0.5501165986061096,3.925256729125977,21.16969152385249,20.758392919165992,84.16456981824814,76.04260557565692,6.47544875391759e-05,0.0914954170584678,0,0,0
7094,240525.16195952025,2010-10-11 09:18:26,2431.227124128212,2,21,0.5499359965324402,3.926228046417236,21.17427776295765,20.758392919165992,84.1825744774008,76.04260557565692,-3.237724376958795e-05,0.0914954170584678,0,0,0
7095,240555.1771461658,2010-10-11 09:18:56,2461.2423107938243,2,21,0.5501165986061096,3.928008794784546,21.17886404965581,20.758392919165992,84.20058562441397,76.04260557565692,3.237724376958795e-05,0.0914954170584678,0,0,0
7096,240585.1925062236,2010-10-11 09:19:26,2491.257670971884,2,21,0.5499359965324402,3.9293038845062256,21.183450322758404,20.758392919165992,84.21860305780677,76.04260557565692,6.47544875391759e-05,0.0914954170584678,0,0,0
7097,240615.2075481485,2010-10-11 09:19:56,2521.272712771446,2,21,0.5501165986061096,3.9307608604431152,21.188036572563863,20.758392919165992,84.23662686465057,76.04260557565692,9.713172767078504e-05,0.0914954170584678,0,0,0
7098,240645.2225479333,2010-10-11 09:20:26,2551.287712571332,2,21,0.5501165986061096,3.932055950164795,21.192622892229124,20.758392919165992,84.25465737942882,76.04260557565692,3.237724376958795e-05,0.0914954170584678,0,0,0
7099,240675.23771994736,2010-10-11 09:20:56,2581.302884595453,2,21,0.5501165986061096,3.933512926101685,21.19720911283156,20.758392919165992,84.27269404797532,76.04260557565692,3.237724376958795e-05,0.0914954170584678,0,0,0
7100,240705.2529174701,2010-10-11 09:21:26,2611.3180820780253,2,21,0.5501165986061096,3.935131788253784,21.20179545662524,20.758392919165992,84.29073780960476,76.04260557565692,9.713172767078504e-05,0.0914954170584678,0,0,0
7101,240735.26804549457,2010-10-11 09:21:56,2641.333210107499,2,21,0.5501165986061096,3.936264991760254,21.20638174928277,20.758392919165992,84.30878803006692,76.04260557565692,0.0,0.0914954170584678,0,0,0
7102,240765.2831674589,2010-10-11 09:22:26,2671.348332081881,2,21,0.5501165986061096,3.9378838539123535,21.210968101922926,20.758392919165992,84.32684504503453,76.04260557565692,6.47544875391759e-05,0.0914954170584678,0,0,0
7103,240795.2983498288,2010-10-11 09:22:56,2701.3635144618124,2,21,0.550297200679779,3.939340829849243,21.215554556903943,20.758392919165992,84.3449093001774,76.04260557565692,6.47544875391759e-05,0.0914954170584678,0,0,0
7104,240825.313495798,2010-10-11 09:23:26,2731.3786604360093,2,21,0.5501165986061096,3.940959692001343,21.22014089375454,20.758392919165992,84.3629798605421,76.04260557565692,6.47544875391759e-05,0.0914954170584678,0,0,0
7105,240855.32862531612,2010-10-11 09:23:56,2761.393789974243,2,21,0.5501165986061096,3.9422547817230233,21.22472728784344,20.758392919165992,84.38105750860322,76.04260557565692,3.237724376958795e-05,0.0914954170584678,0,0,0
7106,240885.3437813053,2010-10-11 09:24:26,2791.4089459182887,2,21,0.5501165986061096,3.943873643875122,21.229313693188345,20.758392919165992,84.39914215141776,76.04260557565692,3.237724376958795e-05,0.0914954170584678,0,0,0
7107,240915.35895687327,2010-10-11 09:24:56,2821.424121506293,2,21,0.550297200679779,3.945330619812012,21.23390007249801,20.758392919165992,84.41723354772235,76.04260557565692,0.0,0.0914954170584678,0,0,0
7108,240945.3760738849,2010-10-11 09:25:26,2851.4412385379715,2,21,0.550297200679779,3.946787595748901,21.238486813169303,20.758392919165992,84.43533337372199,76.04260557565692,0.0,0.0914954170584678,0,0,0
7109,240975.3892388318,2010-10-11 09:25:56,2881.454403464789,2,21,0.5501165986061096,3.948568344116211,21.243072916504826,20.758392919165992,84.45343763153227,76.04260557565692,6.47544875391759e-05,0.0914954170584678,0,0,0
7110,241005.4043942144,2010-10-11 09:26:26,2911.4695588273853,2,21,0.5501165986061096,3.9500253200531006,21.24765932169223,20.758392919165992,84.47155029074662,76.04260557565692,3.237724376958795e-05,0.0914954170584678,0,0,0
7111,241035.41956865456,2010-10-11 09:26:56,2941.484733317653,2,21,0.5501165986061096,3.9514822959899902,21.252245749338268,20.758392919165992,84.48967028522618,76.04260557565692,3.237724376958795e-05,0.0914954170584678,0,0,0
7112,241065.43469566148,2010-10-11 09:27:26,2971.4998602794653,2,21,0.5501165986061096,3.95310115814209,21.256832110268,20.758392919165992,84.50779722493716,76.04260557565692,3.237724376958795e-05,0.0914954170584678,0,0,0
7113,241095.449861004,2010-10-11 09:27:56,3001.515025646997,2,21,0.5501165986061096,3.9547200202941895,21.261418559413823,20.758392919165992,84.52593181467685,76.04260557565692,3.237724376958795e-05,0.0914954170584678,0,0,0
7114,241125.4650293038,2010-10-11 09:28:26,3031.5301939718997,2,21,0.5501165986061096,3.956338882446289,21.266005013682715,20.758392919165992,84.54407379656928,76.04260557565692,3.237724376958795e-05,0.0914954170584678,0,0,0
7115,241155.4803538681,2010-10-11 09:28:56,3061.5455185311857,2,21,0.5501165986061096,3.9579577445983887,21.2705914771864,20.758392919165992,84.56222307474421,76.04260557565692,3.237724376958795e-05,0.0914954170584678,0,0,0
7116,241185.4952881848,2010-10-11 09:29:26,3091.560452797742,2,21,0.5501165986061096,3.959576606750488,21.27517783498353,20.758392919165992,84.58037945690846,76.04260557565692,3.237724376958795e-05,0.0914954170584678,0,0,0
7117,241215.51056883464,2010-10-11 09:29:56,3121.5757334576174,2,21,0.5501165986061096,3.961195468902588,21.27976432263224,20.758392919165992,84.59854388002158,76.04260557565692,3.237724376958795e-05,0.0914954170584678,0,0,0
7118,241245.52560471947,2010-10-11 09:30:26,3151.5907693374256,2,21,0.5501165986061096,3.962814331054688,21.28435076700138,20.758392919165992,84.6167157371266,76.04260557565692,3.237724376958795e-05,0.0914954170584678,0,0,0
7119,241275.5407614555,2010-10-11 09:30:56,3181.60592606342,2,21,0.5501165986061096,3.964595079421997,21.2889371726179,20.758392919165992,84.63489512625272,76.04260557565692,3.237724376958795e-05,0.0914954170584678,0,0,0
7120,241305.55594916368,2010-10-11 09:31:26,3211.621113901956,2,21,0.5501165986061096,3.966375827789306,21.293523620566464,20.758392919165992,84.65308236325764,76.04260557565692,6.47544875391759e-05,0.0914954170584678,0,0,0
7121,241335.57119112712,2010-10-11 09:31:56,3241.6363557501004,2,21,0.5501165986061096,3.9679946899414062,21.298110107632844,20.758392919165992,84.67127746706645,76.04260557565692,6.47544875391759e-05,0.0914954170584678,0,0,0
7122,241365.58620698703,2010-10-11 09:32:26,3271.651371599988,2,21,0.5501165986061096,3.969775438308716,21.302696487083224,20.758392919165992,84.68947992415798,76.04260557565692,6.47544875391759e-05,0.0914954170584678,0,0,0
7123,241395.601361708,2010-10-11 09:32:56,3301.666526315972,2,21,0.550297200679779,3.971394300460816,21.307282897548383,20.758392919165992,84.70769040952156,76.04260557565692,3.237724376958795e-05,0.0914954170584678,0,0,0
7124,241425.6165023088,2010-10-11 09:33:26,3331.681666946852,2,21,0.550297200679779,3.973336935043335,21.311869388814777,20.758392919165992,84.72590926870467,76.04260557565692,6.47544875391759e-05,0.0914954170584678,0,0,0
7125,241455.63165384688,2010-10-11 09:33:56,3361.696818459854,2,21,0.5499359965324402,3.9749557971954346,21.316455852274267,20.758392919165992,84.74413609733597,76.04260557565692,6.47544875391759e-05,0.0914954170584678,0,0,0
7126,241485.64707834527,2010-10-11 09:34:26,3391.7122429933065,2,21,0.550297200679779,3.976898431777954,21.32104231656367,20.758392919165992,84.76237106510243,76.04260557565692,6.47544875391759e-05,0.0914954170584678,0,0,0
7127,241515.66198302808,2010-10-11 09:34:56,3421.7271476610936,2,21,0.5501165986061096,3.978355407714844,21.32562876544881,20.758392919165992,84.78061375587112,76.04260557565692,9.713172767078504e-05,0.0914954170584678,0,0,0
7128,241545.6797672025,2010-10-11 09:35:26,3451.744931935747,2,21,0.5499359965324402,3.980459928512573,21.33021548057128,20.758392919165992,84.79886630584063,76.04260557565692,6.47544875391759e-05,0.0914954170584678,0,0,0
7129,241575.69228075087,2010-10-11 09:35:56,3481.7574453888924,2,21,0.5501165986061096,3.982240676879883,21.334801398583352,20.758392919165992,84.81712414343276,76.04260557565692,6.47544875391759e-05,0.0914954170584678,0,0,0
7130,241605.70741102097,2010-10-11 09:36:26,3511.772575643912,2,21,0.5501165986061096,3.984021425247192,21.33938767019568,20.758392919165992,84.83539194713912,76.04260557565692,3.237724376958795e-05,0.0914954170584678,0,0,0
7131,241635.72257559648,2010-10-11 09:36:56,3541.787740209445,2,21,0.550297200679779,3.986287832260132,21.34397400963781,20.758392919165992,84.85366867815817,76.04260557565692,0.0001618862152099,0.0914954170584678,0,0,0
7132,241665.73771328505,2010-10-11 09:37:26,3571.802877908017,2,21,0.5501165986061096,3.987906694412232,21.348560412566545,20.758392919165992,84.87195447410797,76.04260557565692,6.47544875391759e-05,0.0914954170584678,0,0,0
7133,241695.75537178625,2010-10-11 09:37:56,3601.8205365345166,2,21,0.5499359965324402,3.989849328994751,21.353147071219595,20.758392919165992,84.89024994629766,76.04260557565692,3.237724376958795e-05,0.0914954170584678,0,0,0
7134,241725.76801635112,2010-10-11 09:38:26,3631.833180964096,2,21,0.5499359965324402,3.9917919635772714,21.35773297761784,20.758392919165992,84.9085514291525,76.04260557565692,3.237724376958795e-05,0.0914954170584678,0,0,0
7135,241755.7831990769,2010-10-11 09:38:56,3661.848363684877,2,21,0.5501165986061096,3.993896484375,21.36231951396619,20.758392919165992,84.92686450829619,76.04260557565692,9.713172767078504e-05,0.0914954170584678,0,0,0
7136,241785.7983096529,2010-10-11 09:39:26,3691.8634742658624,2,21,0.5501165986061096,3.995838880538941,21.36690662537061,20.758392919165992,84.9451890396204,76.04260557565692,3.237724376958795e-05,0.0914954170584678,0,0,0
7137,241815.8136081873,2010-10-11 09:39:56,3721.878772810312,2,21,0.550297200679779,3.99778151512146,21.371493697562656,20.758392919165992,84.96352265690413,76.04260557565692,3.237724376958795e-05,0.0914954170584678,0,0,0
7138,241845.82867137017,2010-10-11 09:40:26,3751.893836108455,2,21,0.5501165986061096,3.99972414970398,21.37607997474763,20.758392919165992,84.98186226975616,76.04260557565692,0.0,0.0914954170584678,0,0,0
7139,241875.84381880303,2010-10-11 09:40:56,3781.908983420987,2,21,0.5501165986061096,4.001828670501709,21.38066623430091,20.758392919165992,85.00021123823743,76.04260557565692,3.23295607813634e-05,0.0914954170584678,0,0,0
7140,241905.85894640643,2010-10-11 09:41:26,3811.924111059486,2,21,0.5499359965324402,4.003933429718018,21.38525253432999,20.758392919165992,85.01856985918245,76.04260557565692,6.47544875391759e-05,0.0914954170584678,0,0,0
7141,241935.8742176979,2010-10-11 09:41:56,3841.939382305901,2,21,0.5501165986061096,4.006037712097168,21.389838832407627,20.758392919165992,85.03693803432253,76.04260557565692,3.23295607813634e-05,0.0914954170584678,0,0,0
7142,241965.8892747104,2010-10-11 09:42:26,3871.9544393534657,2,21,0.5501165986061096,4.008142471313477,21.394425104436685,20.758392919165992,85.05531575702234,76.04260557565692,3.24249267578125e-05,0.0914954170584678,0,0,0
7143,241995.904414008,2010-10-11 09:42:56,3901.969578656035,2,21,0.550297200679779,4.010246753692627,21.399011416541917,20.758392919165992,85.07370335288346,76.04260557565692,3.23295607813634e-05,0.0914954170584678,0,0,0
7144,242025.9195596614,2010-10-11 09:43:26,3931.984724274346,2,21,0.5499359965324402,4.012351512908936,21.40359772631429,20.758392919165992,85.09210072975903,76.04260557565692,6.47544875391759e-05,0.0914954170584678,0,0,0
7145,242055.93472192617,2010-10-11 09:43:56,3961.9998865642074,2,21,0.5499359965324402,4.014455795288086,21.408184041383617,20.758392919165992,85.11050789623093,76.04260557565692,6.47544875391759e-05,0.0914954170584678,0,0,0
7146,242085.94990909303,2010-10-11 09:44:26,3992.0150737060058,2,21,0.5501165986061096,4.016722202301025,21.412770394515963,20.758392919165992,85.12892515524766,76.04260557565692,3.23295607813634e-05,0.0914954170584678,0,0,0
7147,242115.96515733213,2010-10-11 09:44:56,4022.0303219751536,2,21,0.550297200679779,4.018988609313965,21.41735684807257,20.758392919165992,85.14735286578387,76.04260557565692,3.23295607813634e-05,0.0914954170584678,0,0,0
7148,242145.982158089,2010-10-11 09:45:26,4052.047322742065,2,21,0.5499359965324402,4.021093368530273,21.42194344437541,20.758392919165992,85.1657911016647,76.04260557565692,3.24249267578125e-05,0.0914954170584678,0,0,0
7149,242175.9954850847,2010-10-11 09:45:56,4082.060649697708,2,21,0.5501165986061096,4.023359775543213,21.426529437523968,20.758392919165992,85.18423722793263,76.04260557565692,6.47544875391759e-05,0.0914954170584678,0,0,0
7150,242206.01051018268,2010-10-11 09:46:26,4112.075674795645,2,21,0.5499359965324402,4.025626182556152,21.431115784106847,20.758392919165992,85.20269506975887,76.04260557565692,6.47544875391759e-05,0.0914954170584678,0,0,0
7151,242236.025790226,2010-10-11 09:46:56,4142.090954969309,2,21,0.5499359965324402,4.028054237365723,21.435702103274892,20.758392919165992,85.22116317716261,76.04260557565692,9.70840483205393e-05,0.0914954170584678,0,0,0
7152,242266.0407970484,2010-10-11 09:47:26,4172.1059616713965,2,21,0.5501165986061096,4.030158996582031,21.44028848037488,20.758392919165992,85.2396419516117,76.04260557565692,6.47544875391759e-05,0.0914954170584678,0,0,0
7153,242296.05595935832,2010-10-11 09:47:56,4202.121123961258,2,21,0.5501165986061096,4.032587051391602,21.444874810231497,20.758392919165992,85.25813107641758,76.04260557565692,6.47544875391759e-05,0.0914954170584678,0,0,0
7154,242326.07115799372,2010-10-11 09:48:27,4232.136322636803,2,21,0.550297200679779,4.034853458404541,21.44946112529364,20.758392919165992,85.27663081047172,76.04260557565692,3.24249267578125e-05,0.0914954170584678,0,0,0
7155,242356.086407892,2010-10-11 09:48:57,4262.15157251496,2,21,0.5497553944587708,4.0371198654174805,21.4540474705762,20.758392919165992,85.29514141345959,76.04260557565692,6.47544875391759e-05,0.0914954170584678,0,0,0
7156,242386.10145832808,2010-10-11 09:49:27,4292.166622951047,2,21,0.5501165986061096,4.03971004486084,21.458633875770524,20.758392919165992,85.31366323310992,76.04260557565692,6.47544875391759e-05,0.0914954170584678,0,0,0
7157,242416.11658311944,2010-10-11 09:49:57,4322.181747732425,2,21,0.5501165986061096,4.041976451873779,21.463220183387108,20.758392919165992,85.33219546570368,76.04260557565692,6.47544875391759e-05,0.0914954170584678,0,0,0
7158,242446.1317484118,2010-10-11 09:50:27,4352.196913024769,2,21,0.5499359965324402,4.04440450668335,21.467806553722607,20.758392919165992,85.35073913397417,76.04260557565692,6.47544875391759e-05,0.0914954170584678,0,0,0
7159,242476.14691417533,2010-10-11 09:50:57,4382.212078818363,2,21,0.550297200679779,4.046994686126709,21.47239292977502,20.758392919165992,85.36929399040731,76.04260557565692,9.70840483205393e-05,0.0914954170584678,0,0,0
7160,242506.16226699503,2010-10-11 09:51:27,4412.227431658133,2,21,0.5499359965324402,4.0494232177734375,21.476979270418905,20.758392919165992,85.38785999331425,76.04260557565692,9.71794142969884e-05,0.0914954170584678,0,0,0
7161,242536.1772251461,2010-10-11 09:51:57,4442.242389749067,2,21,0.5501165986061096,4.051851272583008,21.481565625249505,20.758392919165992,85.40643743166807,76.04260557565692,6.47544875391759e-05,0.0914954170584678,0,0,0
7162,242566.1923777368,2010-10-11 09:52:27,4472.257542354792,2,21,0.550297200679779,4.054441452026367,21.486151998526907,20.758392919165992,85.42502651259521,76.04260557565692,6.47544875391759e-05,0.0914954170584678,0,0,0
7163,242596.20756513925,2010-10-11 09:52:57,4502.272729787316,2,21,0.5501165986061096,4.056869983673096,21.490738438535843,20.758392919165992,85.44362745229945,76.04260557565692,6.47544875391759e-05,0.0914954170584678,0,0,0
7164,242626.22269217623,2010-10-11 09:53:27,4532.287856829328,2,21,0.5501165986061096,4.059621810913086,21.49532487840777,20.758392919165992,85.46224013034522,76.04260557565692,9.70840483205393e-05,0.0914954170584678,0,0,0
7165,242656.23785511777,2010-10-11 09:53:57,4562.3030198560255,2,21,0.5501165986061096,4.062211990356445,21.49991132713331,20.758392919165992,85.48086445174656,76.04260557565692,9.70840483205393e-05,0.0914954170584678,0,0,0
7166,242686.2530329664,2010-10-11 09:54:27,4592.318197699651,2,21,0.5501165986061096,4.064640522003174,21.50449767375597,20.758392919165992,85.4995003538397,76.04260557565692,9.71794142969884e-05,0.0914954170584678,0,0,0
7167,242716.268181106,2010-10-11 09:54:57,4622.333345754033,2,21,0.5499359965324402,4.067230701446533,21.509084053642564,20.758392919165992,85.51814853373945,76.04260557565692,6.47544875391759e-05,0.0914954170584678,0,0,0
7168,242746.28539676347,2010-10-11 09:55:27,4652.350561506756,2,21,0.5501165986061096,4.069982528686523,21.51367072018176,20.758392919165992,85.53681018426404,76.04260557565692,6.47544875391759e-05,0.0914954170584678,0,0,0
7169,242776.298493365,2010-10-11 09:55:57,4682.36365799801,2,21,0.5499359965324402,4.072572708129883,21.5182567672969,20.758392919165992,85.55548163892449,76.04260557565692,3.23295607813634e-05,0.0914954170584678,0,0,0
7170,242806.31367291787,2010-10-11 09:56:27,4712.378837550897,2,21,0.5499359965324402,4.075325012207031,21.522843119565746,20.758392919165992,85.5741669197166,76.04260557565692,3.24249267578125e-05,0.0914954170584678,0,0,0
7171,242836.32881569912,2010-10-11 09:56:57,4742.393980312086,2,21,0.550297200679779,4.078400611877441,21.52742956299555,20.758392919165992,85.59286526116831,76.04260557565692,6.47544875391759e-05,0.0914954170584678,0,0,0
7172,242866.3439681795,2010-10-11 09:57:27,4772.409132802523,2,21,0.5501165986061096,4.080990791320801,21.532015882034063,20.758392919165992,85.61157589183338,76.04260557565692,6.47544875391759e-05,0.0914954170584678,0,0,0
7173,242896.3591191512,2010-10-11 09:57:57,4802.424283764151,2,21,0.5501165986061096,4.08390474319458,21.53660220331835,20.758392919165992,85.63029936862434,76.04260557565692,6.47544875391759e-05,0.0914954170584678,0,0,0
7174,242926.37428303,2010-10-11 09:58:27,4832.439447683072,2,21,0.5501165986061096,4.086818695068359,21.541188579306706,20.758392919165992,85.64903620389198,76.04260557565692,3.23295607813634e-05,0.0914954170584678,0,0,0
7175,242956.38944804663,2010-10-11 09:58:57,4862.454612664641,2,21,0.5499359965324402,4.089732646942139,21.545774906977822,20.758392919165992,85.66778604704422,76.04260557565692,9.70840483205393e-05,0.0914954170584678,0,0,0
7176,242986.40459365497,2010-10-11 09:59:27,4892.469758297989,2,21,0.5501165986061096,4.092646598815918,21.550361351928064,20.758392919165992,85.68654969885208,76.04260557565692,9.70840483205393e-05,0.0914954170584678,0,0,0
7177,243016.41976847604,2010-10-11 09:59:57,4922.484933109056,2,21,0.5501165986061096,4.095560550689697,21.554947668890232,20.758392919165992,85.70532619621542,76.04260557565692,9.70840483205393e-05,0.0914954170584678,0,0,0
7178,243046.43492114192,2010-10-11 10:00:27,4952.5000857649065,2,21,0.5501165986061096,4.098636627197266,21.559534066092763,20.758392919165992,85.72411658063051,76.04260557565692,9.71794142969884e-05,0.0914954170584678,0,0,0
7179,243076.4502537613,2010-10-11 10:00:57,4982.515418414356,2,21,0.5501165986061096,4.101550579071045,21.56412048660303,20.758392919165992,85.74292071703947,76.04260557565692,9.71794142969884e-05,0.0914954170584678,0,0,0
7180,243106.4652531251,2010-10-11 10:01:27,5012.530417773142,2,21,0.5499359965324402,4.104464530944824,21.56870687234437,20.758392919165992,85.76173840971771,76.04260557565692,9.71794142969884e-05,0.0914954170584678,0,0,0
7181,243136.48051785023,2010-10-11 10:01:57,5042.545682498303,2,21,0.5499359965324402,4.107378482818604,21.573293329024,20.758392919165992,85.78057026729279,76.04260557565692,3.24249267578125e-05,0.0914954170584678,0,0,0
7182,243166.4955680507,2010-10-11 10:02:27,5072.560732693791,2,21,0.5501165986061096,4.110616207122803,21.57787966594796,20.758392919165992,85.79941550984056,76.04260557565692,9.71794142969884e-05,0.0914954170584678,0,0,0
7183,243196.51072537323,2010-10-11 10:02:57,5102.575889981184,2,21,0.550297200679779,4.113691806793213,21.58246609144181,20.758392919165992,85.81827512492303,76.04260557565692,9.70840483205393e-05,0.0914954170584678,0,0,0
7184,243226.5258854125,2010-10-11 10:03:27,5132.591050080585,2,21,0.5499359965324402,4.116605758666992,21.58705247983179,20.758392919165992,85.83714874229223,76.04260557565692,9.71794142969884e-05,0.0914954170584678,0,0,0
7185,243256.5410238228,2010-10-11 10:03:57,5162.606188460857,2,21,0.5501165986061096,4.120005130767822,21.59163888827068,20.758392919165992,85.85603684855371,76.04260557565692,0.0001295089750783,0.0914954170584678,0,0,0
7186,243286.55618309515,2010-10-11 10:04:27,5192.621347708134,2,21,0.5501165986061096,4.123081207275391,21.596225273159224,20.758392919165992,85.87493933080118,76.04260557565692,9.71794142969884e-05,0.0914954170584678,0,0,0
7187,243316.5713531193,2010-10-11 10:04:57,5222.636517767359,2,21,0.5501165986061096,4.126156806945801,21.60081167828319,20.758392919165992,85.893856448189,76.04260557565692,6.47544875391759e-05,0.0914954170584678,0,0,0
7188,243346.5865076899,2010-10-11 10:05:27,5252.651672342993,2,21,0.550297200679779,4.129556655883789,21.60539806517026,20.758392919165992,85.91278831708613,76.04260557565692,0.0001295089750783,0.0914954170584678,0,0,0
7189,243376.5879895941,2010-10-11 10:05:57,5282.653154267174,2,21,0.5499359965324402,4.132632255554199,21.609982404385104,20.758392919165992,85.93172678750452,76.04260557565692,6.47544875391759e-05,0.0914954170584678,0,0,0
7190,243406.60129413384,2010-10-11 10:06:27,5312.666458897174,2,21,0.5501165986061096,4.135869979858398,21.61456777273631,20.758392919165992,85.95068448188057,76.04260557565692,3.23295607813634e-05,0.0914954170584678,0,0,0
7191,243436.61658431243,2010-10-11 10:06:57,5342.6817489604855,2,21,0.5499359965324402,4.139431476593018,21.619153276672087,20.758392919165992,85.96965811218604,76.04260557565692,6.47544875391759e-05,0.0914954170584678,0,0,0
7192,243466.6315128848,2010-10-11 10:07:27,5372.696677552901,2,21,0.5499359965324402,4.142831325531006,21.62373895772471,20.758392919165992,85.98864799075277,76.04260557565692,9.71794142969884e-05,0.0914954170584678,0,0,0
7193,243496.64910350172,2010-10-11 10:07:57,5402.714268240075,2,21,0.5499359965324402,4.146392822265625,21.628324785218943,20.758392919165992,86.00765415799673,76.04260557565692,0.0001295089750783,0.0914954170584678,0,0,0
7194,243526.661814392,2010-10-11 10:08:27,5432.72697904007,2,21,0.5499359965324402,4.149630546569824,21.63290985343449,20.758392919165992,86.02667305961826,76.04260557565692,6.47544875391759e-05,0.0914954170584678,0,0,0
7195,243556.676344777,2010-10-11 10:08:57,5462.741509379915,2,21,0.5499359965324402,4.153192043304443,21.637492907627102,20.758392919165992,86.04569940160599,76.04260557565692,6.47544875391759e-05,0.0914954170584678,0,0,0
7196,243586.6764841752,2010-10-11 10:09:27,5492.741648798158,2,21,0.5501165986061096,4.156753540039063,21.64207893281138,20.758392919165992,86.06475399827526,76.04260557565692,9.71794142969884e-05,0.0914954170584678,0,0,0
7197,243616.6916510314,2010-10-11 10:09:57,5522.75681567445,2,21,0.5501165986061096,4.160152912139893,21.646665297523423,20.758392919165992,86.08382619396542,76.04260557565692,6.47544875391759e-05,0.0914954170584678,0,0,0
7198,243646.70680055444,2010-10-11 10:10:27,5552.771965187468,2,21,0.5501165986061096,4.163714408874512,21.65125171502704,20.758392919165992,86.10291489749508,76.04260557565692,6.47544875391759e-05,0.0914954170584678,0,0,0
7199,243676.7244675769,2010-10-11 10:10:57,5582.789632315155,2,21,0.5501165986061096,4.167275905609131,21.65583854673508,20.758392919165992,86.12202154458683,76.04260557565692,9.70840483205393e-05,0.0914954170584678,0,0,0
7200,243706.7371522117,2010-10-11 10:11:27,5612.8023168547,2,21,0.5499359965324402,4.170999526977539,21.66042459612612,20.758392919165992,86.14114137537061,76.04260557565692,0.0001295089750783,0.0914954170584678,0,0,0
7201,243736.75234572936,2010-10-11 10:11:57,5642.81751037239,2,21,0.5497553944587708,4.174561023712158,21.66501105132288,20.758392919165992,86.16027945276399,76.04260557565692,9.71794142969884e-05,0.0914954170584678,0,0,0
7202,243766.76740825555,2010-10-11 10:12:27,5672.832572863521,2,21,0.5501165986061096,4.177960395812988,21.66959750822549,20.758392919165992,86.179434093836,76.04260557565692,6.47544875391759e-05,0.0914954170584678,0,0,0
7203,243796.78257359803,2010-10-11 10:12:57,5702.847738246091,2,21,0.5501165986061096,4.181845664978027,21.67418394074792,20.758392919165992,86.19860539364569,76.04260557565692,9.70840483205393e-05,0.0914954170584678,0,0,0
7204,243826.79773229396,2010-10-11 10:13:27,5732.862896901895,2,21,0.5501165986061096,4.185407161712647,21.678770412907365,20.758392919165992,86.2177936050155,76.04260557565692,9.70840483205393e-05,0.0914954170584678,0,0,0
7205,243856.81291198212,2010-10-11 10:13:57,5762.878076605154,2,21,0.550297200679779,4.1892924308776855,21.683356852815493,20.758392919165992,86.23699849695454,76.04260557565692,9.70840483205393e-05,0.0914954170584678,0,0,0
7206,243886.8280130444,2010-10-11 10:14:27,5792.893177702505,2,21,0.5501165986061096,4.192853927612305,21.68794323846984,20.758392919165992,86.25622000845382,76.04260557565692,9.70840483205393e-05,0.0914954170584678,0,0,0
7207,243916.8433050676,2010-10-11 10:14:57,5822.908469750764,2,21,0.5499359965324402,4.196253299713135,21.69252966673051,20.758392919165992,86.27545858949011,76.04260557565692,6.47544875391759e-05,0.0914954170584678,0,0,0
7208,243943.8896225377,2010-10-11 10:15:24,5849.954787170717,2,21,0.5501165986061096,4.200138568878174,21.69666246691199,20.758392919165992,86.29280885323367,76.04260557565692,0.0001942634553415,0.0914954170584678,0,0,0
7209,243973.89883614852,2010-10-11 10:15:54,30.015263081063576,3,21,0.0,4.116119861602783,21.69666246691199,20.758392919165992,86.29280885323367,76.04260557565692,-0.0003561973571777,0.0914954170584678,0,0,0
7210,244003.91385143707,2010-10-11 10:16:24,60.03027837957679,3,21,0.0,4.105435848236084,21.69666246691199,20.758392919165992,86.29280885323367,76.04260557565692,-0.0002590179501567,0.0914954170584678,0,0,0
7211,244033.9290791951,2010-10-11 10:16:54,90.04550614762948,3,21,0.0,4.0992841720581055,21.69666246691199,20.758392919165992,86.29280885323367,76.04260557565692,-0.0001618385285837,0.0914954170584678,0,0,0
7212,244063.89737001184,2010-10-11 10:17:24,120.01379696435733,3,21,0.0,4.095236778259277,21.69666246691199,20.758392919165992,86.29280885323367,76.04260557565692,-9.71794142969884e-05,0.0914954170584678,0,0,0
7213,244063.9087608373,2010-10-11 10:17:25,0.015627388259971,4,21,0.9987500309944152,4.199814796447754,21.696666802427156,20.758392919165992,86.29282706159438,76.04260557565692,0.0,0.0914954170584678,0,0,0
7214,244064.8618833419,2010-10-11 10:17:26,0.968749887797279,4,21,0.947998821735382,4.199814796447754,21.69692276920714,20.758392919165992,86.29390205848816,76.04260557565692,0.0,0.0914954170584678,0,0,0
7215,244067.03371213248,2010-10-11 10:17:28,3.140578683410963,4,21,0.8976088762283325,4.199814796447754,21.697478251166515,20.758392919165992,86.29623493640477,76.04260557565692,0.0,0.0914954170584678,0,0,0
7216,244070.2680293512,2010-10-11 10:17:31,6.374895897081959,4,21,0.8473994731903076,4.199653148651123,21.69826094918112,20.758392919165992,86.29952206225121,76.04260557565692,0.0,0.0914954170584678,0,0,0
7217,244074.64302522203,2010-10-11 10:17:35,10.749891898269532,4,21,0.7973707318305969,4.199814796447754,21.699259190153303,20.758392919165992,86.30371443479243,76.04260557565692,3.23295607813634e-05,0.0914954170584678,0,0,0
7218,244080.3147539552,2010-10-11 10:17:41,16.4216205261575,4,21,0.7473419308662415,4.199653148651123,21.70047461414164,20.758392919165992,86.30881893754288,76.04260557565692,-3.23295607813634e-05,0.0914954170584678,0,0,0
7219,244087.64275777547,2010-10-11 10:17:48,23.749624326398106,4,21,0.6973131895065308,4.199814796447754,21.70194294307665,20.758392919165992,86.31498559056297,76.04260557565692,0.0,0.0914954170584678,0,0,0
7220,244097.20525863493,2010-10-11 10:17:58,33.31212530614763,4,21,0.6472843885421753,4.199814796447754,21.703726119379933,20.758392919165992,86.32247453172619,76.04260557565692,0.0,0.0914954170584678,0,0,0
7221,244110.6111784119,2010-10-11 10:18:11,46.71804496283044,4,21,0.5972556471824646,4.199814796447754,21.70603865168289,20.758392919165992,86.33218666906136,76.04260557565692,0.0,0.0914954170584678,0,0,0
7222,244130.45693489345,2010-10-11 10:18:31,66.56380156968136,4,21,0.5472268462181091,4.199653148651123,21.709183341278543,20.758392919165992,86.34539369194185,76.04260557565692,0.0,0.0914954170584678,0,0,0
7223,244163.9228585925,2010-10-11 10:19:05,100.02972518353435,4,21,0.4971981048583984,4.199491024017334,21.71401785896841,20.758392919165992,86.3656975934803,76.04260557565692,-6.47544875391759e-05,0.0914954170584678,0,0,0
7224,244224.5000125042,2010-10-11 10:20:05,160.6068790450816,4,21,0.4471693336963653,4.199814796447754,21.721924872218885,20.758392919165992,86.39890530177409,76.04260557565692,0.0,0.0914954170584678,0,0,0
7225,244319.5142182952,2010-10-11 10:21:40,255.62108487615285,4,21,0.3971405625343323,4.199653148651123,21.733033480056303,20.758392919165992,86.4455589948204,76.04260557565692,-3.23295607813634e-05,0.0914954170584678,0,0,0
7226,244441.0747922637,2010-10-11 10:23:42,377.1816588597736,4,21,0.3471117913722992,4.199653148651123,21.74557974362636,20.758392919165992,86.49825056651109,76.04260557565692,0.0,0.0914954170584678,0,0,0
7227,244586.9945347905,2010-10-11 10:26:08,523.1014013815201,4,21,0.2970830202102661,4.199814796447754,21.75861667329908,20.758392919165992,86.55300285403078,76.04260557565692,0.0,0.0914954170584678,0,0,0
7228,244763.0230317225,2010-10-11 10:29:04,699.129898283414,4,21,0.247054249048233,4.199814796447754,21.771889075712448,20.758392919165992,86.60874406830195,76.04260557565692,0.0,0.0914954170584678,0,0,0
7229,244980.2382804728,2010-10-11 10:32:41,916.345147023736,4,21,0.1970254778861999,4.199653148651123,21.78524364879823,20.758392919165992,86.66483040416007,76.04260557565692,-3.23295607813634e-05,0.0914954170584678,0,0,0
7230,245265.10887475623,2010-10-11 10:37:26,1201.215741337256,4,21,0.1469967067241668,4.199976921081543,21.79877834351679,20.758392919165992,86.72167323096967,76.04260557565692,3.24249267578125e-05,0.0914954170584678,0,0,0
7231,245678.38373290925,2010-10-11 10:44:19,1614.4905994802432,4,21,0.0969679355621337,4.199653148651123,21.81259817276965,20.758392919165992,86.7797135124004,76.04260557565692,-3.23295607813634e-05,0.0914954170584678,0,0,0
7232,246386.779010193,2010-10-11 10:56:08,2322.885876764012,4,21,0.0498289167881011,4.199653148651123,21.82655943425864,20.758392919165992,86.83834779745494,76.04260557565692,0.0,0.0914954170584678,0,0,0
7233,246416.79472825085,2010-10-11 10:56:38,30.015180475184305,5,21,0.0,4.192044734954834,21.82655943425864,20.758392919165992,86.83834779745494,76.04260557565692,-6.47544875391759e-05,0.0914954170584678,0,0,0
7234,246446.7942548869,2010-10-11 10:57:08,60.01470708110985,5,21,0.0,4.190749645233154,21.82655943425864,20.758392919165992,86.83834779745494,76.04260557565692,-3.23295607813634e-05,0.0914954170584678,0,0,0
7235,246446.98320515896,2010-10-11 10:57:08,0.187500794672877,6,21,-1.9243103452026844e-05,4.190911293029785,21.82655943425864,20.75839292016824,86.83834779745494,76.04260557985727,0.0,0.0931148082017898,0,0,0
7236,246451.8112276666,2010-10-11 10:57:13,5.015523332382245,6,21,0.0003419754502829,4.190749645233154,21.826560361443065,20.758392920251943,86.83835168319168,76.04260558020806,-3.23295607813634e-05,0.0931148082017898,0,0,0
7237,246481.82791011743,2010-10-11 10:57:43,30.01514461581171,7,21,-1.099568486213684,4.018341064453125,21.826560361443065,20.767560735441933,86.83835168319168,76.07963605489861,-0.0008742332574911,0.0931148082017898,0,0,0
7238,246511.84307803636,2010-10-11 10:58:13,60.030312554751845,7,21,-1.0993878841400146,3.9924395084381104,21.826560361443065,20.776728490859,86.83835168319168,76.11634673323671,-0.0005503654247149,0.0931148082017898,0,0,0
7239,246541.85822036144,2010-10-11 10:58:43,90.04545484977945,7,21,-1.099568486213684,3.9744701385498047,21.826560361443065,20.78589620551693,86.83835168319168,76.15286164296207,-0.0004209041653666,0.0931148082017898,0,0,0
7240,246571.87351650992,2010-10-11 10:59:13,120.06075100828218,7,21,-1.099568486213684,3.960871696472168,21.826560361443065,20.79506393237648,86.83835168319168,76.18923418246848,-0.0002913951757363,0.0931148082017898,0,0,0
7241,246601.888585798,2010-10-11 10:59:43,150.07582044171627,7,21,-1.099568486213684,3.949215888977051,21.826560361443065,20.804231609836357,86.83835168319168,76.22549133942144,-0.0002913951757363,0.0931148082017898,0,0,0
7242,246631.90371716573,2010-10-11 11:00:13,180.0909516541226,7,21,-1.0997490882873535,3.938855171203613,21.826560361443065,20.81339927907829,86.83835168319168,76.26164914061,-0.0002590179501567,0.0931148082017898,0,0,0
7243,246661.9208495958,2010-10-11 11:00:43,210.1080841092415,7,21,-1.099568486213684,3.929465770721436,21.826560361443065,20.822567562576047,86.83835168319168,76.29771873090534,-0.0002266406954731,0.0931148082017898,0,0,0
7244,246691.93403257264,2010-10-11 11:01:13,240.1212670910577,7,21,-1.0993878841400146,3.920562028884888,21.826560361443065,20.831734611064967,86.83835168319168,76.33369837846551,-0.0001618862152099,0.0931148082017898,0,0,0
7245,246721.94919765447,2010-10-11 11:01:43,270.13643214781456,7,21,-1.0997490882873535,3.911658525466919,21.826560361443065,20.840902301086956,86.83835168319168,76.36959887650302,-0.0002590179501567,0.0931148082017898,0,0,0
7246,246751.96436029012,2010-10-11 11:02:13,300.1515947785249,7,21,-1.099568486213684,3.903240442276001,21.826560361443065,20.85006999447466,86.83835168319168,76.40542109707205,-0.0002266406954731,0.0931148082017898,0,0,0
7247,246781.97949976812,2010-10-11 11:02:43,330.1667342665566,7,21,-1.0993878841400146,3.894984245300293,21.826560361443065,20.859237663866555,86.83835168319168,76.44116671030078,-0.0001942634553415,0.0931148082017898,0,0,0
7248,246811.9946904137,2010-10-11 11:03:13,360.181924967226,7,21,-1.099568486213684,3.886889934539795,21.826560361443065,20.868405368125185,86.83835168319168,76.47683804446076,-0.0002266406954731,0.0931148082017898,0,0,0
7249,246842.01015232533,2010-10-11 11:03:43,390.1973869490114,7,21,-1.099568486213684,3.878957509994507,21.826560361443065,20.87757309796845,86.83835168319168,76.51243610394305,-0.0002266406954731,0.0931148082017898,0,0,0
7250,246872.0250082767,2010-10-11 11:04:13,420.2122427650452,7,21,-1.099568486213684,3.8711869716644287,21.826560361443065,20.886740666964883,86.83835168319168,76.54796112860978,-0.0002266406954731,0.0931148082017898,0,0,0
7251,246902.04274443645,2010-10-11 11:04:43,450.2299790851815,7,21,-1.099568486213684,3.863416433334351,21.826560361443065,20.89590918800973,86.83835168319168,76.58341816198124,-0.0001618862152099,0.0931148082017898,0,0,0
7252,246932.0553210921,2010-10-11 11:05:13,480.2425555854592,7,21,-1.0997490882873535,3.8558077812194815,21.826560361443065,20.905076066775727,86.83835168319168,76.61879839130698,-0.0001942634553415,0.0931148082017898,0,0,0
7253,246962.0704767354,2010-10-11 11:05:43,510.2577112237423,7,21,-1.099568486213684,3.8481991291046143,21.826560361443065,20.914243809839103,86.83835168319168,76.65411236724907,-0.0002266406954731,0.0931148082017898,0,0,0
7254,246992.0857416159,2010-10-11 11:06:13,540.2729761494031,7,21,-1.099568486213684,3.840752363204956,21.826560361443065,20.923411584216847,86.83835168319168,76.68935842188219,-0.0002266406954731,0.0931148082017898,0,0,0
7255,247022.10099330865,2010-10-11 11:06:43,570.2882278671458,7,21,-1.0997490882873535,3.8336293697357178,21.826560361443065,20.932579326753967,86.83835168319168,76.7245370430119,-0.0001942634553415,0.0931148082017898,0,0,0
7256,247052.11827539667,2010-10-11 11:07:13,600.3055100454209,7,21,-1.099568486213684,3.8263447284698486,21.826560361443065,20.94174763400549,86.83835168319168,76.75965156255397,-0.0002266406954731,0.0931148082017898,0,0,0
7257,247082.1310777148,2010-10-11 11:07:43,630.3183122632562,7,21,-1.0993878841400146,3.8195455074310303,21.826560361443065,20.95091465057746,86.83835168319168,76.79469606431434,-0.0001618862152099,0.0931148082017898,0,0,0
7258,247112.14634080083,2010-10-11 11:08:13,660.3335753242698,7,21,-1.099568486213684,3.812260627746582,21.826560361443065,20.96008235119612,86.83835168319168,76.82967930172671,-0.0002266406954731,0.0931148082017898,0,0,0
7259,247142.16145119132,2010-10-11 11:08:43,690.3486856847065,7,21,-1.0997490882873535,3.805461406707764,21.826560361443065,20.96924999837274,86.83835168319168,76.86459858687527,-0.0001942634553415,0.0931148082017898,0,0,0
7260,247172.17673884364,2010-10-11 11:09:13,720.3639733520466,7,21,-1.0993878841400146,3.798985958099365,21.826560361443065,20.97841768036079,86.83835168319168,76.89945630528476,-0.0001618862152099,0.0931148082017898,0,0,0
7261,247202.19178607172,2010-10-11 11:09:43,750.3790205901632,7,21,-1.099568486213684,3.792348623275757,21.826560361443065,20.98758532426137,86.83835168319168,76.93425298620159,-0.0001942634553415,0.0931148082017898,0,0,0
7262,247232.20696690283,2010-10-11 11:10:13,780.3942014462968,7,21,-1.099568486213684,3.785711288452149,21.826560361443065,20.99675301413108,86.83835168319168,76.96898979413182,-0.0002266406954731,0.0931148082017898,0,0,0
7263,247262.2239987271,2010-10-11 11:10:43,810.4112332555753,7,21,-1.099568486213684,3.77939772605896,21.826560361443065,21.005921321252085,86.83835168319168,77.00366955546778,-0.0001942634553415,0.0931148082017898,0,0,0
7264,247292.2373792914,2010-10-11 11:11:13,840.4246138098028,7,21,-1.099568486213684,3.773084163665772,21.826560361443065,21.0150884918472,86.83835168319168,77.03828728474605,-0.0001942634553415,0.0931148082017898,0,0,0
7265,247322.25241833908,2010-10-11 11:11:43,870.4396528625189,7,21,-1.099568486213684,3.767094373703003,21.826560361443065,21.02425619700237,86.83835168319168,77.07285049221484,-0.0001618862152099,0.0931148082017898,0,0,0
7266,247352.2675733308,2010-10-11 11:12:13,900.4548078541904,7,21,-1.099568486213684,3.7611045837402335,21.826560361443065,21.03342395638967,86.83835168319168,77.10735864768276,-0.0001618862152099,0.0931148082017898,0,0,0
7267,247382.2827096058,2010-10-11 11:12:43,930.4699441342268,7,21,-1.099568486213684,3.755276679992676,21.826560361443065,21.04259165442309,86.83835168319168,77.14181204741904,-0.0001618862152099,0.0931148082017898,0,0,0
7268,247412.29786743456,2010-10-11 11:13:13,960.4851019328944,7,21,-1.0997490882873535,3.749449014663696,21.826560361443065,21.051759458929315,86.83835168319168,77.17621308033868,-0.0001942634553415,0.0931148082017898,0,0,0
7269,247442.31307990945,2010-10-11 11:13:43,990.500314407832,7,21,-1.099568486213684,3.7439448833465576,21.826560361443065,21.06092724322632,86.83835168319168,77.21056250865824,-0.0001618862152099,0.0931148082017898,0,0,0
7270,247472.32824122187,2010-10-11 11:14:13,1020.5154757102316,7,21,-1.0993878841400146,3.738440752029419,21.826560361443065,21.07009497149211,86.83835168319168,77.24486074070425,-0.0001618862152099,0.0931148082017898,0,0,0
7271,247502.34347841344,2010-10-11 11:14:43,1050.5307129117955,7,21,-1.0997490882873535,3.73309850692749,21.826560361443065,21.079262738699505,86.83835168319168,77.27910912298567,-0.0001618862152099,0.0931148082017898,0,0,0
7272,247532.3586426632,2010-10-11 11:15:13,1080.5458771866035,7,21,-1.099568486213684,3.7277562618255615,21.826560361443065,21.088430465959632,86.83835168319168,77.31330778764544,-0.0001618862152099,0.0931148082017898,0,0,0
7273,247562.37376055736,2010-10-11 11:15:43,1110.5609950858293,7,21,-1.099568486213684,3.722414016723633,21.826560361443065,21.09759816885889,86.83835168319168,77.3474582082335,-0.0001295089750783,0.0931148082017898,0,0,0
7274,247592.3888459155,2010-10-11 11:16:13,1140.5760804339277,7,21,-1.0993878841400146,3.717395544052124,21.826560361443065,21.10676589308701,86.83835168319168,77.3815609107816,-0.0001618862152099,0.0931148082017898,0,0,0
7275,247622.40399615536,2010-10-11 11:16:43,1170.5912306787686,7,21,-1.0993878841400146,3.7120532989501953,21.826560361443065,21.115933669266365,86.83835168319168,77.41561675238654,-0.0001942634553415,0.0931148082017898,0,0,0
7276,247652.41917709663,2010-10-11 11:17:13,1200.6064116201146,7,21,-1.0997490882873535,3.7070348262786874,21.826560361443065,21.1251014788638,86.83835168319168,77.4496261061234,-0.0001618862152099,0.0931148082017898,0,0,0
7277,247682.434342775,2010-10-11 11:17:44,1230.621577293408,7,21,-1.099568486213684,3.7023401260375977,21.826560361443065,21.134269287283725,86.83835168319168,77.48359023759033,-0.0001295089750783,0.0931148082017898,0,0,0
7278,247712.44950594203,2010-10-11 11:18:14,1260.6367405657177,7,21,-1.0997490882873535,3.697321653366089,21.826560361443065,21.143437101925315,86.83835168319168,77.51750956133608,-0.0001295089750783,0.0931148082017898,0,0,0
7279,247742.4646332096,2010-10-11 11:18:44,1290.65186772803,7,21,-1.099568486213684,3.692626953125,21.826560361443065,21.152604892750965,86.83835168319168,77.55138421795918,-9.713172767078504e-05,0.0931148082017898,0,0,0
7280,247772.479798918,2010-10-11 11:19:14,1320.6670334113485,7,21,-1.099568486213684,3.687608480453491,21.826560361443065,21.161772710737807,86.83835168319168,77.58521500453043,-0.0001618862152099,0.0931148082017898,0,0,0
7281,247802.49508510163,2010-10-11 11:19:44,1350.682319610028,7,21,-1.0997490882873535,3.6829137802124015,21.826560361443065,21.17094052485489,86.83835168319168,77.61900284902892,-0.0001618862152099,0.0931148082017898,0,0,0
7282,247832.51026097537,2010-10-11 11:20:14,1380.6974954787315,7,21,-1.099568486213684,3.678542852401733,21.826560361443065,21.18010838016905,86.83835168319168,77.6527480951055,-0.0001295089750783,0.0931148082017898,0,0,0
7283,247862.52752932915,2010-10-11 11:20:44,1410.714763977914,7,21,-1.0993878841400146,3.6740100383758554,21.826560361443065,21.18927683277516,86.83835168319168,77.68645371810105,-0.0001295089750783,0.0931148082017898,0,0,0
7284,247892.54046002225,2010-10-11 11:21:14,1440.7276945205742,7,21,-1.0993878841400146,3.6696393489837646,21.826560361443065,21.1984439661764,86.83835168319168,77.72011285075064,-9.713172767078504e-05,0.0931148082017898,0,0,0
7285,247922.5556072846,2010-10-11 11:21:44,1470.7428417829822,7,21,-1.099568486213684,3.6651065349578857,21.826560361443065,21.20761172253744,86.83835168319168,77.75373264699485,-9.713172767078504e-05,0.0931148082017898,0,0,0
7286,247952.57079693268,2010-10-11 11:22:14,1500.758031521253,7,21,-1.0993878841400146,3.660573720932007,21.826560361443065,21.216779530845383,86.83835168319168,77.78731215987642,-9.713172767078504e-05,0.0931148082017898,0,0,0
7287,247982.58592862627,2010-10-11 11:22:44,1530.7731631196211,7,21,-1.099568486213684,3.656202793121338,21.826560361443065,21.22594737365241,86.83835168319168,77.82085229658763,-0.0001295089750783,0.0931148082017898,0,0,0
7288,248012.6010906755,2010-10-11 11:23:14,1560.7883251989574,7,21,-1.099568486213684,3.652317523956299,21.826560361443065,21.235115180779864,86.83835168319168,77.85435394728658,-9.713172767078504e-05,0.0931148082017898,0,0,0
7289,248042.61625157687,2010-10-11 11:23:44,1590.8034860652704,7,21,-1.099568486213684,3.64810848236084,21.826560361443065,21.244282953172743,86.83835168319168,77.88781763479048,-9.713172767078504e-05,0.0931148082017898,0,0,0
7290,248072.63152880827,2010-10-11 11:24:14,1620.818763431938,7,21,-1.099568486213684,3.643899440765381,21.826560361443065,21.253450726914185,86.83835168319168,77.92124305068704,-9.713172767078504e-05,0.0931148082017898,0,0,0
7291,248102.6466139759,2010-10-11 11:24:44,1650.8338484692615,7,21,-1.099568486213684,3.639852285385132,21.826560361443065,21.262618477057732,86.83835168319168,77.95463092912608,-9.713172767078504e-05,0.0931148082017898,0,0,0
7292,248132.6617226772,2010-10-11 11:25:14,1680.8489571705636,7,21,-1.099568486213684,3.635805130004883,21.826560361443065,21.271786201563582,86.83835168319168,77.9879819981882,-9.713172767078504e-05,0.0931148082017898,0,0,0
7293,248162.6768851425,2010-10-11 11:25:44,1710.8641196408742,7,21,-1.099568486213684,3.631919860839844,21.826560361443065,21.28095391587665,86.83835168319168,78.02129691500953,-0.0001295089750783,0.0931148082017898,0,0,0
7294,248192.6920592418,2010-10-11 11:26:14,1740.8792938253805,7,21,-1.0997490882873535,3.628196477890015,21.826560361443065,21.290121651932967,86.83835168319168,78.05457670694003,-6.47544875391759e-05,0.0931148082017898,0,0,0
7295,248222.70720515083,2010-10-11 11:26:44,1770.8944396492027,7,21,-1.099929690361023,3.624311208724976,21.826560361443065,21.299289442447524,86.83835168319168,78.08782219839964,-0.0001295089750783,0.0931148082017898,0,0,0
7296,248252.7223639319,2010-10-11 11:27:14,1800.9095985105184,7,21,-1.0997490882873535,3.620749711990357,21.826560361443065,21.308457249029267,86.83835168319168,78.12103391960162,-0.0001295089750783,0.0931148082017898,0,0,0
7297,248282.7375473044,2010-10-11 11:27:44,1830.924781847836,7,21,-1.099568486213684,3.6173501014709473,21.826560361443065,21.31762505415304,86.83835168319168,78.15421263243496,-9.713172767078504e-05,0.0931148082017898,0,0,0
7298,248312.7527073536,2010-10-11 11:28:14,1860.939941846988,7,21,-1.0997490882873535,3.613626718521118,21.826560361443065,21.326792805870085,86.83835168319168,78.18735915649334,-0.0001295089750783,0.0931148082017898,0,0,0
7299,248342.76785261603,2010-10-11 11:28:44,1890.9550872046484,7,21,-1.099568486213684,3.610388994216919,21.826560361443065,21.335960544748733,86.83835168319168,78.22047432040333,-9.713172767078504e-05,0.0931148082017898,0,0,0
7300,248372.783121677,2010-10-11 11:29:14,1920.970356195441,7,21,-1.0997490882873535,3.60715126991272,21.826560361443065,21.34512839912751,86.83835168319168,78.2535591686137,-6.47544875391759e-05,0.0931148082017898,0,0,0
7301,248402.79816655425,2010-10-11 11:29:44,1950.9854010476108,7,21,-1.099568486213684,3.603913545608521,21.826560361443065,21.354296143363705,86.83835168319168,78.28661380581235,-0.0001295089750783,0.0931148082017898,0,0,0
7302,248432.8133351699,2010-10-11 11:30:14,1981.00056966825,7,21,-1.0997490882873535,3.6008377075195312,21.826560361443065,21.36346398792044,86.83835168319168,78.3196402370603,-6.47544875391759e-05,0.0931148082017898,0,0,0
7303,248462.83041469305,2010-10-11 11:30:44,2011.0176491914465,7,21,-1.0993878841400146,3.597599983215332,21.826560361443065,21.37263236040581,86.83835168319168,78.35263995275672,-6.47544875391759e-05,0.0931148082017898,0,0,0
7304,248492.84379646537,2010-10-11 11:31:14,2041.0310310539344,7,21,-1.0997490882873535,3.5945241451263428,21.826560361443065,21.38179961010369,86.83835168319168,78.38560752989343,-0.0001295089750783,0.0931148082017898,0,0,0
7305,248522.85880670123,2010-10-11 11:31:44,2071.046041199605,7,21,-1.0993878841400146,3.5917723178863525,21.826560361443065,21.390967419038702,86.83835168319168,78.41854976536884,-9.70840483205393e-05,0.0931148082017898,0,0,0
7306,248552.87409900516,2010-10-11 11:32:14,2101.061333503501,7,21,-1.099568486213684,3.588858366012573,21.826560361443065,21.40013532382149,86.83835168319168,78.45146543460608,-6.47544875391759e-05,0.0931148082017898,0,0,0
7307,248582.8891214164,2010-10-11 11:32:44,2131.076355934791,7,21,-1.0993878841400146,3.585944414138794,21.826560361443065,21.4093031464237,86.83835168319168,78.48435373016342,-9.713172767078504e-05,0.0931148082017898,0,0,0
7308,248612.9044117604,2010-10-11 11:33:14,2161.091646268778,7,21,-1.0993878841400146,3.583030462265014,21.826560361443065,21.418470985688305,86.83835168319168,78.5172156637312,-9.713172767078504e-05,0.0931148082017898,0,0,0
7309,248642.9194440663,2010-10-11 11:33:44,2191.106678559641,7,21,-1.0997490882873535,3.580116510391236,21.826560361443065,21.42763880194916,86.83835168319168,78.55005143479165,-6.47544875391759e-05,0.0931148082017898,0,0,0
7310,248672.93462153897,2010-10-11 11:34:14,2221.1218560323423,7,21,-1.099568486213684,3.577526330947876,21.826560361443065,21.43680668100127,86.83835168319168,78.58286104766017,-3.237724376958795e-05,0.0931148082017898,0,0,0
7311,248702.9497848514,2010-10-11 11:34:44,2251.1370193748267,7,21,-1.099568486213684,3.5746123790740967,21.826560361443065,21.445974532578536,86.83835168319168,78.61564458910901,-9.713172767078504e-05,0.0931148082017898,0,0,0
7312,248732.9649224748,2010-10-11 11:35:14,2281.152156968136,7,21,-1.0997490882873535,3.5715365409851074,21.826560361443065,21.45514228368212,86.83835168319168,78.64840151552893,-9.713172767078504e-05,0.0931148082017898,0,0,0
7313,248762.98043408024,2010-10-11 11:35:44,2311.167668608686,7,21,-1.0993878841400146,3.568784475326538,21.826560361443065,21.46430953574071,86.83835168319168,78.68112986765213,-3.237724376958795e-05,0.0931148082017898,0,0,0
7314,248792.99534332944,2010-10-11 11:36:14,2341.18257785288,7,21,-1.099568486213684,3.565870523452759,21.826560361443065,21.47347645266217,86.83835168319168,78.71383063816327,-9.713172767078504e-05,0.0931148082017898,0,0,0
7315,248823.0131848668,2010-10-11 11:36:44,2371.2004194905,7,21,-1.099568486213684,3.5629565715789795,21.826560361443065,21.482644421593378,86.83835168319168,78.74650840440407,-6.47544875391759e-05,0.0931148082017898,0,0,0
7316,248853.02556229595,2010-10-11 11:37:14,2401.212796794318,7,21,-1.099568486213684,3.5598807334899902,21.826560361443065,21.491810538409684,86.83835168319168,78.77915307372061,-9.713172767078504e-05,0.0931148082017898,0,0,0
7317,248883.0407218891,2010-10-11 11:37:44,2431.227956387458,7,21,-1.0997490882873535,3.556804895401001,21.826560361443065,21.500977527964743,86.83835168319168,78.81177341476491,-9.713172767078504e-05,0.0931148082017898,0,0,0
7318,248913.0559119431,2010-10-11 11:38:14,2461.243146461566,7,21,-1.0993878841400146,3.5538909435272217,21.826560361443065,21.510144563047305,86.83835168319168,78.84436603425581,-9.713172767078504e-05,0.0931148082017898,0,0,0
7319,248943.07103259425,2010-10-11 11:38:44,2491.2582670926,7,21,-1.099568486213684,3.5508151054382324,21.826560361443065,21.519311948038293,86.83835168319168,78.87693200951377,-6.47544875391759e-05,0.0931148082017898,0,0,0
7320,248973.088701757,2010-10-11 11:39:14,2521.275936380672,7,21,-1.099568486213684,3.547739267349243,21.826560361443065,21.52848035836389,86.83835168319168,78.9094732244432,-6.47544875391759e-05,0.0931148082017898,0,0,0
7321,249003.10137086303,2010-10-11 11:39:44,2551.288605356427,7,21,-1.099568486213684,3.544501543045044,21.826560361443065,21.53764728979607,86.83835168319168,78.94198019015714,-0.0001295089750783,0.0931148082017898,0,0,0
7322,249033.11654805005,2010-10-11 11:40:14,2581.303782543416,7,21,-1.0997490882873535,3.5411019325256348,21.826560361443065,21.54681491595125,86.83835168319168,78.97446004481726,-0.0001295089750783,0.0931148082017898,0,0,0
7323,249063.13366093137,2010-10-11 11:40:44,2611.320895459838,7,21,-1.0993878841400146,3.5378642082214355,21.826560361443065,21.55598319450323,86.83835168319168,79.00691197182613,-9.713172767078504e-05,0.0931148082017898,0,0,0
7324,249093.14690316087,2010-10-11 11:41:14,2641.334137679293,7,21,-1.099568486213684,3.5343027114868164,21.826560361443065,21.565150331292788,86.83835168319168,79.03932845480094,-9.713172767078504e-05,0.0931148082017898,0,0,0
7325,249123.16199415305,2010-10-11 11:41:44,2671.349228666446,7,21,-1.099568486213684,3.5307412147521973,21.826560361443065,21.57431801507019,86.83835168319168,79.0717147807419,-9.713172767078504e-05,0.0931148082017898,0,0,0
7326,249153.1771770944,2010-10-11 11:42:14,2701.364411612789,7,21,-1.099568486213684,3.527017831802368,21.826560361443065,21.583485643223383,86.83835168319168,79.10406748817167,-0.0001295089750783,0.0931148082017898,0,0,0
7327,249183.19232593573,2010-10-11 11:42:44,2731.379560454132,7,21,-1.099568486213684,3.523132562637329,21.826560361443065,21.59265322499579,86.83835168319168,79.13638530344676,-0.0001618862152099,0.0931148082017898,0,0,0
7328,249213.20760504671,2010-10-11 11:43:14,2761.394839565148,7,21,-1.0993878841400146,3.51908540725708,21.826560361443065,21.60182078576892,86.83835168319168,79.16866682548516,-0.0001618862152099,0.0931148082017898,0,0,0
7329,249243.2226307612,2010-10-11 11:43:44,2791.409865354808,7,21,-1.099568486213684,3.515038251876831,21.826560361443065,21.6109883129191,86.83835168319168,79.20091017925023,-9.713172767078504e-05,0.0931148082017898,0,0,0
7330,249273.23792296485,2010-10-11 11:44:14,2821.425157463216,7,21,-1.099568486213684,3.5105056762695312,21.826560361443065,21.62015605705702,86.83835168319168,79.23311406449182,-0.0001295089750783,0.0931148082017898,0,0,0
7331,249303.2529379626,2010-10-11 11:44:44,2851.4401724760173,7,21,-1.099568486213684,3.5059728622436523,21.826560361443065,21.629323680432712,86.83835168319168,79.26527629039055,-9.713172767078504e-05,0.0931148082017898,0,0,0
7332,249333.26822111369,2010-10-11 11:45:14,2881.4554556321136,7,21,-1.099568486213684,3.5007925033569336,21.826560361443065,21.63849140327181,86.83835168319168,79.29739439846142,-0.0001618862152099,0.0931148082017898,0,0,0
7333,249363.2833221208,2010-10-11 11:45:44,2911.470556619189,7,21,-1.099568486213684,3.495450258255005,21.826560361443065,21.647659109041307,86.83835168319168,79.32946436590656,-9.713172767078504e-05,0.0931148082017898,0,0,0
7334,249393.2984838292,2010-10-11 11:46:14,2941.485718347651,7,21,-1.099568486213684,3.4892985820770264,21.826560361443065,21.65682682618166,86.83835168319168,79.36148245331859,-0.0001942634553415,0.0931148082017898,0,0,0
7335,249423.31363565804,2010-10-11 11:46:44,2971.5008701563897,7,21,-1.099568486213684,3.482823133468628,21.826560361443065,21.66599453590124,86.83835168319168,79.39344375585958,-0.0002266406954731,0.0931148082017898,0,0,0
7336,249453.32893295435,2010-10-11 11:47:14,3001.5161674527285,7,21,-1.099568486213684,3.4753763675689697,21.826560361443065,21.67516219030696,86.83835168319168,79.42534096125044,-0.0002913951757363,0.0931148082017898,0,0,0
7337,249483.34395734555,2010-10-11 11:47:44,3031.531191848916,7,21,-1.0993878841400146,3.467282056808472,21.826560361443065,21.68432980005829,86.83835168319168,79.45716623990111,-0.0002266406954731,0.0931148082017898,0,0,0
7338,249513.35912659773,2010-10-11 11:48:14,3061.5463610961165,7,21,-1.099568486213684,3.457406997680664,21.826560361443065,21.69349750981272,86.83835168319168,79.48890922595436,-0.0002913951757363,0.0931148082017898,0,0,0
7339,249543.3742889327,2010-10-11 11:48:44,3091.56152345114,7,21,-1.0993878841400146,3.445589303970337,21.826560361443065,21.70266517155865,86.83835168319168,79.52055291872122,-0.0003237724304199,0.0931148082017898,0,0,0
7340,249573.389434536,2010-10-11 11:49:14,3121.5766690393752,7,21,-1.099568486213684,3.431181669235229,21.826560361443065,21.71183277903936,86.83835168319168,79.55207677608341,-0.0004208564641885,0.0931148082017898,0,0,0
7341,249603.40459299128,2010-10-11 11:49:45,3151.5918275097165,7,21,-1.0997490882873535,3.413050413131714,21.826560361443065,21.72100101306254,86.83835168319168,79.58345493256958,-0.0005180359003134,0.0931148082017898,0,0,0
7342,249633.41975146663,2010-10-11 11:50:15,3181.606985980058,7,21,-1.099568486213684,3.3892531394958496,21.826560361443065,21.730169436263058,86.83835168319168,79.61464304810525,-0.0007122993702068,0.0931148082017898,0,0,0
7343,249663.43689105453,2010-10-11 11:50:45,3211.6241256130666,7,21,-1.099568486213684,3.355742692947388,21.826560361443065,21.739338470834063,86.83835168319168,79.64557358337377,-0.0010360718006268,0.0931148082017898,0,0,0
7344,249693.4500660966,2010-10-11 11:51:15,3241.637300620007,7,21,-1.099568486213684,3.308310270309448,21.826560361443065,21.74850623428064,86.83835168319168,79.6761339580825,-0.0014893531333655,0.0931148082017898,0,0,0
7345,249723.46521334897,2010-10-11 11:51:45,3271.652447847327,7,21,-1.0993878841400146,3.2408039569854736,21.826560361443065,21.757674034201138,86.83835168319168,79.70617336575059,-0.0021045207977294,0.0931148082017898,0,0,0
7346,249753.4804036737,2010-10-11 11:52:15,3301.6676381921097,7,21,-1.099568486213684,3.1414060592651367,21.826560361443065,21.7668416711322,86.83835168319168,79.73545947534602,-0.0031405924819409,0.0931148082017898,0,0,0
7347,249783.49587214665,2010-10-11 11:52:45,3331.6831068555475,7,21,-1.0993878841400146,2.9821105003356934,21.826560361443065,21.776009306413595,86.83835168319168,79.76359982532323,-0.0055688857100903,0.0931148082017898,0,0,0
7348,249803.13587882137,2010-10-11 11:53:04,3351.3231133397853,7,21,-1.099568486213684,2.781857967376709,21.826560361443065,21.782007963676342,86.83835168319168,79.78095473413991,-0.0104254242032766,0.0931148082017898,0,0,0
7349,249808.66710495373,2010-10-11 11:53:10,3356.8543394722237,7,21,-1.0997490882873535,2.699620008468628,21.826560361443065,21.783697379293923,86.83835168319168,79.78558687903798,-0.0121414186432957,0.0931148082017898,0,0,0
7350,249868.68836870257,2010-10-11 11:54:10,60.01470709614732,8,21,0.0,3.3288698196411133,21.826560361443065,21.78369745421624,86.83835168319168,79.78558708129977,0.0013274669181555,0.0931148082017898,0,0,0
7351,249868.88346950765,2010-10-11 11:54:10,0.18749793253956,9,21,-1.9243103452026844e-05,3.3288698196411133,21.826560361443065,21.78369745521848,86.83835168319168,79.78558708463606,0.0,0.0908498615026474,0,0,0
7352,249873.71180984745,2010-10-11 11:54:15,5.015838272309448,9,21,0.0007031940040178,3.336478471755981,21.826561274671537,21.783697455385933,86.83835472731187,79.78558708519374,0.0010684489971026,0.0908498615026474,0,0,0
