Data_Point,Test_Time(s),Date_Time,Step_Time(s),Step_Index,Cycle_Index,Current(A),Voltage(V),Charge_Capacity(Ah),Discharge_Capacity(Ah),Charge_Energy(Wh),Discharge_Energy(Wh),dV/dt(V/s),Internal_Resistance(Ohm),Is_FC_Data,AC_Impedance(Ohm),ACI_Phase_Angle(Deg)
3525,120916.20725359271,2010-10-10 00:04:44,30.013417977497763,1,11,0.0,3.308957815170288,10.495638887470507,10.46563038095289,41.78672149467916,38.33967114548448,0.0007122993702068,0.0913304165005683,0,0,0
3526,120946.2223437478,2010-10-10 00:05:14,60.02850812255159,1,11,0.0,3.3311362266540527,10.495638887470507,10.46563038095289,41.78672149467916,38.33967114548448,0.0004532813909463,0.0913304165005683,0,0,0
3527,120976.2375786436,2010-10-10 00:05:44,90.04374301335636,1,11,0.0,3.348134279251098,10.495638887470507,10.46563038095289,41.78672149467916,38.33967114548448,0.0004532813909463,0.0913304165005683,0,0,0
3528,121006.20590898884,2010-10-10 00:06:14,120.01207336361394,1,11,0.0,3.3615705966949463,10.495638887470507,10.46563038095289,41.78672149467916,38.33967114548448,0.0003237724304199,0.0913304165005683,0,0,0
3529,121036.21991125826,2010-10-10 00:06:44,30.01537229325396,2,11,0.5501165986061096,3.5210280418396,10.50022566439758,10.46563038095289,41.80268782460989,38.33967114548448,0.0018131255637854,0.0913304165005683,0,0,0
3530,121066.23498362902,2010-10-10 00:07:14,60.03044465398377,2,11,0.5501165986061096,3.576716899871826,10.504812421166635,10.46563038095289,41.81897309714362,38.33967114548448,0.0012950897216796,0.0913304165005683,0,0,0
3531,121096.25021593338,2010-10-10 00:07:44,90.04567700345477,2,11,0.5501165986061096,3.617835760116577,10.50939916669115,10.46563038095289,41.83547705701151,38.33967114548448,0.0009713172912597,0.0913304165005683,0,0,0
3532,121126.26554071324,2010-10-10 00:08:14,120.06100174319072,2,11,0.550297200679779,3.651022434234619,10.513985969404184,10.46563038095289,41.85215004425481,38.33967114548448,0.0008094310760498,0.0913304165005683,0,0,0
3533,121156.28063193597,2010-10-10 00:08:44,150.07609295089298,2,11,0.5499359965324402,3.678057193756104,10.518572578472632,10.46563038095289,41.86895966567808,38.33967114548448,0.0006475448608398,0.0913304165005683,0,0,0
3534,121186.29585650604,2010-10-10 00:09:14,180.09131753100033,2,11,0.5501165986061096,3.701045036315918,10.523159235789649,10.46563038095289,41.88588442072111,38.33967114548448,0.0005504131549969,0.0913304165005683,0,0,0
3535,121216.31107076544,2010-10-10 00:09:44,210.10653181544777,2,11,0.5501165986061096,3.720795154571533,10.527745939678688,10.46563038095289,41.902906675487614,38.33967114548448,0.0004856586456298,0.0913304165005683,0,0,0
3536,121246.32629752596,2010-10-10 00:10:14,240.1217586912767,2,11,0.5501165986061096,3.736983776092529,10.532332647904015,10.46563038095289,41.92001081347843,38.33967114548448,0.0003885269106831,0.0913304165005683,0,0,0
3537,121276.34156053184,2010-10-10 00:10:45,270.13702158687806,2,11,0.5501165986061096,3.749772787094116,10.53691930791893,10.46563038095289,41.93718159445028,38.33967114548448,0.0002913951757363,0.0913304165005683,0,0,0
3538,121306.3567759892,2010-10-10 00:11:15,300.1522370693112,2,11,0.5501165986061096,3.757704973220825,10.541505991574583,10.46563038095289,41.95440045588317,38.33967114548448,0.0001295089750783,0.0913304165005683,0,0,0
3539,121336.37387993326,2010-10-10 00:11:45,330.1693409983343,2,11,0.5501165986061096,3.762561559677124,10.546093047462406,10.46563038095289,41.9716491571904,38.33967114548448,0.0001295089750783,0.0913304165005683,0,0,0
3540,121366.38717012228,2010-10-10 00:12:15,360.1826311572689,2,11,0.5501165986061096,3.7657992839813232,10.550679442813722,10.46563038095289,41.98891304793495,38.33967114548448,9.713172767078504e-05,0.0913304165005683,0,0,0
3541,121396.40238610595,2010-10-10 00:12:45,390.19784712090126,2,11,0.5501165986061096,3.768875122070313,10.555266196396394,10.46563038095289,42.00619251865684,38.33967114548448,9.713172767078504e-05,0.0913304165005683,0,0,0
3542,121426.41763122728,2010-10-10 00:13:15,420.2130922522287,2,11,0.550297200679779,3.771627187728882,10.559852893856712,10.46563038095289,42.02348511928063,38.33967114548448,9.713172767078504e-05,0.0913304165005683,0,0,0
3543,121456.4330256958,2010-10-10 00:13:45,450.22848683102507,2,11,0.5499359965324402,3.774541139602661,10.564439600028408,10.46563038095289,42.04079097493361,38.33967114548448,9.713172767078504e-05,0.0913304165005683,0,0,0
3544,121486.44804409704,2010-10-10 00:14:15,480.2435051219963,2,11,0.550297200679779,3.7772932052612314,10.569026276933936,10.46563038095289,42.058109742290206,38.33967114548448,3.237724376958795e-05,0.0913304165005683,0,0,0
3545,121516.46328351912,2010-10-10 00:14:45,510.258744569157,2,11,0.5499359965324402,3.7800452709198,10.573612956415008,10.46563038095289,42.07544138536867,38.33967114548448,6.47544875391759e-05,0.0913304165005683,0,0,0
3546,121546.47850132234,2010-10-10 00:15:15,540.2739623473118,2,11,0.5501165986061096,3.782635450363159,10.578199722994851,10.46563038095289,42.0927858873871,38.33967114548448,9.713172767078504e-05,0.0913304165005683,0,0,0
3547,121576.49370157682,2010-10-10 00:15:45,570.2891626268546,2,11,0.5501165986061096,3.7855494022369385,10.582786424924594,10.46563038095289,42.110142598863945,38.33967114548448,9.713172767078504e-05,0.0913304165005683,0,0,0
3548,121606.5089236958,2010-10-10 00:16:15,600.3043847207656,2,11,0.5501165986061096,3.788139581680298,10.587373201678842,10.46563038095289,42.12751189033074,38.33967114548448,6.47544875391759e-05,0.0913304165005683,0,0,0
3549,121636.52416346376,2010-10-10 00:16:45,630.3196244887258,2,11,0.5501165986061096,3.790891647338867,10.591959972246746,10.46563038095289,42.14489339564179,38.33967114548448,6.47544875391759e-05,0.0913304165005683,0,0,0
3550,121666.53939449496,2010-10-10 00:17:15,660.3348555299361,2,11,0.5501165986061096,3.7934818267822266,10.596546700994104,10.46563038095289,42.16228675862813,38.33967114548448,6.47544875391759e-05,0.0913304165005683,0,0,0
3551,121696.55470185638,2010-10-10 00:17:45,690.3501628863476,2,11,0.5501165986061096,3.796233892440796,10.601133458726682,10.46563038095289,42.1796923663867,38.33967114548448,0.0001295089750783,0.0913304165005683,0,0,0
3552,121726.56985180044,2010-10-10 00:18:15,720.365312850489,2,11,0.5501165986061096,3.7988240718841553,10.605720203958493,10.46563038095289,42.197110087252696,38.33967114548448,6.47544875391759e-05,0.0913304165005683,0,0,0
3553,121756.5850245113,2010-10-10 00:18:45,750.3804855663345,2,11,0.5501165986061096,3.801414251327514,10.61030689289851,10.46563038095289,42.21453992255748,38.33967114548448,9.713172767078504e-05,0.0913304165005683,0,0,0
3554,121786.6002660186,2010-10-10 00:19:15,780.3957270435545,2,11,0.550297200679779,3.804328203201294,10.614893608665549,10.46563038095289,42.23198232140865,38.33967114548448,9.713172767078504e-05,0.0913304165005683,0,0,0
3555,121816.61549306984,2010-10-10 00:19:45,810.4109541148708,2,11,0.5501165986061096,3.8070802688598633,10.619480294520978,10.46563038095289,42.24943753010416,38.33967114548448,6.47544875391759e-05,0.0913304165005683,0,0,0
3556,121846.630809143,2010-10-10 00:20:15,840.4262701729696,2,11,0.5501165986061096,3.8099942207336426,10.624067083336037,10.46563038095289,42.266906505893,38.33967114548448,6.47544875391759e-05,0.0913304165005683,0,0,0
3557,121876.64589944846,2010-10-10 00:20:45,870.4413604683982,2,11,0.5499359965324402,3.813070058822632,10.628653824707444,10.46563038095289,42.284389242780335,38.33967114548448,6.47544875391759e-05,0.0913304165005683,0,0,0
3558,121906.66113853973,2010-10-10 00:21:15,900.4565995947592,2,11,0.5501165986061096,3.816307783126831,10.633240605065174,10.46563038095289,42.30188685054484,38.33967114548448,9.713172767078504e-05,0.0913304165005683,0,0,0
3559,121936.67833355076,2010-10-10 00:21:45,930.4737946158116,2,11,0.5497553944587708,3.8195455074310303,10.637827653706031,10.46563038095289,42.31940034987997,38.33967114548448,9.713172767078504e-05,0.0913304165005683,0,0,0
3560,121966.6915892488,2010-10-10 00:22:15,960.4870503038344,2,11,0.550297200679779,3.8231070041656494,10.642414118791107,10.46563038095289,42.33692690525024,38.33967114548448,0.0001295089750783,0.0913304165005683,0,0,0
3561,121996.70679944304,2010-10-10 00:22:45,990.502260463,2,11,0.5501165986061096,3.8263447284698486,10.647000839822123,10.46563038095289,42.354469943054745,38.33967114548448,6.47544875391759e-05,0.0913304165005683,0,0,0
3562,122026.72211159642,2010-10-10 00:23:15,1020.5175726213794,2,11,0.5501165986061096,3.829744338989258,10.651587613899231,10.46563038095289,42.372028750643416,38.33967114548448,6.47544875391759e-05,0.0913304165005683,0,0,0
3563,122056.7371940122,2010-10-10 00:23:45,1050.5326550722568,2,11,0.5499359965324402,3.833143949508667,10.65617438092766,10.46563038095289,42.389602933807325,38.33967114548448,9.713172767078504e-05,0.0913304165005683,0,0,0
3564,122086.75257146332,2010-10-10 00:24:15,1080.5480325283786,2,11,0.5501165986061096,3.836543321609497,10.660761217914112,10.46563038095289,42.40719262457785,38.33967114548448,9.713172767078504e-05,0.0913304165005683,0,0,0
3565,122116.76765606456,2010-10-10 00:24:45,1110.5631170995402,2,11,0.5501165986061096,3.8396191596984863,10.665348052393094,10.46563038095289,42.42479731654587,38.33967114548448,6.47544875391759e-05,0.0913304165005683,0,0,0
3566,122146.76808689909,2010-10-10 00:25:15,1140.563548049369,2,11,0.550297200679779,3.843018770217896,10.66993261407678,10.46563038095289,42.4424080691078,38.33967114548448,9.713172767078504e-05,0.0913304165005683,0,0,0
3567,122176.7824574507,2010-10-10 00:25:45,1170.57791847065,2,11,0.550297200679779,3.8460946083068848,10.674519305847255,10.46563038095289,42.4600414681488,38.33967114548448,9.713172767078504e-05,0.0913304165005683,0,0,0
3568,122206.79767485292,2010-10-10 00:26:15,1200.5931358778805,2,11,0.550297200679779,3.849170446395874,10.67910615298865,10.46563038095289,42.47768982924703,38.33967114548448,6.47544875391759e-05,0.0913304165005683,0,0,0
3569,122236.813013778,2010-10-10 00:26:45,1230.6084748129954,2,11,0.5501165986061096,3.852084398269653,10.683693035606035,10.46563038095289,42.49535239293862,38.33967114548448,3.237724376958795e-05,0.0913304165005683,0,0,0
3570,122266.82811533652,2010-10-10 00:27:15,1260.6235763865325,2,11,0.5501165986061096,3.8551602363586426,10.68827991508928,10.46563038095289,42.5130286129383,38.33967114548448,6.47544875391759e-05,0.0913304165005683,0,0,0
3571,122296.84335447288,2010-10-10 00:27:45,1290.638815547981,2,11,0.5501165986061096,3.857912302017212,10.692866834655494,10.46563038095289,42.53071830089674,38.33967114548448,9.713172767078504e-05,0.0913304165005683,0,0,0
3572,122326.85854853192,2010-10-10 00:28:15,1320.6540095568955,2,11,0.5501165986061096,3.860664367675781,10.697453719173131,10.46563038095289,42.54842053755831,38.33967114548448,9.713172767078504e-05,0.0913304165005683,0,0,0
3573,122356.87376830004,2010-10-10 00:28:45,1350.6692293199976,2,11,0.5501165986061096,3.86309266090393,10.70204052051498,10.46563038095289,42.56613455178504,38.33967114548448,3.237724376958795e-05,0.0913304165005683,0,0,0
3574,122386.88930842158,2010-10-10 00:29:15,1380.6847694816313,2,11,0.5501165986061096,3.86552095413208,10.706627423529792,10.46563038095289,42.583860202318,38.33967114548448,6.47544875391759e-05,0.0913304165005683,0,0,0
3575,122416.90423138998,2010-10-10 00:29:45,1410.6996924099294,2,11,0.5501165986061096,3.8679492473602295,10.7112142037909,10.46563038095289,42.60159605011966,38.33967114548448,9.713172767078504e-05,0.0913304165005683,0,0,0
3576,122446.92191344488,2010-10-10 00:30:15,1440.7173745901323,2,11,0.550297200679779,3.869891881942749,10.715802015053589,10.46563038095289,42.61934587600501,38.33967114548448,3.237724376958795e-05,0.0913304165005683,0,0,0
3577,122476.93479163706,2010-10-10 00:30:45,1470.7302526920942,2,11,0.550297200679779,3.8719964027404794,10.720389222189226,10.46563038095289,42.63710260625617,38.33967114548448,6.47544875391759e-05,0.0913304165005683,0,0,0
3578,122506.95002123968,2010-10-10 00:31:15,1500.745482264644,2,11,0.5501165986061096,3.873777151107788,10.72497678443238,10.46563038095289,42.65486927707445,38.33967114548448,6.47544875391759e-05,0.0913304165005683,0,0,0
3579,122536.96526252142,2010-10-10 00:31:45,1530.7607235463772,2,11,0.5504778623580933,3.875396013259888,10.729564317312228,10.46563038095289,42.67264358522361,38.33967114548448,6.47544875391759e-05,0.0913304165005683,0,0,0
3580,122566.98235580392,2010-10-10 00:32:15,1560.777816964203,2,11,0.5501165986061096,3.876691102981568,10.734151548467064,10.46563038095289,42.69042398910194,38.33967114548448,0.0,0.0913304165005683,0,0,0
3581,122596.9979991026,2010-10-10 00:32:45,1590.793460282936,2,11,0.5501165986061096,3.878148078918457,10.738738437807966,10.46563038095289,42.70820971539953,38.33967114548448,0.0,0.0913304165005683,0,0,0
3582,122627.01076644853,2010-10-10 00:33:15,1620.8062275035472,2,11,0.550297200679779,3.8796050548553462,10.743324867689314,10.46563038095289,42.72599989628751,38.33967114548448,0.0,0.0913304165005683,0,0,0
3583,122657.0259937504,2010-10-10 00:33:45,1650.8214547703508,2,11,0.5499359965324402,3.880738258361816,10.74791171385544,10.46563038095289,42.7437974468999,38.33967114548448,3.237724376958795e-05,0.0913304165005683,0,0,0
3584,122687.04124198444,2010-10-10 00:34:15,1680.8367030645609,2,11,0.5501165986061096,3.881871461868286,10.752498551166868,10.46563038095289,42.761600545532055,38.33967114548448,0.0,0.0913304165005683,0,0,0
3585,122717.05643255482,2010-10-10 00:34:45,1710.8518937151052,2,11,0.550297200679779,3.883166551589966,10.757085353007508,10.46563038095289,42.77940880894288,38.33967114548448,3.237724376958795e-05,0.0913304165005683,0,0,0
3586,122747.07163426792,2010-10-10 00:35:15,1740.8670952928835,2,11,0.5499359965324402,3.8841378688812256,10.761672156579362,10.46563038095289,42.79722230778971,38.33967114548448,3.237724376958795e-05,0.0913304165005683,0,0,0
3587,122777.08690584014,2010-10-10 00:35:45,1770.88236688516,2,11,0.550297200679779,3.8852710723876953,10.76625901654786,10.46563038095289,42.81504095661471,38.33967114548448,3.237724376958795e-05,0.0913304165005683,0,0,0
3588,122807.10207096206,2010-10-10 00:36:15,1800.8975320421666,2,11,0.5501165986061096,3.886404275894165,10.770845767426932,10.46563038095289,42.83286422715,38.33967114548448,3.237724376958795e-05,0.0913304165005683,0,0,0
3589,122837.11742960128,2010-10-10 00:36:45,1830.9128906212409,2,11,0.5501165986061096,3.8875374794006343,10.775432553001677,10.46563038095289,42.85069254267603,38.33967114548448,6.47544875391759e-05,0.0913304165005683,0,0,0
3590,122867.1325399066,2010-10-10 00:37:15,1860.9280009566155,2,11,0.5499359965324402,3.8885087966918954,10.780019381615654,10.46563038095289,42.86852600906845,38.33967114548448,6.47544875391759e-05,0.0913304165005683,0,0,0
3591,122897.14775173992,2010-10-10 00:37:45,1890.9432127598784,2,11,0.5499359965324402,3.8894801139831534,10.784606217603542,10.46563038095289,42.88636448768187,38.33967114548448,0.0,0.0913304165005683,0,0,0
3592,122927.1630044752,2010-10-10 00:38:15,1920.9584655202195,2,11,0.5501165986061096,3.890613317489624,10.789193053094646,10.46563038095289,42.90420782444088,38.33967114548448,3.237724376958795e-05,0.0913304165005683,0,0,0
3593,122957.1782229902,2010-10-10 00:38:45,1950.9736841003728,2,11,0.5501165986061096,3.8917465209960938,10.793779848720026,10.46563038095289,42.92205600986732,38.33967114548448,3.237724376958795e-05,0.0913304165005683,0,0,0
3594,122987.1934156608,2010-10-10 00:39:15,1980.9888767108023,2,11,0.5501165986061096,3.8927178382873535,10.798366758323183,10.46563038095289,42.93990957261208,38.33967114548448,-3.237724376958795e-05,0.0913304165005683,0,0,0
3595,123017.20861658694,2010-10-10 00:39:45,2011.0040776219191,2,11,0.5501165986061096,3.8938510417938232,10.802953617425116,10.46563038095289,42.95776796303884,38.33967114548448,0.0,0.0913304165005683,0,0,0
3596,123047.22393980788,2010-10-10 00:40:15,2041.0194008428696,2,11,0.5501165986061096,3.894984245300293,10.807540526931094,10.46563038095289,42.97563153859156,38.33967114548448,3.237724376958795e-05,0.0913304165005683,0,0,0
3597,123077.23916406218,2010-10-10 00:40:45,2071.034625082128,2,11,0.5501165986061096,3.8959555625915527,10.812127347178514,10.46563038095289,42.99349928855971,38.33967114548448,0.0,0.0913304165005683,0,0,0
3598,123107.25436222643,2010-10-10 00:41:15,2101.049823306548,2,11,0.5501165986061096,3.8970887660980233,10.816714105945511,10.46563038095289,43.01137217047487,38.33967114548448,3.237724376958795e-05,0.0913304165005683,0,0,0
3599,123137.269485063,2010-10-10 00:41:45,2131.064946087942,2,11,0.5499359965324402,3.898060083389282,10.821300846787947,10.46563038095289,43.029250118169685,38.33967114548448,-3.237724376958795e-05,0.0913304165005683,0,0,0
3600,123167.28667229964,2010-10-10 00:42:15,2161.0821333546687,2,11,0.5501165986061096,3.899517059326172,10.825887851691684,10.46563038095289,43.04713434106236,38.33967114548448,3.237724376958795e-05,0.0913304165005683,0,0,0
3601,123197.29994760656,2010-10-10 00:42:45,2191.0954086515626,2,11,0.550297200679779,3.9006502628326416,10.83047441277745,10.46563038095289,43.06502207852797,38.33967114548448,9.713172767078504e-05,0.0913304165005683,0,0,0
3602,123227.31517101877,2010-10-10 00:43:16,2221.110632043709,2,11,0.5501165986061096,3.901621580123901,10.835061202192714,10.46563038095289,43.08291607463029,38.33967114548448,0.0,0.0913304165005683,0,0,0
3603,123257.3304044108,2010-10-10 00:43:46,2251.125865531016,2,11,0.5501165986061096,3.902916669845581,10.839647932023462,10.46563038095289,43.10081522029285,38.33967114548448,0.0,0.0913304165005683,0,0,0
3604,123287.34560453496,2010-10-10 00:44:16,2281.1410655849963,2,11,0.5501165986061096,3.9042117595672607,10.844234694069304,10.46563038095289,43.11871997635497,38.33967114548448,3.237724376958795e-05,0.0913304165005683,0,0,0
3605,123317.36085971634,2010-10-10 00:44:46,2311.156320761359,2,11,0.550297200679779,3.9053449630737305,10.848821491939775,10.46563038095289,43.1366303879888,38.33967114548448,3.237724376958795e-05,0.0913304165005683,0,0,0
3606,123347.37607254216,2010-10-10 00:45:16,2341.171533567121,2,11,0.5501165986061096,3.90664005279541,10.8534082431519,10.46563038095289,43.15454609607878,38.33967114548448,3.237724376958795e-05,0.0913304165005683,0,0,0
3607,123377.39128234544,2010-10-10 00:45:46,2371.186743360375,2,11,0.5501165986061096,3.90793514251709,10.857995016673588,10.46563038095289,43.172467610524,38.33967114548448,6.47544875391759e-05,0.0913304165005683,0,0,0
3608,123407.40668610712,2010-10-10 00:46:16,2401.2021471220582,2,11,0.5501165986061096,3.9089064598083496,10.862581807947034,10.46563038095289,43.19039485603172,38.33967114548448,0.0,0.0913304165005683,0,0,0
3609,123437.42171956088,2010-10-10 00:46:46,2431.217180605895,2,11,0.5499359965324402,3.910201549530029,10.867168604859916,10.46563038095289,43.20832800687575,38.33967114548448,0.0,0.0913304165005683,0,0,0
3610,123467.43693874756,2010-10-10 00:47:16,2461.23239979256,2,11,0.5501165986061096,3.911658525466919,10.8717553650964,10.46563038095289,43.22626674020348,38.33967114548448,3.237724376958795e-05,0.0913304165005683,0,0,0
3611,123497.45217015468,2010-10-10 00:47:46,2491.2476311696078,2,11,0.550297200679779,3.912953615188599,10.876342192688623,10.46563038095289,43.244211740612485,38.33967114548448,3.237724376958795e-05,0.0913304165005683,0,0,0
3612,123527.4673706648,2010-10-10 00:48:16,2521.2628317098,2,11,0.550297200679779,3.914248466491699,10.880928964324752,10.46563038095289,43.26216249012949,38.33967114548448,6.47544875391759e-05,0.0913304165005683,0,0,0
3613,123557.48261811188,2010-10-10 00:48:46,2551.278079136849,2,11,0.5504778623580933,3.915543556213379,10.885515829129108,10.46563038095289,43.280119684698114,38.33967114548448,3.237724376958795e-05,0.0913304165005683,0,0,0
3614,123587.49786590484,2010-10-10 00:49:16,2581.293326959885,2,11,0.5501165986061096,3.9168386459350586,10.89010264017366,10.46563038095289,43.29808260106987,38.33967114548448,0.0,0.0913304165005683,0,0,0
3615,123617.51319117592,2010-10-10 00:49:46,2611.308652326182,2,11,0.5501165986061096,3.918295621871948,10.894689406331224,10.46563038095289,43.31605162185162,38.33967114548448,6.47544875391759e-05,0.0913304165005683,0,0,0
3616,123647.52826234368,2010-10-10 00:50:16,2641.3237233886766,2,11,0.5501165986061096,3.919590711593628,10.899276164619048,10.46563038095289,43.33402685180385,38.33967114548448,0.0,0.0913304165005683,0,0,0
3617,123677.54348526963,2010-10-10 00:50:46,2671.3389463196736,2,11,0.5499359965324402,3.920885801315308,10.903862831123602,10.46563038095289,43.35200806946507,38.33967114548448,0.0,0.0913304165005683,0,0,0
3618,123707.55869321832,2010-10-10 00:51:16,2701.354154263317,2,11,0.550297200679779,3.9225046634674072,10.90844953087914,10.46563038095289,43.36999574758865,38.33967114548448,6.47544875391759e-05,0.0913304165005683,0,0,0
3619,123737.5739355276,2010-10-10 00:51:46,2731.3693965676,2,11,0.550297200679779,3.923961639404297,10.913036243501876,10.46563038095289,43.38798989014733,38.33967114548448,6.47544875391759e-05,0.0913304165005683,0,0,0
3620,123767.59114913498,2010-10-10 00:52:16,2761.3866102150746,2,11,0.5501165986061096,3.925256729125977,10.917623344990126,10.46563038095289,43.40599212542662,38.33967114548448,3.237724376958795e-05,0.0913304165005683,0,0,0
3621,123797.60436338974,2010-10-10 00:52:46,2791.3998244046697,2,11,0.5501165986061096,3.926551818847656,10.92220990824,10.46563038095289,43.4239987139982,38.33967114548448,3.237724376958795e-05,0.0913304165005683,0,0,0
3622,123827.61961039572,2010-10-10 00:53:16,2821.4150714507696,2,11,0.550297200679779,3.928170680999756,10.926796777693202,10.46563038095289,43.44201314747463,38.33967114548448,6.47544875391759e-05,0.0913304165005683,0,0,0
3623,123857.63485929144,2010-10-10 00:53:46,2851.4303203414665,2,11,0.5501165986061096,3.9296276569366455,10.931383572808448,10.46563038095289,43.46003389721617,38.33967114548448,6.47544875391759e-05,0.0913304165005683,0,0,0
3624,123887.65014418188,2010-10-10 00:54:16,2881.445605246923,2,11,0.5501165986061096,3.931084632873535,10.935970309999185,10.46563038095289,43.47806118975298,38.33967114548448,3.237724376958795e-05,0.0913304165005683,0,0,0
3625,123917.66523498856,2010-10-10 00:54:46,2911.460696008514,2,11,0.5501165986061096,3.932541608810425,10.940557151944812,10.46563038095289,43.49609566129215,38.33967114548448,3.237724376958795e-05,0.0913304165005683,0,0,0
3626,123947.68057833468,2010-10-10 00:55:16,2941.476039504997,2,11,0.5501165986061096,3.9339985847473145,10.945143990045455,10.46563038095289,43.514136967940935,38.33967114548448,6.47544875391759e-05,0.0913304165005683,0,0,0
3627,123977.69570817868,2010-10-10 00:55:46,2971.4911692437304,2,11,0.550297200679779,3.935617446899414,10.949730831922707,10.46563038095289,43.53218520780276,38.33967114548448,3.237724376958795e-05,0.0913304165005683,0,0,0
3628,124007.71090126528,2010-10-10 00:56:16,3001.5063622802218,2,11,0.550297200679779,3.937074422836304,10.954317705263092,10.46563038095289,43.55024040040667,38.33967114548448,3.237724376958795e-05,0.0913304165005683,0,0,0
3629,124037.7263967656,2010-10-10 00:56:46,3031.5218578306703,2,11,0.550297200679779,3.9386932849884033,10.958904518712425,10.46563038095289,43.56830248463755,38.33967114548448,6.47544875391759e-05,0.0913304165005683,0,0,0
3630,124067.74134774884,2010-10-10 00:57:16,3061.536808768777,2,11,0.5501165986061096,3.940150260925293,10.963491241634998,10.46563038095289,43.58637128270503,38.33967114548448,9.713172767078504e-05,0.0913304165005683,0,0,0
3631,124097.7565862386,2010-10-10 00:57:46,3091.55204725354,2,11,0.5501165986061096,3.941607236862183,10.96807809064507,10.46563038095289,43.604447766635,38.33967114548448,6.47544875391759e-05,0.0913304165005683,0,0,0
3632,124127.77178326504,2010-10-10 00:58:16,3121.567244315062,2,11,0.5501165986061096,3.943226099014282,10.972664900598314,10.46563038095289,43.62253127282986,38.33967114548448,3.237724376958795e-05,0.0913304165005683,0,0,0
3633,124157.78700399052,2010-10-10 00:58:46,3151.5824650405625,2,11,0.5501165986061096,3.945006847381592,10.977251725225225,10.46563038095289,43.640622115318045,38.33967114548448,6.47544875391759e-05,0.0913304165005683,0,0,0
3634,124187.80224992888,2010-10-10 00:59:16,3181.597710943814,2,11,0.5501165986061096,3.9464638233184814,10.981838548407303,10.46563038095289,43.65872030553694,38.33967114548448,3.237724376958795e-05,0.0913304165005683,0,0,0
3635,124217.81748017308,2010-10-10 00:59:46,3211.612941303325,2,11,0.5499359965324402,3.947920799255371,10.986425316291363,10.46563038095289,43.6768255372872,38.33967114548448,0.0,0.0913304165005683,0,0,0
3636,124247.83266929485,2010-10-10 01:00:16,3241.628130314785,2,11,0.550297200679779,3.9497015476226807,10.991012090575948,10.46563038095289,43.69493831084464,38.33967114548448,3.237724376958795e-05,0.0913304165005683,0,0,0
3637,124277.84789011056,2010-10-10 01:00:46,3271.64335115056,2,11,0.5501165986061096,3.9514822959899902,10.995598872639642,10.46563038095289,43.71305869629269,38.33967114548448,6.47544875391759e-05,0.0913304165005683,0,0,0
3638,124307.86340104436,2010-10-10 01:01:16,3301.6588621845985,2,11,0.5501165986061096,3.95293927192688,11.0001857162485,10.46563038095289,43.731186876811954,38.33967114548448,0.0,0.0913304165005683,0,0,0
3639,124337.8783520827,2010-10-10 01:01:46,3331.673813102656,2,11,0.5501165986061096,3.9547200202941895,11.004772464349085,10.46563038095289,43.74932236196986,38.33967114548448,6.47544875391759e-05,0.0913304165005683,0,0,0
3640,124367.89613913928,2010-10-10 01:02:16,3361.6916003146303,2,11,0.550297200679779,3.956500768661499,11.009359717140027,10.46563038095289,43.76746763450231,38.33967114548448,3.237724376958795e-05,0.0913304165005683,0,0,0
3641,124397.90894330195,2010-10-10 01:02:46,3391.704404336963,2,11,0.550297200679779,3.958119630813599,11.013946188964338,10.46563038095289,43.7856175541206,38.33967114548448,0.0,0.0913304165005683,0,0,0
3642,124427.92400765276,2010-10-10 01:03:16,3421.7194687178044,2,11,0.550297200679779,3.959738492965698,11.01853298097864,10.46563038095289,43.803776681043175,38.33967114548448,3.237724376958795e-05,0.0913304165005683,0,0,0
3643,124457.93936661778,2010-10-10 01:03:46,3451.73482770289,2,11,0.5501165986061096,3.9616811275482178,11.023119864369445,10.46563038095289,43.82194417069904,38.33967114548448,6.47544875391759e-05,0.0913304165005683,0,0,0
3644,124487.95443364522,2010-10-10 01:04:16,3481.7498946902283,2,11,0.5499359965324402,3.963299989700317,11.027706080884084,10.46563038095289,43.84011688116393,38.33967114548448,0.0,0.0913304165005683,0,0,0
3645,124517.97215689278,2010-10-10 01:04:46,3511.767618033021,2,11,0.5501165986061096,3.965080738067627,11.032292320838636,10.46563038095289,43.858297756146754,38.33967114548448,6.47544875391759e-05,0.0913304165005683,0,0,0
3646,124547.98488463,2010-10-10 01:05:16,3541.78034577524,2,11,0.5501165986061096,3.966861486434937,11.036877835138062,10.46563038095289,43.87648402593608,38.33967114548448,6.47544875391759e-05,0.0913304165005683,0,0,0
3647,124578.00011706968,2010-10-10 01:05:46,3571.795578109673,2,11,0.5501165986061096,3.968642234802246,11.041463667859716,10.46563038095289,43.89467981979593,38.33967114548448,3.237724376958795e-05,0.0913304165005683,0,0,0
3648,124608.01533925884,2010-10-10 01:06:16,3601.810800298821,2,11,0.5501165986061096,3.9705848693847656,11.04605013839774,10.46563038095289,43.91288668739726,38.33967114548448,3.237724376958795e-05,0.0913304165005683,0,0,0
3649,124638.03054837036,2010-10-10 01:06:46,3631.8260093803015,2,11,0.5501165986061096,3.972527503967285,11.05063693471184,10.46563038095289,43.93110353946203,38.33967114548448,3.237724376958795e-05,0.0913304165005683,0,0,0
3650,124668.04577980256,2010-10-10 01:07:16,3661.841240837549,2,11,0.5499359965324402,3.9744701385498047,11.055223742017176,10.46563038095289,43.9493290619022,38.33967114548448,6.47544875391759e-05,0.0913304165005683,0,0,0
3651,124698.0610337659,2010-10-10 01:07:46,3691.856494815926,2,11,0.5501165986061096,3.976250886917114,11.059810579823406,10.46563038095289,43.96756349621983,38.33967114548448,3.237724376958795e-05,0.0913304165005683,0,0,0
3652,124728.07621045664,2010-10-10 01:08:16,3721.871671501666,2,11,0.550297200679779,3.978193521499634,11.064397411083029,10.46563038095289,43.98580653655685,38.33967114548448,6.47544875391759e-05,0.0913304165005683,0,0,0
3653,124758.09155732654,2010-10-10 01:08:46,3751.8870183715567,2,11,0.5499359965324402,3.9802980422973633,11.068984161567291,10.46563038095289,44.00405842860854,38.33967114548448,3.237724376958795e-05,0.0913304165005683,0,0,0
3654,124788.10665672968,2010-10-10 01:09:16,3781.902117769672,2,11,0.5501165986061096,3.982240676879883,11.073570886606229,10.46563038095289,44.02231948186942,38.33967114548448,0.0,0.0913304165005683,0,0,0
3655,124818.121945996,2010-10-10 01:09:46,3811.9174070710847,2,11,0.5501165986061096,3.9841833114624015,11.07815756754562,10.46563038095289,44.04058956067692,38.33967114548448,3.237724376958795e-05,0.0913304165005683,0,0,0
3656,124848.13712071684,2010-10-10 01:10:16,3841.932581736789,2,11,0.5499359965324402,3.986287832260132,11.082744271196193,10.46563038095289,44.0588690970833,38.33967114548448,3.237724376958795e-05,0.0913304165005683,0,0,0
3657,124878.15231266562,2010-10-10 01:10:46,3871.947773705621,2,11,0.550297200679779,3.9882304668426514,11.087330992637614,10.46563038095289,44.077158136646986,38.33967114548448,3.237724376958795e-05,0.0913304165005683,0,0,0
3658,124908.16754118052,2010-10-10 01:11:16,3901.9630022054967,2,11,0.5501165986061096,3.990496873855591,11.091917703030443,10.46563038095289,44.09545667247722,38.33967114548448,3.237724376958795e-05,0.0913304165005683,0,0,0
3659,124938.18277130948,2010-10-10 01:11:46,3931.978232324409,2,11,0.5501165986061096,3.99260139465332,11.096504415195364,10.46563038095289,44.113764887640144,38.33967114548448,3.237724376958795e-05,0.0913304165005683,0,0,0
3660,124968.1998731132,2010-10-10 01:12:16,3961.995334288534,2,11,0.550297200679779,3.9945437908172607,11.101091372235356,10.46563038095289,44.13208380565472,38.33967114548448,0.0,0.0913304165005683,0,0,0
3661,124998.21333427331,2010-10-10 01:12:46,3992.0087952982826,2,11,0.550297200679779,3.99697208404541,11.105677789125489,10.46563038095289,44.15041038830268,38.33967114548448,6.47544875391759e-05,0.0913304165005683,0,0,0
3662,125028.22845334046,2010-10-10 01:13:16,4022.0239143553936,2,11,0.550297200679779,3.99907660484314,11.11026455573883,10.46563038095289,44.16874824447451,38.33967114548448,6.47544875391759e-05,0.0913304165005683,0,0,0
3663,125058.2436588831,2010-10-10 01:13:46,4052.0391198980537,2,11,0.5499359965324402,4.001181125640869,11.114851292586907,10.46563038095289,44.18709591964223,38.33967114548448,3.23295607813634e-05,0.0913304165005683,0,0,0
3664,125088.25898467046,2010-10-10 01:14:16,4082.05444570545,2,11,0.5501165986061096,4.003447532653809,11.1194379661607,10.46563038095289,44.20545337632678,38.33967114548448,6.47544875391759e-05,0.0913304165005683,0,0,0
3665,125118.27408564751,2010-10-10 01:14:46,4112.069546692526,2,11,0.550297200679779,4.005713939666748,11.124024666327085,10.46563038095289,44.22382096722174,38.33967114548448,6.47544875391759e-05,0.0913304165005683,0,0,0
3666,125148.28932670868,2010-10-10 01:15:17,4142.084787753709,2,11,0.5499359965324402,4.007818698883057,11.128611337252956,10.46563038095289,44.24219861682002,38.33967114548448,6.47544875391759e-05,0.0913304165005683,0,0,0
3667,125178.30454233148,2010-10-10 01:15:47,4172.100003381504,2,11,0.5501165986061096,4.009922981262207,11.133198041415472,10.46563038095289,44.260586541578256,38.33967114548448,0.0,0.0913304165005683,0,0,0
3668,125208.31974667114,2010-10-10 01:16:17,4202.115207716154,2,11,0.5501165986061096,4.012351512908936,11.137784762461235,10.46563038095289,44.27898486756666,38.33967114548448,9.71794142969884e-05,0.0913304165005683,0,0,0
3669,125238.33498576742,2010-10-10 01:16:47,4232.130446837503,2,11,0.5501165986061096,4.014617919921875,11.14237152724474,10.46563038095289,44.2973937234384,38.33967114548448,3.24249267578125e-05,0.0913304165005683,0,0,0
3670,125268.35019261332,2010-10-10 01:17:17,4262.145653638298,2,11,0.5501165986061096,4.016884326934815,11.146958249629552,10.46563038095289,44.31581287383742,38.33967114548448,3.24249267578125e-05,0.0913304165005683,0,0,0
3671,125298.36542888758,2010-10-10 01:17:47,4292.160889902527,2,11,0.5501165986061096,4.019150733947754,11.151544998067358,10.46563038095289,44.334242678145074,38.33967114548448,6.47544875391759e-05,0.0913304165005683,0,0,0
3672,125328.38077434896,2010-10-10 01:18:17,4322.176235494232,2,11,0.5501165986061096,4.021417140960693,11.15613174411085,10.46563038095289,44.35268289038381,38.33967114548448,3.24249267578125e-05,0.0913304165005683,0,0,0
3673,125358.39598453318,2010-10-10 01:18:47,4352.1914455982605,2,11,0.5501165986061096,4.023845195770264,11.160718476201504,10.46563038095289,44.3711338409857,38.33967114548448,9.70840483205393e-05,0.0913304165005683,0,0,0
3674,125388.41108598142,2010-10-10 01:19:17,4382.206547001373,2,11,0.5501165986061096,4.026111602783203,11.165305135030954,10.46563038095289,44.38959526321762,38.33967114548448,3.23295607813634e-05,0.0913304165005683,0,0,0
3675,125418.42632528322,2010-10-10 01:19:47,4412.221786328234,2,11,0.550297200679779,4.0287017822265625,11.169891880419833,10.46563038095289,44.40806796152727,38.33967114548448,6.47544875391759e-05,0.0913304165005683,0,0,0
3676,125448.44154608891,2010-10-10 01:20:17,4442.237007098846,2,11,0.550297200679779,4.031130313873291,11.174478609936177,10.46563038095289,44.42655153881872,38.33967114548448,6.47544875391759e-05,0.0913304165005683,0,0,0
3677,125478.45677275422,2010-10-10 01:20:47,4472.252233809263,2,11,0.5501165986061096,4.033558368682861,11.179065277616024,10.46563038095289,44.44504603795079,38.33967114548448,6.47544875391759e-05,0.0913304165005683,0,0,0
3678,125508.47198980556,2010-10-10 01:21:17,4502.267450850582,2,11,0.5501165986061096,4.035986423492432,11.183652027782667,10.46563038095289,44.46355212827374,38.33967114548448,6.47544875391759e-05,0.0913304165005683,0,0,0
3679,125538.48721719268,2010-10-10 01:21:47,4532.282678242697,2,11,0.550297200679779,4.03841495513916,11.188238735878087,10.46563038095289,44.48206942883783,38.33967114548448,6.47544875391759e-05,0.0913304165005683,0,0,0
3680,125568.50450279948,2010-10-10 01:22:17,4562.299963959792,2,11,0.5501165986061096,4.04100513458252,11.192825786021483,10.46563038095289,44.50059949502035,38.33967114548448,6.47544875391759e-05,0.0913304165005683,0,0,0
3681,125598.5176347391,2010-10-10 01:22:47,4592.313095779095,2,11,0.550297200679779,4.04343318939209,11.197412128936662,10.46563038095289,44.51913832828048,38.33967114548448,3.23295607813634e-05,0.0913304165005683,0,0,0
3682,125628.53286484296,2010-10-10 01:23:17,4622.32832586292,2,11,0.5501165986061096,4.046023368835449,11.201998817271484,10.46563038095289,44.53769024002168,38.33967114548448,6.47544875391759e-05,0.0913304165005683,0,0,0
3683,125658.5482464294,2010-10-10 01:23:47,4652.34370747941,2,11,0.5499359965324402,4.048613548278809,11.206585552547224,10.46563038095289,44.55625416974212,38.33967114548448,6.47544875391759e-05,0.0913304165005683,0,0,0
3684,125688.56329371262,2010-10-10 01:24:17,4682.358754732564,2,11,0.5501165986061096,4.051365852355957,11.211172277936198,10.46563038095289,44.57482995204479,38.33967114548448,9.71794142969884e-05,0.0913304165005683,0,0,0
3685,125718.57851987668,2010-10-10 01:24:47,4712.3739809517565,2,11,0.5501165986061096,4.0536322593688965,11.215759015095992,10.46563038095289,44.59341776473175,38.33967114548448,3.24249267578125e-05,0.0913304165005683,0,0,0
3686,125748.5937462312,2010-10-10 01:25:17,4742.389207246137,2,11,0.5499359965324402,4.056546211242676,11.220345730793376,10.46563038095289,44.612017659623554,38.33967114548448,9.71794142969884e-05,0.0913304165005683,0,0,0
3687,125778.608995167,2010-10-10 01:25:47,4772.404456217033,2,11,0.5501165986061096,4.059136390686035,11.224932452781934,10.46563038095289,44.63062991127212,38.33967114548448,9.71794142969884e-05,0.0913304165005683,0,0,0
3688,125808.62417506074,2010-10-10 01:26:17,4802.419636080694,2,11,0.5499359965324402,4.061888217926025,11.22951921142576,10.46563038095289,44.64925445300717,38.33967114548448,9.70840483205393e-05,0.0913304165005683,0,0,0
3689,125838.63940699416,2010-10-10 01:26:47,4832.434868029165,2,11,0.550297200679779,4.064640522003174,11.23410582857842,10.46563038095289,44.66789081408637,38.33967114548448,9.71794142969884e-05,0.0913304165005683,0,0,0
3690,125868.6546847869,2010-10-10 01:27:17,4862.450145831919,2,11,0.550297200679779,4.067392349243164,11.238692487960826,10.46563038095289,44.68653992459591,38.33967114548448,9.70840483205393e-05,0.0913304165005683,0,0,0
3691,125898.66989474055,2010-10-10 01:27:47,4892.465355785573,2,11,0.5499359965324402,4.0701446533203125,11.24327916149897,10.46563038095289,44.70520186839605,38.33967114548448,9.71794142969884e-05,0.0913304165005683,0,0,0
3692,125928.68524079844,2010-10-10 01:28:17,4922.480701818377,2,11,0.5501165986061096,4.072896480560303,11.24786589510941,10.46563038095289,44.72387687361813,38.33967114548448,6.47544875391759e-05,0.0913304165005683,0,0,0
3693,125958.69979038624,2010-10-10 01:28:47,4952.495251406197,2,11,0.550297200679779,4.075972557067871,11.252447764132572,10.46563038095289,44.74254504995037,38.33967114548448,0.0001295089750783,0.0913304165005683,0,0,0
3694,125988.70013242448,2010-10-10 01:29:17,4982.495593459468,2,11,0.5501165986061096,4.078562736511231,11.257036877615198,10.46563038095289,44.76125582662882,38.33967114548448,9.71794142969884e-05,0.0913304165005683,0,0,0
3695,126018.71529390232,2010-10-10 01:29:47,5012.51075494733,2,11,0.550297200679779,4.081314563751221,11.261623594569569,10.46563038095289,44.77997007935554,38.33967114548448,3.23295607813634e-05,0.0913304165005683,0,0,0
3696,126048.73036631818,2010-10-10 01:30:17,5042.525827373223,2,11,0.5501165986061096,4.084390640258789,11.26621030190377,10.46563038095289,44.79869755703201,38.33967114548448,6.47544875391759e-05,0.0913304165005683,0,0,0
3697,126078.74557286836,2010-10-10 01:30:47,5072.541033888307,2,11,0.550297200679779,4.087466239929199,11.27079763493022,10.46563038095289,44.81744111609379,38.33967114548448,9.70840483205393e-05,0.0913304165005683,0,0,0
3698,126108.76091476584,2010-10-10 01:31:17,5102.556375790817,2,11,0.550297200679779,4.0903801918029785,11.275385131110628,10.46563038095289,44.83619894221948,38.33967114548448,6.47544875391759e-05,0.0913304165005683,0,0,0
3699,126138.77604039435,2010-10-10 01:31:47,5132.571501439356,2,11,0.5501165986061096,4.093294143676758,11.2799718803568,10.46563038095289,44.85496732736651,38.33967114548448,6.47544875391759e-05,0.0913304165005683,0,0,0
3700,126168.7912765934,2010-10-10 01:32:17,5162.586737638422,2,11,0.5501165986061096,4.096531867980957,11.284558552799894,10.46563038095289,44.87374925678661,38.33967114548448,6.47544875391759e-05,0.0913304165005683,0,0,0
3701,126198.80844676754,2010-10-10 01:32:47,5192.603907802523,2,11,0.5501165986061096,4.0992841720581055,11.289145525354687,10.46563038095289,44.89254635165042,38.33967114548448,6.47544875391759e-05,0.0913304165005683,0,0,0
3702,126228.8217312824,2010-10-10 01:33:17,5222.617192362503,2,11,0.550297200679779,4.102683544158936,11.293731921820848,10.46563038095289,44.9113551132792,38.33967114548448,0.0001295089750783,0.0913304165005683,0,0,0
3703,126258.83732566416,2010-10-10 01:33:47,5252.632786729232,2,11,0.5501165986061096,4.105759620666504,11.298318623774255,10.46563038095289,44.93017932318261,38.33967114548448,0.0001295089750783,0.0913304165005683,0,0,0
3704,126288.85230844664,2010-10-10 01:34:17,5282.647769511706,2,11,0.5501165986061096,4.108835220336914,11.3029052332004,10.46563038095289,44.94901747859502,38.33967114548448,9.70840483205393e-05,0.0913304165005683,0,0,0
3705,126318.8702123745,2010-10-10 01:34:47,5312.665673524785,2,11,0.5501165986061096,4.111749172210693,11.307492339918008,10.46563038095289,44.967872122334285,38.33967114548448,0.0,0.0913304165005683,0,0,0
3706,126348.88259501162,2010-10-10 01:35:17,5342.678056026559,2,11,0.5501165986061096,4.115148544311523,11.312078547313538,10.46563038095289,44.986737520212685,38.33967114548448,9.70840483205393e-05,0.0913304165005683,0,0,0
3707,126378.89782695008,2010-10-10 01:35:47,5372.693287970018,2,11,0.5501165986061096,4.118224620819092,11.31666520006519,10.46563038095289,45.005619439698,38.33967114548448,9.71794142969884e-05,0.0913304165005683,0,0,0
3708,126408.9130661065,2010-10-10 01:36:17,5402.708527126454,2,11,0.5499359965324402,4.121462345123291,11.321251910393595,10.46563038095289,45.02451645064493,38.33967114548448,6.47544875391759e-05,0.0913304165005683,0,0,0
3709,126438.9282747168,2010-10-10 01:36:47,5432.723735766835,2,11,0.550297200679779,4.12470006942749,11.325838625719252,10.46563038095289,45.043428231667896,38.33967114548448,6.47544875391759e-05,0.0913304165005683,0,0,0
3710,126468.94581354472,2010-10-10 01:37:17,5462.741274599772,2,11,0.5501165986061096,4.1279377937316895,11.330425680250617,10.46563038095289,45.06235639022144,38.33967114548448,3.24249267578125e-05,0.0913304165005683,0,0,0
3711,126498.95874308488,2010-10-10 01:37:47,5492.754204129908,2,11,0.5501165986061096,4.13133716583252,11.335012085920502,10.46563038095289,45.0812969112638,38.33967114548448,9.70840483205393e-05,0.0913304165005683,0,0,0
3712,126528.97384214216,2010-10-10 01:38:17,5522.769303167124,2,11,0.5499359965324402,4.134737014770508,11.339598758792397,10.46563038095289,45.10025376690943,38.33967114548448,9.71794142969884e-05,0.0913304165005683,0,0,0
3713,126558.9892379791,2010-10-10 01:38:47,5552.7846990140815,2,11,0.550297200679779,4.137974739074707,11.344185473142396,10.46563038095289,45.119226108655575,38.33967114548448,6.47544875391759e-05,0.0913304165005683,0,0,0
3714,126589.00432226955,2010-10-10 01:39:17,5582.799783294518,2,11,0.5499359965324402,4.141374111175537,11.348772149589497,10.46563038095289,45.13821371615242,38.33967114548448,9.70840483205393e-05,0.0913304165005683,0,0,0
3715,126619.019550589,2010-10-10 01:39:47,5612.815011618958,2,11,0.5499359965324402,4.144773960113525,11.353358829598053,10.46563038095289,45.157216981061296,38.33967114548448,6.47544875391759e-05,0.0913304165005683,0,0,0
3716,126649.03481607603,2010-10-10 01:40:17,5642.830277116043,2,11,0.550297200679779,4.148497104644775,11.357945451088556,10.46563038095289,45.17623602613645,38.33967114548448,0.0001295089750783,0.0913304165005683,0,0,0
3717,126679.04999219536,2010-10-10 01:40:47,5672.845453220334,2,11,0.5501165986061096,4.151896953582764,11.362532150024045,10.46563038095289,45.19527121296496,38.33967114548448,0.0001295089750783,0.0913304165005683,0,0,0
3718,126709.0654642623,2010-10-10 01:41:17,5702.860925297279,2,11,0.5501165986061096,4.155296325683594,11.367118838721298,10.46563038095289,45.21432224568927,38.33967114548448,9.70840483205393e-05,0.0913304165005683,0,0,0
3719,126739.08056577068,2010-10-10 01:41:47,5732.876026800642,2,11,0.5499359965324402,4.158857822418213,11.371705536130197,10.46563038095289,45.23338935023013,38.33967114548448,0.0001295089750783,0.0913304165005683,0,0,0
3720,126769.09568142932,2010-10-10 01:42:17,5762.89114245427,2,11,0.5501165986061096,4.162419319152832,11.376292225798702,10.46563038095289,45.25247259879485,38.33967114548448,6.47544875391759e-05,0.0913304165005683,0,0,0
3721,126799.11283760352,2010-10-10 01:42:47,5792.908298648555,2,11,0.5501165986061096,4.16581916809082,11.380879196679237,10.46563038095289,45.27157322043315,38.33967114548448,6.47544875391759e-05,0.0913304165005683,0,0,0
3722,126829.12611591796,2010-10-10 01:43:17,5822.921576952945,2,11,0.5501165986061096,4.16938066482544,11.385464698775198,10.46563038095289,45.29068387501872,38.33967114548448,6.47544875391759e-05,0.0913304165005683,0,0,0
3723,126859.14150260208,2010-10-10 01:43:47,5852.936963657115,2,11,0.5499359965324402,4.172942161560059,11.390050492968609,10.46563038095289,45.30981220547217,38.33967114548448,6.47544875391759e-05,0.0913304165005683,0,0,0
3724,126889.15660196009,2010-10-10 01:44:17,5882.95206299508,2,11,0.5501165986061096,4.176665306091309,11.394637132680648,10.46563038095289,45.32896078893519,38.33967114548448,9.70840483205393e-05,0.0913304165005683,0,0,0
3725,126919.17178956304,2010-10-10 01:44:47,5912.967250618079,2,11,0.5499359965324402,4.180226802825928,11.399223788282033,10.46563038095289,45.34812611566901,38.33967114548448,6.47544875391759e-05,0.0913304165005683,0,0,0
3726,126949.18714084894,2010-10-10 01:45:17,5942.9826018789145,2,11,0.550297200679779,4.184112071990967,11.403810480668028,10.46563038095289,45.3673083818654,38.33967114548448,6.47544875391759e-05,0.0913304165005683,0,0,0
3727,126979.20225629205,2010-10-10 01:45:47,5972.997717352093,2,11,0.550297200679779,4.187835693359375,11.408397110312354,10.46563038095289,45.38650724017472,38.33967114548448,0.0001295089750783,0.0913304165005683,0,0,0
3728,127009.21747464663,2010-10-10 01:46:17,6003.012935701672,2,11,0.5501165986061096,4.191397190093994,11.412983750786184,10.46563038095289,45.405723216026544,38.33967114548448,0.0001295089750783,0.0913304165005683,0,0,0
3729,127039.23267985848,2010-10-10 01:46:47,6033.02814087842,2,11,0.5501165986061096,4.195281982421875,11.417570379230648,10.46563038095289,45.42495629727948,38.33967114548448,0.0001294136018259,0.0913304165005683,0,0,0
3730,127069.24791334575,2010-10-10 01:47:17,6063.043374385777,2,11,0.550297200679779,4.198843479156494,11.422156973227573,10.46563038095289,45.44420631439273,38.33967114548448,9.70840483205393e-05,0.0913304165005683,0,0,0
3731,127077.24786422488,2010-10-10 01:47:25,6071.043325274916,2,11,0.5501165986061096,4.200138568878174,11.423379436200532,10.46563038095289,45.44933993000396,38.33967114548448,0.0001618385285837,0.0913304165005683,0,0,0
3732,127107.26543942484,2010-10-10 01:47:56,30.01538770666893,3,11,0.0,4.121786117553711,11.423379436200532,10.46563038095289,45.44933993000396,38.33967114548448,-0.0003561019839253,0.0913304165005683,0,0,0
3733,127137.28046195136,2010-10-10 01:48:26,60.03041021314662,3,11,0.0,4.112235069274902,11.423379436200532,10.46563038095289,45.44933993000396,38.33967114548448,-0.0001942634553415,0.0913304165005683,0,0,0
3734,127167.29568069692,2010-10-10 01:48:56,90.04562893365002,3,11,0.0,4.106568813323975,11.423379436200532,10.46563038095289,45.44933993000396,38.33967114548448,-0.0001295089750783,0.0913304165005683,0,0,0
3735,127197.26420974742,2010-10-10 01:49:26,120.01415804427958,3,11,0.0,4.1031694412231445,11.423379436200532,10.46563038095289,45.44933993000396,38.33967114548448,-6.47544875391759e-05,0.0913304165005683,0,0,0
3736,127197.26789013884,2010-10-10 01:49:26,2.751858478e-06,4,11,0.9909838438034058,4.199491024017334,11.423379436958044,10.46563038095289,45.44933993318513,38.33967114548448,0.0,0.0913304165005683,0,0,0
3737,127198.11184804162,2010-10-10 01:49:27,0.843960634581573,4,11,0.9407745003700256,4.199653148651123,11.423604211059931,10.46563038095289,45.45028389200012,38.33967114548448,3.24249267578125e-05,0.0913304165005683,0,0,0
3738,127200.15849367226,2010-10-10 01:49:29,2.890606300317715,4,11,0.8907456994056702,4.199653148651123,11.424123896019218,10.46563038095289,45.452466374264304,38.33967114548448,3.24249267578125e-05,0.0913304165005683,0,0,0
3739,127203.33030648074,2010-10-10 01:49:32,6.062419068678862,4,11,0.8407169580459595,4.199814796447754,11.424885712227168,10.46563038095289,45.45566571883591,38.33967114548448,0.0,0.0913304165005683,0,0,0
3740,127207.6919672364,2010-10-10 01:49:36,10.42407983936889,4,11,0.7903269529342651,4.199491024017334,11.425872559610308,10.46563038095289,45.4598101169524,38.33967114548448,-3.24249267578125e-05,0.0913304165005683,0,0,0
3741,127213.31453859924,2010-10-10 01:49:42,16.046651192202102,4,11,0.7397563457489014,4.199653148651123,11.427066291738225,10.46563038095289,45.46482339058189,38.33967114548448,-3.23295607813634e-05,0.0913304165005683,0,0,0
3742,127220.64257507592,2010-10-10 01:49:49,23.37468769394491,4,11,0.6895470023155212,4.199653148651123,11.428519454061812,10.46563038095289,45.47092619419104,38.33967114548448,0.0,0.0913304165005683,0,0,0
3743,127230.34559344823,2010-10-10 01:49:59,33.077706096347825,4,11,0.6393375992774963,4.199491024017334,11.430307348758822,10.46563038095289,45.4784347574757,38.33967114548448,-6.47544875391759e-05,0.0913304165005683,0,0,0
3744,127243.6266495766,2010-10-10 01:50:12,46.35876216454857,4,11,0.5893087983131409,4.199653148651123,11.432568806969403,10.46563038095289,45.48793212129864,38.33967114548448,0.0,0.0913304165005683,0,0,0
3745,127263.50149027495,2010-10-10 01:50:32,66.23360287794195,4,11,0.5390994548797607,4.199653148651123,11.43567479160054,10.46563038095289,45.500976235364845,38.33967114548448,3.24249267578125e-05,0.0913304165005683,0,0,0
3746,127296.15721733971,2010-10-10 01:51:05,98.88932993267838,4,11,0.4890706837177276,4.199653148651123,11.44032100850967,10.46563038095289,45.520488841252245,38.33967114548448,-3.23295607813634e-05,0.0913304165005683,0,0,0
3747,127353.5626969782,2010-10-10 01:52:02,156.294809561137,4,11,0.4390419125556946,4.199491024017334,11.447693181383617,10.46563038095289,45.55144954286685,38.33967114548448,-3.24249267578125e-05,0.0913304165005683,0,0,0
3748,127443.01458260584,2010-10-10 01:53:32,245.7466952288781,4,11,0.3890131413936615,4.199491024017334,11.457956355466225,10.46563038095289,45.5945515191252,38.33967114548448,-3.24249267578125e-05,0.0913304165005683,0,0,0
3749,127556.57582404643,2010-10-10 01:55:25,359.307936674481,4,11,0.3389843702316284,4.199653148651123,11.469420714283771,10.46563038095289,45.642698172842486,38.33967114548448,0.0,0.0913304165005683,0,0,0
3750,127694.15181962847,2010-10-10 01:57:43,496.8839322364971,4,11,0.2889555990695953,4.199653148651123,11.48139928253002,10.46563038095289,45.69300423975596,38.33967114548448,0.0,0.0913304165005683,0,0,0
3751,127859.61837009004,2010-10-10 02:00:28,662.3504826829945,4,11,0.2389268279075622,4.199653148651123,11.49349815698007,10.46563038095289,45.74381549526461,38.33967114548448,0.0,0.0913304165005683,0,0,0
3752,128066.05308807564,2010-10-10 02:03:55,868.7852006986644,4,11,0.1887174546718597,4.199653148651123,11.505716989670358,10.46563038095289,45.79513060145182,38.33967114548448,0.0,0.0913304165005683,0,0,0
3753,128341.12749817388,2010-10-10 02:08:30,1143.8596107969092,4,11,0.1386886835098266,4.199653148651123,11.51815710804932,10.46563038095289,45.84737502895742,38.33967114548448,0.0,0.0913304165005683,0,0,0
3754,128756.54387994768,2010-10-10 02:15:25,1559.2759925707148,4,11,0.0886599123477935,4.199653148651123,11.531090373704798,10.46563038095289,45.901690483041264,38.33967114548448,0.0,0.0913304165005683,0,0,0
3755,129330.31729424176,2010-10-10 02:24:59,2133.0494068648013,4,11,0.0498289167881011,4.199491024017334,11.541853427526892,10.46563038095289,45.94689174104749,38.33967114548448,-3.24249267578125e-05,0.0913304165005683,0,0,0
3756,129360.33386888578,2010-10-10 02:25:29,30.015224865819427,5,11,0.0,4.192368507385254,11.541853427526892,10.46563038095289,45.94689174104749,38.33967114548448,-6.47544875391759e-05,0.0913304165005683,0,0,0
3757,129390.3335839564,2010-10-10 02:25:59,60.014939946482,5,11,0.0,4.191235065460205,11.541853427526892,10.46563038095289,45.94689174104749,38.33967114548448,-6.47544875391759e-05,0.0913304165005683,0,0,0
3758,129390.520783592,2010-10-10 02:25:59,0.185149238872266,6,11,-1.9243103452026844e-05,4.191397190093994,11.541853427526892,10.465630381942567,45.94689174104749,38.339671149632615,0.0,0.0875260159373283,0,0,0
3759,129395.33567469212,2010-10-10 02:26:04,5.000040399148648,6,11,0.0007031940040178,4.191397190093994,11.54185423749536,10.465630382027166,45.9468951359847,38.33967114998719,-3.23295607813634e-05,0.0875260159373283,0,0,0
3760,129425.35314507496,2010-10-10 02:26:34,30.01767193466794,7,11,-1.0997490882873535,4.030806541442871,11.54185423749536,10.474800291427234,45.9468951359847,38.37680833360741,-0.0007769584772177,0.0875260159373283,0,0,0
3761,129455.36598497172,2010-10-10 02:27:04,60.03051183141059,7,11,-1.0997490882873535,4.007494926452637,11.54185423749536,10.483968645179312,45.9468951359847,38.413648416663584,-0.0004856109735555,0.0875260159373283,0,0,0
3762,129485.38115359737,2010-10-10 02:27:34,90.04568032172492,7,11,-1.0997490882873535,3.9914681911468506,11.54185423749536,10.493137783522316,45.9468951359847,38.4503167453533,-0.0003561496851034,0.0875260159373283,0,0,0
3763,129515.39825554645,2010-10-10 02:28:04,120.06278231592584,7,11,-1.0997490882873535,3.979002952575684,11.54185423749536,10.502307438976851,45.9468951359847,38.48685857011962,-0.0002913951757363,0.0875260159373283,0,0,0
3764,129545.41162156944,2010-10-10 02:28:34,150.0761484291619,7,11,-1.099929690361023,3.968156576156616,11.54185423749536,10.511475845095086,45.9468951359847,38.52328908930867,-0.0002590179501567,0.0875260159373283,0,0,0
3765,129575.42691699111,2010-10-10 02:29:04,180.0914438758907,7,11,-1.0997490882873535,3.9584434032440186,11.54185423749536,10.52064476981434,45.9468951359847,38.559628457745085,-0.0002590179501567,0.0875260159373283,0,0,0
3766,129605.4420091111,2010-10-10 02:29:34,210.1065359307042,7,11,-1.0997490882873535,3.9493777751922607,11.54185423749536,10.529813711113292,45.9468951359847,38.59588141922013,-0.0002266406954731,0.0875260159373283,0,0,0
3767,129635.4572100122,2010-10-10 02:30:04,240.12173677164623,7,11,-1.099568486213684,3.940635919570923,11.54185423749536,10.538982650630556,45.9468951359847,38.63205251287818,-0.0002266406954731,0.0875260159373283,0,0,0
3768,129665.47255886202,2010-10-10 02:30:34,270.1370856164595,7,11,-1.0997490882873535,3.932055950164795,11.54185423749536,10.548151632115273,45.9468951359847,38.6681446636694,-0.0002266406954731,0.0875260159373283,0,0,0
3769,129695.48765887166,2010-10-10 02:31:04,300.15218563111137,7,11,-1.099568486213684,3.923961639404297,11.54185423749536,10.557320548576024,45.9468951359847,38.70415940282347,-0.0001942634553415,0.0875260159373283,0,0,0
3770,129725.50288565224,2010-10-10 02:31:34,330.1674123816281,7,11,-1.0997490882873535,3.915543556213379,11.54185423749536,10.56648952896497,45.9468951359847,38.74009883867878,-0.0002266406954731,0.0875260159373283,0,0,0
3771,129755.51809226256,2010-10-10 02:32:04,360.1826189969617,7,11,-1.099568486213684,3.90761137008667,11.54185423749536,10.575658521125357,45.9468951359847,38.77596428165398,-0.0002266406954731,0.0875260159373283,0,0,0
3772,129785.53333545908,2010-10-10 02:32:34,390.19786224359177,7,11,-1.0997490882873535,3.899840831756592,11.54185423749536,10.584827511347465,45.9468951359847,38.81175724042462,-0.0001942634553415,0.0875260159373283,0,0,0
3773,129815.54854636008,2010-10-10 02:33:04,420.2130731195441,7,11,-1.0997490882873535,3.8920702934265137,11.54185423749536,10.59399648777594,45.9468951359847,38.84747868706718,-0.0002266406954731,0.0875260159373283,0,0,0
3774,129845.5637698224,2010-10-10 02:33:34,450.2282965467781,7,11,-1.099929690361023,3.884299755096436,11.54185423749536,10.603165498535192,45.9468951359847,38.88312988830853,-0.0002266406954731,0.0875260159373283,0,0,0
3775,129875.57897737507,2010-10-10 02:34:04,480.2435041094728,7,11,-1.099929690361023,3.876852989196777,11.54185423749536,10.6123345788064,45.9468951359847,38.91871155208502,-0.0001942634553415,0.0875260159373283,0,0,0
3776,129905.59432755822,2010-10-10 02:34:34,510.25885429763406,7,11,-1.0997490882873535,3.869406223297119,11.54185423749536,10.621503659916565,45.9468951359847,38.95422401486367,-0.0001618862152099,0.0875260159373283,0,0,0
3777,129935.60943531216,2010-10-10 02:35:04,540.2739620465622,7,11,-1.0997490882873535,3.861959457397461,11.54185423749536,10.63067265623352,45.9468951359847,38.98966775385533,-0.0001942634553415,0.0875260159373283,0,0,0
3778,129965.62465379707,2010-10-10 02:35:34,570.2891806467658,7,11,-1.099929690361023,3.8545126914978023,11.54185423749536,10.639841706992469,45.9468951359847,39.02504422947913,-0.0001942634553415,0.0875260159373283,0,0,0
3779,129995.63988305384,2010-10-10 02:36:04,600.3044098183165,7,11,-1.0997490882873535,3.847389698028565,11.54185423749536,10.64901072652878,45.9468951359847,39.06035408454311,-0.0001942634553415,0.0875260159373283,0,0,0
3780,130025.6550822557,2010-10-10 02:36:34,630.3196090101484,7,11,-1.1001102924346924,3.840104818344116,11.54185423749536,10.658179816958445,45.9468951359847,39.09559866153627,-0.0002266406954731,0.0875260159373283,0,0,0
3781,130055.6704271607,2010-10-10 02:37:05,660.3349539251674,7,11,-1.0993878841400146,3.833305597305298,11.54185423749536,10.667348962077735,45.9468951359847,39.13077879964997,-0.0001942634553415,0.0875260159373283,0,0,0
3782,130085.68557824763,2010-10-10 02:37:35,690.3501049820321,7,11,-1.099568486213684,3.8265066146850586,11.54185423749536,10.676517915925308,45.9468951359847,39.16589445495165,-0.0001618862152099,0.0875260159373283,0,0,0
3783,130115.70278669716,2010-10-10 02:38:05,720.3673135568648,7,11,-1.0997490882873535,3.81970739364624,11.54185423749536,10.685687552968323,45.9468951359847,39.200950430287335,-0.0001942634553415,0.0875260159373283,0,0,0
3784,130145.71596437074,2010-10-10 02:38:35,750.3804911001264,7,11,-1.0997490882873535,3.813070058822632,11.54185423749536,10.694855996487922,45.9468951359847,39.23594050849374,-0.0001618862152099,0.0875260159373283,0,0,0
3785,130175.73131510528,2010-10-10 02:39:05,780.3958419599618,7,11,-1.0997490882873535,3.806432723999024,11.54185423749536,10.704025044975433,45.9468951359847,39.27087188486226,-0.0001618862152099,0.0875260159373283,0,0,0
3786,130205.74657504348,2010-10-10 02:39:35,810.4111018681175,7,11,-1.0997490882873535,3.800119161605835,11.54185423749536,10.713194126050547,45.9468951359847,39.3057442178801,-0.0001618862152099,0.0875260159373283,0,0,0
3787,130235.76195826396,2010-10-10 02:40:05,840.4264851236929,7,11,-1.099568486213684,3.7938055992126474,11.54185423749536,10.72236325560822,45.9468951359847,39.34055872295061,-0.0001618862152099,0.0875260159373283,0,0,0
3788,130265.77684198956,2010-10-10 02:40:35,870.4413687189611,7,11,-1.099568486213684,3.787653923034668,11.54185423749536,10.731532228108293,45.9468951359847,39.375315924846674,-0.0001295089750783,0.0875260159373283,0,0,0
3789,130295.79218816772,2010-10-10 02:41:05,900.4567149021407,7,11,-1.0997490882873535,3.7815022468566895,11.54185423749536,10.740701314624394,45.9468951359847,39.41001741824293,-0.0001942634553415,0.0875260159373283,0,0,0
3790,130325.80732466331,2010-10-10 02:41:35,930.471851392702,7,11,-1.0997490882873535,3.775674343109131,11.54185423749536,10.749870334176718,45.9468951359847,39.44466379418491,-0.0001618862152099,0.0875260159373283,0,0,0
3791,130355.8225140908,2010-10-10 02:42:05,960.4870408252106,7,11,-1.099568486213684,3.769846439361572,11.54185423749536,10.759039398202662,45.9468951359847,39.47925627841414,-0.0001295089750783,0.0875260159373283,0,0,0
3792,130385.83774498165,2010-10-10 02:42:35,990.5022717110336,7,11,-1.0997490882873535,3.7643423080444336,11.54185423749536,10.768208456718982,45.9468951359847,39.513796035541446,-0.0001295089750783,0.0875260159373283,0,0,0
3793,130415.85296350668,2010-10-10 02:43:05,1020.5174902711374,7,11,-1.099568486213684,3.758676290512085,11.54185423749536,10.777377593113192,45.9468951359847,39.54828451551136,-0.0001295089750783,0.0875260159373283,0,0,0
3794,130445.86842489196,2010-10-10 02:43:35,1050.532951746661,7,11,-1.099568486213684,3.7531721591949454,11.54185423749536,10.786546730010404,45.9468951359847,39.58272262612024,-0.0001618862152099,0.0875260159373283,0,0,0
3795,130475.88338258187,2010-10-10 02:44:05,1080.547909316296,7,11,-1.0997490882873535,3.7476682662963863,11.54185423749536,10.795715706603172,45.9468951359847,39.61711056443491,-0.0001942634553415,0.0875260159373283,0,0,0
3796,130505.89873111594,2010-10-10 02:44:35,1110.5632578503348,7,11,-1.099929690361023,3.742487907409668,11.54185423749536,10.804884816765783,45.9468951359847,39.65145024047958,-0.0001295089750783,0.0875260159373283,0,0,0
3797,130535.91395291912,2010-10-10 02:45:05,1140.5784796785836,7,11,-1.0997490882873535,3.737307548522949,11.54185423749536,10.814053891971204,45.9468951359847,39.68574152029523,-0.0001295089750783,0.0875260159373283,0,0,0
3798,130565.92905979088,2010-10-10 02:45:35,1170.5935865503254,7,11,-1.099568486213684,3.7324509620666495,11.54185423749536,10.823222947833631,45.9468951359847,39.71998536862958,-9.713172767078504e-05,0.0875260159373283,0,0,0
3799,130595.94426093256,2010-10-10 02:46:05,1200.6087876669546,7,11,-1.099929690361023,3.727270603179932,11.54185423749536,10.832391992221591,45.9468951359847,39.754182763320834,-9.713172767078504e-05,0.0875260159373283,0,0,0
3800,130625.95950134212,2010-10-10 02:46:35,1230.6240281316511,7,11,-1.0997490882873535,3.722252130508423,11.54185423749536,10.841561028968083,45.9468951359847,39.788334929185794,-0.0001295089750783,0.0875260159373283,0,0,0
3801,130655.97470465922,2010-10-10 02:47:05,1260.6392314186896,7,11,-1.099568486213684,3.717395544052124,11.54185423749536,10.850730070920608,45.9468951359847,39.82244189551773,-0.0001295089750783,0.0875260159373283,0,0,0
3802,130685.98993121424,2010-10-10 02:47:35,1290.654457943644,7,11,-1.0997490882873535,3.712538957595825,11.54185423749536,10.859899168884333,45.9468951359847,39.85650417722106,-6.47544875391759e-05,0.0875260159373283,0,0,0
3803,130716.00709724806,2010-10-10 02:48:05,1320.671624102764,7,11,-1.0997490882873535,3.7076823711395264,11.54185423749536,10.869068866916708,45.9468951359847,39.8905244513769,-0.0001295089750783,0.0875260159373283,0,0,0
3804,130746.02038534686,2010-10-10 02:48:35,1350.6849121113387,7,11,-1.1001102924346924,3.7029876708984375,11.54185423749536,10.878237380215932,45.9468951359847,39.92449704853018,-0.0001295089750783,0.0875260159373283,0,0,0
3805,130776.03558358132,2010-10-10 02:49:05,1380.7001104059348,7,11,-1.0997490882873535,3.698454856872559,11.54185423749536,10.887406510919826,45.9468951359847,39.95842911981683,-9.713172767078504e-05,0.0875260159373283,0,0,0
3806,130806.05081952976,2010-10-10 02:49:35,1410.7153463142756,7,11,-1.099568486213684,3.69392204284668,11.54185423749536,10.896575608082768,45.9468951359847,39.99231893673347,-9.713172767078504e-05,0.0875260159373283,0,0,0
3807,130836.06603745326,2010-10-10 02:50:05,1440.730564207718,7,11,-1.0997490882873535,3.689389228820801,11.54185423749536,10.905744707009225,45.9468951359847,40.02616743984747,-9.713172767078504e-05,0.0875260159373283,0,0,0
3808,130866.08150420194,2010-10-10 02:50:35,1470.7460310816955,7,11,-1.0997490882873535,3.685018301010132,11.54185423749536,10.914913880659029,45.9468951359847,40.05997554821346,-0.0001295089750783,0.0875260159373283,0,0,0
3809,130896.09647880904,2010-10-10 02:51:05,1500.761005543431,7,11,-1.0997490882873535,3.680647373199463,11.54185423749536,10.924082995576477,45.9468951359847,40.09374328090312,-9.713172767078504e-05,0.0875260159373283,0,0,0
3810,130926.11170379516,2010-10-10 02:51:35,1530.7762306398254,7,11,-1.0997490882873535,3.676276445388794,11.54185423749536,10.933252114816677,45.9468951359847,40.12747122132864,-0.0001295089750783,0.0875260159373283,0,0,0
3811,130956.12690345314,2010-10-10 02:52:05,1560.7914301875444,7,11,-1.0997490882873535,3.672067642211914,11.54185423749536,10.9424211820191,45.9468951359847,40.161159892220525,-0.0001294612884521,0.0875260159373283,0,0,0
3812,130986.14212782773,2010-10-10 02:52:35,1590.806654597227,7,11,-1.099568486213684,3.668020486831665,11.54185423749536,10.951590310388305,45.9468951359847,40.19481025778464,-6.47544875391759e-05,0.0875260159373283,0,0,0
3813,131016.15731931035,2010-10-10 02:53:05,1620.8218460998953,7,11,-1.0997490882873535,3.663649559020996,11.54185423749536,10.960759355256954,45.9468951359847,40.22842220582,-0.0001295089750783,0.0875260159373283,0,0,0
3814,131046.17256921358,2010-10-10 02:53:35,1650.837095998103,7,11,-1.099929690361023,3.659764289855957,11.54185423749536,10.969928458797236,45.9468951359847,40.26199682092656,-6.47544875391759e-05,0.0875260159373283,0,0,0
3815,131076.18780047534,2010-10-10 02:54:05,1680.8523272147506,7,11,-1.0997490882873535,3.655717134475708,11.54185423749536,10.979097546216366,45.9468951359847,40.29553446755735,-0.0001295089750783,0.0875260159373283,0,0,0
3816,131106.20318017705,2010-10-10 02:54:35,1710.8677070417812,7,11,-1.099929690361023,3.651669979095459,11.54185423749536,10.988266770533905,45.9468951359847,40.32903662114337,-0.0001295089750783,0.0875260159373283,0,0,0
3817,131136.21851673123,2010-10-10 02:55:05,1740.8830434756624,7,11,-1.0997490882873535,3.64794659614563,11.54185423749536,10.997435955618784,45.9468951359847,40.36250321950111,-0.0001295089750783,0.0875260159373283,0,0,0
3818,131166.23349632075,2010-10-10 02:55:35,1770.8980230451275,7,11,-1.099929690361023,3.644061326980591,11.54185423749536,11.006605023299576,45.9468951359847,40.395934050055,-0.0001295089750783,0.0875260159373283,0,0,0
3819,131196.25122561338,2010-10-10 02:56:05,1800.9157524981492,7,11,-1.0997490882873535,3.640499830245972,11.54185423749536,11.015774897951967,45.9468951359847,40.429333727109146,-9.713172767078504e-05,0.0875260159373283,0,0,0
3820,131226.26404514437,2010-10-10 02:56:35,1830.9285718787592,7,11,-1.0997490882873535,3.636938333511353,11.54185423749536,11.024943303402951,45.9468951359847,40.46269475150894,-6.47544875391759e-05,0.0875260159373283,0,0,0
3821,131256.27918733412,2010-10-10 02:57:05,1860.943714063512,7,11,-1.0997490882873535,3.633376836776733,11.54185423749536,11.0341123354826,45.9468951359847,40.49602573253332,-9.713172767078504e-05,0.0875260159373283,0,0,0
3822,131286.2943699747,2010-10-10 02:57:35,1890.9588967040936,7,11,-1.0997490882873535,3.629977226257324,11.54185423749536,11.043281453169078,45.9468951359847,40.52932535301924,-0.0001295089750783,0.0875260159373283,0,0,0
3823,131316.31177731993,2010-10-10 02:58:05,1920.976304219748,7,11,-1.0997490882873535,3.626739501953125,11.54185423749536,11.052451340045208,45.9468951359847,40.56259681769518,-9.713172767078504e-05,0.0875260159373283,0,0,0
3824,131346.32712573366,2010-10-10 02:58:35,1950.9916525933863,7,11,-1.0997490882873535,3.623501777648926,11.54185423749536,11.061620528099311,45.9468951359847,40.59583578019196,-9.713172767078504e-05,0.0875260159373283,0,0,0
3825,131376.3400534994,2010-10-10 02:59:05,1981.0045802338136,7,11,-1.0997490882873535,3.6201021671295166,11.54185423749536,11.070788996382095,45.9468951359847,40.62904288786508,-9.713172767078504e-05,0.0875260159373283,0,0,0
3826,131406.3552725457,2010-10-10 02:59:35,2011.0197993001789,7,11,-1.0997490882873535,3.617188215255737,11.54185423749536,11.07995817295228,45.9468951359847,40.66222408245973,-9.713172767078504e-05,0.0875260159373283,0,0,0
3827,131436.37045022394,2010-10-10 03:00:05,2041.0349770786424,7,11,-1.0997490882873535,3.614274263381958,11.54185423749536,11.089127348579895,45.9468951359847,40.69537749145356,-6.47544875391759e-05,0.0875260159373283,0,0,0
3828,131466.38569826251,2010-10-10 03:00:35,2071.050225021978,7,11,-1.0997490882873535,3.6113603115081783,11.54185423749536,11.09829661145719,45.9468951359847,40.72850416280926,-6.47544875391759e-05,0.0875260159373283,0,0,0
3829,131496.40096344883,2010-10-10 03:01:05,2101.0654901832254,7,11,-1.099929690361023,3.6082844734191895,11.54185423749536,11.1074658218232,45.9468951359847,40.76160421179524,-0.0001295089750783,0.0875260159373283,0,0,0
3830,131526.41612631513,2010-10-10 03:01:35,2131.080653074586,7,11,-1.099929690361023,3.60569429397583,11.54185423749536,11.116634968529215,45.9468951359847,40.79467822270211,-6.47544875391759e-05,0.0875260159373283,0,0,0
3831,131556.4313274167,2010-10-10 03:02:05,2161.09585418119,7,11,-1.0997490882873535,3.603104114532471,11.54185423749536,11.125804117347402,45.9468951359847,40.82772666627746,-3.237724376958795e-05,0.0875260159373283,0,0,0
3832,131586.44667305352,2010-10-10 03:02:35,2191.1111997829207,7,11,-1.0997490882873535,3.6001901626586914,11.54185423749536,11.13497332370532,45.9468951359847,40.86075032851143,-9.713172767078504e-05,0.0875260159373283,0,0,0
3833,131616.46177055192,2010-10-10 03:03:05,2221.126297326414,7,11,-1.099929690361023,3.597438097000122,11.54185423749536,11.144142439176973,45.9468951359847,40.89374907267314,-9.713172767078504e-05,0.0875260159373283,0,0,0
3834,131646.47700215454,2010-10-10 03:03:35,2251.1415288839107,7,11,-1.0997490882873535,3.5948479175567627,11.54185423749536,11.153311664752962,45.9468951359847,40.92672382207224,-9.713172767078504e-05,0.0875260159373283,0,0,0
3835,131676.49222698525,2010-10-10 03:04:05,2281.156753839955,7,11,-1.0997490882873535,3.5924196243286133,11.54185423749536,11.162480822830798,45.9468951359847,40.959674182052126,-3.237724376958795e-05,0.0875260159373283,0,0,0
3836,131706.50743410183,2010-10-10 03:04:35,2311.171960836238,7,11,-1.099929690361023,3.589505910873413,11.54185423749536,11.171650012213096,45.9468951359847,40.99260065433227,-9.713172767078504e-05,0.0875260159373283,0,0,0
3837,131736.52266076213,2010-10-10 03:05:05,2341.18718749653,7,11,-1.0997490882873535,3.587077617645264,11.54185423749536,11.180819186565335,45.9468951359847,41.02550293224411,-6.47544875391759e-05,0.0875260159373283,0,0,0
3838,131766.53788017435,2010-10-10 03:05:35,2371.202406908757,7,11,-1.099929690361023,3.5841636657714844,11.54185423749536,11.1899883432066,45.9468951359847,41.05838088581631,-6.47544875391759e-05,0.0875260159373283,0,0,0
3839,131796.5532188388,2010-10-10 03:06:05,2401.2177456032728,7,11,-1.0997490882873535,3.581735372543335,11.54185423749536,11.199157568401215,45.9468951359847,41.09123475348122,-3.237724376958795e-05,0.0875260159373283,0,0,0
3840,131826.56844050164,2010-10-10 03:06:35,2431.232967241047,7,11,-1.0997490882873535,3.5789833068847656,11.54185423749536,11.208326732500067,45.9468951359847,41.1240637648729,-6.47544875391759e-05,0.0875260159373283,0,0,0
3841,131856.58368850514,2010-10-10 03:07:05,2461.24821523952,7,11,-1.099568486213684,3.5762312412261963,11.54185423749536,11.217495881223796,45.9468951359847,41.15686748267261,-6.47544875391759e-05,0.0875260159373283,0,0,0
3842,131886.59887895518,2010-10-10 03:07:35,2491.2634056895645,7,11,-1.0997490882873535,3.573317289352417,11.54185423749536,11.226664996031031,45.9468951359847,41.189645272852246,-6.47544875391759e-05,0.0875260159373283,0,0,0
3843,131916.61587358176,2010-10-10 03:08:05,2521.2804003462475,7,11,-1.099568486213684,3.570565223693848,11.54185423749536,11.235834635764451,45.9468951359847,41.22239866625736,-6.47544875391759e-05,0.0875260159373283,0,0,0
3844,131946.62934528317,2010-10-10 03:08:35,2551.293872052654,7,11,-1.0997490882873535,3.5674893856048584,11.54185423749536,11.24500327821178,45.9468951359847,41.25512128246122,-6.47544875391759e-05,0.0875260159373283,0,0,0
3845,131976.6445709159,2010-10-10 03:09:06,2581.3090976903973,7,11,-1.0997490882873535,3.564413547515869,11.54185423749536,11.254172481243758,45.9468951359847,41.28781779798948,-6.47544875391759e-05,0.0875260159373283,0,0,0
3846,132006.65967522626,2010-10-10 03:09:36,2611.3242019907307,7,11,-1.099568486213684,3.56117582321167,11.54185423749536,11.263341609988895,45.9468951359847,41.320485443131375,-9.713172767078504e-05,0.0875260159373283,0,0,0
3847,132036.67488045816,2010-10-10 03:10:06,2641.3394071925413,7,11,-1.1001102924346924,3.5579380989074707,11.54185423749536,11.27251078727708,45.9468951359847,41.3531235328994,-6.47544875391759e-05,0.0875260159373283,0,0,0
3848,132066.6901346721,2010-10-10 03:10:36,2671.3546614466054,7,11,-1.099929690361023,3.554376602172852,11.54185423749536,11.281680022643778,45.9468951359847,41.3857309764602,-6.47544875391759e-05,0.0875260159373283,0,0,0
3849,132096.705352746,2010-10-10 03:11:06,2701.3698795204973,7,11,-1.099929690361023,3.5508151054382324,11.54185423749536,11.29084922373804,45.9468951359847,41.41830582394911,-9.713172767078504e-05,0.0875260159373283,0,0,0
3850,132126.72055792777,2010-10-10 03:11:36,2731.385084662158,7,11,-1.0997490882873535,3.5470917224884038,11.54185423749536,11.300018438003637,45.9468951359847,41.45084705979394,-9.713172767078504e-05,0.0875260159373283,0,0,0
3851,132156.73597121818,2010-10-10 03:12:06,2761.400498067877,7,11,-1.0997490882873535,3.5432064533233643,11.54185423749536,11.309187721003712,45.9468951359847,41.48335408905714,-0.0001295089750783,0.0875260159373283,0,0,0
3852,132186.7510159601,2010-10-10 03:12:36,2791.41554272456,7,11,-1.099929690361023,3.5391592979431152,11.54185423749536,11.318356892629344,45.9468951359847,41.51582507814214,-0.0001295089750783,0.0875260159373283,0,0,0
3853,132216.7662080793,2010-10-10 03:13:06,2821.43073481369,7,11,-1.099568486213684,3.535274028778076,11.54185423749536,11.327526151485102,45.9468951359847,41.54825989441076,-0.0001295089750783,0.0875260159373283,0,0,0
3854,132246.78142562186,2010-10-10 03:13:36,2851.4459523462324,7,11,-1.0997490882873535,3.531226873397827,11.54185423749536,11.33669542073334,45.9468951359847,41.58065691852456,-9.713172767078504e-05,0.0875260159373283,0,0,0
3855,132276.79663274344,2010-10-10 03:14:06,2881.461159477852,7,11,-1.0997490882873535,3.526855945587158,11.54185423749536,11.345864713300244,45.9468951359847,41.613015205121,-0.0001295089750783,0.0875260159373283,0,0,0
3856,132306.81200181867,2010-10-10 03:14:36,2911.476528558099,7,11,-1.099929690361023,3.5221612453460693,11.54185423749536,11.355033994983994,45.9468951359847,41.645333144832186,-0.0001295089750783,0.0875260159373283,0,0,0
3857,132336.82708736727,2010-10-10 03:15:06,2941.4916141016843,7,11,-1.0997490882873535,3.5176284313201904,11.54185423749536,11.36420319438127,45.9468951359847,41.6776086886335,-9.713172767078504e-05,0.0875260159373283,0,0,0
3858,132366.8424497308,2010-10-10 03:15:36,2971.5069764651903,7,11,-1.099568486213684,3.5126099586486816,11.54185423749536,11.373372442753986,45.9468951359847,41.709840105687526,-0.0001295089750783,0.0875260159373283,0,0,0
3859,132396.85752696366,2010-10-10 03:16:06,3001.522053738163,7,11,-1.099929690361023,3.507429838180542,11.54185423749536,11.38254163524523,45.9468951359847,41.74202426909504,-0.0001295089750783,0.0875260159373283,0,0,0
3860,132426.87273461156,2010-10-10 03:16:36,3031.53726134597,7,11,-1.0997490882873535,3.5016019344329834,11.54185423749536,11.391710893001598,45.9468951359847,41.77415808746883,-0.0001618862152099,0.0875260159373283,0,0,0
3861,132456.8883086326,2010-10-10 03:17:06,3061.552835382029,7,11,-1.099568486213684,3.495288372039795,11.54185423749536,11.40088021103583,45.9468951359847,41.80623686449053,-0.0001295089750783,0.0875260159373283,0,0,0
3862,132486.90320635308,2010-10-10 03:17:36,3091.567733082452,7,11,-1.0997490882873535,3.4881653785705566,11.54185423749536,11.410049392729526,45.9468951359847,41.83825328622474,-0.0001618862152099,0.0875260159373283,0,0,0
3863,132516.92039686788,2010-10-10 03:18:06,3121.584923642385,7,11,-1.099568486213684,3.4800710678100586,11.54185423749536,11.419219229565382,45.9468951359847,41.87020187575282,-0.0001295089750783,0.0875260159373283,0,0,0
3864,132546.93362094715,2010-10-10 03:18:36,3151.5981477918044,7,11,-1.0997490882873535,3.470034122467041,11.54185423749536,11.428387805860757,45.9468951359847,41.90206336554464,-0.0003237724304199,0.0875260159373283,0,0,0
3865,132576.94898224296,2010-10-10 03:19:06,3181.6135089773747,7,11,-1.0997490882873535,3.458054542541504,11.54185423749536,11.437557040381009,45.9468951359847,41.933827335826,-0.0003237724304199,0.0875260159373283,0,0,0
3866,132606.96407427776,2010-10-10 03:19:36,3211.6286010171507,7,11,-1.0997490882873535,3.442189693450928,11.54185423749536,11.446726196027562,45.9468951359847,41.96546480115632,-0.0004532813909463,0.0875260159373283,0,0,0
3867,132636.9792778555,2010-10-10 03:20:06,3241.643804619976,7,11,-1.099929690361023,3.420659065246582,11.54185423749536,11.455895395817096,45.9468951359847,41.996934296114624,-0.0006799221155233,0.0875260159373283,0,0,0
3868,132666.99449242064,2010-10-10 03:20:36,3271.659019175098,7,11,-1.099568486213684,3.3907101154327397,11.54185423749536,11.46506457116503,45.9468951359847,42.02816965468139,-0.0009065627818927,0.0875260159373283,0,0,0
3869,132697.00973436402,2010-10-10 03:21:06,3301.6742611435425,7,11,-1.0997490882873535,3.347162961959839,11.54185423749536,11.474233823050024,45.9468951359847,42.059071563303725,-0.0013274193042889,0.0875260159373283,0,0,0
3870,132727.02496360577,2010-10-10 03:21:36,3331.6894903902803,7,11,-1.099568486213684,3.285322427749634,11.54185423749536,11.483402981038624,45.9468951359847,42.08949478273457,-0.0018778800731524,0.0875260159373283,0,0,0
3871,132757.04015458713,2010-10-10 03:22:06,3361.704681316512,7,11,-1.0997490882873535,3.1961233615875244,11.54185423749536,11.492572121138451,45.9468951359847,42.1192339024419,-0.0027844428550451,0.0875260159373283,0,0,0
3872,132787.05552445434,2010-10-10 03:22:36,3391.720051223819,7,11,-1.0997490882873535,3.0593299865722656,11.54185423749536,11.501741374183396,45.9468951359847,42.1479633671974,-0.0044680596329271,0.0875260159373283,0,0,0
3873,132809.4926023612,2010-10-10 03:22:58,3414.157129125668,7,11,-1.0997490882873535,2.8589155673980717,11.54185423749536,11.508595598117116,45.9468951359847,42.168347129534204,-0.0102311614900827,0.0875260159373283,0,0,0
3874,132819.229326634,2010-10-10 03:23:08,3423.893853513757,7,11,-1.099929690361023,2.699620008468628,11.54185423749536,11.511570014621388,45.9468951359847,42.17662452743565,-0.0140840532258152,0.0875260159373283,0,0,0
3875,132879.24311858468,2010-10-10 03:24:08,60.01478508050835,8,11,0.0,3.2694578170776367,11.54185423749536,11.511570014621388,45.9468951359847,42.17662452743565,0.0011655807029455,0.0875260159373283,0,0,0
3876,132879.43305968432,2010-10-10 03:24:09,0.187635274838829,9,11,-1.9243103452026844e-05,3.2696197032928467,11.54185423749536,11.511570015624358,45.9468951359847,42.176624530714975,0.0,0.0891468673944473,0,0,0
3877,132884.2609855511,2010-10-10 03:24:13,5.015561161664457,9,11,0.0005225847125984,3.277066230773926,11.541854962880596,11.51157001594794,45.94689751079211,42.176624531774,0.0010684489971026,0.0891468673944473,0,0,0
