Data_Point,Test_Time(s),Date_Time,Step_Time(s),Step_Index,Cycle_Index,Current(A),Voltage(V),Charge_Capacity(Ah),Discharge_Capacity(Ah),Charge_Energy(Wh),Discharge_Energy(Wh),dV/dt(V/s),Internal_Resistance(Ohm),Is_FC_Data,AC_Impedance(Ohm),ACI_Phase_Angle(Deg)
5961,202221.13088948885,2010-10-10 22:39:58,30.0152019637404,1,18,0.0,3.296168804168701,17.687141666421603,17.659603917393074,70.35598464134507,64.7065134301138,0.0006151676061563,0.0913304165005683,0,0,0
5962,202251.146110074,2010-10-10 22:40:28,60.03042254889108,1,18,0.0,3.316566467285156,17.687141666421603,17.659603917393074,70.35598464134507,64.7065134301138,0.0004856586456298,0.0913304165005683,0,0,0
5963,202281.16135818773,2010-10-10 22:40:58,90.04567063257657,1,18,0.0,3.3317837715148926,17.687141666421603,17.659603917393074,70.35598464134507,64.7065134301138,0.0003561496851034,0.0913304165005683,0,0,0
5964,202311.1297883217,2010-10-10 22:41:28,120.0141009169006,1,18,0.0,3.3440871238708496,17.687141666421603,17.659603917393074,70.35598464134507,64.7065134301138,0.0003237724304199,0.0913304165005683,0,0,0
5965,202341.1424711777,2010-10-10 22:41:58,30.01526413869953,2,18,0.5501165986061096,3.5058109760284424,17.6917284993499,17.659603917393074,70.37187674436312,64.7065134301138,0.0018455028766766,0.0913304165005683,0,0,0
5966,202371.15769325657,2010-10-10 22:42:28,60.03048617246059,2,18,0.5501165986061096,3.5629565715789795,17.69631541276868,17.659603917393074,70.3880959269002,64.7065134301138,0.0013274669181555,0.0913304165005683,0,0,0
5967,202401.173060001,2010-10-10 22:42:58,90.04585291688515,2,18,0.5501165986061096,3.60553240776062,17.700902315627744,17.659603917393074,70.4045402798099,64.7065134301138,0.0010036944877356,0.0913304165005683,0,0,0
5968,202431.18817848168,2010-10-10 22:43:28,120.06097139756008,2,18,0.5504778623580933,3.639852285385132,17.70548917883214,17.659603917393074,70.42115934057779,64.7065134301138,0.0008418083307333,0.0913304165005683,0,0,0
5969,202461.20345625436,2010-10-10 22:43:58,150.07624916021467,2,18,0.5501165986061096,3.668182373046875,17.710076073864595,17.659603917393074,70.43792139117211,64.7065134301138,0.0007122993702068,0.0913304165005683,0,0,0
5970,202491.2207684825,2010-10-10 22:44:28,180.09356152372064,2,18,0.550297200679779,3.69230318069458,17.714663205453515,17.659603917393074,70.45480422293639,64.7065134301138,0.0006151676061563,0.0913304165005683,0,0,0
5971,202521.23391379544,2010-10-10 22:44:58,210.10670673139208,2,18,0.5499359965324402,3.712700843811035,17.719249706386613,17.659603917393074,70.4717868793603,64.7065134301138,0.0004856586456298,0.0913304165005683,0,0,0
5972,202551.24932414351,2010-10-10 22:45:28,240.1221171145779,2,18,0.550297200679779,3.730184555053711,17.723836599373875,17.659603917393074,70.48885820661964,64.7065134301138,0.0004209041653666,0.0913304165005683,0,0,0
5973,202581.2644185943,2010-10-10 22:45:58,270.137211505213,2,18,0.550297200679779,3.7445924282073975,17.72842345371999,17.659603917393074,70.5060022975316,64.7065134301138,0.0003561496851034,0.0913304165005683,0,0,0
5974,202611.2796433248,2010-10-10 22:46:28,300.1524362707826,2,18,0.5501165986061096,3.754791021347046,17.73301022055952,17.659603917393074,70.52320283945313,64.7065134301138,0.0002590179501567,0.0913304165005683,0,0,0
5975,202641.2948874436,2010-10-10 22:46:58,330.16768034948643,2,18,0.5501165986061096,3.7604570388793945,17.737597011685043,17.659603917393074,70.5404394285135,64.7065134301138,0.0001295089750783,0.0913304165005683,0,0,0
5976,202671.31040685356,2010-10-10 22:47:28,360.1831997944878,2,18,0.5501165986061096,3.764180421829224,17.742183856856254,17.659603917393074,70.557697466799,64.7065134301138,6.47544875391759e-05,0.0913304165005683,0,0,0
5977,202701.32539240288,2010-10-10 22:47:58,390.19818534385706,2,18,0.550297200679779,3.767580032348633,17.746770644380195,17.659603917393074,70.5749709605545,64.7065134301138,0.0001295089750783,0.0913304165005683,0,0,0
5978,202731.3430902221,2010-10-10 22:48:28,420.21588326328697,2,18,0.550297200679779,3.770493984222412,17.751357838056272,17.659603917393074,70.59226001849503,64.7065134301138,0.0001295089750783,0.0913304165005683,0,0,0
5979,202761.3558705253,2010-10-10 22:48:58,450.2286634411918,2,18,0.5501165986061096,3.773569822311402,17.755944284727164,17.659603917393074,70.60955988678357,64.7065134301138,0.0001295089750783,0.0913304165005683,0,0,0
5980,202791.37111485464,2010-10-10 22:49:28,480.2439077705204,2,18,0.5501165986061096,3.7763218879699703,17.760530280872192,17.659603917393074,70.62687138088741,64.7065134301138,6.47544875391759e-05,0.0913304165005683,0,0,0
5981,202821.38637280796,2010-10-10 22:49:58,510.2591657488664,2,18,0.5497553944587708,3.77907395362854,17.76511629716459,17.659603917393074,70.64419613745805,64.7065134301138,6.47544875391759e-05,0.0913304165005683,0,0,0
5982,202851.40159952332,2010-10-10 22:50:28,540.2743924392331,2,18,0.5499359965324402,3.7819879055023193,17.769702303769005,17.659603917393074,70.66153368802226,64.7065134301138,9.713172767078504e-05,0.0913304165005683,0,0,0
5983,202881.41768518955,2010-10-10 22:50:58,570.2904783209691,2,18,0.550297200679779,3.7847399711608887,17.774288475561082,17.659603917393074,70.67888455984878,64.7065134301138,9.713172767078504e-05,0.0913304165005683,0,0,0
5984,202911.4196931698,2010-10-10 22:51:28,600.2924862009933,2,18,0.5499359965324402,3.787492036819458,17.778873290899945,17.659603917393074,70.69624288629264,64.7065134301138,9.713172767078504e-05,0.0913304165005683,0,0,0
5985,202941.4318723749,2010-10-10 22:51:58,630.3046654161141,2,18,0.5499359965324402,3.789920330047608,17.783459717600323,17.659603917393074,70.71361957626121,64.7065134301138,3.237724376958795e-05,0.0913304165005683,0,0,0
5986,202971.4469866752,2010-10-10 22:52:28,660.3197796862951,2,18,0.5501165986061096,3.7926723957061768,17.788046584262936,17.659603917393074,70.73101003611268,64.7065134301138,9.713172767078504e-05,0.0913304165005683,0,0,0
5987,203001.46219368148,2010-10-10 22:52:58,690.3349866224281,2,18,0.5501165986061096,3.795262575149536,17.792633440950212,17.659603917393074,70.74841260818678,64.7065134301138,6.47544875391759e-05,0.0913304165005683,0,0,0
5988,203031.47743636667,2010-10-10 22:53:28,720.3502292775842,2,18,0.550297200679779,3.797852754592896,17.797220306519833,17.659603917393074,70.76582732556082,64.7065134301138,6.47544875391759e-05,0.0913304165005683,0,0,0
5989,203061.49273224952,2010-10-10 22:53:58,750.3655252907247,2,18,0.5501165986061096,3.800604820251465,17.80180717496995,17.659603917393074,70.78325428000376,64.7065134301138,6.47544875391759e-05,0.0913304165005683,0,0,0
5990,203091.50794327585,2010-10-10 22:54:28,780.3807362168019,2,18,0.5501165986061096,3.803356885910034,17.806394073470276,17.659603917393074,70.80069375415353,64.7065134301138,9.713172767078504e-05,0.0913304165005683,0,0,0
5991,203121.5251220013,2010-10-10 22:54:58,810.3979149723157,2,18,0.550297200679779,3.8062708377838135,17.810981212440364,17.659603917393074,70.818146877701,64.7065134301138,6.47544875391759e-05,0.0913304165005683,0,0,0
5992,203151.5385512469,2010-10-10 22:55:28,840.4113441577468,2,18,0.5499359965324402,3.809022903442383,17.815567844262965,17.659603917393074,70.83561127243583,64.7065134301138,3.237724376958795e-05,0.0913304165005683,0,0,0
5993,203181.553669903,2010-10-10 22:55:58,870.4264628088465,2,18,0.5501165986061096,3.812098741531372,17.820154767151656,17.659603917393074,70.8530904901937,64.7065134301138,6.47544875391759e-05,0.0913304165005683,0,0,0
5994,203211.56891749043,2010-10-10 22:56:28,900.4417104313828,2,18,0.5501165986061096,3.8153364658355713,17.82474157697699,17.659603917393074,70.8705838219342,64.7065134301138,6.47544875391759e-05,0.0913304165005683,0,0,0
5995,203241.58415636612,2010-10-10 22:56:58,930.4569493071192,2,18,0.5501165986061096,3.8185741901397705,17.82932842584013,17.659603917393074,70.88809212978205,64.7065134301138,6.47544875391759e-05,0.0913304165005683,0,0,0
5996,203271.59940313155,2010-10-10 22:57:28,960.4721960675068,2,18,0.5499359965324402,3.82197380065918,17.833915275419354,17.659603917393074,70.90561562780296,64.7065134301138,6.47544875391759e-05,0.0913304165005683,0,0,0
5997,203301.61465286932,2010-10-10 22:57:58,990.4874458053148,2,18,0.5501165986061096,3.825373411178589,17.838502110352,17.659603917393074,70.9231543522366,64.7065134301138,9.713172767078504e-05,0.0913304165005683,0,0,0
5998,203331.62994188003,2010-10-10 22:58:28,1020.5027348460778,2,18,0.550297200679779,3.828934907913208,17.843088946580384,17.659603917393074,70.94070856276961,64.7065134301138,6.47544875391759e-05,0.0913304165005683,0,0,0
5999,203361.6451293928,2010-10-10 22:58:58,1050.5179223237144,2,18,0.5501165986061096,3.8321726322174072,17.84767584013261,17.659603917393074,70.95827835284496,64.7065134301138,6.47544875391759e-05,0.0913304165005683,0,0,0
6000,203391.66049142543,2010-10-10 22:59:28,1080.533284521808,2,18,0.5501165986061096,3.8354101181030273,17.852262730156745,17.659603917393074,70.97586314290736,64.7065134301138,9.713172767078504e-05,0.0913304165005683,0,0,0
6001,203421.67561106905,2010-10-10 22:59:58,1110.5484040150068,2,18,0.5499359965324402,3.838324069976807,17.856849538612373,17.659603917393074,70.9934624852071,64.7065134301138,6.47544875391759e-05,0.0913304165005683,0,0,0
6002,203451.69100781824,2010-10-10 23:00:28,1140.5638007441623,2,18,0.5501165986061096,3.841723680496216,17.86143640112701,17.659603917393074,71.0110766082379,64.7065134301138,6.47544875391759e-05,0.0913304165005683,0,0,0
6003,203481.70609946703,2010-10-10 23:00:58,1170.578892382939,2,18,0.5501165986061096,3.844799518585205,17.866023298551546,17.659603917393074,71.02870523740076,64.7065134301138,9.713172767078504e-05,0.0913304165005683,0,0,0
6004,203511.7213403528,2010-10-10 23:01:28,1200.5941332937475,2,18,0.5501165986061096,3.8478753566741934,17.870610109464586,17.659603917393074,71.04634763922633,64.7065134301138,0.0001295089750783,0.0913304165005683,0,0,0
6005,203541.736603088,2010-10-10 23:01:59,1230.609396018924,2,18,0.5501165986061096,3.8507893085479736,17.875197032264847,17.659603917393074,71.06400429945127,64.7065134301138,6.47544875391759e-05,0.0913304165005683,0,0,0
6006,203571.7518469712,2010-10-10 23:02:29,1260.6246398871033,2,18,0.5501165986061096,3.853703260421753,17.87978392896758,17.659603917393074,71.08167429769642,64.7065134301138,6.47544875391759e-05,0.0913304165005683,0,0,0
6007,203601.7670735513,2010-10-10 23:02:59,1290.63986645717,2,18,0.550297200679779,3.856455326080322,17.88437082099067,17.659603917393074,71.09935729167748,64.7065134301138,6.47544875391759e-05,0.0913304165005683,0,0,0
6008,203631.78235829133,2010-10-10 23:03:29,1320.6551512423268,2,18,0.550297200679779,3.859207391738892,17.888957702006145,17.659603917393074,71.11705270920318,64.7065134301138,9.713172767078504e-05,0.0913304165005683,0,0,0
6009,203661.79756693676,2010-10-10 23:03:59,1350.67035984762,2,18,0.5501165986061096,3.861635684967041,17.89354456895339,17.659603917393074,71.13475988410454,64.7065134301138,6.47544875391759e-05,0.0913304165005683,0,0,0
6010,203691.81294584143,2010-10-10 23:04:29,1380.6857387573646,2,18,0.5499359965324402,3.863902091979981,17.898131424998656,17.659603917393074,71.15247814955544,64.7065134301138,3.237724376958795e-05,0.0913304165005683,0,0,0
6011,203721.8302109372,2010-10-10 23:04:59,1410.703003978377,2,18,0.5501165986061096,3.86633038520813,17.902718562587626,17.659603917393074,71.17020793066689,64.7065134301138,9.713172767078504e-05,0.0913304165005683,0,0,0
6012,203751.8433293079,2010-10-10 23:05:29,1440.7161222188377,2,18,0.5501165986061096,3.8682730197906494,17.907305050757387,17.659603917393074,71.18794504687514,64.7065134301138,3.237724376958795e-05,0.0913304165005683,0,0,0
6013,203781.85854272023,2010-10-10 23:05:59,1470.7313356311115,2,18,0.550297200679779,3.870215654373169,17.91189190768904,17.659603917393074,71.20569275768096,64.7065134301138,3.237724376958795e-05,0.0913304165005683,0,0,0
6014,203811.874176826,2010-10-10 23:06:29,1500.7469698872576,2,18,0.5501165986061096,3.8719964027404794,17.916478843179064,17.659603917393074,71.22344928703153,64.7065134301138,3.237724376958795e-05,0.0913304165005683,0,0,0
6015,203841.8890983558,2010-10-10 23:06:59,1530.7618913970202,2,18,0.5501165986061096,3.873615264892578,17.921065696630382,17.659603917393074,71.24121344616344,64.7065134301138,3.237724376958795e-05,0.0913304165005683,0,0,0
6016,203871.90428367304,2010-10-10 23:07:29,1560.7770766140227,2,18,0.5499359965324402,3.8752341270446777,17.925652557732633,17.659603917393074,71.2589847231359,64.7065134301138,6.47544875391759e-05,0.0913304165005683,0,0,0
6017,203901.919523025,2010-10-10 23:07:59,1590.7923159809834,2,18,0.5501165986061096,3.876529216766357,17.930239415029888,17.659603917393074,71.27676278174047,64.7065134301138,3.237724376958795e-05,0.0913304165005683,0,0,0
6018,203931.9347834244,2010-10-10 23:08:29,1620.8075763352508,2,18,0.5501165986061096,3.877986192703247,17.93482630382041,17.659603917393074,71.29454719592772,64.7065134301138,3.237724376958795e-05,0.0913304165005683,0,0,0
6019,203961.95004033507,2010-10-10 23:08:59,1650.8228332609735,2,18,0.5501165986061096,3.878957509994507,17.939413116871602,17.659603917393074,71.31233726478669,64.7065134301138,3.237724376958795e-05,0.0913304165005683,0,0,0
6020,203991.9652545844,2010-10-10 23:09:29,1680.838047495296,2,18,0.5501165986061096,3.880414485931397,17.943999997851297,17.659603917393074,71.33013310906156,64.7065134301138,6.47544875391759e-05,0.0913304165005683,0,0,0
6021,204021.98053835705,2010-10-10 23:09:59,1710.8533312629168,2,18,0.5501165986061096,3.881547689437866,17.948586856212533,17.659603917393074,71.3479343055188,64.7065134301138,3.237724376958795e-05,0.0913304165005683,0,0,0
6022,204051.99575624545,2010-10-10 23:10:29,1740.868549186434,2,18,0.5501165986061096,3.882519006729126,17.953173685708368,17.659603917393074,71.36574060593975,64.7065134301138,0.0,0.0913304165005683,0,0,0
6023,204082.0109909358,2010-10-10 23:10:59,1770.883783846664,2,18,0.550297200679779,3.8838140964508057,17.957760508435776,17.659603917393074,71.38355205108691,64.7065134301138,3.237724376958795e-05,0.0913304165005683,0,0,0
6024,204112.02624397684,2010-10-10 23:11:29,1800.8990369177795,2,18,0.5501165986061096,3.8847854137420654,17.962347387036896,17.659603917393074,71.40136871431818,64.7065134301138,3.237724376958795e-05,0.0913304165005683,0,0,0
6025,204142.04152196005,2010-10-10 23:11:59,1830.9143148959715,2,18,0.550297200679779,3.885918617248535,17.966934214780494,17.659603917393074,71.41919015382442,64.7065134301138,3.237724376958795e-05,0.0913304165005683,0,0,0
6026,204172.05675072057,2010-10-10 23:12:29,1860.9295436615105,2,18,0.5501165986061096,3.887051820755005,17.9715210206763,17.659603917393074,71.43701655418701,64.7065134301138,6.47544875391759e-05,0.0913304165005683,0,0,0
6027,204202.07210061292,2010-10-10 23:12:59,1890.9448935840096,2,18,0.5501165986061096,3.8880231380462646,17.97610785014162,17.659603917393074,71.45484800831879,64.7065134301138,0.0,0.0913304165005683,0,0,0
6028,204232.08723095825,2010-10-10 23:13:29,1920.9600239092044,2,18,0.5501165986061096,3.8891563415527344,17.98069468824215,17.659603917393074,71.4726846041333,64.7065134301138,3.237724376958795e-05,0.0913304165005683,0,0,0
6029,204262.1024829316,2010-10-10 23:13:59,1950.9752758825844,2,18,0.550297200679779,3.890289545059204,17.98528164693592,17.659603917393074,71.49052660935043,64.7065134301138,0.0,0.0913304165005683,0,0,0
6030,204292.11773089497,2010-10-10 23:14:29,1980.990523810883,2,18,0.5501165986061096,3.891584634780884,17.98986855022918,17.659603917393074,71.50837348160677,64.7065134301138,6.47544875391759e-05,0.0913304165005683,0,0,0
6031,204322.13296427703,2010-10-10 23:14:59,2011.005757182902,2,18,0.5501165986061096,3.892555952072144,17.994455477178356,17.659603917393074,71.5262255697181,64.7065134301138,3.237724376958795e-05,0.0913304165005683,0,0,0
6032,204352.13447862703,2010-10-10 23:15:29,2041.00727167826,2,18,0.5501165986061096,3.8935272693634033,17.999040240177894,17.659603917393074,71.54407435236506,64.7065134301138,3.237724376958795e-05,0.0913304165005683,0,0,0
6033,204382.1479089954,2010-10-10 23:15:59,2071.020701951402,2,18,0.550297200679779,3.894822359085083,18.00362693686964,17.659603917393074,71.56193588500393,64.7065134301138,6.47544875391759e-05,0.0913304165005683,0,0,0
6034,204412.16314727464,2010-10-10 23:16:29,2101.035940215614,2,18,0.5501165986061096,3.8959555625915527,18.008213885744045,17.659603917393074,71.57980303572842,64.7065134301138,3.237724376958795e-05,0.0913304165005683,0,0,0
6035,204442.17832875732,2010-10-10 23:16:59,2131.0511216682344,2,18,0.550297200679779,3.8970887660980233,18.01280080208425,17.659603917393074,71.59767549233564,64.7065134301138,6.47544875391759e-05,0.0913304165005683,0,0,0
6036,204472.19353755817,2010-10-10 23:17:29,2161.0663305041026,2,18,0.5501165986061096,3.898060083389282,18.017387659293675,17.659603917393074,71.61555298895816,64.7065134301138,3.237724376958795e-05,0.0913304165005683,0,0,0
6037,204502.20877810803,2010-10-10 23:17:59,2191.0815710640363,2,18,0.5501165986061096,3.899193286895752,18.02197440562659,17.659603917393074,71.633435368404,64.7065134301138,0.0,0.0913304165005683,0,0,0
6038,204532.22408571004,2010-10-10 23:18:29,2221.0968786460103,2,18,0.550297200679779,3.9003264904022217,18.02656123297344,17.659603917393074,71.65132343057348,64.7065134301138,0.0,0.0913304165005683,0,0,0
6039,204562.23932074624,2010-10-10 23:18:59,2251.112113662127,2,18,0.5501165986061096,3.9017834663391113,18.03114804561887,17.659603917393074,71.6692169193754,64.7065134301138,3.237724376958795e-05,0.0913304165005683,0,0,0
6040,204592.25454699548,2010-10-10 23:19:29,2281.127339906382,2,18,0.5501165986061096,3.902916669845581,18.03573489010712,17.659603917393074,71.68711606365326,64.7065134301138,3.237724376958795e-05,0.0913304165005683,0,0,0
6041,204622.26979094383,2010-10-10 23:19:59,2311.1425838848363,2,18,0.5501165986061096,3.9042117595672607,18.04032166220676,17.659603917393074,71.70502046882967,64.7065134301138,6.47544875391759e-05,0.0913304165005683,0,0,0
6042,204652.2853096721,2010-10-10 23:20:29,2341.158102593001,2,18,0.5499359965324402,3.905183076858521,18.044908562004917,17.659603917393074,71.72293106725878,64.7065134301138,0.0,0.0913304165005683,0,0,0
6043,204682.30029638932,2010-10-10 23:20:59,2371.1730893002564,2,18,0.5501165986061096,3.9064781665802,18.04949534788595,17.659603917393074,71.74084681543836,64.7065134301138,3.237724376958795e-05,0.0913304165005683,0,0,0
6044,204712.31820866303,2010-10-10 23:21:29,2401.191001704248,2,18,0.5501165986061096,3.90793514251709,18.05408258464595,17.659603917393074,71.75877016543562,64.7065134301138,3.237724376958795e-05,0.0913304165005683,0,0,0
6045,204742.33080750905,2010-10-10 23:21:59,2431.203600444955,2,18,0.5501165986061096,3.9092302322387695,18.058668933687915,17.659603917393074,71.7766958842876,64.7065134301138,3.237724376958795e-05,0.0913304165005683,0,0,0
6046,204772.3460382294,2010-10-10 23:22:29,2461.2188311904283,2,18,0.550297200679779,3.910525321960449,18.063255711353,17.659603917393074,71.79462923412748,64.7065134301138,6.47544875391759e-05,0.0913304165005683,0,0,0
6047,204802.36127362147,2010-10-10 23:22:59,2491.234066527345,2,18,0.550297200679779,3.911820411682129,18.067842498167487,17.659603917393074,71.8125685355177,64.7065134301138,6.47544875391759e-05,0.0913304165005683,0,0,0
6048,204832.37649645723,2010-10-10 23:23:29,2521.2492893631047,2,18,0.550297200679779,3.9132773876190186,18.072429279755383,17.659603917393074,71.8305138778944,64.7065134301138,6.47544875391759e-05,0.0913304165005683,0,0,0
6049,204862.3941048736,2010-10-10 23:23:59,2551.266897914803,2,18,0.5501165986061096,3.914248466491699,18.07701642840862,17.659603917393074,71.84846673833665,64.7065134301138,3.237724376958795e-05,0.0913304165005683,0,0,0
6050,204892.407021276,2010-10-10 23:24:29,2581.279814211959,2,18,0.550297200679779,3.915705442428589,18.08160290613516,17.659603917393074,71.86642317273538,64.7065134301138,3.237724376958795e-05,0.0913304165005683,0,0,0
6051,204922.42238523348,2010-10-10 23:24:59,2611.2951781594124,2,18,0.5501165986061096,3.9171624183654794,18.0861897065165,17.659603917393074,71.88438698655165,64.7065134301138,3.237724376958795e-05,0.0913304165005683,0,0,0
6052,204952.43937001057,2010-10-10 23:25:29,2641.3121629765724,2,18,0.550297200679779,3.918457508087158,18.09077672692607,17.659603917393074,71.90235802071606,64.7065134301138,3.237724376958795e-05,0.0913304165005683,0,0,0
6053,204982.45273150728,2010-10-10 23:25:59,2671.32552444824,2,18,0.550297200679779,3.920076370239258,18.09536319710684,17.659603917393074,71.9203332342543,64.7065134301138,9.713172767078504e-05,0.0913304165005683,0,0,0
6054,205012.46796992185,2010-10-10 23:26:29,2701.340762837765,2,18,0.550297200679779,3.9213714599609375,18.09995001462296,17.659603917393074,71.93831627862649,64.7065134301138,6.47544875391759e-05,0.0913304165005683,0,0,0
6055,205042.48335078143,2010-10-10 23:26:59,2731.3561437073936,2,18,0.5501165986061096,3.922666549682617,18.10453683882592,17.659603917393074,71.95630582158007,64.7065134301138,3.237724376958795e-05,0.0913304165005683,0,0,0
6056,205072.4984544402,2010-10-10 23:27:29,2761.3712473561027,2,18,0.5499359965324402,3.924123525619507,18.10912287555638,17.659603917393074,71.97429865077505,64.7065134301138,6.47544875391759e-05,0.0913304165005683,0,0,0
6057,205102.51394773505,2010-10-10 23:27:59,2791.38674065093,2,18,0.5499359965324402,3.9254186153411865,18.11370892732012,17.659603917393074,71.99229820721533,64.7065134301138,0.0,0.0913304165005683,0,0,0
6058,205132.52897538937,2010-10-10 23:28:29,2821.401768305238,2,18,0.5499359965324402,3.927037477493286,18.11829549841561,17.659603917393074,72.0103064714188,64.7065134301138,3.237724376958795e-05,0.0913304165005683,0,0,0
6059,205162.5442098641,2010-10-10 23:28:59,2851.417002800056,2,18,0.5501165986061096,3.928494453430176,18.12288236685923,17.659603917393074,72.02832270318198,64.7065134301138,6.47544875391759e-05,0.0913304165005683,0,0,0
6060,205192.55945380748,2010-10-10 23:29:29,2881.43224671836,2,18,0.550297200679779,3.9299514293670654,18.12746989312776,17.659603917393074,72.04634830998359,64.7065134301138,3.237724376958795e-05,0.0913304165005683,0,0,0
6061,205222.5747024475,2010-10-10 23:29:59,2911.447495358432,2,18,0.550297200679779,3.931570291519165,18.13205736995019,17.659603917393074,72.06438058109286,64.7065134301138,6.47544875391759e-05,0.0913304165005683,0,0,0
6062,205252.5899474435,2010-10-10 23:30:29,2941.462740349409,2,18,0.550297200679779,3.933027267456055,18.136644855776357,17.659603917393074,72.08241976722765,64.7065134301138,6.47544875391759e-05,0.0913304165005683,0,0,0
6063,205282.6051763344,2010-10-10 23:30:59,2971.477969275348,2,18,0.5499359965324402,3.934484243392944,18.141232250548896,17.659603917393074,72.10046551504367,64.7065134301138,3.237724376958795e-05,0.0913304165005683,0,0,0
6064,205312.6204302426,2010-10-10 23:31:29,3001.4932231635,2,18,0.550297200679779,3.936103105545044,18.14581906020465,17.659603917393074,72.11851599529383,64.7065134301138,6.47544875391759e-05,0.0913304165005683,0,0,0
6065,205342.635803408,2010-10-10 23:31:59,3031.508596323915,2,18,0.5501165986061096,3.9375600814819336,18.15040584849189,17.659603917393074,72.13657325748991,64.7065134301138,3.237724376958795e-05,0.0913304165005683,0,0,0
6066,205372.6509464549,2010-10-10 23:32:29,3061.523739405904,2,18,0.550297200679779,3.9390170574188232,18.154992605501025,17.659603917393074,72.15463760302661,64.7065134301138,6.47544875391759e-05,0.0913304165005683,0,0,0
6067,205402.6661844685,2010-10-10 23:32:59,3091.5389773894167,2,18,0.5501165986061096,3.940797805786133,18.15957931265208,17.659603917393074,72.17270893317058,64.7065134301138,3.237724376958795e-05,0.0913304165005683,0,0,0
6068,205432.6814236049,2010-10-10 23:33:29,3121.554216545853,2,18,0.5499359965324402,3.9422547817230233,18.164166078793397,17.659603917393074,72.19078769268825,64.7065134301138,6.47544875391759e-05,0.0913304165005683,0,0,0
6069,205462.69666947305,2010-10-10 23:33:59,3151.569462403991,2,18,0.5499359965324402,3.943873643875122,18.16875278912784,17.659603917393074,72.20887354659804,64.7065134301138,6.47544875391759e-05,0.0913304165005683,0,0,0
6070,205492.71204844292,2010-10-10 23:34:30,3181.5848413738854,2,18,0.550297200679779,3.945654392242432,18.173339588271592,17.659603917393074,72.22696715775652,64.7065134301138,9.713172767078504e-05,0.0913304165005683,0,0,0
6071,205522.7271860513,2010-10-10 23:35:00,3211.5999789671955,2,18,0.5501165986061096,3.947111368179321,18.17792633262499,17.659603917393074,72.24506800788167,64.7065134301138,6.47544875391759e-05,0.0913304165005683,0,0,0
6072,205552.74439010987,2010-10-10 23:35:30,3241.617183161109,2,18,0.5504778623580933,3.949054002761841,18.182513370722347,17.659603917393074,72.26317756956647,64.7065134301138,6.47544875391759e-05,0.0913304165005683,0,0,0
6073,205582.75767126132,2010-10-10 23:36:00,3271.6304641922943,2,18,0.5501165986061096,3.9505109786987305,18.18709978915504,17.659603917393074,72.2812922893549,64.7065134301138,3.237724376958795e-05,0.0913304165005683,0,0,0
6074,205612.7729035607,2010-10-10 23:36:30,3301.6456964866284,2,18,0.5501165986061096,3.95212984085083,18.191686516448076,17.659603917393074,72.29941586825387,64.7065134301138,3.237724376958795e-05,0.0913304165005683,0,0,0
6075,205642.7881559752,2010-10-10 23:37:00,3331.660948896095,2,18,0.5501165986061096,3.9537487030029297,18.196273262242297,17.659603917393074,72.31754727983605,64.7065134301138,0.0,0.0913304165005683,0,0,0
6076,205672.80359107,2010-10-10 23:37:30,3361.676384096132,2,18,0.5501165986061096,3.9555294513702393,18.20085999035095,17.659603917393074,72.33568639288484,64.7065134301138,6.47544875391759e-05,0.0913304165005683,0,0,0
6077,205702.8186403933,2010-10-10 23:38:00,3391.691433444508,2,18,0.5501165986061096,3.957148313522339,18.205446730149745,17.659603917393074,72.35383340013436,64.7065134301138,3.237724376958795e-05,0.0913304165005683,0,0,0
6078,205732.8338678706,2010-10-10 23:38:30,3421.7066607965235,2,18,0.5499359965324402,3.958929061889648,18.21003347545488,17.659603917393074,72.37198835175734,64.7065134301138,3.237724376958795e-05,0.0913304165005683,0,0,0
6079,205762.84917676583,2010-10-10 23:39:00,3451.7219697168325,2,18,0.5499359965324402,3.960709810256958,18.21462022159485,17.659603917393074,72.39015137082714,64.7065134301138,0.0,0.0913304165005683,0,0,0
6080,205792.86438024332,2010-10-10 23:39:30,3481.737173179308,2,18,0.5501165986061096,3.9626524448394775,18.21920703484587,17.659603917393074,72.40832280568695,64.7065134301138,6.47544875391759e-05,0.0913304165005683,0,0,0
6081,205822.87961781083,2010-10-10 23:40:00,3511.752410751797,2,18,0.5501165986061096,3.964433193206787,18.22379378337415,17.659603917393074,72.4265021826484,64.7065134301138,6.47544875391759e-05,0.0913304165005683,0,0,0
6082,205852.8948690975,2010-10-10 23:40:30,3541.767662058515,2,18,0.550297200679779,3.9662139415740967,18.228380510632917,17.659603917393074,72.44468978563708,64.7065134301138,6.47544875391759e-05,0.0913304165005683,0,0,0
6083,205882.91025519016,2010-10-10 23:41:00,3571.7830481611863,2,18,0.550297200679779,3.968156576156616,18.23296734753276,17.659603917393074,72.46288621575027,64.7065134301138,6.47544875391759e-05,0.0913304165005683,0,0,0
6084,205912.92569000425,2010-10-10 23:41:30,3601.7984830604737,2,18,0.5501165986061096,3.969937324523926,18.237554140958864,17.659603917393074,72.48109096499623,64.7065134301138,3.237724376958795e-05,0.0913304165005683,0,0,0
6085,205942.94059680737,2010-10-10 23:42:00,3631.8133897182206,2,18,0.5499359965324402,3.9717180728912354,18.242140870724096,17.659603917393074,72.4993040839256,64.7065134301138,3.237724376958795e-05,0.0913304165005683,0,0,0
6086,205972.95583456528,2010-10-10 23:42:30,3661.828627491209,2,18,0.5501165986061096,3.973660707473755,18.24672771515677,17.659603917393074,72.51752640143334,64.7065134301138,0.0,0.0913304165005683,0,0,0
6087,206002.9711390596,2010-10-10 23:43:00,3691.843932000525,2,18,0.5501165986061096,3.975765228271485,18.25131447421427,17.659603917393074,72.53575717346341,64.7065134301138,6.47544875391759e-05,0.0913304165005683,0,0,0
6088,206032.9863218856,2010-10-10 23:43:30,3721.8591148015057,2,18,0.550297200679779,3.977707862854004,18.255901281740453,17.659603917393074,72.55399709445733,64.7065134301138,9.713172767078504e-05,0.0913304165005683,0,0,0
6089,206063.0015661347,2010-10-10 23:44:00,3751.874359075696,2,18,0.550297200679779,3.979650497436523,18.260488028061392,17.659603917393074,72.57224544903771,64.7065134301138,6.47544875391759e-05,0.0913304165005683,0,0,0
6090,206093.01681900537,2010-10-10 23:44:30,3781.889611946313,2,18,0.550297200679779,3.981593132019043,18.26507471630667,17.659603917393074,72.59050314964236,64.7065134301138,6.47544875391759e-05,0.0913304165005683,0,0,0
6091,206123.03207150503,2010-10-10 23:45:00,3811.904864415929,2,18,0.5501165986061096,3.983697652816773,18.26966147267944,17.659603917393074,72.6087703684882,64.7065134301138,6.47544875391759e-05,0.0913304165005683,0,0,0
6092,206153.04925925296,2010-10-10 23:45:30,3841.922052208967,2,18,0.5501165986061096,3.985640287399292,18.27424851930068,17.659603917393074,72.62704813079102,64.7065134301138,0.0,0.0913304165005683,0,0,0
6093,206183.0625510209,2010-10-10 23:46:00,3871.935343976912,2,18,0.5501165986061096,3.9877448081970215,18.278834975895645,17.659603917393074,72.64533305390978,64.7065134301138,3.237724376958795e-05,0.0913304165005683,0,0,0
6094,206213.07781779612,2010-10-10 23:46:30,3901.9506107421576,2,18,0.5501165986061096,3.989849328994751,18.28342164921804,17.659603917393074,72.6636283511939,64.7065134301138,6.47544875391759e-05,0.0913304165005683,0,0,0
6095,206243.0930667721,2010-10-10 23:47:00,3931.965859693005,2,18,0.5499359965324402,3.991953849792481,18.288008321151807,17.659603917393074,72.68193339226086,64.7065134301138,6.47544875391759e-05,0.0913304165005683,0,0,0
6096,206273.1082809764,2010-10-10 23:47:30,3961.9810738922392,2,18,0.5501165986061096,3.994220018386841,18.292595027249256,17.659603917393074,72.70024832193748,64.7065134301138,6.470680091297254e-05,0.0913304165005683,0,0,0
6097,206303.12365779583,2010-10-10 23:48:00,3991.996450807011,2,18,0.5501165986061096,3.9963245391845694,18.29718165248516,17.659603917393074,72.71857273749004,64.7065134301138,6.47544875391759e-05,0.0913304165005683,0,0,0
6098,206333.13877326905,2010-10-10 23:48:30,4022.011566215028,2,18,0.5501165986061096,3.9984290599823,18.3017683267351,17.659603917393074,72.73690736468586,64.7065134301138,3.237724376958795e-05,0.0913304165005683,0,0,0
6099,206363.15402946292,2010-10-10 23:49:00,4052.0268223938897,2,18,0.5501165986061096,4.000533580780029,18.306355020647057,17.659603917393074,72.75525188415905,64.7065134301138,3.23295607813634e-05,0.0913304165005683,0,0,0
6100,206393.16925836884,2010-10-10 23:49:30,4082.042051314816,2,18,0.550297200679779,4.002799987792969,18.310941645236152,17.659603917393074,72.77360615371688,64.7065134301138,6.47544875391759e-05,0.0913304165005683,0,0,0
6101,206423.18452543984,2010-10-10 23:50:00,4112.057318355748,2,18,0.550297200679779,4.005066394805908,18.315528346034167,17.659603917393074,72.79197079588288,64.7065134301138,6.47544875391759e-05,0.0913304165005683,0,0,0
6102,206453.1997574735,2010-10-10 23:50:30,4142.072550514745,2,18,0.5501165986061096,4.007332801818848,18.3201150236724,17.659603917393074,72.81034550700679,64.7065134301138,3.23295607813634e-05,0.0913304165005683,0,0,0
6103,206483.2152256257,2010-10-10 23:51:00,4172.088018541596,2,18,0.5501165986061096,4.009437561035156,18.324701711732025,17.659603917393074,72.82873044150722,64.7065134301138,3.24249267578125e-05,0.0913304165005683,0,0,0
6104,206513.2302375558,2010-10-10 23:51:30,4202.103030481739,2,18,0.5501165986061096,4.011703968048096,18.32928830434736,17.659603917393074,72.84712528759044,64.7065134301138,9.71794142969884e-05,0.0913304165005683,0,0,0
6105,206543.2454911332,2010-10-10 23:52:00,4232.118284069142,2,18,0.5501165986061096,4.013970375061035,18.333875003469977,17.659603917393074,72.86553104036683,64.7065134301138,6.47544875391759e-05,0.0913304165005683,0,0,0
6106,206573.26101822223,2010-10-10 23:52:30,4262.133811173231,2,18,0.5499359965324402,4.016236782073975,18.3384617441146,17.659603917393074,72.88394739372272,64.7065134301138,3.24249267578125e-05,0.0913304165005683,0,0,0
6107,206603.2761209988,2010-10-10 23:53:00,4292.148913929716,2,18,0.550297200679779,4.018664836883545,18.343048433969315,17.659603917393074,72.90237410346003,64.7065134301138,6.47544875391759e-05,0.0913304165005683,0,0,0
6108,206633.2937736554,2010-10-10 23:53:30,4322.166566716663,2,18,0.550297200679779,4.021093368530273,18.34763545626364,17.659603917393074,72.92081272918325,64.7065134301138,9.71794142969884e-05,0.0913304165005683,0,0,0
6109,206663.30649020476,2010-10-10 23:54:00,4352.179283225885,2,18,0.5501165986061096,4.023197650909424,18.352221666026928,17.659603917393074,72.93925891525404,64.7065134301138,6.47544875391759e-05,0.0913304165005683,0,0,0
6110,206693.32177493977,2010-10-10 23:54:30,4382.194567910793,2,18,0.5501165986061096,4.025626182556152,18.35680829563624,17.659603917393074,72.95771761673167,64.7065134301138,3.24249267578125e-05,0.0913304165005683,0,0,0
6111,206723.3371045767,2010-10-10 23:55:00,4412.209897492597,2,18,0.5501165986061096,4.028054237365723,18.361394915420146,17.659603917393074,72.97618724500948,64.7065134301138,3.23295607813634e-05,0.0913304165005683,0,0,0
6112,206753.35416206496,2010-10-10 23:55:30,4442.226954985888,2,18,0.550297200679779,4.030482769012451,18.365981826040684,17.659603917393074,72.99466910501029,64.7065134301138,9.71794142969884e-05,0.0913304165005683,0,0,0
6113,206783.36993472103,2010-10-10 23:56:00,4472.242727787332,2,18,0.550297200679779,4.0330729484558105,18.370568573547985,17.659603917393074,73.01316147850484,64.7065134301138,9.71794142969884e-05,0.0913304165005683,0,0,0
6114,206813.3827080068,2010-10-10 23:56:30,4502.255500917672,2,18,0.5501165986061096,4.035501003265381,18.37515485783453,17.659603917393074,73.03166330223196,64.7065134301138,6.47544875391759e-05,0.0913304165005683,0,0,0
6115,206843.39811927217,2010-10-10 23:57:00,4532.270912218143,2,18,0.5501165986061096,4.037929058074951,18.37974152329997,17.659603917393074,73.0501780563163,64.7065134301138,3.23295607813634e-05,0.0913304165005683,0,0,0
6116,206873.4132081039,2010-10-10 23:57:30,4562.286001014837,2,18,0.550297200679779,4.040519237518311,18.38432820269221,17.659603917393074,73.06870438658576,64.7065134301138,9.70840483205393e-05,0.0913304165005683,0,0,0
6117,206903.41321638532,2010-10-10 23:58:00,4592.286009406521,2,18,0.5501165986061096,4.042947769165039,18.388912502035744,17.659603917393074,73.08723269404504,64.7065134301138,6.47544875391759e-05,0.0913304165005683,0,0,0
6118,206933.42804951489,2010-10-10 23:58:30,4622.300842430751,2,18,0.5499359965324402,4.045375823974609,18.393499059986052,17.659603917393074,73.1057818284348,64.7065134301138,3.23295607813634e-05,0.0913304165005683,0,0,0
6119,206963.44343087068,2010-10-10 23:59:00,4652.316223826691,2,18,0.5501165986061096,4.048128128051758,18.398085733403576,17.659603917393074,73.12434324125385,64.7065134301138,6.47544875391759e-05,0.0913304165005683,0,0,0
6120,206993.4585787396,2010-10-10 23:59:30,4682.331371680573,2,18,0.5501165986061096,4.050718307495117,18.40267239593861,17.659603917393074,73.1429165498998,64.7065134301138,6.47544875391759e-05,0.0913304165005683,0,0,0
6121,207023.47379212684,2010-10-11 00:00:00,4712.346585077809,2,18,0.5501165986061096,4.053470134735107,18.407259114571925,17.659603917393074,73.16150225063778,64.7065134301138,6.47544875391759e-05,0.0913304165005683,0,0,0
6122,207053.48916440504,2010-10-11 00:00:30,4742.361957325951,2,18,0.550297200679779,4.056222438812256,18.411845803987728,17.659603917393074,73.18010010797336,64.7065134301138,6.47544875391759e-05,0.0913304165005683,0,0,0
6123,207083.5042788908,2010-10-11 00:01:00,4772.377071801644,2,18,0.5504778623580933,4.058974266052246,18.416432409341624,17.659603917393074,73.19871003160034,64.7065134301138,9.70840483205393e-05,0.0913304165005683,0,0,0
6124,207113.51953662347,2010-10-11 00:01:30,4802.392329544403,2,18,0.5499359965324402,4.061402797698975,18.42101914397916,17.659603917393074,73.21733280852129,64.7065134301138,9.71794142969884e-05,0.0913304165005683,0,0,0
6125,207143.53476816596,2010-10-11 00:02:00,4832.407561106913,2,18,0.5501165986061096,4.064316749572754,18.425605780457367,17.659603917393074,73.23596763345522,64.7065134301138,9.71794142969884e-05,0.0913304165005683,0,0,0
6126,207173.55013734644,2010-10-11 00:02:30,4862.422930302446,2,18,0.5501165986061096,4.066906929016113,18.430192479974785,17.659603917393074,73.25461539432938,64.7065134301138,6.47544875391759e-05,0.0913304165005683,0,0,0
6127,207203.5653029245,2010-10-11 00:03:00,4892.438095870477,2,18,0.5501165986061096,4.069820880889893,18.434779125105266,17.659603917393074,73.27327574354427,64.7065134301138,9.71794142969884e-05,0.0913304165005683,0,0,0
6128,207233.58064378944,2010-10-11 00:03:30,4922.453436715352,2,18,0.550297200679779,4.072572708129883,18.43936577611684,17.659603917393074,73.2919489635417,64.7065134301138,6.47544875391759e-05,0.0913304165005683,0,0,0
6129,207263.5957563654,2010-10-11 00:04:00,4952.468549326399,2,18,0.5501165986061096,4.075486660003662,18.4439523561876,17.659603917393074,73.31063495422633,64.7065134301138,6.47544875391759e-05,0.0913304165005683,0,0,0
6130,207293.61112550576,2010-10-11 00:04:30,4982.483918431707,2,18,0.5499359965324402,4.0782389640808105,18.448539008030497,17.659603917393074,73.32933441987902,64.7065134301138,3.24249267578125e-05,0.0913304165005683,0,0,0
6131,207323.62624349524,2010-10-11 00:05:00,5012.499036416145,2,18,0.5499359965324402,4.081314563751221,18.45312559986118,17.659603917393074,73.34804692935327,64.7065134301138,6.47544875391759e-05,0.0913304165005683,0,0,0
6132,207353.6414908872,2010-10-11 00:05:30,5042.514283803094,2,18,0.5501165986061096,4.084066867828369,18.45771222340675,17.659603917393074,73.36677285853257,64.7065134301138,6.47544875391759e-05,0.0913304165005683,0,0,0
6133,207383.65883348105,2010-10-11 00:06:00,5072.531626532281,2,18,0.550297200679779,4.087304592132568,18.46229915615685,17.659603917393074,73.38551357328181,64.7065134301138,9.71794142969884e-05,0.0913304165005683,0,0,0
6134,207413.67201064332,2010-10-11 00:06:30,5102.54480360938,2,18,0.5501165986061096,4.090218544006348,18.46688549271932,17.659603917393074,73.40426547988574,64.7065134301138,6.47544875391759e-05,0.0913304165005683,0,0,0
6135,207443.68724711813,2010-10-11 00:07:01,5132.560040054058,2,18,0.5501165986061096,4.092970371246338,18.471472081281732,17.659603917393074,73.42303205268009,64.7065134301138,3.23295607813634e-05,0.0913304165005683,0,0,0
6136,207473.7024794576,2010-10-11 00:07:31,5162.575272388492,2,18,0.5501165986061096,4.096046447753906,18.47605863054995,17.659603917393074,73.44181227823613,64.7065134301138,6.47544875391759e-05,0.0913304165005683,0,0,0
6137,207503.7177281578,2010-10-11 00:08:01,5192.5905210987385,2,18,0.550297200679779,4.0992841720581055,18.48064514043932,17.659603917393074,73.46060619691872,64.7065134301138,9.71794142969884e-05,0.0913304165005683,0,0,0
6138,207533.73296159497,2010-10-11 00:08:31,5222.605754555971,2,18,0.5501165986061096,4.102198123931885,18.485231671758548,17.659603917393074,73.47941428334933,64.7065134301138,9.71794142969884e-05,0.0913304165005683,0,0,0
6139,207563.74820536288,2010-10-11 00:09:01,5252.620998273775,2,18,0.5499359965324402,4.105435848236084,18.48981824001625,17.659603917393074,73.49823665388041,64.7065134301138,9.71794142969884e-05,0.0913304165005683,0,0,0
6140,207593.763469652,2010-10-11 00:09:31,5282.636262587911,2,18,0.5501165986061096,4.108511447906494,18.494404839542543,17.659603917393074,73.51707345102538,64.7065134301138,9.70840483205393e-05,0.0913304165005683,0,0,0
6141,207623.77911982776,2010-10-11 00:10:01,5312.651912889047,2,18,0.5501165986061096,4.111587524414063,18.498991510414097,17.659603917393074,73.5359250330559,64.7065134301138,6.47544875391759e-05,0.0913304165005683,0,0,0
6142,207653.79400281652,2010-10-11 00:10:31,5342.666795877803,2,18,0.5499359965324402,4.114824771881104,18.50357807296849,17.659603917393074,73.5547906794066,64.7065134301138,9.70840483205393e-05,0.0913304165005683,0,0,0
6143,207683.80916685075,2010-10-11 00:11:01,5372.681959761636,2,18,0.5499359965324402,4.118062496185303,18.50816468040185,17.659603917393074,73.5736711708709,64.7065134301138,9.70840483205393e-05,0.0913304165005683,0,0,0
6144,207713.8245629684,2010-10-11 00:11:31,5402.697355914356,2,18,0.5501165986061096,4.121300220489502,18.512751306754208,17.659603917393074,73.59256650939574,64.7065134301138,9.70840483205393e-05,0.0913304165005683,0,0,0
6145,207743.8396378905,2010-10-11 00:12:01,5432.712430831457,2,18,0.5499359965324402,4.12437629699707,18.51733790369238,17.659603917393074,73.61147651899266,64.7065134301138,6.47544875391759e-05,0.0913304165005683,0,0,0
6146,207773.8549360289,2010-10-11 00:12:31,5462.727728944831,2,18,0.5501165986061096,4.1277756690979,18.52192460722837,17.659603917393074,73.63040204903275,64.7065134301138,6.47544875391759e-05,0.0913304165005683,0,0,0
6147,207803.870258097,2010-10-11 00:13:01,5492.743051027946,2,18,0.5501165986061096,4.1310133934021,18.52651132560104,17.659603917393074,73.64934276884377,64.7065134301138,6.47544875391759e-05,0.0913304165005683,0,0,0
6148,207833.8854025223,2010-10-11 00:13:31,5522.758195463308,2,18,0.5501165986061096,4.134413242340088,18.531098007819416,17.659603917393074,73.66829859642273,64.7065134301138,6.47544875391759e-05,0.0913304165005683,0,0,0
6149,207863.9006275436,2010-10-11 00:14:01,5552.773420479502,2,18,0.5501165986061096,4.137812614440918,18.53568476224673,17.659603917393074,73.68727019240237,64.7065134301138,9.70840483205393e-05,0.0913304165005683,0,0,0
6150,207893.91586591804,2010-10-11 00:14:31,5582.788658828928,2,18,0.550297200679779,4.141212463378906,18.540271553998178,17.659603917393074,73.70625759632209,64.7065134301138,6.47544875391759e-05,0.0913304165005683,0,0,0
6151,207923.93111421724,2010-10-11 00:15:01,5612.803907183287,2,18,0.5501165986061096,4.144773960113525,18.54485831519156,17.659603917393074,73.72526049555556,64.7065134301138,9.71794142969884e-05,0.0913304165005683,0,0,0
6152,207953.94649674103,2010-10-11 00:15:31,5642.819289661927,2,18,0.5501165986061096,4.1483354568481445,18.54944511353737,17.659603917393074,73.74427958367437,64.7065134301138,9.71794142969884e-05,0.0913304165005683,0,0,0
6153,207983.96158723693,2010-10-11 00:16:01,5672.834380182917,2,18,0.5501165986061096,4.151573181152344,18.554031808639444,17.659603917393074,73.7633140406446,64.7065134301138,6.47544875391759e-05,0.0913304165005683,0,0,0
6154,208013.9632036764,2010-10-11 00:16:31,5702.835996747664,2,18,0.5501165986061096,4.155134677886963,18.558616422413778,17.659603917393074,73.7823557420087,64.7065134301138,9.71794142969884e-05,0.0913304165005683,0,0,0
6155,208043.97657443612,2010-10-11 00:17:01,5732.849367377155,2,18,0.550297200679779,4.158534049987793,18.56320283272102,17.659603917393074,73.80142082637082,64.7065134301138,6.47544875391759e-05,0.0913304165005683,0,0,0
6156,208073.9917022652,2010-10-11 00:17:31,5762.864495206129,2,18,0.5501165986061096,4.161933898925781,18.56778953559193,17.659603917393074,73.82050315556225,64.7065134301138,6.47544875391759e-05,0.0913304165005683,0,0,0
6157,208104.00696119588,2010-10-11 00:18:01,5792.879754136849,2,18,0.5501165986061096,4.1654953956604,18.572376266628577,17.659603917393074,73.8396017366759,64.7065134301138,6.47544875391759e-05,0.0913304165005683,0,0,0
6158,208134.0221868236,2010-10-11 00:18:31,5822.894979759554,2,18,0.5501165986061096,4.16921854019165,18.576962999989032,17.659603917393074,73.85871654177053,64.7065134301138,0.0001618385285837,0.0913304165005683,0,0,0
6159,208164.0375544452,2010-10-11 00:19:01,5852.910347361116,2,18,0.550297200679779,4.1727800369262695,18.581549745726228,17.659603917393074,73.87784776652539,64.7065134301138,6.47544875391759e-05,0.0913304165005683,0,0,0
6160,208194.0527108454,2010-10-11 00:19:31,5882.925503791373,2,18,0.5501165986061096,4.176503658294678,18.586136502694124,17.659603917393074,73.89699560360984,64.7065134301138,0.0001295089750783,0.0913304165005683,0,0,0
6161,208224.0680647629,2010-10-11 00:20:01,5912.940857688778,2,18,0.550297200679779,4.180065155029297,18.59072329429612,17.659603917393074,73.91616027238844,64.7065134301138,0.0001295089750783,0.0913304165005683,0,0,0
6162,208254.08317012584,2010-10-11 00:20:31,5942.95596303171,2,18,0.5501165986061096,4.183626651763916,18.59531005581588,17.659603917393074,73.93534151515179,64.7065134301138,9.71794142969884e-05,0.0913304165005683,0,0,0
6163,208284.09865538063,2010-10-11 00:21:01,5972.97144831156,2,18,0.550297200679779,4.187511920928955,18.599896884378275,17.659603917393074,73.95453985033379,64.7065134301138,9.71794142969884e-05,0.0913304165005683,0,0,0
6164,208314.11368344096,2010-10-11 00:21:31,6002.986476356844,2,18,0.5501165986061096,4.190911293029785,18.604483636116665,17.659603917393074,73.97375485711468,64.7065134301138,6.47544875391759e-05,0.0913304165005683,0,0,0
6165,208344.1289206225,2010-10-11 00:22:01,6033.001713558408,2,18,0.5501165986061096,4.194796562194824,18.60907046580434,17.659603917393074,73.99298725070236,64.7065134301138,9.70840483205393e-05,0.0913304165005683,0,0,0
6166,208374.1441575032,2010-10-11 00:22:31,6063.016950444185,2,18,0.5501165986061096,4.198519706726074,18.61365724844548,17.659603917393074,74.01223650483492,64.7065134301138,9.70840483205393e-05,0.0913304165005683,0,0,0
6167,208384.7065443462,2010-10-11 00:22:42,6073.579337287161,2,18,0.550297200679779,4.200138568878174,18.61527129663616,17.659603917393074,74.01901426170866,64.7065134301138,0.0001295089750783,0.0913304165005683,0,0,0
6168,208414.7181612628,2010-10-11 00:23:12,30.01534453406953,3,18,0.0,4.122109889984131,18.61527129663616,17.659603917393074,74.01901426170866,64.7065134301138,-0.0003561019839253,0.0913304165005683,0,0,0
6169,208444.73330671567,2010-10-11 00:23:42,60.030489961905054,3,18,0.0,4.112558841705322,18.61527129663616,17.659603917393074,74.01901426170866,64.7065134301138,-0.0002265930233988,0.0913304165005683,0,0,0
6170,208474.74865297403,2010-10-11 00:24:12,90.0458362052346,3,18,0.0,4.107378482818604,18.61527129663616,17.659603917393074,74.01901426170866,64.7065134301138,-6.47544875391759e-05,0.0913304165005683,0,0,0
6171,208504.7169240616,2010-10-11 00:24:42,120.01410731785371,3,18,0.0,4.103654861450195,18.61527129663616,17.659603917393074,74.01901426170866,64.7065134301138,-0.0001295089750783,0.0913304165005683,0,0,0
6172,208504.73030811583,2010-10-11 00:24:42,0.015597664178414,4,18,0.985385000705719,4.199491024017334,18.615275565998637,17.659603917393074,74.01903219085807,64.7065134301138,0.0,0.0913304165005683,0,0,0
6173,208505.6677892724,2010-10-11 00:24:43,0.953078790601191,4,18,0.9348143935203552,4.199491024017334,18.61552399922665,17.659603917393074,74.02007552768535,64.7065134301138,0.0,0.0913304165005683,0,0,0
6174,208507.80851548075,2010-10-11 00:24:45,3.09380503408495,4,18,0.8847855925559998,4.199653148651123,18.616063948673546,17.659603917393074,74.02234311380529,64.7065134301138,3.24249267578125e-05,0.0913304165005683,0,0,0
6175,208511.04273007365,2010-10-11 00:24:48,6.328019662080878,4,18,0.8347568511962891,4.199491024017334,18.61683528742299,17.659603917393074,74.02558244889971,64.7065134301138,-3.24249267578125e-05,0.0913304165005683,0,0,0
6176,208515.49579588385,2010-10-11 00:24:53,10.781085437166478,4,18,0.7847280502319336,4.199814796447754,18.617835646844824,17.659603917393074,74.02978359627622,64.7065134301138,3.23295607813634e-05,0.0913304165005683,0,0,0
6177,208521.18334263537,2010-10-11 00:24:58,16.468632123523243,4,18,0.7345187067985535,4.199653148651123,18.619034584666892,17.659603917393074,74.03481872502765,64.7065134301138,0.0,0.0913304165005683,0,0,0
6178,208528.68312094052,2010-10-11 00:25:06,23.968410483821216,4,18,0.684489905834198,4.199653148651123,18.62051117737402,17.659603917393074,74.0410199222599,64.7065134301138,0.0,0.0913304165005683,0,0,0
6179,208538.66934592085,2010-10-11 00:25:16,33.95463555438169,4,18,0.6344611644744873,4.199653148651123,18.62233717084419,17.659603917393074,74.0486884905563,64.7065134301138,-3.23295607813634e-05,0.0913304165005683,0,0,0
6180,208552.44844846413,2010-10-11 00:25:30,47.733737982356025,4,18,0.5844323635101318,4.199814796447754,18.62466399450378,17.659603917393074,74.05846039923898,64.7065134301138,3.23295607813634e-05,0.0913304165005683,0,0,0
6181,208573.24505863563,2010-10-11 00:25:50,68.5303481588729,4,18,0.5344036221504211,4.199653148651123,18.62788486312933,17.659603917393074,74.0719869816541,64.7065134301138,0.0,0.0913304165005683,0,0,0
6182,208608.1664922583,2010-10-11 00:26:25,103.45178175645457,4,18,0.484374850988388,4.199653148651123,18.63280425809492,17.659603917393074,74.09264678716646,64.7065134301138,0.0,0.0913304165005683,0,0,0
6183,208668.4470036856,2010-10-11 00:27:26,163.73229323390603,4,18,0.434346079826355,4.199491024017334,18.640463083383032,17.659603917393074,74.12481129039497,64.7065134301138,-3.24249267578125e-05,0.0913304165005683,0,0,0
6184,208758.8834148939,2010-10-11 00:28:56,254.16870451741264,4,18,0.3841366767883301,4.199491024017334,18.650724799836176,17.659603917393074,74.16790731733957,64.7065134301138,0.0,0.0913304165005683,0,0,0
6185,208874.2100378184,2010-10-11 00:30:51,369.4953273115302,4,18,0.334107905626297,4.199491024017334,18.6622125127742,17.659603917393074,74.21615184747363,64.7065134301138,-6.47544875391759e-05,0.0913304165005683,0,0,0
6186,209010.95850949123,2010-10-11 00:33:08,506.24379912975405,4,18,0.2840791642665863,4.199653148651123,18.67393483481104,17.659603917393074,74.26538176619246,64.7065134301138,0.0,0.0913304165005683,0,0,0
6187,209176.9093552256,2010-10-11 00:35:54,672.1946447688856,4,18,0.234050378203392,4.199653148651123,18.685855088417824,17.659603917393074,74.31544292425951,64.7065134301138,0.0,0.0913304165005683,0,0,0
6188,209385.2817279881,2010-10-11 00:39:22,880.5670174762485,4,18,0.1840216070413589,4.199491024017334,18.69791308999309,17.659603917393074,74.36608254923378,64.7065134301138,0.0,0.0913304165005683,0,0,0
6189,209665.85629794205,2010-10-11 00:44:03,1161.141587545498,4,18,0.1339928358793258,4.199653148651123,18.710222113381032,17.659603917393074,74.41777631633592,64.7065134301138,0.0,0.0913304165005683,0,0,0
6190,210098.08522212465,2010-10-11 00:51:15,1593.370511622814,4,18,0.0839640721678733,4.199653148651123,18.72308670300165,17.659603917393074,74.47180329119621,64.7065134301138,0.0,0.0913304165005683,0,0,0
6191,210619.14115857315,2010-10-11 00:59:56,2114.4264480964093,4,18,0.0498289167881011,4.199491024017334,18.73257230571038,17.659603917393074,74.51163968093128,64.7065134301138,-3.24249267578125e-05,0.0913304165005683,0,0,0
6192,210649.15154435296,2010-10-11 01:00:26,30.017185978515684,5,18,0.0,4.192692279815674,18.73257230571038,17.659603917393074,74.51163968093128,64.7065134301138,-3.23295607813634e-05,0.0913304165005683,0,0,0
6193,210679.15114569012,2010-10-11 01:00:56,60.01678744100682,5,18,0.0,4.191558837890625,18.73257230571038,17.659603917393074,74.51163968093128,64.7065134301138,-3.24249267578125e-05,0.0913304165005683,0,0,0
6194,210679.34844567307,2010-10-11 01:00:57,0.189651083855147,6,18,-1.9243103452026844e-05,4.191397190093994,18.732572309454035,17.659603917393074,74.51163969662304,64.7065134301138,-6.47544875391759e-05,0.0883364379405975,0,0,0
6195,210684.17422206776,2010-10-11 01:01:02,5.015427578734692,6,18,0.0005225847125984,4.191558837890625,18.73257310741723,17.659603917548583,74.51164304131822,64.7065134307656,0.0,0.0883364379405975,0,0,0
6196,210714.18369193329,2010-10-11 01:01:32,30.015359491347667,7,18,-1.099568486213684,4.032587051391602,18.73257310741723,17.668773443711938,74.51164304131822,64.74366550253599,-0.0008418083307333,0.0883364379405975,0,0,0
6197,210744.19895871356,2010-10-11 01:02:02,60.03062626160585,7,18,-1.099568486213684,4.009599208831787,18.73257310741723,17.677942956201758,74.51164304131822,64.78052885205754,-0.0005180359003134,0.0883364379405975,0,0,0
6198,210774.2141735945,2010-10-11 01:02:32,90.04584111246491,7,18,-1.0997490882873535,3.993896484375,18.73257310741723,17.687112375455783,74.51164304131822,64.81721865883785,-0.0003561019839253,0.0883364379405975,0,0,0
6199,210804.22942096132,2010-10-11 01:03:02,120.06108848437646,7,18,-1.099568486213684,3.981593132019043,18.73257310741723,17.696281758090116,74.51164304131822,64.85378114865371,-0.0002913951757363,0.0883364379405975,0,0,0
6200,210834.24466288468,2010-10-11 01:03:32,150.07633041272095,7,18,-1.0997490882873535,3.970746755599976,18.73257310741723,17.705451065374728,74.51164304131822,64.89023772650098,-0.0002590179501567,0.0883364379405975,0,0,0
6201,210864.2599357251,2010-10-11 01:04:02,180.09160327817025,7,18,-1.0997490882873535,3.960871696472168,18.73257310741723,17.714620411925026,74.51164304131822,64.92660099211838,-0.0002913951757363,0.0883364379405975,0,0,0
6202,210894.27520318708,2010-10-11 01:04:32,210.10687074516483,7,18,-1.0997490882873535,3.95180606842041,18.73257310741723,17.723789709312577,74.51164304131822,64.96287756858004,-0.0002266406954731,0.0883364379405975,0,0,0
6203,210924.27690839773,2010-10-11 01:05:02,240.10857605108112,7,18,-1.099929690361023,3.942740440368652,18.73257310741723,17.732954962050187,74.51164304131822,64.99905599064446,-0.0002913951757363,0.0883364379405975,0,0,0
6204,210954.2900294953,2010-10-11 01:05:32,270.1216970333755,7,18,-1.0997490882873535,3.934484243392944,18.73257310741723,17.742123615188362,74.51164304131822,65.03516874910827,-0.0002266406954731,0.0883364379405975,0,0,0
6205,210984.30527506777,2010-10-11 01:06:02,300.13694259076465,7,18,-1.099929690361023,3.9260661602020255,18.73257310741723,17.7512929715422,74.51164304131822,65.07120718175585,-0.0002266406954731,0.0883364379405975,0,0,0
6206,211014.3205538329,2010-10-11 01:06:32,330.1522213809803,7,18,-1.0997490882873535,3.9181337356567374,18.73257310741723,17.760462409427515,74.51164304131822,65.10717047197774,-0.0002266406954731,0.0883364379405975,0,0,0
6207,211044.3357616763,2010-10-11 01:07:02,360.16742919429964,7,18,-1.0997490882873535,3.9100396633148193,18.73257310741723,17.76963183765023,74.51164304131822,65.14305955124586,-0.0002266406954731,0.0883364379405975,0,0,0
6208,211074.3510205469,2010-10-11 01:07:32,390.18268806988186,7,18,-1.0997490882873535,3.9021072387695312,18.73257310741723,17.778801269351405,74.51164304131822,65.1788758626723,-0.0001942634553415,0.0883364379405975,0,0,0
6209,211104.36627304155,2010-10-11 01:08:02,420.19794056957335,7,18,-1.0997490882873535,3.894498586654663,18.73257310741723,17.78797071831744,74.51164304131822,65.21461987012452,-0.0001618862152099,0.0883364379405975,0,0,0
6210,211134.3815160977,2010-10-11 01:08:32,450.21318362071634,7,18,-1.0997490882873535,3.886728048324585,18.73257310741723,17.797140090957303,74.51164304131822,65.25029293081957,-0.0001618862152099,0.0883364379405975,0,0,0
6211,211164.39675007123,2010-10-11 01:09:02,480.22841759924734,7,18,-1.0997490882873535,3.878957509994507,18.73257310741723,17.80630950063784,74.51164304131822,65.28589567761996,-0.0001942634553415,0.0883364379405975,0,0,0
6212,211194.41199170885,2010-10-11 01:09:32,510.2436592268422,7,18,-1.099929690361023,3.871348857879639,18.73257310741723,17.815478937097634,74.51164304131822,65.32142904811558,-0.0002266406954731,0.0883364379405975,0,0,0
6213,211224.42725649412,2010-10-11 01:10:02,540.2589240221783,7,18,-1.0997490882873535,3.863902091979981,18.73257310741723,17.824648357140347,74.51164304131822,65.35689362056087,-0.0002266406954731,0.0883364379405975,0,0,0
6214,211254.442510668,2010-10-11 01:10:32,570.2741781960424,7,18,-1.0997490882873535,3.856779098510742,18.73257310741723,17.8338177714461,74.51164304131822,65.39229051389712,-0.0001618862152099,0.0883364379405975,0,0,0
6215,211284.4577522054,2010-10-11 01:11:02,600.2894197334125,7,18,-1.0997490882873535,3.849494218826294,18.73257310741723,17.84298717319647,74.51164304131822,65.42762073849129,-0.0001942634553415,0.0883364379405975,0,0,0
6216,211314.47310691985,2010-10-11 01:11:32,630.3047744478546,7,18,-1.0997490882873535,3.842371225357056,18.73257310741723,17.852156621142093,74.51164304131822,65.46288552219119,-0.0001618862152099,0.0883364379405975,0,0,0
6217,211344.4882446685,2010-10-11 01:12:02,660.3199121965514,7,18,-1.0997490882873535,3.8352482318878174,18.73257310741723,17.86132604279274,74.51164304131822,65.49808510733482,-0.0001942634553415,0.0883364379405975,0,0,0
6218,211374.50349085248,2010-10-11 01:12:32,690.3351583704772,7,18,-1.0997490882873535,3.828611135482788,18.73257310741723,17.87049543855507,74.51164304131822,65.53322060871565,-0.0001295089750783,0.0883364379405975,0,0,0
6219,211404.51872157288,2010-10-11 01:13:02,720.350389090888,7,18,-1.099568486213684,3.82148814201355,18.73257310741723,17.8796648264487,74.51164304131822,65.56829295608561,-0.0001618862152099,0.0883364379405975,0,0,0
6220,211434.53399288945,2010-10-11 01:13:32,750.3656604325395,7,18,-1.099568486213684,3.815012693405152,18.73257310741723,17.888834203134405,74.51164304131822,65.6033038701013,-0.0001618862152099,0.0883364379405975,0,0,0
6221,211464.54922822132,2010-10-11 01:14:02,780.3808957945187,7,18,-1.099568486213684,3.808375358581543,18.73257310741723,17.898003575525596,74.51164304131822,65.63825396864009,-0.0001618862152099,0.0883364379405975,0,0,0
6222,211494.56447272116,2010-10-11 01:14:32,810.3961402692092,7,18,-1.0997490882873535,3.801899909973145,18.73257310741723,17.90717293798521,74.51164304131822,65.67314424947972,-0.0001618862152099,0.0883364379405975,0,0,0
6223,211524.58169773195,2010-10-11 01:15:02,840.4133653000555,7,18,-1.099929690361023,3.795586347579956,18.73257310741723,17.916342986826063,74.51164304131822,65.70797911187613,-0.0001618862152099,0.0883364379405975,0,0,0
6224,211554.59496601133,2010-10-11 01:15:32,870.4266335493846,7,18,-1.099929690361023,3.789272785186768,18.73257310741723,17.92551181754951,74.51164304131822,65.74275218781021,-0.0001618862152099,0.0883364379405975,0,0,0
6225,211584.61048148645,2010-10-11 01:16:02,900.4421490746169,7,18,-1.0997490882873535,3.783282995223999,18.73257310741723,17.934681322593985,74.51164304131822,65.77747200483044,-0.0001618862152099,0.0883364379405975,0,0,0
6226,211614.62548061967,2010-10-11 01:16:32,930.4571481376662,7,18,-1.099929690361023,3.77745509147644,18.73257310741723,17.94385066763244,74.51164304131822,65.81213640283738,-0.0001942634553415,0.0883364379405975,0,0,0
6227,211644.6431589653,2010-10-11 01:17:02,960.4748266186496,7,18,-1.099929690361023,3.771627187728882,18.73257310741723,17.95302090813161,74.51164304131822,65.8467502318538,-0.0001618862152099,0.0883364379405975,0,0,0
6228,211674.6560803401,2010-10-11 01:17:32,990.4877478781732,7,18,-1.0997490882873535,3.765961170196533,18.73257310741723,17.962189683928198,74.51164304131822,65.88130553702119,-0.0001618862152099,0.0883364379405975,0,0,0
6229,211704.6711965401,2010-10-11 01:18:02,1020.502864078164,7,18,-1.1001102924346924,3.760133266448975,18.73257310741723,17.971359070055495,74.51164304131822,65.91581132810309,-0.0002266406954731,0.0883364379405975,0,0,0
6230,211734.6865852142,2010-10-11 01:18:32,1050.518252752244,7,18,-1.0997490882873535,3.754791021347046,18.73257310741723,17.980528619839227,74.51164304131822,65.9502666279798,-0.0001618862152099,0.0883364379405975,0,0,0
6231,211764.7016940057,2010-10-11 01:19:02,1080.5333615537957,7,18,-1.0997490882873535,3.749449014663696,18.73257310741723,17.98969805027358,74.51164304131822,65.9846712581718,-0.0001295089750783,0.0883364379405975,0,0,0
6232,211794.7194114889,2010-10-11 01:19:32,1110.5510791422469,7,18,-1.0997490882873535,3.744106769561768,18.73257310741723,17.99886829820684,74.51164304131822,66.01903002574011,-0.0001295089750783,0.0883364379405975,0,0,0
6233,211824.7322321076,2010-10-11 01:20:02,1140.5638996356304,7,18,-1.0997490882873535,3.738926410675049,18.73257310741723,18.008037102493397,74.51164304131822,66.05333495095917,-0.0001295089750783,0.0883364379405975,0,0,0
6234,211854.74747470763,2010-10-11 01:20:32,1170.5791422556988,7,18,-1.0997490882873535,3.73390793800354,18.73257310741723,18.017206582329138,74.51164304131822,66.0875951828878,-9.713172767078504e-05,0.0883364379405975,0,0,0
6235,211884.7628065952,2010-10-11 01:21:02,1200.5944741332244,7,18,-1.0997490882873535,3.728727579116821,18.73257310741723,18.02637610100404,74.51164304131822,66.12180886031325,-6.47544875391759e-05,0.0883364379405975,0,0,0
6236,211914.777939988,2010-10-11 01:21:32,1230.60960751604,7,18,-1.0997490882873535,3.7238709926605225,18.73257310741723,18.0355455292269,74.51164304131822,66.1559772141117,-0.0001295089750783,0.0883364379405975,0,0,0
6237,211944.7933043515,2010-10-11 01:22:02,1260.6249719196303,7,18,-1.099929690361023,3.719014406204224,18.73257310741723,18.0447150147268,74.51164304131822,66.19010059260074,-9.713172767078504e-05,0.0883364379405975,0,0,0
6238,211974.80843753385,2010-10-11 01:22:32,1290.640105056834,7,18,-1.0997490882873535,3.714157819747925,18.73257310741723,18.053884490452223,74.51164304131822,66.22417922054564,-0.0001295089750783,0.0883364379405975,0,0,0
6239,212004.8236700437,2010-10-11 01:23:02,1320.6553375667047,7,18,-1.0997490882873535,3.709463119506836,18.73257310741723,18.063053973600496,74.51164304131822,66.25821386962019,-9.713172767078504e-05,0.0883364379405975,0,0,0
6240,212034.8390378959,2010-10-11 01:23:32,1350.6707054439528,7,18,-1.099568486213684,3.704768419265747,18.73257310741723,18.072223498831733,74.51164304131822,66.29220560399496,-9.713172767078504e-05,0.0883364379405975,0,0,0
6241,212064.85414798564,2010-10-11 01:24:02,1380.6858155587772,7,18,-1.1001102924346924,3.699911832809448,18.73257310741723,18.08139326619873,74.51164304131822,66.32615546111414,-0.0001295089750783,0.0883364379405975,0,0,0
6242,212094.8693857937,2010-10-11 01:24:32,1410.701053371865,7,18,-1.1001102924346924,3.695379018783569,18.73257310741723,18.090563622321596,74.51164304131822,66.36006510129108,-0.0001295089750783,0.0883364379405975,0,0,0
6243,212124.88656154173,2010-10-11 01:25:02,1440.718229124896,7,18,-1.099929690361023,3.6908462047576895,18.73257310741723,18.099734391380142,74.51164304131822,66.39393488238292,-0.0001295089750783,0.0883364379405975,0,0,0
6244,212154.90000568444,2010-10-11 01:25:32,1470.7316732224929,7,18,-1.099929690361023,3.6864752769470215,18.73257310741723,18.10890415074835,74.51164304131822,66.42775959398507,-0.0001295089750783,0.0883364379405975,0,0,0
6245,212184.91513789937,2010-10-11 01:26:02,1500.7468054273727,7,18,-1.099929690361023,3.682104349136353,18.73257310741723,18.118074438922378,74.51164304131822,66.46154600518913,-0.0001618862152099,0.0883364379405975,0,0,0
6246,212214.93053469865,2010-10-11 01:26:32,1530.7622022567784,7,18,-1.1001102924346924,3.677733421325684,18.73257310741723,18.12724482550493,74.51164304131822,66.49529293051481,-0.0001295089750783,0.0883364379405975,0,0,0
6247,212244.94563015696,2010-10-11 01:27:02,1560.7772976849997,7,18,-1.0997490882873535,3.6735243797302246,18.73257310741723,18.13641499888085,74.51164304131822,66.5289997587064,-0.0001295089750783,0.0883364379405975,0,0,0
6248,212274.96115406312,2010-10-11 01:27:32,1590.7928216963817,7,18,-1.0997490882873535,3.6694774627685542,18.73257310741723,18.14558456319917,74.51164304131822,66.5626660673179,-9.713172767078504e-05,0.0883364379405975,0,0,0
6249,212304.9761088207,2010-10-11 01:28:02,1620.8077763537583,7,18,-1.099929690361023,3.665268421173096,18.73257310741723,18.154753838364748,74.51164304131822,66.59629333885975,-0.0001295089750783,0.0883364379405975,0,0,0
6250,212334.99136578653,2010-10-11 01:28:32,1650.823033334619,7,18,-1.0997490882873535,3.6613831520080566,18.73257310741723,18.163923233676503,74.51164304131822,66.62988378593946,-9.713172767078504e-05,0.0883364379405975,0,0,0
6251,212365.00672661624,2010-10-11 01:29:02,1680.8383941693144,7,18,-1.0997490882873535,3.6571741104125977,18.73257310741723,18.17309275076046,74.51164304131822,66.66343797250246,-0.0001295089750783,0.0883364379405975,0,0,0
6252,212395.02185096656,2010-10-11 01:29:32,1710.8535184845307,7,18,-1.099929690361023,3.653450727462769,18.73257310741723,18.18226213623043,74.51164304131822,66.6969556205886,-9.713172767078504e-05,0.0883364379405975,0,0,0
6253,212425.03710476944,2010-10-11 01:30:03,1740.8687722974953,7,18,-1.0997490882873535,3.6495654582977295,18.73257310741723,18.191431577782403,74.51164304131822,66.73043811319245,-9.713172767078504e-05,0.0883364379405975,0,0,0
6254,212455.05235547468,2010-10-11 01:30:33,1770.8840230027145,7,18,-1.0997490882873535,3.645842075347901,18.73257310741723,18.200600945060696,74.51164304131822,66.76388528186992,-6.47544875391759e-05,0.0883364379405975,0,0,0
6255,212485.06762934764,2010-10-11 01:31:03,1800.8992969157748,7,18,-1.0997490882873535,3.642280578613281,18.73257310741723,18.20977033148676,74.51164304131822,66.79729851203808,-6.47544875391759e-05,0.0883364379405975,0,0,0
6256,212515.0829629996,2010-10-11 01:31:33,1830.914630532635,7,18,-1.0997490882873535,3.638557195663452,18.73257310741723,18.2189397425258,74.51164304131822,66.83067853471991,-9.713172767078504e-05,0.0883364379405975,0,0,0
6257,212545.0980868035,2010-10-11 01:32:03,1860.9297543315647,7,18,-1.0997490882873535,3.635157585144043,18.73257310741723,18.228109096430018,74.51164304131822,66.86402592932639,-6.47544875391759e-05,0.0883364379405975,0,0,0
6258,212575.1134983797,2010-10-11 01:32:33,1890.945165917749,7,18,-1.0997490882873535,3.631596088409424,18.73257310741723,18.237278472879865,74.51164304131822,66.89734197617152,-9.713172767078504e-05,0.0883364379405975,0,0,0
6259,212605.12877778645,2010-10-11 01:33:03,1920.960445314476,7,18,-1.099929690361023,3.628196477890015,18.73257310741723,18.24644787784745,74.51164304131822,66.93062727912637,-9.713172767078504e-05,0.0883364379405975,0,0,0
6260,212635.14383389667,2010-10-11 01:33:33,1950.9755014497675,7,18,-1.099568486213684,3.6252825260162354,18.73257310741723,18.255617277445943,74.51164304131822,66.96388249352731,-3.237724376958795e-05,0.0883364379405975,0,0,0
6261,212665.1590769929,2010-10-11 01:34:03,1980.9907445159472,7,18,-1.0997490882873535,3.622044801712036,18.73257310741723,18.264786686207213,74.51164304131822,66.99710874937675,-9.713172767078504e-05,0.0883364379405975,0,0,0
6262,212695.17435699617,2010-10-11 01:34:33,2011.0060245542736,7,18,-1.099929690361023,3.618968963623047,18.73257310741723,18.273956101211965,74.51164304131822,67.03030674749618,-9.713172767078504e-05,0.0883364379405975,0,0,0
6263,212725.19152185705,2010-10-11 01:35:03,2041.0231894051328,7,18,-1.099568486213684,3.616055011749268,18.73257310741723,18.2831260990528,74.51164304131822,67.06347943819232,-9.713172767078504e-05,0.0883364379405975,0,0,0
6264,212755.20494719796,2010-10-11 01:35:33,2071.0366147359573,7,18,-1.0997490882873535,3.613141059875488,18.73257310741723,18.29229494440536,74.51164304131822,67.09662107902223,-6.47544875391759e-05,0.0883364379405975,0,0,0
6265,212785.2200688715,2010-10-11 01:36:03,2101.0517364045777,7,18,-1.099568486213684,3.610227108001709,18.73257310741723,18.30146429619621,74.51164304131822,67.12973838146453,-9.713172767078504e-05,0.0883364379405975,0,0,0
6266,212815.2354500018,2010-10-11 01:36:33,2131.067117539869,7,18,-1.0997490882873535,3.6076369285583496,18.73257310741723,18.310633696872063,74.51164304131822,67.16283019892832,-6.47544875391759e-05,0.0883364379405975,0,0,0
6267,212845.2507233485,2010-10-11 01:37:03,2161.0823908965426,7,18,-1.0997490882873535,3.6047229766845694,18.73257310741723,18.31980314777092,74.51164304131822,67.19589676165383,-0.0001295089750783,0.0883364379405975,0,0,0
6268,212875.2658079898,2010-10-11 01:37:33,2191.0974755278544,7,18,-1.099929690361023,3.601970911026001,18.73257310741723,18.32897237318249,74.51164304131822,67.22893765526854,-0.0001295089750783,0.0883364379405975,0,0,0
6269,212905.2810989153,2010-10-11 01:38:03,2221.1127664733644,7,18,-1.099929690361023,3.5993807315826416,18.73257310741723,18.338141803748325,74.51164304131822,67.26195455627585,-6.47544875391759e-05,0.0883364379405975,0,0,0
6270,212935.2963136358,2010-10-11 01:38:33,2251.1279811688364,7,18,-1.0997490882873535,3.5967905521392822,18.73257310741723,18.34731121644313,74.51164304131822,67.29494704174752,-6.47544875391759e-05,0.0883364379405975,0,0,0
6271,212965.31155120328,2010-10-11 01:39:03,2281.1432188114995,7,18,-1.099568486213684,3.594200372695923,18.73257310741723,18.35648063733331,74.51164304131822,67.32791514430029,-6.47544875391759e-05,0.0883364379405975,0,0,0
6272,212995.32678729208,2010-10-11 01:39:33,2311.1584548150777,7,18,-1.099568486213684,3.5914485454559326,18.73257310741723,18.36565009381793,74.51164304131822,67.36085916302095,-9.713172767078504e-05,0.0883364379405975,0,0,0
6273,213025.34204707493,2010-10-11 01:40:03,2341.173714602933,7,18,-1.099929690361023,3.588858366012573,18.73257310741723,18.374819497974823,74.51164304131822,67.39377867899171,-6.47544875391759e-05,0.0883364379405975,0,0,0
6274,213055.35730552443,2010-10-11 01:40:33,2371.188973042429,7,18,-1.099568486213684,3.586268186569214,18.73257310741723,18.38398895804687,74.51164304131822,67.42667382656983,-3.237724376958795e-05,0.0883364379405975,0,0,0
6275,213085.3725382398,2010-10-11 01:41:03,2401.204205767837,7,18,-1.099929690361023,3.5833542346954346,18.73257310741723,18.393158337782538,74.51164304131822,67.45954394407126,-9.713172767078504e-05,0.0883364379405975,0,0,0
6276,213115.3877923435,2010-10-11 01:41:33,2431.2194598965884,7,18,-1.099929690361023,3.580602169036865,18.73257310741723,18.40232772223039,74.51164304131822,67.49238921381863,-9.713172767078504e-05,0.0883364379405975,0,0,0
6277,213145.40302180577,2010-10-11 01:42:03,2461.234689338813,7,18,-1.0997490882873535,3.577850103378296,18.73257310741723,18.411497155529503,74.51164304131822,67.52520917868708,-0.0001295089750783,0.0883364379405975,0,0,0
6278,213175.41827846583,2010-10-11 01:42:33,2491.249945988849,7,18,-1.0997490882873535,3.5750980377197266,18.73257310741723,18.42066655837612,74.51164304131822,67.55800295351884,-6.47544875391759e-05,0.0883364379405975,0,0,0
6279,213205.43351353708,2010-10-11 01:43:03,2521.265181065116,7,18,-1.0997490882873535,3.5720221996307373,18.73257310741723,18.429835983695156,74.51164304131822,67.59077020174922,-9.713172767078504e-05,0.0883364379405975,0,0,0
6280,213235.4489029029,2010-10-11 01:43:33,2551.28057047102,7,18,-1.0997490882873535,3.569108247756958,18.73257310741723,18.43900542901002,74.51164304131822,67.62351031681763,-6.47544875391759e-05,0.0883364379405975,0,0,0
6281,213265.46405343345,2010-10-11 01:44:03,2581.2957210867858,7,18,-1.099929690361023,3.565708637237549,18.73257310741723,18.448174768087508,74.51164304131822,67.6562219029741,-9.713172767078504e-05,0.0883364379405975,0,0,0
6282,213295.47928358245,2010-10-11 01:44:33,2611.3109511305097,7,18,-1.099929690361023,3.562794685363769,18.73257310741723,18.457344160011253,74.51164304131822,67.68890474766694,-9.713172767078504e-05,0.0883364379405975,0,0,0
6283,213325.49652658307,2010-10-11 01:45:03,2641.3281941662294,7,18,-1.099929690361023,3.5593950748443604,18.73257310741723,18.46651416268694,74.51164304131822,67.72156026445484,-9.713172767078504e-05,0.0883364379405975,0,0,0
6284,213355.5097477851,2010-10-11 01:45:33,2671.341415333215,7,18,-1.0997490882873535,3.555995464324951,18.73257310741723,18.475683017222337,74.51164304131822,67.75418028323917,-9.713172767078504e-05,0.0883364379405975,0,0,0
6285,213385.5251229255,2010-10-11 01:46:03,2701.35679048359,7,18,-1.0997490882873535,3.552272081375122,18.73257310741723,18.48485245627056,74.51164304131822,67.78676966887403,-0.0001295089750783,0.0883364379405975,0,0,0
6286,213415.54025962652,2010-10-11 01:46:33,2731.3719271546006,7,18,-1.0997490882873535,3.548548698425293,18.73257310741723,18.494021905578087,74.51164304131822,67.81932524782749,-9.713172767078504e-05,0.0883364379405975,0,0,0
6287,213445.55561805528,2010-10-11 01:47:03,2761.3872856334247,7,18,-1.0997490882873535,3.544663429260254,18.73257310741723,18.50319144473558,74.51164304131822,67.85184581983992,-9.713172767078504e-05,0.0883364379405975,0,0,0
6288,213475.5708400038,2010-10-11 01:47:33,2791.4025075318486,7,18,-1.0997490882873535,3.540616273880005,18.73257310741723,18.51236095820327,74.51164304131822,67.88432981687872,-9.713172767078504e-05,0.0883364379405975,0,0,0
6289,213505.58638943857,2010-10-11 01:48:03,2821.4180570066933,7,18,-1.099568486213684,3.536245346069336,18.73257310741723,18.521530499009728,74.51164304131822,67.91677626352674,-0.0001618862152099,0.0883364379405975,0,0,0
6290,213535.6012786779,2010-10-11 01:48:33,2851.432946220966,7,18,-1.099929690361023,3.532036304473877,18.73257310741723,18.530699844988952,74.51164304131822,67.94918323911904,-0.0001295089750783,0.0883364379405975,0,0,0
6291,213565.61919039016,2010-10-11 01:49:03,2881.450858043509,7,18,-1.099929690361023,3.527665376663208,18.73257310741723,18.53987011052204,74.51164304131822,67.98155346628276,-9.713172767078504e-05,0.0883364379405975,0,0,0
6292,213595.6317376375,2010-10-11 01:49:33,2911.4634051605544,7,18,-1.0997490882873535,3.523132562637329,18.73257310741723,18.54903884048245,74.51164304131822,68.0138765984742,-0.0001295089750783,0.0883364379405975,0,0,0
6293,213625.64698347563,2010-10-11 01:50:03,2941.478651003655,7,18,-1.0997490882873535,3.5181140899658203,18.73257310741723,18.558208308838957,74.51164304131822,68.046159103898,-0.0001295089750783,0.0883364379405975,0,0,0
6294,213655.6623712174,2010-10-11 01:50:33,2971.4940387554366,7,18,-1.099568486213684,3.513257503509521,18.73257310741723,18.567377847813823,74.51164304131822,68.07839626098972,-9.713172767078504e-05,0.0883364379405975,0,0,0
6295,213685.67755486548,2010-10-11 01:51:03,3001.509222488741,7,18,-1.099929690361023,3.507591724395752,18.73257310741723,18.57654731724636,74.51164304131822,68.11058448687338,-0.0001295089750783,0.0883364379405975,0,0,0
6296,213715.6952258628,2010-10-11 01:51:33,3031.526893516148,7,18,-1.099568486213684,3.5017638206481934,18.73257310741723,18.58571756412625,74.51164304131822,68.14272297258127,-0.0001618862152099,0.0883364379405975,0,0,0
6297,213745.70809887207,2010-10-11 01:52:03,3061.5397664602547,7,18,-1.099929690361023,3.494802713394165,18.73257310741723,18.59488632538584,74.51164304131822,68.17479798480275,-0.0001942634553415,0.0883364379405975,0,0,0
6298,213775.7233682087,2010-10-11 01:52:33,3091.5550357417715,7,18,-1.0997490882873535,3.487194061279297,18.73257310741723,18.604055901178185,74.51164304131822,68.20681042047582,-0.0002266406954731,0.0883364379405975,0,0,0
6299,213805.73846879983,2010-10-11 01:53:03,3121.570136327848,7,18,-1.0997490882873535,3.478290319442749,18.73257310741723,18.61322533174154,74.51164304131822,68.23874656486213,-0.0002590179501567,0.0883364379405975,0,0,0
6300,213835.75368094395,2010-10-11 01:53:33,3151.5853485922607,7,18,-1.0997490882873535,3.467605829238892,18.73257310741723,18.622394734311907,74.51164304131822,68.27059275806509,-0.0002913951757363,0.0883364379405975,0,0,0
6301,213865.76894846605,2010-10-11 01:54:03,3181.600616109381,7,18,-1.099929690361023,3.454007387161255,18.73257310741723,18.63156420129972,74.51164304131822,68.30232897219551,-0.0004209041653666,0.0883364379405975,0,0,0
6302,213895.78421260972,2010-10-11 01:54:33,3211.6158801678803,7,18,-1.0997490882873535,3.436361789703369,18.73257310741723,18.640733736622053,74.51164304131822,68.33392391605278,-0.0005180359003134,0.0883364379405975,0,0,0
6303,213925.80150895336,2010-10-11 01:55:03,3241.6331766066965,7,18,-1.099929690361023,3.4114315509796143,18.73257310741723,18.64990389134824,74.51164304131822,68.36532895799577,-0.0008094310760498,0.0883364379405975,0,0,0
6304,213955.81480213485,2010-10-11 01:55:33,3271.64646965784,7,18,-1.0997490882873535,3.3764641284942627,18.73257310741723,18.65907275482927,74.51164304131822,68.39645822208276,-0.0010684489971026,0.0883364379405975,0,0,0
6305,213985.8299836977,2010-10-11 01:56:03,3301.6616513410345,7,18,-1.0997490882873535,3.325308322906494,18.73257310741723,18.668242217753384,74.51164304131822,68.42719875314722,-0.0016188621520996,0.0883364379405975,0,0,0
6306,214015.84515364168,2010-10-11 01:56:33,3331.6768211897347,7,18,-1.0997490882873535,3.2527835369110107,18.73257310741723,18.677411599381664,74.51164304131822,68.45737836635978,-0.0022664070129394,0.0883364379405975,0,0,0
6307,214045.86040123407,2010-10-11 01:57:03,3361.6920688122705,7,18,-1.0997490882873535,3.146748304367065,18.73257310741723,18.68658098319464,74.51164304131822,68.48675241673553,-0.0033672333229333,0.0883364379405975,0,0,0
6308,214075.87565775384,2010-10-11 01:57:33,3391.707325321956,7,18,-1.0997490882873535,2.9659218788146973,18.73257310741723,18.695750428057792,74.51164304131822,68.51487712817428,-0.0067668436095118,0.0883364379405975,0,0,0
6309,214090.95358021595,2010-10-11 01:57:48,3406.7852478041427,7,18,-1.0997490882873535,2.765507459640503,18.73257310741723,18.70035666218399,74.51164304131822,68.52812819583474,-0.0132422447204589,0.0883364379405975,0,0,0
6310,214094.6254131284,2010-10-11 01:57:52,3410.4570806513925,7,18,-1.0997490882873535,2.699458122253418,18.73257310741723,18.701478380373462,74.51164304131822,68.53119384824645,-0.0143430707976222,0.0883364379405975,0,0,0
6311,214154.6460219727,2010-10-11 01:58:52,60.0148435412104,8,18,0.0,3.2663819789886475,18.73257310741723,18.701478380373462,74.51164304131822,68.53119384824645,0.0012303352123126,0.0883364379405975,0,0,0
6312,214154.85576620136,2010-10-11 01:58:53,0.203227550587618,9,18,-1.9243103452026844e-05,3.2667057514190674,18.73257310741723,18.701478381459776,74.51164304131822,68.53119385179511,0.0,0.0883364379405975,0,0,0
6313,214159.6680903639,2010-10-11 01:58:57,5.015551708103273,9,18,0.0007031940040178,3.2738285064697266,18.732573902507458,18.701478381459776,74.51164564194258,68.53119385179511,0.0010360240703448,0.0883364379405975,0,0,0
