Data_Point,Test_Time(s),Date_Time,Step_Time(s),Step_Index,Cycle_Index,Current(A),Voltage(V),Charge_Capacity(Ah),Discharge_Capacity(Ah),Charge_Energy(Wh),Discharge_Energy(Wh),dV/dt(V/s),Internal_Resistance(Ohm),Is_FC_Data,AC_Impedance(Ohm),ACI_Phase_Angle(Deg)
15801,542076.2886154129,2010-10-14 21:04:49,30.01547549045313,1,47,0.0,3.3814826011657715,46.99236261255322,46.940598693668186,187.2765549599844,171.48391907391348,0.0008741855854168,0.0922218039631843,0,0,0
15802,542106.3034019413,2010-10-14 21:05:19,60.03026197368827,1,47,0.0,3.405927419662476,46.99236261255322,46.940598693668186,187.2765549599844,171.48391907391348,0.0005504131549969,0.0922218039631843,0,0,0
15803,542136.3185663414,2010-10-14 21:05:49,90.04542637380855,1,47,0.0,3.425029993057251,46.99236261255322,46.940598693668186,187.2765549599844,171.48391907391348,0.0004209041653666,0.0922218039631843,0,0,0
15804,542166.2871513163,2010-10-14 21:06:19,120.01401138375644,1,47,0.0,3.440247058868408,46.99236261255322,46.940598693668186,187.2765549599844,171.48391907391348,0.0003885269106831,0.0922218039631843,0,0,0
15805,542196.3093975186,2010-10-14 21:06:49,30.015144635861684,2,47,0.5501165986061096,3.593552827835083,46.9969490621393,46.940598693668186,187.29287389578323,171.48391907391348,0.0015864372253417,0.0922218039631843,0,0,0
15806,542226.3247080831,2010-10-14 21:07:19,60.03045519525588,2,47,0.5501165986061096,3.6416330337524414,47.00153551349852,46.940598693668186,187.30947253872577,171.48391907391348,0.0011332035064697,0.0922218039631843,0,0,0
15807,542256.3398746036,2010-10-14 21:07:49,90.04562171566057,2,47,0.5501165986061096,3.675952672958374,47.00612188033291,46.940598693668186,187.32625647721235,171.48391907391348,0.0008093834039755,0.0922218039631843,0,0,0
15808,542286.354923205,2010-10-14 21:08:19,120.06067031717512,2,47,0.5501165986061096,3.702825784683228,47.01070822288381,46.940598693668186,187.34317971069007,171.48391907391348,0.0006151676061563,0.0922218039631843,0,0,0
15809,542316.3700973945,2010-10-14 21:08:49,150.0758445016811,2,47,0.5501165986061096,3.7248423099517822,47.015294573855705,46.940598693668186,187.3602142202777,171.48391907391348,0.0005827903514727,0.0922218039631843,0,0,0
15810,542346.3854153423,2010-10-14 21:09:19,180.0911624595145,2,47,0.5501165986061096,3.742649793624878,47.01988099561832,46.940598693668186,187.37733999610137,171.48391907391348,0.0004532813909463,0.0922218039631843,0,0,0
15811,542376.400458004,2010-10-14 21:09:49,210.1062051462877,2,47,0.5499359965324402,3.756571769714356,47.02446731092255,46.940598693668186,187.39453877518253,171.48391907391348,0.0003237724304199,0.0922218039631843,0,0,0
15812,542406.415620369,2010-10-14 21:10:19,240.1213674762485,2,47,0.5501165986061096,3.7654755115509033,47.02905365613449,46.940598693668186,187.4117901389869,171.48391907391348,0.0001942634553415,0.0922218039631843,0,0,0
15813,542436.4308124783,2010-10-14 21:10:49,270.1365596355532,2,47,0.5499359965324402,3.770817756652832,47.03364001512726,46.940598693668186,187.42907328808943,171.48391907391348,9.713172767078504e-05,0.0922218039631843,0,0,0
15814,542466.4469368359,2010-10-14 21:11:19,300.1526840533329,2,47,0.5501165986061096,3.774864912033081,47.03822649206045,46.940598693668186,187.44637755686773,171.48391907391348,9.713172767078504e-05,0.0922218039631843,0,0,0
15815,542496.4492307238,2010-10-14 21:11:49,330.15497796122645,2,47,0.5497553944587708,3.77826452255249,47.042810826357375,46.940598693668186,187.4636908228734,171.48391907391348,6.47544875391759e-05,0.0922218039631843,0,0,0
15816,542526.4607625203,2010-10-14 21:12:19,360.1665096625436,2,47,0.5501165986061096,3.781826019287109,47.04739666008893,46.940598693668186,187.48102602009232,171.48391907391348,6.47544875391759e-05,0.0922218039631843,0,0,0
15817,542556.4758751012,2010-10-14 21:12:49,390.1816222485271,2,47,0.550297200679779,3.785387516021729,47.05198297535121,46.940598693668186,187.4983789634789,171.48391907391348,9.713172767078504e-05,0.0922218039631843,0,0,0
15818,542586.4911694403,2010-10-14 21:13:19,420.1969165824826,2,47,0.550297200679779,3.7887871265411377,47.05656936222259,46.940598693668186,187.51574791523137,171.48391907391348,9.713172767078504e-05,0.0922218039631843,0,0,0
15819,542616.5063670481,2010-10-14 21:13:49,450.2121141703168,2,47,0.5501165986061096,3.792024850845337,47.06115575212056,46.940598693668186,187.53313225402985,171.48391907391348,9.713172767078504e-05,0.0922218039631843,0,0,0
15820,542646.5214323112,2010-10-14 21:14:19,480.22717955866926,2,47,0.5499359965324402,3.795262575149536,47.06574208986434,46.940598693668186,187.5505316003373,171.48391907391348,6.47544875391759e-05,0.0922218039631843,0,0,0
15821,542676.5365791575,2010-10-14 21:14:49,510.24232626970286,2,47,0.5499359965324402,3.798500299453736,47.07032846121073,46.940598693668186,187.56794602402783,171.48391907391348,6.47544875391759e-05,0.0922218039631843,0,0,0
15822,542706.5517766953,2010-10-14 21:15:19,540.2575238625496,2,47,0.550297200679779,3.801738023757935,47.07491482244912,46.940598693668186,187.5853750974662,171.48391907391348,9.713172767078504e-05,0.0922218039631843,0,0,0
15823,542736.566969476,2010-10-14 21:15:49,570.2727165882662,2,47,0.5501165986061096,3.804975748062134,47.07950118956551,46.940598693668186,187.60281864871249,171.48391907391348,9.713172767078504e-05,0.0922218039631843,0,0,0
15824,542766.5820910796,2010-10-14 21:16:20,600.2878381917241,2,47,0.5501165986061096,3.808051586151123,47.08408761180359,46.940598693668186,187.6202767784228,171.48391907391348,6.47544875391759e-05,0.0922218039631843,0,0,0
15825,542796.5972923064,2010-10-14 21:16:50,630.3030395539653,2,47,0.5501165986061096,3.811289310455322,47.08867406903671,46.940598693668186,187.6377493298015,171.48391907391348,9.713172767078504e-05,0.0922218039631843,0,0,0
15826,542826.6124494835,2010-10-14 21:17:20,660.3181966057713,2,47,0.5501165986061096,3.8142032623291016,47.09326047336064,46.940598693668186,187.65523604414471,171.48391907391348,6.47544875391759e-05,0.0922218039631843,0,0,0
15827,542856.6276371417,2010-10-14 21:17:50,690.3333842889201,2,47,0.5499359965324402,3.817440986633301,47.0978468919789,46.940598693668186,187.67273730457973,171.48391907391348,9.713172767078504e-05,0.0922218039631843,0,0,0
15828,542886.6427892962,2010-10-14 21:18:20,720.3485364084333,2,47,0.5499359965324402,3.8206787109375,47.10243326641353,46.940598693668186,187.6902528837811,171.48391907391348,9.713172767078504e-05,0.0922218039631843,0,0,0
15829,542916.6580107687,2010-10-14 21:18:50,750.3637579008451,2,47,0.5501165986061096,3.823916435241699,47.10701968123425,46.940598693668186,187.70778333691692,171.48391907391348,9.713172767078504e-05,0.0922218039631843,0,0,0
15830,542946.6731470887,2010-10-14 21:19:20,780.3788942009315,2,47,0.5501165986061096,3.8271541595458975,47.11160599989044,46.940598693668186,187.72532849498708,171.48391907391348,9.713172767078504e-05,0.0922218039631843,0,0,0
15831,542976.6885387653,2010-10-14 21:19:50,810.3942860228569,2,47,0.5501165986061096,3.8307156562805176,47.11619247475108,46.940598693668186,187.74288977463152,171.48391907391348,9.713172767078504e-05,0.0922218039631843,0,0,0
15832,543006.7036211661,2010-10-14 21:20:20,840.4093683183472,2,47,0.5501165986061096,3.834115028381348,47.12077881745002,46.940598693668186,187.7604662789961,171.48391907391348,0.0001295089750783,0.0922218039631843,0,0,0
15833,543036.7186748552,2010-10-14 21:20:50,870.4244219574169,2,47,0.5501165986061096,3.837514638900757,47.12536513261669,46.940598693668186,187.7780585437492,171.48391907391348,9.713172767078504e-05,0.0922218039631843,0,0,0
15834,543066.7339724122,2010-10-14 21:21:20,900.4397195545051,2,47,0.5501165986061096,3.840914249420166,47.12995152001718,46.940598693668186,187.79566687163583,171.48391907391348,6.47544875391759e-05,0.0922218039631843,0,0,0
15835,543096.749032322,2010-10-14 21:21:50,930.454779434128,2,47,0.5501165986061096,3.844313859939575,47.13453787352703,46.940598693668186,187.8132907421916,171.48391907391348,6.47544875391759e-05,0.0922218039631843,0,0,0
15836,543126.7643367961,2010-10-14 21:22:20,960.4700839183812,2,47,0.5501165986061096,3.8478753566741934,47.13912425285967,46.940598693668186,187.8309301957404,171.48391907391348,9.713172767078504e-05,0.0922218039631843,0,0,0
15837,543156.7793648164,2010-10-14 21:22:50,990.4851119486258,2,47,0.5501165986061096,3.8511130809783936,47.14371054255426,46.940598693668186,187.848584534722,171.48391907391348,0.0001295089750783,0.0922218039631843,0,0,0
15838,543186.7945483642,2010-10-14 21:23:20,1020.5002954663933,2,47,0.5501165986061096,3.854188919067383,47.14829691518572,46.940598693668186,187.86625402956457,171.48391907391348,6.47544875391759e-05,0.0922218039631843,0,0,0
15839,543216.8097292454,2010-10-14 21:23:50,1050.5154763626267,2,47,0.5499359965324402,3.857426643371582,47.15288331285013,46.940598693668186,187.8839382556285,171.48391907391348,9.713172767078504e-05,0.0922218039631843,0,0,0
15840,543246.8250709174,2010-10-14 21:24:20,1080.5308180796756,2,47,0.5501165986061096,3.8605024814605713,47.15746975417021,46.940598693668186,187.90163691703617,171.48391907391348,9.713172767078504e-05,0.0922218039631843,0,0,0
15841,543276.8400689929,2010-10-14 21:24:50,1110.545816135214,2,47,0.5499359965324402,3.8632545471191406,47.16205609661802,46.940598693668186,187.9193490747059,171.48391907391348,6.47544875391759e-05,0.0922218039631843,0,0,0
15842,543306.8552548717,2010-10-14 21:25:20,1140.5610019837904,2,47,0.5499359965324402,3.86616849899292,47.166642461023486,46.940598693668186,187.9370745950241,171.48391907391348,6.47544875391759e-05,0.0922218039631843,0,0,0
15843,543336.8704537727,2010-10-14 21:25:50,1170.5762009099603,2,47,0.5501165986061096,3.868920564651489,47.17122886269286,46.940598693668186,187.95481313681827,171.48391907391348,6.47544875391759e-05,0.0922218039631843,0,0,0
15844,543366.8857186533,2010-10-14 21:26:20,1200.5914657654462,2,47,0.5501165986061096,3.8716726303100586,47.17581527374571,46.940598693668186,187.9725639693143,171.48391907391348,9.713172767078504e-05,0.0922218039631843,0,0,0
15845,543396.900770934,2010-10-14 21:26:50,1230.6065180361054,2,47,0.5501165986061096,3.873939037322998,47.18040166532086,46.940598693668186,187.99032647278605,171.48391907391348,0.0,0.0922218039631843,0,0,0
15846,543426.9159514493,2010-10-14 21:27:20,1260.621698556402,2,47,0.5499359965324402,3.876367330551148,47.18498809353436,46.940598693668186,188.00810002077452,171.48391907391348,3.237724376958795e-05,0.0922218039631843,0,0,0
15847,543456.931138185,2010-10-14 21:27:50,1290.6368853172523,2,47,0.5501165986061096,3.878471851348877,47.18957450579524,46.940598693668186,188.0258839439352,171.48391907391348,3.237724376958795e-05,0.0922218039631843,0,0,0
15848,543486.9463000739,2010-10-14 21:28:20,1320.6520472662637,2,47,0.5501165986061096,3.880738258361816,47.194160959581176,46.940598693668186,188.0436777445652,171.48391907391348,6.47544875391759e-05,0.0922218039631843,0,0,0
15849,543516.9614938472,2010-10-14 21:28:50,1350.6672409944786,2,47,0.550297200679779,3.882680892944336,47.19874739224776,46.940598693668186,188.061480605107,171.48391907391348,6.47544875391759e-05,0.0922218039631843,0,0,0
15850,543546.9766790994,2010-10-14 21:29:20,1380.682426271631,2,47,0.5501165986061096,3.8844616413116455,47.20333381688158,46.940598693668186,188.07929192179623,171.48391907391348,6.47544875391759e-05,0.0922218039631843,0,0,0
15851,543576.9919659847,2010-10-14 21:29:50,1410.6977131319595,2,47,0.550297200679779,3.886080503463745,47.2079202821905,46.940598693668186,188.09711113650016,171.48391907391348,6.47544875391759e-05,0.0922218039631843,0,0,0
15852,543607.0070072429,2010-10-14 21:30:20,1440.7127543951851,2,47,0.5501165986061096,3.887375593185425,47.21250671073635,46.940598693668186,188.1149375510361,171.48391907391348,3.237724376958795e-05,0.0922218039631843,0,0,0
15853,543637.0222112468,2010-10-14 21:30:50,1470.727958373947,2,47,0.5501165986061096,3.888994455337525,47.21709314429734,46.940598693668186,188.13277087589813,171.48391907391348,3.237724376958795e-05,0.0922218039631843,0,0,0
15854,543667.0373613463,2010-10-14 21:31:20,1500.7431084533762,2,47,0.5501165986061096,3.890451431274414,47.22167966445164,46.940598693668186,188.15061102444864,171.48391907391348,6.47544875391759e-05,0.0922218039631843,0,0,0
15855,543697.0525604779,2010-10-14 21:31:50,1530.758307605108,2,47,0.550297200679779,3.8917465209960938,47.22626612237725,46.940598693668186,188.1684571186954,171.48391907391348,6.47544875391759e-05,0.0922218039631843,0,0,0
15856,543727.0678931173,2010-10-14 21:32:20,1560.7736402244827,2,47,0.550297200679779,3.893041610717773,47.23085267157919,46.940598693668186,188.1863095120552,171.48391907391348,3.237724376958795e-05,0.0922218039631843,0,0,0
15857,543757.0829854177,2010-10-14 21:32:50,1590.7887326552327,2,47,0.5501165986061096,3.894336700439453,47.235439152822,46.940598693668186,188.2041674798251,171.48391907391348,6.47544875391759e-05,0.0922218039631843,0,0,0
15858,543787.098321972,2010-10-14 21:33:20,1620.804069134227,2,47,0.5499359965324402,3.895308017730713,47.24002569968762,46.940598693668186,188.22203106024503,171.48391907391348,3.237724376958795e-05,0.0922218039631843,0,0,0
15859,543817.1133291352,2010-10-14 21:33:50,1650.8190763826767,2,47,0.5501165986061096,3.8966031074523926,47.24461214633182,46.940598693668186,188.2398998946099,171.48391907391348,3.237724376958795e-05,0.0922218039631843,0,0,0
15860,543847.1288035078,2010-10-14 21:34:20,1680.8345506601067,2,47,0.5501165986061096,3.897898197174072,47.2491987204044,46.940598693668186,188.2577748637347,171.48391907391348,3.237724376958795e-05,0.0922218039631843,0,0,0
15861,543877.1435898106,2010-10-14 21:34:50,1710.849336947855,2,47,0.550297200679779,3.899193286895752,47.253785066645264,46.940598693668186,188.2756545643865,171.48391907391348,6.47544875391759e-05,0.0922218039631843,0,0,0
15862,543907.1587590779,2010-10-14 21:35:20,1740.8645061850302,2,47,0.5501165986061096,3.9003264904022217,47.25837149849242,46.940598693668186,188.2935402131927,171.48391907391348,6.47544875391759e-05,0.0922218039631843,0,0,0
15863,543937.1741841828,2010-10-14 21:35:50,1770.879931390157,2,47,0.5501165986061096,3.901621580123901,47.26295800844742,46.940598693668186,188.31143171884952,171.48391907391348,6.47544875391759e-05,0.0922218039631843,0,0,0
15864,543967.1891674965,2010-10-14 21:36:20,1800.8949146337795,2,47,0.5501165986061096,3.902592897415161,47.26754442644849,46.940598693668186,188.329328538794,171.48391907391348,0.0,0.0922218039631843,0,0,0
15865,543997.2042598972,2010-10-14 21:36:50,1830.91000702443,2,47,0.5499359965324402,3.903887987136841,47.272130875408685,46.940598693668186,188.34723112944448,171.48391907391348,0.0,0.0922218039631843,0,0,0
15866,544027.2195579956,2010-10-14 21:37:20,1860.9253051327928,2,47,0.5499359965324402,3.905183076858521,47.2767173447253,46.940598693668186,188.36513951791056,171.48391907391348,3.237724376958795e-05,0.0922218039631843,0,0,0
15867,544057.2346215192,2010-10-14 21:37:50,1890.9403686464727,2,47,0.550297200679779,3.9064781665802,47.28130372517502,46.940598693668186,188.38305311968625,171.48391907391348,6.47544875391759e-05,0.0922218039631843,0,0,0
15868,544087.2499193969,2010-10-14 21:38:20,1920.955666519248,2,47,0.5501165986061096,3.90761137008667,47.28589011853103,46.940598693668186,188.4009726078643,171.48391907391348,3.237724376958795e-05,0.0922218039631843,0,0,0
15869,544117.264919257,2010-10-14 21:38:50,1950.9706663642464,2,47,0.5501165986061096,3.90906834602356,47.29047664284626,46.940598693668186,188.41889836580904,171.48391907391348,6.47544875391759e-05,0.0922218039631843,0,0,0
15870,544147.2800965594,2010-10-14 21:39:20,1980.985843666523,2,47,0.5504778623580933,3.910201549530029,47.29506398866708,46.940598693668186,188.4368333208901,171.48391907391348,3.237724376958795e-05,0.0922218039631843,0,0,0
15871,544177.2952367743,2010-10-14 21:39:50,2011.0009839314907,2,47,0.5501165986061096,3.911496639251709,47.29965112112853,46.940598693668186,188.45477321636292,171.48391907391348,3.237724376958795e-05,0.0922218039631843,0,0,0
15872,544207.3104640209,2010-10-14 21:40:20,2041.0162111281195,2,47,0.5501165986061096,3.9127917289733887,47.304238408468045,46.940598693668186,188.47271966848052,171.48391907391348,0.0,0.0922218039631843,0,0,0
15873,544237.3256477944,2010-10-14 21:40:50,2071.031394901524,2,47,0.550297200679779,3.914086580276489,47.30882571218011,46.940598693668186,188.4906721562892,171.48391907391348,0.0,0.0922218039631843,0,0,0
15874,544267.3409446345,2010-10-14 21:41:20,2101.046691776813,2,47,0.5501165986061096,3.915381669998169,47.31341306414503,46.940598693668186,188.50863089266068,171.48391907391348,-3.237724376958795e-05,0.0922218039631843,0,0,0
15875,544297.3560574059,2010-10-14 21:41:50,2131.0618045733213,2,47,0.5499359965324402,3.9166767597198486,47.31800025625324,46.940598693668186,188.5265948597316,171.48391907391348,3.237724376958795e-05,0.0922218039631843,0,0,0
15876,544327.371193706,2010-10-14 21:42:20,2161.076940853358,2,47,0.550297200679779,3.9181337356567374,47.32258680880419,46.940598693668186,188.5445625641394,171.48391907391348,3.237724376958795e-05,0.0922218039631843,0,0,0
15877,544357.3863839858,2010-10-14 21:42:50,2191.092131102903,2,47,0.5497553944587708,3.919428825378418,47.327173327691725,46.940598693668186,188.56253626587988,171.48391907391348,6.47544875391759e-05,0.0922218039631843,0,0,0
15878,544387.4015509874,2010-10-14 21:43:20,2221.107298114532,2,47,0.5499359965324402,3.9207239151000977,47.33175991769736,46.940598693668186,188.58051651548783,171.48391907391348,3.237724376958795e-05,0.0922218039631843,0,0,0
15879,544417.4195387191,2010-10-14 21:43:50,2251.1252858713256,2,47,0.5501165986061096,3.9221808910369873,47.33634690071201,46.940598693668186,188.5985045303604,171.48391907391348,3.237724376958795e-05,0.0922218039631843,0,0,0
15880,544447.4319062484,2010-10-14 21:44:20,2281.137653370709,2,47,0.5501165986061096,3.923475980758667,47.34093308484482,46.940598693668186,188.6164957612203,171.48391907391348,0.0,0.0922218039631843,0,0,0
15881,544477.4470530598,2010-10-14 21:44:50,2311.152800171967,2,47,0.5501165986061096,3.9249329566955566,47.34551965252073,46.940598693668186,188.6344948881072,171.48391907391348,0.0,0.0922218039631843,0,0,0
15882,544507.4622451238,2010-10-14 21:45:20,2341.167992266109,2,47,0.5499359965324402,3.9263899326324463,47.35010623925969,46.940598693668186,188.6525004429433,171.48391907391348,0.0,0.0922218039631843,0,0,0
15883,544537.4775570467,2010-10-14 21:45:50,2371.1833041638392,2,47,0.5501165986061096,3.927846908569336,47.35469283174819,46.940598693668186,188.6705124745121,171.48391907391348,6.47544875391759e-05,0.0922218039631843,0,0,0
15884,544567.4926046808,2010-10-14 21:46:20,2401.198351928267,2,47,0.5501165986061096,3.929141998291016,47.359279375197005,46.940598693668186,188.6885308360746,171.48391907391348,3.237724376958795e-05,0.0922218039631843,0,0,0
15885,544597.5079132302,2010-10-14 21:46:50,2431.213660467627,2,47,0.5501165986061096,3.9307608604431152,47.36386599114504,46.940598693668186,188.7065560956005,171.48391907391348,3.237724376958795e-05,0.0922218039631843,0,0,0
15886,544627.5229428795,2010-10-14 21:47:20,2461.2286900768067,2,47,0.5501165986061096,3.932055950164795,47.3684525340972,46.940598693668186,188.72458760510088,171.48391907391348,3.237724376958795e-05,0.0922218039631843,0,0,0
15887,544657.5381314147,2010-10-14 21:47:50,2491.243878556942,2,47,0.5499359965324402,3.9333510398864746,47.37303908398446,46.940598693668186,188.74262588107376,171.48391907391348,0.0,0.0922218039631843,0,0,0
15888,544687.5534032175,2010-10-14 21:48:21,2521.259150339693,2,47,0.550297200679779,3.935131788253784,47.37762573410065,46.940598693668186,188.7606712810016,171.48391907391348,6.47544875391759e-05,0.0922218039631843,0,0,0
15889,544717.5684898939,2010-10-14 21:48:51,2551.2742371414142,2,47,0.5501165986061096,3.936264991760254,47.382212436583856,46.940598693668186,188.77872361668057,171.48391907391348,0.0,0.0922218039631843,0,0,0
15890,544747.5836206703,2010-10-14 21:49:21,2581.2893677874085,2,47,0.5499359965324402,3.938045740127564,47.38679912897408,46.940598693668186,188.7967826952726,171.48391907391348,6.47544875391759e-05,0.0922218039631843,0,0,0
15891,544777.5988041478,2010-10-14 21:49:51,2611.304551285126,2,47,0.5501165986061096,3.939340829849243,47.39138578698289,46.940598693668186,188.8148485477271,171.48391907391348,3.237724376958795e-05,0.0922218039631843,0,0,0
15892,544807.6141181408,2010-10-14 21:50:21,2641.3198652630404,2,47,0.5501165986061096,3.9411215782165527,47.39597246534248,46.940598693668186,188.8329214816322,171.48391907391348,3.237724376958795e-05,0.0922218039631843,0,0,0
15893,544837.6291520657,2010-10-14 21:50:51,2671.334899263164,2,47,0.550297200679779,3.9425785541534415,47.4005591608141,46.940598693668186,188.85100144735836,171.48391907391348,6.47544875391759e-05,0.0922218039631843,0,0,0
15894,544867.6443259143,2010-10-14 21:51:21,2701.3500730466703,2,47,0.5501165986061096,3.944035530090332,47.40514581475246,46.940598693668186,188.8690882903772,171.48391907391348,3.237724376958795e-05,0.0922218039631843,0,0,0
15895,544897.659713917,2010-10-14 21:51:51,2731.365461139301,2,47,0.5501165986061096,3.945654392242432,47.40973258802427,46.940598693668186,188.88718272232825,171.48391907391348,3.237724376958795e-05,0.0922218039631843,0,0,0
15896,544927.6747840169,2010-10-14 21:52:21,2761.3805311291217,2,47,0.5501165986061096,3.947111368179321,47.41431928832013,46.940598693668186,188.90528395637088,171.48391907391348,0.0,0.0922218039631843,0,0,0
15897,544957.689851691,2010-10-14 21:52:51,2791.3955988332464,2,47,0.5501165986061096,3.948892116546631,47.418905957298335,46.940598693668186,188.92339222614712,171.48391907391348,6.47544875391759e-05,0.0922218039631843,0,0,0
15898,544987.7050086175,2010-10-14 21:53:21,2821.410755724652,2,47,0.550297200679779,3.9505109786987305,47.423492642482,46.940598693668186,188.94150777251812,171.48391907391348,6.47544875391759e-05,0.0922218039631843,0,0,0
15899,545017.7202160499,2010-10-14 21:53:51,2851.4259631820846,2,47,0.5501165986061096,3.95180606842041,47.42807932725716,46.940598693668186,188.95963063965195,171.48391907391348,0.0,0.0922218039631843,0,0,0
15900,545047.7354829605,2010-10-14 21:54:21,2881.441230077655,2,47,0.5499359965324402,3.9534249305725098,47.432666065805805,46.940598693668186,188.9777610309397,171.48391907391348,3.237724376958795e-05,0.0922218039631843,0,0,0
15901,545077.7505871906,2010-10-14 21:54:51,2911.456334438138,2,47,0.5501165986061096,3.9552056789398193,47.43725283112639,46.940598693668186,188.9958990003572,171.48391907391348,3.237724376958795e-05,0.0922218039631843,0,0,0
15902,545107.765709586,2010-10-14 21:55:21,2941.4714566982325,2,47,0.5501165986061096,3.956824541091919,47.44183950734367,46.940598693668186,189.01404410123703,171.48391907391348,9.713172767078504e-05,0.0922218039631843,0,0,0
15903,545137.7809023669,2010-10-14 21:55:51,2971.4866494991365,2,47,0.5499359965324402,3.9584434032440186,47.44642624105489,46.940598693668186,189.03219677100543,171.48391907391348,0.0,0.0922218039631843,0,0,0
15904,545167.7961011276,2010-10-14 21:56:21,3001.5018482649066,2,47,0.5501165986061096,3.960062265396118,47.45101299398283,46.940598693668186,189.0503571915894,171.48391907391348,0.0,0.0922218039631843,0,0,0
15905,545197.8112404803,2010-10-14 21:56:51,3031.5169875925385,2,47,0.5501165986061096,3.961843013763428,47.455599773195495,46.940598693668186,189.06852537637525,171.48391907391348,6.47544875391759e-05,0.0922218039631843,0,0,0
15906,545227.8264859224,2010-10-14 21:57:21,3061.532233089777,2,47,0.5499359965324402,3.9634618759155273,47.460186519449614,46.940598693668186,189.08670104752449,171.48391907391348,0.0,0.0922218039631843,0,0,0
15907,545257.841605581,2010-10-14 21:57:51,3091.547352693251,2,47,0.5501165986061096,3.965080738067627,47.46477328285314,46.940598693668186,189.10488459519465,171.48391907391348,0.0,0.0922218039631843,0,0,0
15908,545287.8567776553,2010-10-14 21:58:21,3121.56252479256,2,47,0.5501165986061096,3.966861486434937,47.469360097134754,46.940598693668186,189.1230762052828,171.48391907391348,6.47544875391759e-05,0.0922218039631843,0,0,0
15909,545317.8719576844,2010-10-14 21:58:51,3151.5777047915576,2,47,0.550297200679779,3.968642234802246,47.473946917527165,46.940598693668186,189.14127560268608,171.48391907391348,6.47544875391759e-05,0.0922218039631843,0,0,0
15910,545347.887138716,2010-10-14 21:59:21,3181.592885853204,2,47,0.550297200679779,3.9702610969543457,47.47853368585103,46.940598693668186,189.15948273800285,171.48391907391348,3.237724376958795e-05,0.0922218039631843,0,0,0
15911,545377.9023116573,2010-10-14 21:59:51,3211.6080587645365,2,47,0.5501165986061096,3.9720418453216553,47.4831204431599,46.940598693668186,189.1776978752752,171.48391907391348,3.237724376958795e-05,0.0922218039631843,0,0,0
15912,545407.9174856013,2010-10-14 22:00:21,3241.623232713455,2,47,0.5501165986061096,3.973984479904175,47.48770722908333,46.940598693668186,189.1959211649176,171.48391907391348,9.713172767078504e-05,0.0922218039631843,0,0,0
15913,545437.9326916301,2010-10-14 22:00:51,3271.6384387373146,2,47,0.5501165986061096,3.975765228271485,47.49229406523263,46.940598693668186,189.21415290192235,171.48391907391348,3.237724376958795e-05,0.0922218039631843,0,0,0
15914,545467.9478365919,2010-10-14 22:01:21,3301.653583704001,2,47,0.5499359965324402,3.977384090423584,47.49688090250452,46.940598693668186,189.23239291788312,171.48391907391348,3.237724376958795e-05,0.0922218039631843,0,0,0
15915,545497.9631540885,2010-10-14 22:01:51,3331.668901200685,2,47,0.5499359965324402,3.979326725006104,47.50146765396382,46.940598693668186,189.2506404769456,171.48391907391348,3.237724376958795e-05,0.0922218039631843,0,0,0
15916,545527.9781900285,2010-10-14 22:02:21,3361.6839371606925,2,47,0.5501165986061096,3.981107473373413,47.50605431041914,46.940598693668186,189.2688965592783,171.48391907391348,3.237724376958795e-05,0.0922218039631843,0,0,0
15917,545557.9933641177,2010-10-14 22:02:51,3391.6991112198866,2,47,0.550297200679779,3.9830501079559326,47.51064094429657,46.940598693668186,189.2871610413056,171.48391907391348,3.237724376958795e-05,0.0922218039631843,0,0,0
15918,545588.0085494701,2010-10-14 22:03:21,3421.714296592276,2,47,0.5501165986061096,3.984992742538452,47.515227636044855,46.940598693668186,189.30543432620223,171.48391907391348,9.713172767078504e-05,0.0922218039631843,0,0,0
15919,545618.0238938186,2010-10-14 22:03:51,3451.729640960933,2,47,0.550297200679779,3.986935377120972,47.51981431133317,46.940598693668186,189.32371625084608,171.48391907391348,6.47544875391759e-05,0.0922218039631843,0,0,0
15920,545648.0389292925,2010-10-14 22:04:21,3481.744676459792,2,47,0.550297200679779,3.988716125488281,47.52440100218334,46.940598693668186,189.3420070357733,171.48391907391348,0.0,0.0922218039631843,0,0,0
15921,545678.0541093064,2010-10-14 22:04:51,3511.7598564487644,2,47,0.5501165986061096,3.990658760070801,47.52898778034948,46.940598693668186,189.360307161994,171.48391907391348,3.237724376958795e-05,0.0922218039631843,0,0,0
15922,545708.0693026788,2010-10-14 22:05:21,3541.775049780993,2,47,0.550297200679779,3.9927632808685294,47.533574540419245,46.940598693668186,189.3786162055281,171.48391907391348,3.237724376958795e-05,0.0922218039631843,0,0,0
15923,545738.0844399915,2010-10-14 22:05:51,3571.7901870986148,2,47,0.5501165986061096,3.994705677032471,47.53816120898297,46.940598693668186,189.39693399861773,171.48391907391348,3.237724376958795e-05,0.0922218039631843,0,0,0
15924,545768.0998817378,2010-10-14 22:06:21,3601.805628885068,2,47,0.550297200679779,3.99697208404541,47.5427479698948,46.940598693668186,189.4152613808154,171.48391907391348,6.47544875391759e-05,0.0922218039631843,0,0,0
15925,545798.114912941,2010-10-14 22:06:51,3631.8206601132815,2,47,0.5501165986061096,3.9985909461975098,47.54733467198529,46.940598693668186,189.4335978693721,171.48391907391348,3.237724376958795e-05,0.0922218039631843,0,0,0
15926,545828.1299584297,2010-10-14 22:07:21,3661.835705536877,2,47,0.5501165986061096,4.000857353210449,47.55192138672962,46.940598693668186,189.45194386458897,171.48391907391348,3.23295607813634e-05,0.0922218039631843,0,0,0
15927,545858.1453600861,2010-10-14 22:07:51,3691.8511072133615,2,47,0.5499359965324402,4.003123760223389,47.556508066142825,46.940598693668186,189.47029929360505,171.48391907391348,6.47544875391759e-05,0.0922218039631843,0,0,0
15928,545888.1604396048,2010-10-14 22:08:21,3721.8661867569945,2,47,0.5501165986061096,4.005066394805908,47.56109481089406,46.940598693668186,189.4886646571809,171.48391907391348,6.47544875391759e-05,0.0922218039631843,0,0,0
15929,545918.1754919505,2010-10-14 22:08:51,3751.881239082791,2,47,0.5499359965324402,4.007171154022217,47.56568148605256,46.940598693668186,189.50703947232373,171.48391907391348,3.24249267578125e-05,0.0922218039631843,0,0,0
15930,545948.1907913522,2010-10-14 22:09:21,3781.896538474351,2,47,0.5501165986061096,4.009275436401367,47.57026823952199,46.940598693668186,189.52542442562904,171.48391907391348,6.47544875391759e-05,0.0922218039631843,0,0,0
15931,545978.205857392,2010-10-14 22:09:51,3811.91160449929,2,47,0.5499359965324402,4.011541843414307,47.57485493403454,46.940598693668186,189.54381911903369,171.48391907391348,6.47544875391759e-05,0.0922218039631843,0,0,0
15932,546008.2211420019,2010-10-14 22:10:21,3841.926889124048,2,47,0.5501165986061096,4.013646602630615,47.579441612937565,46.940598693668186,189.56222378536208,171.48391907391348,3.24249267578125e-05,0.0922218039631843,0,0,0
15933,546038.2363169633,2010-10-14 22:10:51,3871.942064080477,2,47,0.5501165986061096,4.015913009643555,47.584028314061136,46.940598693668186,189.5806387002519,171.48391907391348,3.24249267578125e-05,0.0922218039631843,0,0,0
15934,546068.2513890383,2010-10-14 22:11:21,3901.95713616552,2,47,0.550297200679779,4.018017292022705,47.588614975625575,46.940598693668186,189.59906374404292,171.48391907391348,3.23295607813634e-05,0.0922218039631843,0,0,0
15935,546098.2665660799,2010-10-14 22:11:51,3931.972313187098,2,47,0.5501165986061096,4.020445823669434,47.59320171997921,46.940598693668186,189.617499332081,171.48391907391348,3.24249267578125e-05,0.0922218039631843,0,0,0
15936,546128.2817280389,2010-10-14 22:12:21,3961.987475176208,2,47,0.5501165986061096,4.022712230682373,47.59778837455801,46.940598693668186,189.63594505924263,171.48391907391348,6.47544875391759e-05,0.0922218039631843,0,0,0
15937,546158.2969033663,2010-10-14 22:12:51,3992.002650473488,2,47,0.5501165986061096,4.025140285491943,47.60237503772127,46.940598693668186,189.65440133704436,171.48391907391348,6.47544875391759e-05,0.0922218039631843,0,0,0
15938,546188.3120881371,2010-10-14 22:13:21,4022.0178352694406,2,47,0.550297200679779,4.027406692504883,47.60696167029773,46.940598693668186,189.6728680301256,171.48391907391348,6.47544875391759e-05,0.0922218039631843,0,0,0
15939,546218.3273955287,2010-10-14 22:13:51,4052.033142665952,2,47,0.550297200679779,4.029673099517822,47.61154835091273,46.940598693668186,189.6913455332943,171.48391907391348,6.47544875391759e-05,0.0922218039631843,0,0,0
15940,546248.3424372431,2010-10-14 22:14:21,4082.0481843752896,2,47,0.5501165986061096,4.031939506530762,47.616135073508616,46.940598693668186,189.709833862406,171.48391907391348,6.47544875391759e-05,0.0922218039631843,0,0,0
15941,546278.3576350715,2010-10-14 22:14:51,4112.0633822287855,2,47,0.5501165986061096,4.034367561340332,47.6207217541183,46.940598693668186,189.72833288187252,171.48391907391348,3.23295607813634e-05,0.0922218039631843,0,0,0
15942,546308.3728142685,2010-10-14 22:15:21,4142.078561415759,2,47,0.5501165986061096,4.0367960929870605,47.62530841923284,46.940598693668186,189.74684274396049,171.48391907391348,6.47544875391759e-05,0.0922218039631843,0,0,0
15943,546338.3907652987,2010-10-14 22:15:51,4172.096512410932,2,47,0.5501165986061096,4.039224147796631,47.6298955479563,46.940598693668186,189.7653655288633,171.48391907391348,6.47544875391759e-05,0.0922218039631843,0,0,0
15944,546368.4031827677,2010-10-14 22:16:21,4202.108929909929,2,47,0.5501165986061096,4.041652679443359,47.63448187670674,46.940598693668186,189.7838961477847,171.48391907391348,9.71794142969884e-05,0.0922218039631843,0,0,0
15945,546398.4183283859,2010-10-14 22:16:51,4232.124075493152,2,47,0.5501165986061096,4.04408073425293,47.63906854045678,46.940598693668186,189.80243940886888,171.48391907391348,6.47544875391759e-05,0.0922218039631843,0,0,0
15946,546428.4335071117,2010-10-14 22:17:21,4262.139254223989,2,47,0.5501165986061096,4.046670913696289,47.64365529977199,46.940598693668186,189.82099439212465,171.48391907391348,6.47544875391759e-05,0.0922218039631843,0,0,0
15947,546458.4488282475,2010-10-14 22:17:51,4292.154575369768,2,47,0.5501165986061096,4.049099445343018,47.64824209631266,46.940598693668186,189.8395610239424,171.48391907391348,6.47544875391759e-05,0.0922218039631843,0,0,0
15948,546488.4639168538,2010-10-14 22:18:21,4322.169664081249,2,47,0.5501165986061096,4.051689624786377,47.6528288370317,46.940598693668186,189.85813898889305,171.48391907391348,9.71794142969884e-05,0.0922218039631843,0,0,0
15949,546518.4790442717,2010-10-14 22:18:51,4352.184791408973,2,47,0.5501165986061096,4.054117679595947,47.65741558856786,46.940598693668186,189.8767287285101,171.48391907391348,3.23295607813634e-05,0.0922218039631843,0,0,0
15950,546548.4942185364,2010-10-14 22:19:21,4382.199965673679,2,47,0.550297200679779,4.056869983673096,47.66200235947348,46.940598693668186,189.89533035614983,171.48391907391348,9.71794142969884e-05,0.0922218039631843,0,0,0
15951,546578.5094122797,2010-10-14 22:19:51,4412.21515941192,2,47,0.5501165986061096,4.059298038482666,47.66658922474883,46.940598693668186,189.91394430269708,171.48391907391348,3.23295607813634e-05,0.0922218039631843,0,0,0
15952,546608.5245727851,2010-10-14 22:20:22,4442.230319897283,2,47,0.550297200679779,4.061888217926025,47.67117605416529,46.940598693668186,189.93256977137804,171.48391907391348,9.70840483205393e-05,0.0922218039631843,0,0,0
15953,546638.5397706085,2010-10-14 22:20:52,4472.245517841004,2,47,0.5499359965324402,4.064478397369385,47.675762760045295,46.940598693668186,189.95120679850163,171.48391907391348,3.23295607813634e-05,0.0922218039631843,0,0,0
15954,546668.554945134,2010-10-14 22:21:22,4502.260692271122,2,47,0.5499359965324402,4.067392349243164,47.68034948645298,46.940598693668186,189.96985616969607,171.48391907391348,9.70840483205393e-05,0.0922218039631843,0,0,0
15955,546698.5702273577,2010-10-14 22:21:52,4532.2759745249705,2,47,0.5501165986061096,4.069982528686523,47.68493621305396,46.940598693668186,189.9885179886928,171.48391907391348,6.47544875391759e-05,0.0922218039631843,0,0,0
15956,546728.5852855932,2010-10-14 22:22:22,4562.29103273042,2,47,0.5501165986061096,4.072734832763672,47.68952296094926,46.940598693668186,190.00719241003773,171.48391907391348,9.71794142969884e-05,0.0922218039631843,0,0,0
15957,546758.6005849396,2010-10-14 22:22:52,4592.306332081881,2,47,0.5499359965324402,4.075648784637451,47.69410953657145,46.940598693668186,190.02587874971024,171.48391907391348,9.71794142969884e-05,0.0922218039631843,0,0,0
15958,546788.6156383883,2010-10-14 22:23:22,4622.321385495389,2,47,0.5501165986061096,4.0782389640808105,47.69869533024684,46.940598693668186,190.0445745140049,171.48391907391348,3.24249267578125e-05,0.0922218039631843,0,0,0
15959,546818.6310261901,2010-10-14 22:23:52,4652.3367733173445,2,47,0.5501165986061096,4.08115291595459,47.70328121614234,46.940598693668186,190.0632836104757,171.48391907391348,6.47544875391759e-05,0.0922218039631843,0,0,0
15960,546848.6460013436,2010-10-14 22:24:22,4682.351748661279,2,47,0.5501165986061096,4.084066867828369,47.70786702432956,46.940598693668186,190.08200532881955,171.48391907391348,0.0001295089750783,0.0922218039631843,0,0,0
15961,546878.6611744404,2010-10-14 22:24:52,4712.366921542536,2,47,0.5501165986061096,4.086818695068359,47.71245298207336,46.940598693668186,190.10074084791745,171.48391907391348,6.47544875391759e-05,0.0922218039631843,0,0,0
15962,546908.676504338,2010-10-14 22:25:22,4742.382251460178,2,47,0.5501165986061096,4.089732646942139,47.71703974956832,46.940598693668186,190.119493080607,171.48391907391348,9.70840483205393e-05,0.0922218039631843,0,0,0
15963,546938.6915474357,2010-10-14 22:25:52,4772.3972945379255,2,47,0.5499359965324402,4.092646598815918,47.721626449782576,46.940598693668186,190.13825837702777,171.48391907391348,6.47544875391759e-05,0.0922218039631843,0,0,0
15964,546968.7067095,2010-10-14 22:26:22,4802.412456607237,2,47,0.5501165986061096,4.095722675323486,47.72621316385648,46.940598693668186,190.15703717432245,171.48391907391348,6.47544875391759e-05,0.0922218039631843,0,0,0
15965,546998.7218876895,2010-10-14 22:26:52,4832.427634791711,2,47,0.5501165986061096,4.098636627197266,47.73079990505761,46.940598693668186,190.1758296488474,171.48391907391348,6.47544875391759e-05,0.0922218039631843,0,0,0
15966,547028.7370685256,2010-10-14 22:27:22,4862.442815662883,2,47,0.550297200679779,4.101550579071045,47.73538668304729,46.940598693668186,190.19463601344813,171.48391907391348,6.47544875391759e-05,0.0922218039631843,0,0,0
15967,547058.7522572164,2010-10-14 22:27:52,4892.458004323467,2,47,0.550297200679779,4.104626178741455,47.739973453177406,46.940598693668186,190.2134559671216,171.48391907391348,6.47544875391759e-05,0.0922218039631843,0,0,0
15968,547088.767629269,2010-10-14 22:28:22,4922.4733764061975,2,47,0.5501165986061096,4.107540130615234,47.744560250590766,46.940598693668186,190.2322899996268,171.48391907391348,3.23295607813634e-05,0.0922218039631843,0,0,0
15969,547118.7826284673,2010-10-14 22:28:52,4952.488375629646,2,47,0.550297200679779,4.110777854919434,47.749146914319454,46.940598693668186,190.25113754270183,171.48391907391348,6.47544875391759e-05,0.0922218039631843,0,0,0
15970,547148.7977807523,2010-10-14 22:29:22,4982.503527894522,2,47,0.5499359965324402,4.113691806793213,47.75373363274458,46.940598693668186,190.26999948932948,171.48391907391348,3.23295607813634e-05,0.0922218039631843,0,0,0
15971,547178.812971869,2010-10-14 22:29:52,5012.518719006215,2,47,0.550297200679779,4.116929531097412,47.75832038360039,46.940598693668186,190.2888758518976,171.48391907391348,6.47544875391759e-05,0.0922218039631843,0,0,0
15972,547208.828140224,2010-10-14 22:30:22,5042.533887326105,2,47,0.550297200679779,4.120167255401611,47.762907095883385,46.940598693668186,190.307766525167,171.48391907391348,9.71794142969884e-05,0.0922218039631843,0,0,0
15973,547238.8433188396,2010-10-14 22:30:52,5072.549065941655,2,47,0.5501165986061096,4.1234049797058105,47.76749387182899,46.940598693668186,190.326671991862,171.48391907391348,0.0001295089750783,0.0922218039631843,0,0,0
15974,547268.8585020966,2010-10-14 22:31:22,5102.564249238872,2,47,0.5501165986061096,4.126480579376221,47.77208059403605,46.940598693668186,190.3455919023588,171.48391907391348,6.47544875391759e-05,0.0922218039631843,0,0,0
15975,547298.8737168321,2010-10-14 22:31:52,5132.579463944369,2,47,0.550297200679779,4.129880428314209,47.77666735024,46.940598693668186,190.36452677160864,171.48391907391348,9.71794142969884e-05,0.0922218039631843,0,0,0
15976,547328.8888667662,2010-10-14 22:32:22,5162.594613923548,2,47,0.550297200679779,4.133118152618408,47.781254130815874,46.940598693668186,190.38347665991213,171.48391907391348,9.71794142969884e-05,0.0922218039631843,0,0,0
15977,547358.9040587702,2010-10-14 22:32:52,5192.609805907416,2,47,0.550297200679779,4.136355876922607,47.78584089158021,46.940598693668186,190.4024413919384,171.48391907391348,9.71794142969884e-05,0.0922218039631843,0,0,0
15978,547388.9193374802,2010-10-14 22:33:22,5222.625084602393,2,47,0.550297200679779,4.139593601226807,47.79042767323666,46.940598693668186,190.42142132010252,171.48391907391348,6.47544875391759e-05,0.0922218039631843,0,0,0
15979,547418.9345285819,2010-10-14 22:33:52,5252.640275694038,2,47,0.550297200679779,4.142992973327637,47.79501452211473,46.940598693668186,190.4404168323151,171.48391907391348,6.47544875391759e-05,0.0922218039631843,0,0,0
15980,547448.9495719754,2010-10-14 22:34:22,5282.655319077547,2,47,0.550297200679779,4.146554470062256,47.79960123530458,46.940598693668186,190.45942727397772,171.48391907391348,0.0001295089750783,0.0922218039631843,0,0,0
15981,547478.9647618941,2010-10-14 22:34:52,5312.670509126592,2,47,0.5501165986061096,4.149792194366455,47.80418792511771,46.940598693668186,190.4784532733578,171.48391907391348,6.47544875391759e-05,0.0922218039631843,0,0,0
15982,547508.9799305147,2010-10-14 22:35:22,5342.685677616906,2,47,0.5501165986061096,4.153192043304443,47.80877469083024,46.940598693668186,190.49749528869089,171.48391907391348,9.71794142969884e-05,0.0922218039631843,0,0,0
15983,547538.9956879729,2010-10-14 22:35:52,5372.70143515531,2,47,0.5501165986061096,4.156591415405273,47.81336144942035,46.940598693668186,190.51655298085336,171.48391907391348,3.23295607813634e-05,0.0922218039631843,0,0,0
15984,547569.0102881419,2010-10-14 22:36:22,5402.716035284093,2,47,0.5501165986061096,4.160152912139893,47.81794805205169,46.940598693668186,190.535625886034,171.48391907391348,0.0001295089750783,0.0922218039631843,0,0,0
15985,547599.0254820655,2010-10-14 22:36:52,5432.731229172708,2,47,0.5501165986061096,4.163714408874512,47.8225348132066,46.940598693668186,190.5547154114266,171.48391907391348,9.70840483205393e-05,0.0922218039631843,0,0,0
15986,547629.0406581599,2010-10-14 22:37:22,5462.746405312086,2,47,0.5501165986061096,4.1671142578125,47.82712148326164,46.940598693668186,190.57382057545848,171.48391907391348,9.71794142969884e-05,0.0922218039631843,0,0,0
15987,547659.0558642689,2010-10-14 22:37:52,5492.761611371032,2,47,0.5501165986061096,4.170675754547119,47.8317082071728,46.940598693668186,190.59294223515653,171.48391907391348,9.71794142969884e-05,0.0922218039631843,0,0,0
15988,547689.0714181397,2010-10-14 22:38:22,5522.777165306996,2,47,0.5499359965324402,4.174237251281738,47.83629493365602,46.940598693668186,190.61208024468496,171.48391907391348,9.71794142969884e-05,0.0922218039631843,0,0,0
15989,547719.0863121509,2010-10-14 22:38:52,5552.792059293161,2,47,0.5499359965324402,4.177798748016357,47.84088163531944,46.940598693668186,190.631234487132,171.48391907391348,9.71794142969884e-05,0.0922218039631843,0,0,0
15990,547749.1013810029,2010-10-14 22:39:22,5582.8071281401335,2,47,0.5499359965324402,4.181521892547607,47.84546828819244,46.940598693668186,190.6504050982632,171.48391907391348,9.70840483205393e-05,0.0922218039631843,0,0,0
15991,547779.1165529519,2010-10-14 22:39:52,5612.822300058993,2,47,0.550297200679779,4.185083389282227,47.85005497222204,46.940598693668186,190.6695925362505,171.48391907391348,9.70840483205393e-05,0.0922218039631843,0,0,0
15992,547809.1318462131,2010-10-14 22:40:22,5642.837593335313,2,47,0.550297200679779,4.188807010650635,47.8546416609746,46.940598693668186,190.68879667731983,171.48391907391348,0.0001295089750783,0.0922218039631843,0,0,0
15993,547839.1469018321,2010-10-14 22:40:52,5672.852648934267,2,47,0.5501165986061096,4.192368507385254,47.85922832773974,46.940598693668186,190.70801759613684,171.48391907391348,6.47544875391759e-05,0.0922218039631843,0,0,0
15994,547869.1620822721,2010-10-14 22:41:22,5702.867829374363,2,47,0.5501165986061096,4.196091651916504,47.863815072470445,46.940598693668186,190.72725590063644,171.48391907391348,9.71794142969884e-05,0.0922218039631843,0,0,0
15995,547898.677284553,2010-10-14 22:41:52,5732.383031660061,2,47,0.550297200679779,4.200138568878174,47.868325291014095,46.940598693668186,190.74618993394373,171.48391907391348,0.0001618385285837,0.0922218039631843,0,0,0
15996,547928.6762840135,2010-10-14 22:42:22,30.015293251256978,3,47,0.0,4.116443634033203,47.868325291014095,46.940598693668186,190.74618993394373,171.48391907391348,-0.0003885269106831,0.0922218039631843,0,0,0
15997,547958.6913725395,2010-10-14 22:42:52,60.03038180233813,3,47,0.0,4.106083393096924,47.868325291014095,46.940598693668186,190.74618993394373,171.48391907391348,-0.0001942634553415,0.0922218039631843,0,0,0
15998,547988.706525461,2010-10-14 22:43:22,90.04553471382522,3,47,0.0,4.099769592285156,47.868325291014095,46.940598693668186,190.74618993394373,171.48391907391348,-0.0001295089750783,0.0922218039631843,0,0,0
15999,548018.6748440971,2010-10-14 22:43:52,120.0138533599124,3,47,0.0,4.095884323120117,47.868325291014095,46.940598693668186,190.74618993394373,171.48391907391348,-6.47544875391759e-05,0.0922218039631843,0,0,0
16000,548018.6759624603,2010-10-14 22:43:52,2.736821e-06,4,47,0.9991112947463988,4.199814796447754,47.86832529177365,46.940598693668186,190.7461899371337,171.48391907391348,0.0,0.0922218039631843,0,0,0
16001,548019.6448229338,2010-10-14 22:43:53,0.968863195194176,4,47,0.9481794834136964,4.199653148651123,47.86858583075493,46.940598693668186,190.74728411088293,171.48391907391348,-3.23295607813634e-05,0.0922218039631843,0,0,0
16002,548021.7540507485,2010-10-14 22:43:55,3.078091039976557,4,47,0.8979700803756714,4.199653148651123,47.86912555223648,46.940598693668186,190.74955077648235,171.48391907391348,-3.23295607813634e-05,0.0922218039631843,0,0,0
16003,548024.9258792261,2010-10-14 22:43:58,6.249919517489744,4,47,0.8479413390159607,4.199653148651123,47.8698934938532,46.940598693668186,190.7527758842412,171.48391907391348,0.0,0.0922218039631843,0,0,0
16004,548029.2382906523,2010-10-14 22:44:03,10.562330933634597,4,47,0.7979125380516052,4.199814796447754,47.87087787991586,46.940598693668186,190.7569100042529,171.48391907391348,3.23295607813634e-05,0.0922218039631843,0,0,0
16005,548034.847583085,2010-10-14 22:44:08,16.171623341250502,4,47,0.7478837966918945,4.199814796447754,47.872080411784005,46.940598693668186,190.7619602923149,171.48391907391348,3.23295607813634e-05,0.0922218039631843,0,0,0
16006,548042.0349704106,2010-10-14 22:44:15,23.35901070205744,4,47,0.6978549957275391,4.199653148651123,47.87352149503129,46.940598693668186,190.7680124551658,171.48391907391348,0.0,0.0922218039631843,0,0,0
16007,548051.5192155427,2010-10-14 22:44:25,32.84325580408094,4,47,0.6478262543678284,4.199653148651123,47.87529175463753,46.940598693668186,190.7754470658982,171.48391907391348,-3.23295607813634e-05,0.0922218039631843,0,0,0
16008,548064.7533983534,2010-10-14 22:44:38,46.077438634751225,4,47,0.5977974534034729,4.199814796447754,47.87757685854004,46.940598693668186,190.78504387379817,171.48391907391348,3.23295607813634e-05,0.0922218039631843,0,0,0
16009,548084.3156026405,2010-10-14 22:44:58,65.6396428969123,4,47,0.5477687120437622,4.199653148651123,47.88068067976115,46.940598693668186,190.7980790592022,171.48391907391348,-3.23295607813634e-05,0.0922218039631843,0,0,0
16010,548117.3620031388,2010-10-14 22:45:31,98.68604339006448,4,47,0.4975593090057373,4.199653148651123,47.88545917214015,46.940598693668186,190.81814739010423,171.48391907391348,0.0,0.0922218039631843,0,0,0
16011,548176.7986320261,2010-10-14 22:46:30,158.12267232757023,4,47,0.4475305378437042,4.199653148651123,47.89322459365883,46.940598693668186,190.8507600187712,171.48391907391348,3.24249267578125e-05,0.0922218039631843,0,0,0
16012,548270.0160985399,2010-10-14 22:48:03,251.34013880132025,4,47,0.3973211646080017,4.199653148651123,47.90413638863504,46.940598693668186,190.8965865537747,171.48391907391348,-3.23295607813634e-05,0.0922218039631843,0,0,0
16013,548389.4048669207,2010-10-14 22:50:03,370.7289072071933,4,47,0.3472923934459686,4.199653148651123,47.91647215383527,46.940598693668186,190.94839332166447,171.48391907391348,-3.23295607813634e-05,0.0922218039631843,0,0,0
16014,548532.4809658627,2010-10-14 22:52:26,513.8050061792468,4,47,0.2970830202102661,4.199653148651123,47.92926505340954,46.940598693668186,191.00212001960728,171.48391907391348,-3.23295607813634e-05,0.0922218039631843,0,0,0
16015,548703.790816366,2010-10-14 22:55:17,685.1148566573614,4,47,0.247054249048233,4.199814796447754,47.94219248807436,46.940598693668186,191.05641172560155,171.48391907391348,3.23295607813634e-05,0.0922218039631843,0,0,0
16016,548916.1470727623,2010-10-14 22:58:49,897.4711131489252,4,47,0.1970254778861999,4.199653148651123,47.95525267313538,46.940598693668186,191.1112609130631,171.48391907391348,0.0,0.0922218039631843,0,0,0
16017,549193.3773453031,2010-10-14 23:03:27,1174.7013855944815,4,47,0.1469967067241668,4.199653148651123,47.9684209249591,46.940598693668186,191.16656393602184,171.48391907391348,-3.23295607813634e-05,0.0922218039631843,0,0,0
16018,549602.5587910678,2010-10-14 23:10:16,1583.8828313242234,4,47,0.0969679355621337,4.199653148651123,47.982096818308186,46.940598693668186,191.22399870662696,171.48391907391348,-3.23295607813634e-05,0.0922218039631843,0,0,0
16019,550307.3609018552,2010-10-14 23:22:01,2288.684942146581,4,47,0.0498289167881011,4.199653148651123,47.99598034789612,46.940598693668186,191.28230584281,171.48391907391348,-3.23295607813634e-05,0.0922218039631843,0,0,0
16020,550337.3953605094,2010-10-14 23:22:31,30.015159327477715,5,47,0.0,4.192044734954834,47.99598034789612,46.940598693668186,191.28230584281,171.48391907391348,-3.23295607813634e-05,0.0922218039631843,0,0,0
16021,550367.3949274408,2010-10-14 23:23:01,60.014726238856845,5,47,0.0,4.190749645233154,47.99598034789612,46.940598693668186,191.28230584281,171.48391907391348,-3.23295607813634e-05,0.0922218039631843,0,0,0
16022,550367.6027577153,2010-10-14 23:23:01,0.187626583176532,6,47,-1.9243103452026844e-05,4.190749645233154,47.99598034789612,46.94059869467111,191.28230584281,171.48391907811646,0.0,0.0923885703086853,0,0,0
16023,550372.4306746046,2010-10-14 23:23:06,5.015543457540331,6,47,0.0008838032954372,4.190749645233154,47.995981331777166,46.94059869475642,191.2823099660949,171.48391907847397,-3.23295607813634e-05,0.0923885703086853,0,0,0
16024,550402.4349241835,2010-10-14 23:23:36,30.015193502652764,7,47,-1.099568486213684,4.017693519592285,47.995981331777166,46.9497668332522,191.2823099660949,171.52094810081823,-0.0009065627818927,0.0923885703086853,0,0,0
16025,550432.450362401,2010-10-14 23:24:06,60.03063171519788,7,47,-1.099568486213684,3.991144418716431,47.995981331777166,46.95893508565377,191.2823099660949,171.55765238778923,-0.0005827426793985,0.0923885703086853,0,0,0
16026,550462.4652783569,2010-10-14 23:24:36,90.04554765608131,7,47,-1.099568486213684,3.972851276397705,47.995981331777166,46.96810315351886,191.2823099660949,171.59415572172875,-0.0004209041653666,0.0923885703086853,0,0,0
16027,550492.480619302,2010-10-14 23:25:06,120.060888661356,7,47,-1.099568486213684,3.958929061889648,47.995981331777166,46.97727125301182,191.2823099660949,171.6305131800543,-0.0003885269106831,0.0923885703086853,0,0,0
16028,550522.4958345088,2010-10-14 23:25:36,150.07610380293966,7,47,-1.099568486213684,3.947111368179321,47.995981331777166,46.986439312104665,191.2823099660949,171.66675267604245,-0.0002913951757363,0.0923885703086853,0,0,0
16029,550552.5108265894,2010-10-14 23:26:06,180.09109590363676,7,47,-1.099568486213684,3.936426877975464,47.995981331777166,46.99560735316348,191.2823099660949,171.7028904616593,-0.0003237724304199,0.0923885703086853,0,0,0
16030,550582.5260056761,2010-10-14 23:26:36,210.1062749953731,7,47,-1.099568486213684,3.926875591278076,47.995981331777166,47.0047754015154,191.2823099660949,171.738936167852,-0.0002266406954731,0.0923885703086853,0,0,0
16031,550612.5411881764,2010-10-14 23:27:06,240.121457470542,7,47,-1.0997490882873535,3.917648077011109,47.995981331777166,47.013943535179685,191.2823099660949,171.77489574159023,-0.0002590179501567,0.0923885703086853,0,0,0
16032,550642.5563815588,2010-10-14 23:27:36,270.13665085790745,7,47,-1.099568486213684,3.9089064598083496,47.995981331777166,47.02311165920528,191.2823099660949,171.8107727633732,-0.0002266406954731,0.0923885703086853,0,0,0
16033,550672.5716621084,2010-10-14 23:28:06,300.1519314375829,7,47,-1.0997490882873535,3.900164604187012,47.995981331777166,47.03227978714239,191.2823099660949,171.84656966499176,-0.0002590179501567,0.0923885703086853,0,0,0
16034,550702.586965134,2010-10-14 23:28:36,330.1672345734754,7,47,-1.099568486213684,3.891908407211304,47.995981331777166,47.041447893047184,191.2823099660949,171.88228947797532,-0.0002266406954731,0.0923885703086853,0,0,0
16035,550732.6019066987,2010-10-14 23:29:06,360.1821760129091,7,47,-1.099568486213684,3.8838140964508057,47.995981331777166,47.05061595470699,191.2823099660949,171.91793411810514,-0.0002266406954731,0.0923885703086853,0,0,0
16036,550762.6171076901,2010-10-14 23:29:36,390.1973770393134,7,47,-1.099568486213684,3.8758816719055176,47.995981331777166,47.059784087403145,191.2823099660949,171.95350510971411,-0.0001942634553415,0.0923885703086853,0,0,0
16037,550792.6322779097,2010-10-14 23:30:06,420.2125472539251,7,47,-1.0997490882873535,3.8679492473602295,47.995981331777166,47.06895220883873,191.2823099660949,171.98900342016648,-0.0001942634553415,0.0923885703086853,0,0,0
16038,550822.6474568009,2010-10-14 23:30:36,450.2277261150868,7,47,-1.0993878841400146,3.860340595245361,47.995981331777166,47.07812036885084,191.2823099660949,172.02443025335265,-0.0001942634553415,0.0923885703086853,0,0,0
16039,550852.6626282836,2010-10-14 23:31:06,480.2428975677843,7,47,-1.099568486213684,3.852731943130493,47.995981331777166,47.08728849933647,191.2823099660949,172.0597862800186,-0.0001618862152099,0.0923885703086853,0,0,0
16040,550882.6779475047,2010-10-14 23:31:36,510.2582167987909,7,47,-1.0997490882873535,3.845123291015625,47.995981331777166,47.09645666677621,191.2823099660949,172.0950734390009,-0.0002266406954731,0.0923885703086853,0,0,0
16041,550912.6931366114,2010-10-14 23:32:06,540.27340593055,7,47,-1.099568486213684,3.837676525115967,47.995981331777166,47.10562485626084,191.2823099660949,172.13029233066823,-0.0002266406954731,0.0923885703086853,0,0,0
16042,550942.7081780098,2010-10-14 23:32:36,570.2884473090626,7,47,-1.099568486213684,3.8303918838500977,47.995981331777166,47.114792974123965,191.2823099660949,172.16544383865764,-0.0001618862152099,0.0923885703086853,0,0,0
16043,550972.723364896,2010-10-14 23:33:06,600.3036341852,7,47,-1.099568486213684,3.8232688903808594,47.995981331777166,47.12396116762123,191.2823099660949,172.20052919122995,-0.0002266406954731,0.0923885703086853,0,0,0
16044,551002.741350247,2010-10-14 23:33:36,630.3216196713347,7,47,-1.0997490882873535,3.816145896911621,47.995981331777166,47.13313020425448,191.2823099660949,172.235552502441,-0.0001942634553415,0.0923885703086853,0,0,0
16045,551032.7537546733,2010-10-14 23:34:06,660.3340239975015,7,47,-1.099568486213684,3.8093466758728023,47.995981331777166,47.14229753094747,191.2823099660949,172.27050486656833,-0.0001618862152099,0.0923885703086853,0,0,0
16046,551062.768907274,2010-10-14 23:34:36,690.3491765631267,7,47,-1.0997490882873535,3.8023855686187744,47.995981331777166,47.15146569492826,191.2823099660949,172.3053976123843,-0.0001942634553415,0.0923885703086853,0,0,0
16047,551092.7840950374,2010-10-14 23:35:06,720.3643643615626,7,47,-1.099568486213684,3.795910120010376,47.995981331777166,47.16063383495448,191.2823099660949,172.34022899173118,-0.0001618862152099,0.0923885703086853,0,0,0
16048,551122.799422088,2010-10-14 23:35:36,750.3796914120577,7,47,-1.099568486213684,3.789596557617188,47.995981331777166,47.16980207713229,191.2823099660949,172.3750009238192,-0.0001295089750783,0.0923885703086853,0,0,0
16049,551152.8145888689,2010-10-14 23:36:06,780.3948582081496,7,47,-1.099568486213684,3.782959222793579,47.995981331777166,47.17897021485946,191.2823099660949,172.40971356970863,-0.0001618862152099,0.0923885703086853,0,0,0
16050,551182.8296527534,2010-10-14 23:36:36,810.4099220476418,7,47,-1.099568486213684,3.776645660400391,47.995981331777166,47.188138294666594,191.2823099660949,172.44436785074558,-0.0001618862152099,0.0923885703086853,0,0,0
16051,551212.8448172389,2010-10-14 23:37:06,840.4250865530245,7,47,-1.099568486213684,3.770493984222412,47.995981331777166,47.19730644855895,191.2823099660949,172.47896530537398,-0.0001618862152099,0.0923885703086853,0,0,0
16052,551242.8600456384,2010-10-14 23:37:36,870.4403149326013,7,47,-1.099568486213684,3.7643423080444336,47.995981331777166,47.2064746083949,191.2823099660949,172.51350647079445,-0.0001618862152099,0.0923885703086853,0,0,0
16053,551272.8751795526,2010-10-14 23:38:07,900.4554488667912,7,47,-1.099568486213684,3.758514404296875,47.995981331777166,47.215642783672784,191.2823099660949,172.54799259274347,-0.0001618862152099,0.0923885703086853,0,0,0
16054,551302.8904857059,2010-10-14 23:38:37,930.4707550302292,7,47,-1.099568486213684,3.752686738967896,47.995981331777166,47.22481093689425,191.2823099660949,172.58242545900345,-0.0001618385285837,0.0923885703086853,0,0,0
16055,551332.9055637409,2010-10-14 23:39:07,960.485833080138,7,47,-1.0993878841400146,3.747182607650757,47.995981331777166,47.233979021635925,191.2823099660949,172.61680525152497,-0.0001295089750783,0.0923885703086853,0,0,0
16056,551362.9208626562,2010-10-14 23:39:37,990.5011320105494,7,47,-1.099568486213684,3.741516590118408,47.995981331777166,47.24314720124238,191.2823099660949,172.65113347660414,-0.0001295089750783,0.0923885703086853,0,0,0
16057,551392.9359120497,2010-10-14 23:40:07,1020.5161813639378,7,47,-1.099568486213684,3.73585057258606,47.995981331777166,47.25231535937072,191.2823099660949,172.68540988978572,-0.0001618862152099,0.0923885703086853,0,0,0
16058,551422.9510951916,2010-10-14 23:40:37,1050.5313644857183,7,47,-1.0997490882873535,3.730508327484131,47.995981331777166,47.2614835570357,191.2823099660949,172.71963662175128,-0.0001295089750783,0.0923885703086853,0,0,0
16059,551452.9663009548,2010-10-14 23:41:07,1080.5465702990532,7,47,-1.0997490882873535,3.725166082382202,47.995981331777166,47.270651768007816,191.2823099660949,172.75381458005498,-0.0001618862152099,0.0923885703086853,0,0,0
16060,551482.9816678546,2010-10-14 23:41:37,1110.5619372640274,7,47,-1.099568486213684,3.720147609710693,47.995981331777166,47.27982004393135,191.2823099660949,172.78794466409866,-9.713172767078504e-05,0.0923885703086853,0,0,0
16061,551512.9966613539,2010-10-14 23:42:07,1140.576930677997,7,47,-1.0997490882873535,3.7148053646087646,47.995981331777166,47.28898821915681,191.2823099660949,172.82202698528488,-0.0001618862152099,0.0923885703086853,0,0,0
16062,551543.0118527261,2010-10-14 23:42:37,1170.5921220152534,7,47,-1.099568486213684,3.709948778152466,47.995981331777166,47.29815644127818,191.2823099660949,172.85606289496872,-9.713172767078504e-05,0.0923885703086853,0,0,0
16063,551573.0270199182,2010-10-14 23:43:07,1200.607289217357,7,47,-1.099568486213684,3.705092191696167,47.995981331777166,47.3073246280854,191.2823099660949,172.89005275027603,-6.47544875391759e-05,0.0923885703086853,0,0,0
16064,551603.0422060124,2010-10-14 23:43:37,1230.6224753015206,7,47,-1.099929690361023,3.699911832809448,47.995981331777166,47.31649285086051,191.2823099660949,172.9239975914908,-0.0001295089750783,0.0923885703086853,0,0,0
16065,551633.0575479601,2010-10-14 23:44:07,1260.6378172541563,7,47,-1.099568486213684,3.69521713256836,47.995981331777166,47.32566113804791,191.2823099660949,172.9578981439757,-0.0001295089750783,0.0923885703086853,0,0,0
16066,551663.0725587723,2010-10-14 23:44:37,1290.6528280965638,7,47,-1.099568486213684,3.6905224323272714,47.995981331777166,47.334829321774535,191.2823099660949,172.9917542285356,-9.713172767078504e-05,0.0923885703086853,0,0,0
16067,551693.0877480846,2010-10-14 23:45:07,1320.6680173786976,7,47,-1.0997490882873535,3.685665845870972,47.995981331777166,47.34399748265111,191.2823099660949,173.02556680328382,-0.0001295089750783,0.0923885703086853,0,0,0
16068,551723.1029312966,2010-10-14 23:45:37,1350.6832005856909,7,47,-1.099568486213684,3.6811330318450928,47.995981331777166,47.353165658457165,191.2823099660949,173.0593372098931,-0.0001295089750783,0.0923885703086853,0,0,0
16069,551753.1181460121,2010-10-14 23:46:07,1380.6984154565996,7,47,-1.099568486213684,3.676762104034424,47.995981331777166,47.36233386921694,191.2823099660949,173.09306566101856,-9.713172767078504e-05,0.0923885703086853,0,0,0
16070,551783.1333049536,2010-10-14 23:46:37,1410.7135742778155,7,47,-1.0997490882873535,3.672067642211914,47.995981331777166,47.37150206930552,191.2823099660949,173.12675232516537,-0.0001294612884521,0.0923885703086853,0,0,0
16071,551813.1485691925,2010-10-14 23:47:07,1440.7288386019773,7,47,-1.099568486213684,3.667534828186035,47.995981331777166,47.38067038794471,191.2823099660949,173.1603983239029,-0.0001295089750783,0.0923885703086853,0,0,0
16072,551843.1636616284,2010-10-14 23:47:37,1470.7439309224528,7,47,-1.0997490882873535,3.663163900375366,47.995981331777166,47.38983856763836,191.2823099660949,173.19400318722822,-0.0001295089750783,0.0923885703086853,0,0,0
16073,551873.1788394819,2010-10-14 23:48:07,1500.7591088061783,7,47,-1.099568486213684,3.658792972564697,47.995981331777166,47.39900677950778,191.2823099660949,173.2275680788298,-9.713172767078504e-05,0.0923885703086853,0,0,0
16074,551903.194015917,2010-10-14 23:48:37,1530.7742852112187,7,47,-1.099568486213684,3.6545839309692383,47.995981331777166,47.40817500834836,191.2823099660949,173.2610938299493,-9.713172767078504e-05,0.0923885703086853,0,0,0
16075,551933.2093262359,2010-10-14 23:49:07,1560.7895955350257,7,47,-1.0997490882873535,3.6503748893737793,47.995981331777166,47.41734324150684,191.2823099660949,173.29458132668378,-0.0001295089750783,0.0923885703086853,0,0,0
16076,551963.224419223,2010-10-14 23:49:37,1590.8046885372005,7,47,-1.0997490882873535,3.64616584777832,47.995981331777166,47.42651148346338,191.2823099660949,173.32803067308333,-0.0001295089750783,0.0923885703086853,0,0,0
16077,551993.2395710066,2010-10-14 23:50:07,1620.8198403258891,7,47,-1.099568486213684,3.642442464828491,47.995981331777166,47.435679654451526,191.2823099660949,173.36144243750255,-6.47544875391759e-05,0.0923885703086853,0,0,0
16078,552023.2547649504,2010-10-14 23:50:37,1650.8350342746537,7,47,-1.099929690361023,3.638233423233032,47.995981331777166,47.444847829992696,191.2823099660949,173.39481783251372,-0.0001295089750783,0.0923885703086853,0,0,0
16079,552053.2700578208,2010-10-14 23:51:07,1680.8503271549864,7,47,-1.0997490882873535,3.634510040283203,47.995981331777166,47.454016011306216,191.2823099660949,173.42815746221572,-9.713172767078504e-05,0.0923885703086853,0,0,0
16080,552083.2852661053,2010-10-14 23:51:37,1710.8655354444925,7,47,-1.099568486213684,3.630624771118164,47.995981331777166,47.463184169001416,191.2823099660949,173.46146188488603,-0.0001295089750783,0.0923885703086853,0,0,0
16081,552113.3003024613,2010-10-14 23:52:07,1740.8805717503624,7,47,-1.0993878841400146,3.627225160598755,47.995981331777166,47.47235227518888,191.2823099660949,173.49473191088288,-6.47544875391759e-05,0.0923885703086853,0,0,0
16082,552143.3154929564,2010-10-14 23:52:37,1770.8957622806072,7,47,-1.099568486213684,3.623501777648926,47.995981331777166,47.48152048955217,191.2823099660949,173.52796885774703,-6.47544875391759e-05,0.0923885703086853,0,0,0
16083,552173.3306967147,2010-10-14 23:53:07,1800.9109660137574,7,47,-1.099568486213684,3.619940280914306,47.995981331777166,47.49068870833182,191.2823099660949,173.56117326382213,-9.713172767078504e-05,0.0923885703086853,0,0,0
16084,552203.3458351049,2010-10-14 23:53:37,1830.926104454178,7,47,-1.099568486213684,3.616378784179688,47.995981331777166,47.49985690245794,191.2823099660949,173.59434574020352,-0.0001295089750783,0.0923885703086853,0,0,0
16085,552233.3610161365,2010-10-14 23:54:07,1860.9412854306115,7,47,-1.099568486213684,3.613141059875488,47.995981331777166,47.50902513168504,191.2823099660949,173.62748708465404,-6.47544875391759e-05,0.0923885703086853,0,0,0
16086,552263.3761922257,2010-10-14 23:54:37,1890.956461519865,7,47,-1.099568486213684,3.609903335571289,47.995981331777166,47.5181932993538,191.2823099660949,173.6605979219498,-0.0001295089750783,0.0923885703086853,0,0,0
16087,552293.3913807159,2010-10-14 23:55:07,1920.9716500401,7,47,-1.099929690361023,3.60666561126709,47.995981331777166,47.5273614448431,191.2823099660949,173.69367913039912,-6.47544875391759e-05,0.0923885703086853,0,0,0
16088,552323.4066976211,2010-10-14 23:55:37,1950.9869669503223,7,47,-1.099568486213684,3.6035897731781006,47.995981331777166,47.53652965436613,191.2823099660949,173.72673138403854,-6.47544875391759e-05,0.0923885703086853,0,0,0
16089,552353.4219901306,2010-10-14 23:56:07,1981.0022594647428,7,47,-1.0993878841400146,3.6005139350891118,47.995981331777166,47.545697902052666,191.2823099660949,173.75975511062487,-6.47544875391759e-05,0.0923885703086853,0,0,0
16090,552383.4369308281,2010-10-14 23:56:37,2011.017200177365,7,47,-1.099568486213684,3.597438097000122,47.995981331777166,47.55486599251794,191.2823099660949,173.7927502534527,-6.47544875391759e-05,0.0923885703086853,0,0,0
16091,552413.4522134829,2010-10-14 23:57:07,2041.0324828322127,7,47,-1.099568486213684,3.594362258911133,47.995981331777166,47.5640342440264,191.2823099660949,173.8257180287649,-6.47544875391759e-05,0.0923885703086853,0,0,0
16092,552443.467285593,2010-10-14 23:57:37,2071.0475549072303,7,47,-1.0997490882873535,3.5914485454559326,47.995981331777166,47.57320238520691,191.2823099660949,173.85865821968213,-6.47544875391759e-05,0.0923885703086853,0,0,0
16093,552473.482487627,2010-10-14 23:58:07,2101.062756956183,7,47,-1.099568486213684,3.5885345935821533,47.995981331777166,47.582370562737005,191.2823099660949,173.89157163274228,-9.713172767078504e-05,0.0923885703086853,0,0,0
16094,552503.4976698365,2010-10-14 23:58:37,2131.077939155665,7,47,-1.0997490882873535,3.585782527923584,47.995981331777166,47.59153875603636,191.2823099660949,173.9244585126098,-6.47544875391759e-05,0.0923885703086853,0,0,0
16095,552533.5128340361,2010-10-14 23:59:07,2161.0931033653105,7,47,-1.0997490882873535,3.5827066898345947,47.995981331777166,47.600706907120895,191.2823099660949,173.95731872990186,-9.713172767078504e-05,0.0923885703086853,0,0,0
16096,552563.5280306967,2010-10-14 23:59:37,2191.108300010796,7,47,-1.099568486213684,3.5797927379608154,47.995981331777166,47.60987520313578,191.2823099660949,173.9901531960995,-9.713172767078504e-05,0.0923885703086853,0,0,0
16097,552593.5433466093,2010-10-15 00:00:07,2221.123615908495,7,47,-1.099568486213684,3.576878786087036,47.995981331777166,47.61904344757516,191.2823099660949,174.0229611288708,-9.713172767078504e-05,0.0923885703086853,0,0,0
16098,552623.5583787047,2010-10-15 00:00:37,2251.138648003871,7,47,-1.099568486213684,3.573802947998047,47.995981331777166,47.62821163020138,191.2823099660949,174.05574222263257,-0.0001295089750783,0.0923885703086853,0,0,0
16099,552653.5736855649,2010-10-15 00:01:07,2281.153954859033,7,47,-1.099568486213684,3.5712127685546875,47.995981331777166,47.63737985897357,191.2823099660949,174.08849691964,-9.713172767078504e-05,0.0923885703086853,0,0,0
16100,552683.5888083463,2010-10-15 00:01:37,2311.169077670502,7,47,-1.099568486213684,3.568298816680908,47.995981331777166,47.646548062454464,191.2823099660949,174.1212247289998,-6.47544875391759e-05,0.0923885703086853,0,0,0
16101,552713.6040611768,2010-10-15 00:02:07,2341.184330480968,7,47,-1.0997490882873535,3.565222978591919,47.995981331777166,47.65571628453199,191.2823099660949,174.15392550344106,-9.713172767078504e-05,0.0923885703086853,0,0,0
16102,552743.6192323487,2010-10-15 00:02:37,2371.199501647953,7,47,-1.0993878841400146,3.5624709129333496,47.995981331777166,47.66488444063441,191.2823099660949,174.18659874621653,-6.47544875391759e-05,0.0923885703086853,0,0,0
16103,552773.6342977171,2010-10-15 00:03:07,2401.214567011243,7,47,-1.099568486213684,3.5593950748443604,47.995981331777166,47.67405261342693,191.2823099660949,174.21924509688142,-6.47544875391759e-05,0.0923885703086853,0,0,0
16104,552803.6496156148,2010-10-15 00:03:37,2431.229884923964,7,47,-1.099568486213684,3.556157350540161,47.995981331777166,47.68322085303571,191.2823099660949,174.25186372834605,-6.47544875391759e-05,0.0923885703086853,0,0,0
16105,552833.6647798496,2010-10-15 00:04:07,2461.2450491486475,7,47,-1.099568486213684,3.553081512451172,47.995981331777166,47.69238903901226,191.2823099660949,174.2844537500079,-9.713172767078504e-05,0.0923885703086853,0,0,0
16106,552863.6798418043,2010-10-15 00:04:37,2491.2601111234926,7,47,-1.099568486213684,3.5498437881469727,47.995981331777166,47.70155716185515,191.2823099660949,174.31701457934065,-9.713172767078504e-05,0.0923885703086853,0,0,0
16107,552893.6950293471,2010-10-15 00:05:07,2521.275298671304,7,47,-1.099568486213684,3.546606063842773,47.995981331777166,47.71072535203406,191.2823099660949,174.3495458537472,-9.713172767078504e-05,0.0923885703086853,0,0,0
16108,552923.7129902269,2010-10-15 00:05:37,2551.2932596814367,7,47,-1.099568486213684,3.5432064533233643,47.995981331777166,47.71989440545372,191.2823099660949,174.38204984073414,-6.47544875391759e-05,0.0923885703086853,0,0,0
16109,552953.725435445,2010-10-15 00:06:07,2581.3057047942566,7,47,-1.099568486213684,3.539968729019165,47.995981331777166,47.72906140821552,191.2823099660949,174.41451535228626,-3.237724376958795e-05,0.0923885703086853,0,0,0
16110,552983.740588602,2010-10-15 00:06:37,2611.3208579012307,7,47,-1.099568486213684,3.536245346069336,47.995981331777166,47.73822940130156,191.2823099660949,174.44695238710102,-0.0001295089750783,0.0923885703086853,0,0,0
16111,553013.7558144253,2010-10-15 00:07:07,2641.336083744486,7,47,-1.0997490882873535,3.532521963119507,47.995981331777166,47.74739765174064,191.2823099660949,174.47935713194474,-0.0001295089750783,0.0923885703086853,0,0,0
16112,553043.7711079322,2010-10-15 00:07:37,2671.3513772313304,7,47,-1.099568486213684,3.5287985801696777,47.995981331777166,47.756565891181495,191.2823099660949,174.51172753478335,-0.0001295089750783,0.0923885703086853,0,0,0
16113,553073.7862729438,2010-10-15 00:08:07,2701.3665422680374,7,47,-1.099568486213684,3.5247514247894287,47.995981331777166,47.76573408454646,191.2823099660949,174.54406167913712,-9.713172767078504e-05,0.0923885703086853,0,0,0
16114,553103.8013357659,2010-10-15 00:08:37,2731.3816050549062,7,47,-1.0997490882873535,3.5205423831939697,47.995981331777166,47.77490224546185,191.2823099660949,174.5763579041354,-9.713172767078504e-05,0.0923885703086853,0,0,0
16115,553133.8165519149,2010-10-15 00:09:07,2761.3968212140257,7,47,-1.099568486213684,3.516171455383301,47.995981331777166,47.78407046027024,191.2823099660949,174.60861485467507,-9.713172767078504e-05,0.0923885703086853,0,0,0
16116,553163.8317386907,2010-10-15 00:09:37,2791.4120079798886,7,47,-1.0997490882873535,3.511315107345581,47.995981331777166,47.79323872314716,191.2823099660949,174.64082997687134,-0.0001294612884521,0.0923885703086853,0,0,0
16117,553193.8468860384,2010-10-15 00:10:08,2821.4271555831456,7,47,-1.099568486213684,3.5062966346740723,47.995981331777166,47.802406983820745,191.2823099660949,174.67300043815013,-0.0001618862152099,0.0923885703086853,0,0,0
16118,553223.8620913655,2010-10-15 00:10:38,2851.442360714781,7,47,-1.0997490882873535,3.5007925033569336,47.995981331777166,47.81157528900368,191.2823099660949,174.7051227388807,-0.0001295089750783,0.0923885703086853,0,0,0
16119,553253.877246728,2010-10-15 00:11:08,2881.4575160272525,7,47,-1.099568486213684,3.494802713394165,47.995981331777166,47.8207435408618,191.2823099660949,174.7371921680232,-0.0001618862152099,0.0923885703086853,0,0,0
16120,553283.8925690067,2010-10-15 00:11:38,2911.472838330917,7,47,-1.099568486213684,3.4880034923553467,47.995981331777166,47.82991183635912,191.2823099660949,174.76920287153402,-0.0002266406954731,0.0923885703086853,0,0,0
16121,553313.9076127161,2010-10-15 00:12:08,2941.487882015176,7,47,-1.0997490882873535,3.4803948402404785,47.995981331777166,47.83908008933809,191.2823099660949,174.80114767378495,-0.0001942634553415,0.0923885703086853,0,0,0
16122,553343.9228058277,2010-10-15 00:12:38,2971.5030751218424,7,47,-1.0997490882873535,3.4716529846191406,47.995981331777166,47.848248328268006,191.2823099660949,174.83301759838966,-0.0002266406954731,0.0923885703086853,0,0,0
16123,553373.9379877114,2010-10-15 00:13:08,3001.5182570105494,7,47,-1.099568486213684,3.461454153060913,47.995981331777166,47.85741651378586,191.2823099660949,174.86480124464924,-0.0002913951757363,0.0923885703086853,0,0,0
16124,553403.9533985708,2010-10-15 00:13:38,3031.5336679902216,7,47,-1.0993878841400146,3.449474573135376,47.995981331777166,47.86658480613272,191.2823099660949,174.89648452314617,-0.0003561496851034,0.0923885703086853,0,0,0
16125,553433.9683858043,2010-10-15 00:14:08,3061.5486551085014,7,47,-1.099568486213684,3.4352285861968994,47.995981331777166,47.875752968252925,191.2823099660949,174.92804692700994,-0.0003885269106831,0.0923885703086853,0,0,0
16126,553463.9836469205,2010-10-15 00:14:38,3091.563916344968,7,47,-1.099568486213684,3.416935682296753,47.995981331777166,47.88492131025835,191.2823099660949,174.95946118304948,-0.0005180359003134,0.0923885703086853,0,0,0
16127,553493.9989619812,2010-10-15 00:15:08,3121.579231335405,7,47,-1.0993878841400146,3.3931384086608887,47.995981331777166,47.89408957487763,191.2823099660949,174.99068450846477,-0.0007446765666827,0.0923885703086853,0,0,0
16128,553524.0139491445,2010-10-15 00:15:38,3151.594218443659,7,47,-1.099568486213684,3.3602755069732666,47.995981331777166,47.90325705714956,191.2823099660949,175.02164907302284,-0.0010360718006268,0.0923885703086853,0,0,0
16129,553554.0291047427,2010-10-15 00:16:08,3181.6093740669053,7,47,-1.0997490882873535,3.313652515411377,47.995981331777166,47.9124246525505,191.2823099660949,175.05225385421735,-0.0014893531333655,0.0923885703086853,0,0,0
16130,553584.044291283,2010-10-15 00:16:38,3211.624560577131,7,47,-1.0997490882873535,3.2458224296569824,47.995981331777166,47.92159297340435,191.2823099660949,175.0823434700825,-0.0021692751906812,0.0923885703086853,0,0,0
16131,553614.0596179626,2010-10-15 00:17:08,3241.6398872617137,7,47,-1.0997490882873535,3.144643783569336,47.995981331777166,47.93076130276968,191.2823099660949,175.1116735717737,-0.003270101500675,0.0923885703086853,0,0,0
16132,553644.0746929599,2010-10-15 00:17:38,3271.65496230914,7,47,-1.099568486213684,2.9738543033599854,47.995981331777166,47.939929504911824,191.2823099660949,175.13981237706315,-0.0062488080002367,0.0923885703086853,0,0,0
16133,553661.3244297666,2010-10-15 00:17:55,3288.904699060736,7,47,-1.099568486213684,2.773601770401001,47.995981331777166,47.94519851073313,191.2823099660949,175.15500717598954,-0.0114614963531494,0.0923885703086853,0,0,0
16134,553666.05874626,2010-10-15 00:18:00,3293.63901567445,7,47,-1.0997490882873535,2.699943780899048,47.995981331777166,47.9466446318608,191.2823099660949,175.1589654499425,-0.0124975685030221,0.0923885703086853,0,0,0
16135,553726.095357454,2010-10-15 00:19:00,60.01469716138684,8,47,0.0,3.3269271850585938,47.995981331777166,47.9466446318608,191.2823099660949,175.1589654499425,0.0013598442310467,0.0923885703086853,0,0,0
16136,553726.305703556,2010-10-15 00:19:00,0.187517611585798,9,47,-1.9243103452026844e-05,3.327089071273804,47.9959813354787,47.9466446318608,191.28230997841,175.1589654499425,3.237724376958795e-05,0.0908498615026474,0,0,0
16137,553731.1338759874,2010-10-15 00:19:05,5.015690062926062,9,47,0.0007031940040178,3.335345268249512,47.99598218478332,47.94664463211228,191.2823128080875,175.15896545077948,0.0011979580158367,0.0908498615026474,0,0,0
