Data_Point,Test_Time(s),Date_Time,Step_Time(s),Step_Index,Cycle_Index,Current(A),Voltage(V),Charge_Capacity(Ah),Discharge_Capacity(Ah),Charge_Energy(Wh),Discharge_Energy(Wh),dV/dt(V/s),Internal_Resistance(Ohm),Is_FC_Data,AC_Impedance(Ohm),ACI_Phase_Angle(Deg)
9075,309299.37207208446,2010-10-12 04:24:47,30.015049218051143,1,27,0.0,3.3533143997192383,26.95228239747334,26.911573364303912,107.27417180008992,98.52699188610288,0.0007446288946084,0.0915781408548355,0,0,0
9076,309329.3893882375,2010-10-12 04:25:17,60.032365551451306,1,27,0.0,3.375816583633423,26.95228239747334,26.911573364303912,107.27417180008992,98.52699188610288,0.0005180359003134,0.0915781408548355,0,0,0
9077,309359.4024091804,2010-10-12 04:25:47,90.04538635907956,1,27,0.0,3.392652750015259,26.95228239747334,26.911573364303912,107.27417180008992,98.52699188610288,0.0003885269106831,0.0915781408548355,0,0,0
9078,309389.3706893105,2010-10-12 04:26:17,120.01366647413552,1,27,0.0,3.405927419662476,26.95228239747334,26.911573364303912,107.27417180008992,98.52699188610288,0.0003237724304199,0.0915781408548355,0,0,0
9079,309419.3887629338,2010-10-12 04:26:47,30.015176690752337,2,27,0.5501165986061096,3.564089775085449,26.956868747631376,26.911573364303912,107.290346921224,98.52699188610288,0.0016836166614666,0.0915781408548355,0,0,0
9080,309449.40394625603,2010-10-12 04:27:17,60.03035988772017,2,27,0.5501165986061096,3.6158931255340576,26.961455167756508,26.911573364303912,107.3068193727438,98.52699188610288,0.0011655807029455,0.0915781408548355,0,0,0
9081,309479.4190835035,2010-10-12 04:27:47,90.0454971000802,2,27,0.5501165986061096,3.653774499893189,26.9660415985172,26.911573364303912,107.32349422764696,98.52699188610288,0.0008418083307333,0.0915781408548355,0,0,0
9082,309509.4342406556,2010-10-12 04:28:17,120.0606542521361,2,27,0.5501165986061096,3.683723211288452,26.970627941990724,26.911573364303912,107.3403229711234,98.52699188610288,0.0007122993702068,0.0915781408548355,0,0,0
9083,309539.44953448325,2010-10-12 04:28:47,150.07594807982971,2,27,0.5501165986061096,3.708329916000366,26.97521432829133,26.911573364303912,107.35727594291023,98.52699188610288,0.0006475448608398,0.0915781408548355,0,0,0
9084,309569.4645849494,2010-10-12 04:29:17,180.09099854599154,2,27,0.5501165986061096,3.7288894653320312,26.97980065888948,26.911573364303912,107.3743317654546,98.52699188610288,0.0004856586456298,0.0915781408548355,0,0,0
9085,309599.47977187065,2010-10-12 04:29:47,210.10618546724143,2,27,0.5501165986061096,3.745887517929077,26.984387035619264,26.911573364303912,107.39147375018948,98.52699188610288,0.0004209041653666,0.0915781408548355,0,0,0
9086,309629.4968552836,2010-10-12 04:30:17,240.12326891521943,2,27,0.550297200679779,3.759161949157715,26.98897373127401,26.911573364303912,107.40868700261358,98.52699188610288,0.0002913951757363,0.0915781408548355,0,0,0
9087,309659.5101205856,2010-10-12 04:30:47,270.1365342071779,2,27,0.5501165986061096,3.767418146133423,26.993559865518677,26.911573364303912,107.4259474123048,98.52699188610288,0.0001942634553415,0.0915781408548355,0,0,0
9088,309689.5253276771,2010-10-12 04:31:17,300.15174132877326,2,27,0.5501165986061096,3.772436618804932,26.998146285328744,26.911573364303912,107.44323826779213,98.52699188610288,0.0001295089750783,0.0915781408548355,0,0,0
9089,309719.5404414811,2010-10-12 04:31:47,330.16685510773004,2,27,0.5499359965324402,3.775998115539551,27.002732708989537,26.911573364303912,107.4605482619974,98.52699188610288,9.713172767078504e-05,0.0915781408548355,0,0,0
9090,309749.55562752514,2010-10-12 04:32:17,360.1820411217188,2,27,0.5501165986061096,3.77923583984375,27.007319193863967,26.911573364303912,107.47787430446428,98.52699188610288,6.47544875391759e-05,0.0915781408548355,0,0,0
9091,309779.5709496133,2010-10-12 04:32:47,390.19736323490855,2,27,0.5499359965324402,3.782473564147949,27.01190560225797,26.911573364303912,107.4952150214076,98.52699188610288,9.713172767078504e-05,0.0915781408548355,0,0,0
9092,309809.5859323005,2010-10-12 04:33:17,420.212345897082,2,27,0.550297200679779,3.7858731746673584,27.01649197436492,26.911573364303912,107.51257035823292,98.52699188610288,0.0001618862152099,0.0915781408548355,0,0,0
9093,309839.60110902134,2010-10-12 04:33:47,450.2275226479842,2,27,0.5501165986061096,3.788949012756348,27.02107839248737,26.911573364303912,107.52994043759624,98.52699188610288,9.713172767078504e-05,0.0915781408548355,0,0,0
9094,309869.6162809252,2010-10-12 04:34:17,480.2426945518061,2,27,0.5499359965324402,3.792024850845337,27.025664917044253,26.911573364303912,107.54732525624053,98.52699188610288,9.713172767078504e-05,0.0915781408548355,0,0,0
9095,309899.6314292301,2010-10-12 04:34:47,510.2578428267374,2,27,0.5501165986061096,3.795100688934326,27.030251286401217,26.911573364303912,107.56472355056158,98.52699188610288,9.713172767078504e-05,0.0915781408548355,0,0,0
9096,309929.6466125274,2010-10-12 04:35:18,540.2730261590425,2,27,0.5501165986061096,3.7980146408081055,27.034837696778343,26.911573364303912,107.58213592649076,98.52699188610288,9.713172767078504e-05,0.0915781408548355,0,0,0
9097,309959.66177224583,2010-10-12 04:35:48,570.2881858724821,2,27,0.5501165986061096,3.8009285926818848,27.039424087453376,26.911573364303912,107.5995619513352,98.52699188610288,6.47544875391759e-05,0.0915781408548355,0,0,0
9098,309989.6769302449,2010-10-12 04:36:18,600.3033438716493,2,27,0.5499359965324402,3.803842544555664,27.0440105548646,26.911573364303912,107.61700167474876,98.52699188610288,6.47544875391759e-05,0.0915781408548355,0,0,0
9099,310019.6920930512,2010-10-12 04:36:48,630.3185066777969,2,27,0.550297200679779,3.806918382644653,27.048597013369985,26.911573364303912,107.63445469898512,98.52699188610288,6.47544875391759e-05,0.0915781408548355,0,0,0
9100,310049.7072592307,2010-10-12 04:37:18,660.3336729175021,2,27,0.5501165986061096,3.8095085620880127,27.053183529154584,26.911573364303912,107.65192124826387,98.52699188610288,3.237724376958795e-05,0.0915781408548355,0,0,0
9101,310079.7224563875,2010-10-12 04:37:48,690.3488699790246,2,27,0.550297200679779,3.812746286392212,27.05776999205005,26.911573364303912,107.66940083478788,98.52699188610288,0.0001295089750783,0.0915781408548355,0,0,0
9102,310109.73779346293,2010-10-12 04:38:18,720.3642070595176,2,27,0.5501165986061096,3.815660238265991,27.062356381508863,26.911573364303912,107.68689384238772,98.52699188610288,9.713172767078504e-05,0.0915781408548355,0,0,0
9103,310139.7527899546,2010-10-12 04:38:48,750.3792036664456,2,27,0.5501165986061096,3.818736076354981,27.066942796005065,26.911573364303912,107.70440057029056,98.52699188610288,0.0001295089750783,0.0915781408548355,0,0,0
9104,310169.76794654026,2010-10-12 04:39:18,780.3943601919399,2,27,0.5499359965324402,3.82165002822876,27.07152925284216,26.911573364303912,107.72192130689449,98.52699188610288,9.713172767078504e-05,0.0915781408548355,0,0,0
9105,310199.7831134717,2010-10-12 04:39:48,810.4095271033191,2,27,0.5501165986061096,3.824887752532959,27.07611564435999,26.911573364303912,107.73945598534397,98.52699188610288,9.713172767078504e-05,0.0915781408548355,0,0,0
9106,310229.800200258,2010-10-12 04:40:18,840.4266138996421,2,27,0.5499359965324402,3.827963590621948,27.08070235847175,26.911573364303912,107.75700662253432,98.52699188610288,6.47544875391759e-05,0.0915781408548355,0,0,0
9107,310259.8134176155,2010-10-12 04:40:48,870.4398312671582,2,27,0.5501165986061096,3.831363201141357,27.08528845425561,26.911573364303912,107.77456990602708,98.52699188610288,9.713172767078504e-05,0.0915781408548355,0,0,0
9108,310289.8286077347,2010-10-12 04:41:18,900.4550213613159,2,27,0.5499359965324402,3.8346006870269775,27.089874869496445,26.911573364303912,107.79214964252728,98.52699188610288,6.47544875391759e-05,0.0915781408548355,0,0,0
9109,310319.84387893096,2010-10-12 04:41:48,930.4702925325428,2,27,0.550297200679779,3.8380002975463863,27.09446119075901,26.911573364303912,107.80974450010184,98.52699188610288,9.713172767078504e-05,0.0915781408548355,0,0,0
9110,310349.85890208406,2010-10-12 04:42:18,960.4853157708442,2,27,0.5499359965324402,3.841399908065796,27.09904752144236,26.911573364303912,107.82735485934792,98.52699188610288,9.713172767078504e-05,0.0915781408548355,0,0,0
9111,310379.8740796119,2010-10-12 04:42:48,990.5004932335204,2,27,0.5499359965324402,3.844637632369995,27.103633972595723,26.911573364303912,107.84498096872012,98.52699188610288,3.237724376958795e-05,0.0915781408548355,0,0,0
9112,310409.88926883385,2010-10-12 04:43:18,1020.5156824605168,2,27,0.5497553944587708,3.8478753566741934,27.1082203452888,26.911573364303912,107.86262195472648,98.52699188610288,6.47544875391759e-05,0.0915781408548355,0,0,0
9113,310439.9044126176,2010-10-12 04:43:48,1050.5308262442547,2,27,0.5501165986061096,3.851274967193604,27.11280673068955,26.911573364303912,107.88027783835835,98.52699188610288,9.713172767078504e-05,0.0915781408548355,0,0,0
9114,310469.9195628775,2010-10-12 04:44:18,1080.5459765642831,2,27,0.5499359965324402,3.8543508052825928,27.11739318027032,26.911573364303912,107.89794856708023,98.52699188610288,6.47544875391759e-05,0.0915781408548355,0,0,0
9115,310499.934867868,2010-10-12 04:44:48,1110.5612814645733,2,27,0.5501165986061096,3.857426643371582,27.121979585744207,26.911573364303912,107.9156335288164,98.52699188610288,9.713172767078504e-05,0.0915781408548355,0,0,0
9116,310529.9498886652,2010-10-12 04:45:18,1140.5763022617907,2,27,0.5501165986061096,3.8605024814605713,27.12656600914026,26.911573364303912,107.93333264034815,98.52699188610288,6.47544875391759e-05,0.0915781408548355,0,0,0
9117,310559.965453774,2010-10-12 04:45:48,1170.5918673806257,2,27,0.5499359965324402,3.863416433334351,27.131152479908412,26.911573364303912,107.95104566058588,98.52699188610288,3.237724376958795e-05,0.0915781408548355,0,0,0
9118,310589.9803463968,2010-10-12 04:46:18,1200.6067599983808,2,27,0.5501165986061096,3.86633038520813,27.13573884511836,26.911573364303912,107.96877153120164,98.52699188610288,9.713172767078504e-05,0.0915781408548355,0,0,0
9119,310619.9953738957,2010-10-12 04:46:48,1230.6217874822637,2,27,0.5499359965324402,3.869082450866699,27.14032525115919,26.911573364303912,107.98651035818696,98.52699188610288,6.47544875391759e-05,0.0915781408548355,0,0,0
9120,310650.0105367169,2010-10-12 04:47:18,1260.6369503736234,2,27,0.5501165986061096,3.8716726303100586,27.14491162748409,26.911573364303912,108.00426129956928,98.52699188610288,6.47544875391759e-05,0.0915781408548355,0,0,0
9121,310680.0258402839,2010-10-12 04:47:48,1290.6522539355778,2,27,0.550297200679779,3.874100923538208,27.149498103739,26.911573364303912,108.02202427443908,98.52699188610288,6.47544875391759e-05,0.0915781408548355,0,0,0
9122,310710.0408770509,2010-10-12 04:48:18,1320.6672906474598,2,27,0.5501165986061096,3.876367330551148,27.154084461344112,26.911573364303912,108.03979762788693,98.52699188610288,3.237724376958795e-05,0.0915781408548355,0,0,0
9123,310740.0562790231,2010-10-12 04:48:48,1350.6826926246954,2,27,0.5501165986061096,3.878633737564087,27.15867084617778,26.911573364303912,108.05758144502607,98.52699188610288,6.47544875391759e-05,0.0915781408548355,0,0,0
9124,310770.0712081068,2010-10-12 04:49:18,1380.697621703322,2,27,0.5499359965324402,3.8805763721466064,27.16325721969999,26.911573364303912,108.07537484872364,98.52699188610288,6.47544875391759e-05,0.0915781408548355,0,0,0
9125,310800.0863712638,2010-10-12 04:49:48,1410.7127848854068,2,27,0.550297200679779,3.882519006729126,27.167843723400217,26.911573364303912,108.09317776995697,98.52699188610288,3.237724376958795e-05,0.0915781408548355,0,0,0
9126,310830.1034408924,2010-10-12 04:50:18,1440.7298545289798,2,27,0.5501165986061096,3.884299755096436,27.17243040600433,26.911573364303912,108.11098970382469,98.52699188610288,6.47544875391759e-05,0.0915781408548355,0,0,0
9127,310860.1167814418,2010-10-12 04:50:48,1470.743195063466,2,27,0.550297200679779,3.886080503463745,27.17701657363324,26.911573364303912,108.12880722307288,98.52699188610288,9.713172767078504e-05,0.0915781408548355,0,0,0
9128,310890.1318116224,2010-10-12 04:51:18,1500.7582252340449,2,27,0.5501165986061096,3.887213706970215,27.18160293948613,26.911573364303912,108.1466326168797,98.52699188610288,0.0,0.0915781408548355,0,0,0
9129,310920.1470245385,2010-10-12 04:51:48,1530.7734381601067,2,27,0.5501165986061096,3.888670682907105,27.186189289530063,26.911573364303912,108.16446457332366,98.52699188610288,0.0,0.0915781408548355,0,0,0
9130,310950.1621368087,2010-10-12 04:52:18,1560.7885504553658,2,27,0.5501165986061096,3.889965772628784,27.190775683820323,26.911573364303912,108.18230287758274,98.52699188610288,0.0,0.0915781408548355,0,0,0
9131,310980.1773053842,2010-10-12 04:52:48,1590.8037189807676,2,27,0.5501165986061096,3.891260862350464,27.19536208510687,26.911573364303912,108.20014705420417,98.52699188610288,3.237724376958795e-05,0.0915781408548355,0,0,0
9132,311010.1927358775,2010-10-12 04:53:18,1620.8191495292112,2,27,0.550297200679779,3.892555952072144,27.199948574620088,26.911573364303912,108.21799722366993,98.52699188610288,3.237724376958795e-05,0.0915781408548355,0,0,0
9133,311040.2076477733,2010-10-12 04:53:48,1650.8340613698756,2,27,0.550297200679779,3.8938510417938232,27.20453505927818,26.911573364303912,108.23585286943758,98.52699188610288,9.713172767078504e-05,0.0915781408548355,0,0,0
9134,311070.2252445506,2010-10-12 04:54:18,1680.8516583026158,2,27,0.5501165986061096,3.894660472869873,27.2091219281612,26.911573364303912,108.25371538732092,98.52699188610288,0.0,0.0915781408548355,0,0,0
9135,311100.23799971625,2010-10-12 04:54:48,1710.8644133378575,2,27,0.5499359965324402,3.895793676376343,27.21370795985883,26.911573364303912,108.27157929432688,98.52699188610288,0.0,0.0915781408548355,0,0,0
9136,311130.2531141067,2010-10-12 04:55:18,1740.8795277333509,2,27,0.5501165986061096,3.896926879882813,27.218294389481,26.911573364303912,108.28945023271122,98.52699188610288,-3.237724376958795e-05,0.0915781408548355,0,0,0
9137,311160.2682761559,2010-10-12 04:55:48,1770.8946898076747,2,27,0.5501165986061096,3.898221969604492,27.222880836244343,26.911573364303912,108.30732640602706,98.52699188610288,3.237724376958795e-05,0.0915781408548355,0,0,0
9138,311190.28345912736,2010-10-12 04:56:18,1800.9098727540177,2,27,0.5501165986061096,3.899517059326172,27.227467287181028,26.911573364303912,108.32520792499297,98.52699188610288,0.0,0.0915781408548355,0,0,0
9139,311220.2992831615,2010-10-12 04:56:48,1830.9256968883988,2,27,0.5501165986061096,3.900488376617432,27.232053816111936,26.911573364303912,108.34309493902715,98.52699188610288,0.0,0.0915781408548355,0,0,0
9140,311250.3138247243,2010-10-12 04:57:18,1860.9402383509669,2,27,0.5499359965324402,3.901621580123901,27.236640045557973,26.911573364303912,108.36098608853509,98.52699188610288,3.237724376958795e-05,0.0915781408548355,0,0,0
9141,311280.3289683577,2010-10-12 04:57:48,1890.9553820695423,2,27,0.5501165986061096,3.902754783630371,27.241226426841724,26.911573364303912,108.37888316436104,98.52699188610288,3.237724376958795e-05,0.0915781408548355,0,0,0
9142,311310.3441248481,2010-10-12 04:58:18,1920.970538449675,2,27,0.5501165986061096,3.903726100921631,27.245812843422623,26.911573364303912,108.39678578152032,98.52699188610288,-3.237724376958795e-05,0.0915781408548355,0,0,0
9143,311340.3592894437,2010-10-12 04:58:48,1950.985703045282,2,27,0.550297200679779,3.905183076858521,27.250399286505,26.911573364303912,108.41469392057574,98.52699188610288,6.47544875391759e-05,0.0915781408548355,0,0,0
9144,311370.3744323803,2010-10-12 04:59:18,1981.000846011984,2,27,0.5499359965324402,3.9063162803649902,27.25498573475676,26.911573364303912,108.43260733211848,98.52699188610288,3.237724376958795e-05,0.0915781408548355,0,0,0
9145,311400.3899836396,2010-10-12 04:59:48,2011.016397281301,2,27,0.5499359965324402,3.90744948387146,27.259572172627283,26.911573364303912,108.4505262645702,98.52699188610288,0.0,0.0915781408548355,0,0,0
9146,311430.40672568674,2010-10-12 05:00:18,2041.0331393233903,2,27,0.5501165986061096,3.90874457359314,27.264158786932125,26.911573364303912,108.46845139500448,98.52699188610288,0.0,0.0915781408548355,0,0,0
9147,311460.42004680785,2010-10-12 05:00:48,2071.0464604244426,2,27,0.5501165986061096,3.90987777709961,27.26874483909371,26.911573364303912,108.48637994341996,98.52699188610288,3.237724376958795e-05,0.0915781408548355,0,0,0
9148,311490.43508221646,2010-10-12 05:01:18,2101.061495913276,2,27,0.5501165986061096,3.911172866821289,27.273331247507627,26.911573364303912,108.50431546137288,98.52699188610288,0.0,0.0915781408548355,0,0,0
9149,311520.4502432683,2010-10-12 05:01:48,2131.0766568748268,2,27,0.5499359965324402,3.9124679565429688,27.277917617350887,26.911573364303912,108.52225651807106,98.52699188610288,3.237724376958795e-05,0.0915781408548355,0,0,0
9150,311550.46554467484,2010-10-12 05:02:18,2161.0919583265213,2,27,0.5501165986061096,3.9136011600494394,27.28250404498955,26.911573364303912,108.54020355272442,98.52699188610288,0.0,0.0915781408548355,0,0,0
9151,311580.48054996843,2010-10-12 05:02:48,2191.106963559949,2,27,0.5499359965324402,3.914896011352539,27.287090410903136,26.911573364303912,108.55815616367512,98.52699188610288,0.0,0.0915781408548355,0,0,0
9152,311610.4958508036,2010-10-12 05:03:18,2221.1222644452328,2,27,0.5499359965324402,3.9161911010742183,27.291676820290835,26.911573364303912,108.57611463040152,98.52699188610288,3.237724376958795e-05,0.0915781408548355,0,0,0
9153,311640.5110040007,2010-10-12 05:03:48,2251.137417602332,2,27,0.5499359965324402,3.9174861907958975,27.29626316977369,26.911573364303912,108.59407885144915,98.52699188610288,0.0,0.0915781408548355,0,0,0
9154,311670.5260277754,2010-10-12 05:04:18,2281.15244139702,2,27,0.5501165986061096,3.918781280517578,27.300849596150705,26.911573364303912,108.6120493720128,98.52699188610288,3.237724376958795e-05,0.0915781408548355,0,0,0
9155,311700.5413279589,2010-10-12 05:04:48,2311.1677417008545,2,27,0.5501165986061096,3.920238256454468,27.305435952761176,26.911573364303912,108.63002569962327,98.52699188610288,3.237724376958795e-05,0.0915781408548355,0,0,0
9156,311730.5563830165,2010-10-12 05:05:18,2341.1827966531973,2,27,0.5501165986061096,3.921695232391357,27.31002226185869,26.911573364303912,108.648007888121,98.52699188610288,6.47544875391759e-05,0.0915781408548355,0,0,0
9157,311760.571565196,2010-10-12 05:05:48,2371.197978937891,2,27,0.5501165986061096,3.922828435897827,27.314608622346185,26.911573364303912,108.6659964664733,98.52699188610288,0.0,0.0915781408548355,0,0,0
9158,311790.58666410286,2010-10-12 05:06:18,2401.213077729495,2,27,0.5499359965324402,3.924285411834717,27.319194940442923,26.911573364303912,108.68399104495256,98.52699188610288,3.237724376958795e-05,0.0915781408548355,0,0,0
9159,311820.60195154464,2010-10-12 05:06:48,2431.228365141198,2,27,0.5499359965324402,3.9254186153411865,27.323781367076663,26.911573364303912,108.70199238504296,98.52699188610288,0.0,0.0915781408548355,0,0,0
9160,311850.6169955146,2010-10-12 05:07:19,2461.243409111169,2,27,0.5501165986061096,3.927037477493286,27.328367728852367,26.911573364303912,108.7199996957641,98.52699188610288,3.237724376958795e-05,0.0915781408548355,0,0,0
9161,311880.6321710174,2010-10-12 05:07:49,2491.2585847342607,2,27,0.5501165986061096,3.928332567214966,27.33295407085921,26.911573364303912,108.73801337310626,98.52699188610288,3.237724376958795e-05,0.0915781408548355,0,0,0
9162,311910.64730116713,2010-10-12 05:08:19,2521.2737147637185,2,27,0.5499359965324402,3.9296276569366455,27.33754039485464,26.911573364303912,108.75603341078276,98.52699188610288,0.0,0.0915781408548355,0,0,0
9163,311940.6624632816,2010-10-12 05:08:49,2551.288876878142,2,27,0.5501165986061096,3.931246519088745,27.34212680685267,26.911573364303912,108.77406038577196,98.52699188610288,3.237724376958795e-05,0.0915781408548355,0,0,0
9164,311970.6776391051,2010-10-12 05:09:19,2581.304052761884,2,27,0.5501165986061096,3.932541608810425,27.346713215782227,26.911573364303912,108.79209392787013,98.52699188610288,3.237724376958795e-05,0.0915781408548355,0,0,0
9165,312000.6927954903,2010-10-12 05:09:49,2611.319209116953,2,27,0.550297200679779,3.934160470962525,27.351299634108127,26.911573364303912,108.81013419374383,98.52699188610288,3.237724376958795e-05,0.0915781408548355,0,0,0
9166,312030.70985353,2010-10-12 05:10:19,2641.336267161618,2,27,0.5501165986061096,3.935779333114624,27.3558863514528,26.911573364303912,108.82818238293072,98.52699188610288,6.47544875391759e-05,0.0915781408548355,0,0,0
9167,312060.7231354584,2010-10-12 05:10:49,2671.349549085027,2,27,0.5501165986061096,3.9372363090515137,27.360472535073733,26.911573364303912,108.84623515006446,98.52699188610288,6.47544875391759e-05,0.0915781408548355,0,0,0
9168,312090.7383360036,2010-10-12 05:11:19,2701.3647496302324,2,27,0.5501165986061096,3.938531398773194,27.365058865512932,26.911573364303912,108.86429534650512,98.52699188610288,3.237724376958795e-05,0.0915781408548355,0,0,0
9169,312120.75343811343,2010-10-12 05:11:49,2731.379851735094,2,27,0.5501165986061096,3.940150260925293,27.369645278338503,26.911573364303912,108.8823627566355,98.52699188610288,3.237724376958795e-05,0.0915781408548355,0,0,0
9170,312150.768576574,2010-10-12 05:12:19,2761.3949901755145,2,27,0.5501165986061096,3.941607236862183,27.374231663974705,26.911573364303912,108.90043699275536,98.52699188610288,6.47544875391759e-05,0.0915781408548355,0,0,0
9171,312180.7838884817,2010-10-12 05:12:49,2791.4103020782563,2,27,0.5501165986061096,3.943064212799072,27.378818087622623,26.911573364303912,108.91851827912777,98.52699188610288,3.237724376958795e-05,0.0915781408548355,0,0,0
9172,312210.7989098954,2010-10-12 05:13:19,2821.425323532111,2,27,0.5501165986061096,3.944683074951172,27.383404534536226,26.911573364303912,108.9366066787258,98.52699188610288,6.47544875391759e-05,0.0915781408548355,0,0,0
9173,312240.8140607468,2010-10-12 05:13:49,2851.4404743634136,2,27,0.5499359965324402,3.9461400508880615,27.38799060723094,26.911573364303912,108.95470060647249,98.52699188610288,6.47544875391759e-05,0.0915781408548355,0,0,0
9174,312270.82920577365,2010-10-12 05:14:19,2881.4556194002744,2,27,0.5497553944587708,3.947435140609741,27.392576085239696,26.911573364303912,108.97279907957778,98.52699188610288,-3.237724376958795e-05,0.0915781408548355,0,0,0
9175,312300.84436878026,2010-10-12 05:14:49,2911.4707824319844,2,27,0.5499359965324402,3.949215888977051,27.397161459628936,26.911573364303912,108.99090430428586,98.52699188610288,3.237724376958795e-05,0.0915781408548355,0,0,0
9176,312330.8595458319,2010-10-12 05:15:19,2941.4859595538114,2,27,0.5499359965324402,3.9508347511291504,27.401746881896717,26.911573364303912,109.00901692507954,98.52699188610288,3.237724376958795e-05,0.0915781408548355,0,0,0
9177,312360.8747088486,2010-10-12 05:15:49,2971.5011224451714,2,27,0.5501165986061096,3.95245361328125,27.406332617560764,26.911573364303912,109.02713814159053,98.52699188610288,3.237724376958795e-05,0.0915781408548355,0,0,0
9178,312390.88985861227,2010-10-12 05:16:19,3001.516272233875,2,27,0.5501165986061096,3.95423436164856,27.41091894113952,26.911573364303912,109.04526915542422,98.52699188610288,6.47544875391759e-05,0.0915781408548355,0,0,0
9179,312420.9050063108,2010-10-12 05:16:49,3031.5314199574323,2,27,0.550297200679779,3.955853223800659,27.415505257893468,26.911573364303912,109.06340752347931,98.52699188610288,6.47544875391759e-05,0.0915781408548355,0,0,0
9180,312450.9201589516,2010-10-12 05:17:19,3061.5465725431072,2,27,0.5501165986061096,3.957148313522339,27.42009164085309,26.911573364303912,109.08155358571588,98.52699188610288,3.237724376958795e-05,0.0915781408548355,0,0,0
9181,312480.9353282539,2010-10-12 05:17:49,3091.5617418554702,2,27,0.550297200679779,3.958929061889648,27.424678004050858,26.911573364303912,109.0997070442466,98.52699188610288,3.237724376958795e-05,0.0915781408548355,0,0,0
9182,312510.95048199245,2010-10-12 05:18:19,3121.576895583994,2,27,0.5499359965324402,3.960547924041748,27.429264387847397,26.911573364303912,109.1178681269562,98.52699188610288,6.47544875391759e-05,0.0915781408548355,0,0,0
9183,312540.9656376207,2010-10-12 05:18:49,3151.59205124734,2,27,0.5497553944587708,3.962166786193848,27.433850671971367,26.911573364303912,109.13603646408616,98.52699188610288,3.237724376958795e-05,0.0915781408548355,0,0,0
9184,312570.98079873767,2010-10-12 05:19:19,3181.6072123342024,2,27,0.5501165986061096,3.963947534561157,27.438436958656222,26.911573364303912,109.1542124048422,98.52699188610288,6.47544875391759e-05,0.0915781408548355,0,0,0
9185,312600.9961084048,2010-10-12 05:19:49,3211.6225220414726,2,27,0.5499359965324402,3.965566396713257,27.443023335681044,26.911573364303912,109.17239649748124,98.52699188610288,3.237724376958795e-05,0.0915781408548355,0,0,0
9186,312631.0130185509,2010-10-12 05:20:19,3241.6394321875287,2,27,0.5501165986061096,3.9673471450805664,27.44761000609265,26.911573364303912,109.1905895345168,98.52699188610288,3.237724376958795e-05,0.0915781408548355,0,0,0
9187,312661.0264061376,2010-10-12 05:20:49,3271.652819889571,2,27,0.5501165986061096,3.968966007232666,27.45219605645984,26.911573364303912,109.20878784800438,98.52699188610288,3.237724376958795e-05,0.0915781408548355,0,0,0
9188,312691.0414427242,2010-10-12 05:21:19,3301.6678563708783,2,27,0.5499359965324402,3.9709086418151855,27.45678242136129,26.911573364303912,109.22699536511898,98.52699188610288,6.47544875391759e-05,0.0915781408548355,0,0,0
9189,312721.0566485676,2010-10-12 05:21:49,3331.683062214288,2,27,0.5499359965324402,3.972365617752075,27.46136879626489,26.911573364303912,109.2452109612024,98.52699188610288,0.0,0.0915781408548355,0,0,0
9190,312751.0717690633,2010-10-12 05:22:19,3361.698182684923,2,27,0.5501165986061096,3.9744701385498047,27.46595511910759,26.911573364303912,109.26343436161392,98.52699188610288,9.713172767078504e-05,0.0915781408548355,0,0,0
9191,312781.0868972933,2010-10-12 05:22:49,3391.713310919908,2,27,0.5499359965324402,3.9759271144866943,27.47054152714094,26.911573364303912,109.28166634344028,98.52699188610288,3.237724376958795e-05,0.0915781408548355,0,0,0
9192,312811.10207519203,2010-10-12 05:23:19,3421.7284888136587,2,27,0.5501165986061096,3.977869749069214,27.47512793152121,26.911573364303912,109.29990653677928,98.52699188610288,6.47544875391759e-05,0.0915781408548355,0,0,0
9193,312841.1172060185,2010-10-12 05:23:49,3451.7436196751905,2,27,0.5499359965324402,3.979650497436523,27.47971423601911,26.911573364303912,109.31815426304716,98.52699188610288,3.237724376958795e-05,0.0915781408548355,0,0,0
9194,312871.1323883483,2010-10-12 05:24:19,3481.758801944847,2,27,0.5501165986061096,3.981593132019043,27.484300452915377,26.911573364303912,109.33641046167644,98.52699188610288,6.47544875391759e-05,0.0915781408548355,0,0,0
9195,312901.1475460918,2010-10-12 05:24:49,3511.773959688377,2,27,0.5501165986061096,3.983373880386353,27.48888675680595,26.911573364303912,109.35467556617904,98.52699188610288,3.237724376958795e-05,0.0915781408548355,0,0,0
9196,312931.1631054914,2010-10-12 05:25:19,3541.78951913307,2,27,0.5499359965324402,3.985478401184082,27.493473074533416,26.911573364303912,109.37294940399572,98.52699188610288,9.713172767078504e-05,0.0915781408548355,0,0,0
9197,312961.1778870774,2010-10-12 05:25:49,3571.8043007040624,2,27,0.5501165986061096,3.9874210357666016,27.498059312379063,26.911573364303912,109.39123169927788,98.52699188610288,6.47544875391759e-05,0.0915781408548355,0,0,0
9198,312991.19554211,2010-10-12 05:26:19,3601.821955861917,2,27,0.5499359965324402,3.989201784133911,27.50264595836862,26.911573364303912,109.40952440440962,98.52699188610288,0.0,0.0915781408548355,0,0,0
9199,313021.20825482474,2010-10-12 05:26:49,3631.8346684513713,2,27,0.5501165986061096,3.991144418716431,27.507231801677356,26.911573364303912,109.427822890374,98.52699188610288,0.0,0.0915781408548355,0,0,0
9200,313051.2233408896,2010-10-12 05:27:19,3661.849754521269,2,27,0.5497553944587708,3.99308705329895,27.51181803001596,26.911573364303912,109.44613206378116,98.52699188610288,3.237724376958795e-05,0.0915781408548355,0,0,0
9201,313081.23852069816,2010-10-12 05:27:49,3691.864934289691,2,27,0.5499359965324402,3.9951913356781006,27.516404254416237,26.911573364303912,109.46445037889468,98.52699188610288,6.47544875391759e-05,0.0915781408548355,0,0,0
9202,313111.25365178526,2010-10-12 05:28:19,3721.8800653817975,2,27,0.550297200679779,3.99729585647583,27.520990483613364,26.911573364303912,109.48277804478472,98.52699188610288,6.47544875391759e-05,0.0915781408548355,0,0,0
9203,313141.26935988537,2010-10-12 05:28:49,3751.8957735120607,2,27,0.5499359965324402,3.9992384910583496,27.5255768293348,26.911573364303912,109.50111553534047,98.52699188610288,0.0,0.0915781408548355,0,0,0
9204,313171.2707359006,2010-10-12 05:29:19,3781.8971496275326,2,27,0.5499359965324402,4.001343250274658,27.53016096872186,26.911573364303912,109.51945375492345,98.52699188610288,0.0,0.0915781408548355,0,0,0
9205,313201.28350290575,2010-10-12 05:29:49,3811.9099165022826,2,27,0.5501165986061096,4.003447532653809,27.53474683972589,26.911573364303912,109.53780854085836,98.52699188610288,3.23295607813634e-05,0.0915781408548355,0,0,0
9206,313231.29867501004,2010-10-12 05:30:19,3841.925088611617,2,27,0.550297200679779,4.005713939666748,27.539333052352752,26.911573364303912,109.55617434218196,98.52699188610288,6.47544875391759e-05,0.0915781408548355,0,0,0
9207,313261.31381769606,2010-10-12 05:30:49,3871.940231377818,2,27,0.5499359965324402,4.007656574249268,27.543919263279285,26.911573364303912,109.57455000218972,98.52699188610288,3.23295607813634e-05,0.0915781408548355,0,0,0
9208,313291.3152287335,2010-10-12 05:31:19,3901.9416423652015,2,27,0.5501165986061096,4.010085105895996,27.548503453659315,26.911573364303912,109.59292740686648,98.52699188610288,9.71794142969884e-05,0.0915781408548355,0,0,0
9209,313321.3286527962,2010-10-12 05:31:49,3931.9550664278654,2,27,0.5501165986061096,4.0121893882751465,27.553089469534623,26.911573364303912,109.61132210288916,98.52699188610288,6.47544875391759e-05,0.0915781408548355,0,0,0
9210,313351.3436593379,2010-10-12 05:32:19,3961.9700729645424,2,27,0.5501165986061096,4.014294147491455,27.5576756669443,26.911573364303912,109.6297276241862,98.52699188610288,3.24249267578125e-05,0.0915781408548355,0,0,0
9211,313381.35883777303,2010-10-12 05:32:49,3991.9852513695673,2,27,0.5501165986061096,4.0165605545043945,27.56226182871817,26.911573364303912,109.64814312406564,98.52699188610288,6.47544875391759e-05,0.0915781408548355,0,0,0
9212,313411.37397895526,2010-10-12 05:33:19,4022.000392581896,2,27,0.5501165986061096,4.018826961517334,27.566848075411464,26.911573364303912,109.66656920586296,98.52699188610288,9.71794142969884e-05,0.0915781408548355,0,0,0
9213,313441.3892505425,2010-10-12 05:33:49,4052.015664139085,2,27,0.5499359965324402,4.020931243896484,27.571434383509672,26.911573364303912,109.68500568333174,98.52699188610288,3.23295607813634e-05,0.0915781408548355,0,0,0
9214,313471.4042845276,2010-10-12 05:34:19,4082.0306982394586,2,27,0.5501165986061096,4.023521423339844,27.57602063864199,26.911573364303912,109.70345245588214,98.52699188610288,6.47544875391759e-05,0.0915781408548355,0,0,0
9215,313501.419583448,2010-10-12 05:34:49,4112.045997059595,2,27,0.550297200679779,4.025787830352783,27.580606917900987,26.911573364303912,109.72190974822313,98.52699188610288,9.70840483205393e-05,0.0915781408548355,0,0,0
9216,313531.4346955829,2010-10-12 05:35:19,4142.061109334803,2,27,0.5499359965324402,4.027730464935303,27.585193219831687,26.911573364303912,109.7403776972498,98.52699188610288,3.23295607813634e-05,0.0915781408548355,0,0,0
9217,313561.4497477132,2010-10-12 05:35:49,4172.076161309726,2,27,0.5499359965324402,4.030158996582031,27.589779470438263,26.911573364303912,109.75885603611236,98.52699188610288,3.24249267578125e-05,0.0915781408548355,0,0,0
9218,313591.46505797177,2010-10-12 05:36:19,4202.091471583409,2,27,0.5501165986061096,4.032587051391602,27.594365715522564,26.911573364303912,109.77734503581496,98.52699188610288,6.47544875391759e-05,0.0915781408548355,0,0,0
9219,313621.48007378663,2010-10-12 05:36:49,4232.106487388182,2,27,0.5501165986061096,4.035015106201172,27.59895192121602,26.911573364303912,109.79584467526529,98.52699188610288,6.47544875391759e-05,0.0915781408548355,0,0,0
9220,313651.4953269529,2010-10-12 05:37:19,4262.1217405745865,2,27,0.550297200679779,4.0374436378479,27.603538122381583,26.911573364303912,109.81435512617402,98.52699188610288,9.71794142969884e-05,0.0915781408548355,0,0,0
9221,313681.5104891476,2010-10-12 05:37:49,4292.1369028844965,2,27,0.5501165986061096,4.03971004486084,27.60812431507676,26.911573364303912,109.83287655285888,98.52699188610288,6.47544875391759e-05,0.0915781408548355,0,0,0
9222,313711.5255572176,2010-10-12 05:38:19,4322.151970824209,2,27,0.5499359965324402,4.04213809967041,27.61271058921147,26.911573364303912,109.85140928708527,98.52699188610288,6.47544875391759e-05,0.0915781408548355,0,0,0
9223,313741.54086961155,2010-10-12 05:38:49,4352.167283243237,2,27,0.5499359965324402,4.044566631317139,27.61729682954565,26.911573364303912,109.86995316001112,98.52699188610288,3.24249267578125e-05,0.0915781408548355,0,0,0
9224,313771.55586354184,2010-10-12 05:39:19,4382.182277143419,2,27,0.5501165986061096,4.047156810760498,27.62188306763623,26.911573364303912,109.8885083705574,98.52699188610288,6.47544875391759e-05,0.0915781408548355,0,0,0
9225,313801.57114964025,2010-10-12 05:39:49,4412.197563251873,2,27,0.5501165986061096,4.049746990203857,27.626469386735877,26.911573364303912,109.90707536594596,98.52699188610288,9.71794142969884e-05,0.0915781408548355,0,0,0
9226,313831.5861972543,2010-10-12 05:40:20,4442.212610865928,2,27,0.5499359965324402,4.052175045013428,27.63105562557581,26.911573364303912,109.92565348994708,98.52699188610288,9.70840483205393e-05,0.0915781408548355,0,0,0
9227,313861.60136710305,2010-10-12 05:40:50,4472.227780704603,2,27,0.5499359965324402,4.054441452026367,27.63564189251273,26.911573364303912,109.94424343075104,98.52699188610288,3.23295607813634e-05,0.0915781408548355,0,0,0
9228,313891.6187230401,2010-10-12 05:41:20,4502.24513680712,2,27,0.5501165986061096,4.057193756103516,27.640228548824783,26.911573364303912,109.96284677578804,98.52699188610288,6.47544875391759e-05,0.0915781408548355,0,0,0
9229,313921.63165884087,2010-10-12 05:41:50,4532.258072447485,2,27,0.5501165986061096,4.059945583343506,27.644814520289792,26.911573364303912,109.98145933244945,98.52699188610288,6.47544875391759e-05,0.0915781408548355,0,0,0
9230,313951.64695698937,2010-10-12 05:42:20,4562.273370600959,2,27,0.5501165986061096,4.062535762786865,27.649400825163173,26.911573364303912,110.000084907447,98.52699188610288,9.70840483205393e-05,0.0915781408548355,0,0,0
9231,313981.6619979318,2010-10-12 05:42:50,4592.288411548398,2,27,0.5501165986061096,4.064964294433594,27.65398703069651,26.911573364303912,110.01872227539556,98.52699188610288,6.47544875391759e-05,0.0915781408548355,0,0,0
9232,314011.67733285186,2010-10-12 05:43:20,4622.303746478531,2,27,0.5501165986061096,4.067878246307373,27.658573306936585,26.911573364303912,110.03737217056508,98.52699188610288,9.71794142969884e-05,0.0915781408548355,0,0,0
9233,314041.6922870481,2010-10-12 05:43:50,4652.318700674759,2,27,0.550297200679779,4.070630073547363,27.66315953777206,26.911573364303912,110.05603429330432,98.52699188610288,6.47544875391759e-05,0.0915781408548355,0,0,0
9234,314071.7074357291,2010-10-12 05:44:20,4682.333849325627,2,27,0.5501165986061096,4.073382377624512,27.667745812802945,26.911573364303912,110.07470897056852,98.52699188610288,9.71794142969884e-05,0.0915781408548355,0,0,0
9235,314101.72261155763,2010-10-12 05:44:50,4712.349025184305,2,27,0.5501165986061096,4.075972557067871,27.67233203049676,26.911573364303912,110.093395994936,98.52699188610288,9.71794142969884e-05,0.0915781408548355,0,0,0
9236,314131.7377412413,2010-10-12 05:45:20,4742.364154837826,2,27,0.5501165986061096,4.078724384307861,27.67691828758171,26.911573364303912,110.112095868742,98.52699188610288,6.47544875391759e-05,0.0915781408548355,0,0,0
9237,314161.752919937,2010-10-12 05:45:50,4772.379333538588,2,27,0.5499359965324402,4.081314563751221,27.68150455866673,26.911573364303912,110.13080861637812,98.52699188610288,0.0,0.0915781408548355,0,0,0
9238,314191.7681886171,2010-10-12 05:46:20,4802.394602258706,2,27,0.550297200679779,4.084390640258789,27.68609072268733,26.911573364303912,110.14953378798248,98.52699188610288,9.71794142969884e-05,0.0915781408548355,0,0,0
9239,314221.783227364,2010-10-12 05:46:50,4832.40964100566,2,27,0.5501165986061096,4.087304592132568,27.690676889214146,26.911573364303912,110.16827214738116,98.52699188610288,9.71794142969884e-05,0.0915781408548355,0,0,0
9240,314251.79836216033,2010-10-12 05:47:20,4862.424775756886,2,27,0.550297200679779,4.090218544006348,27.695263121995904,26.911573364303912,110.18702399981512,98.52699188610288,6.47544875391759e-05,0.0915781408548355,0,0,0
9241,314281.8136487249,2010-10-12 05:47:50,4892.440062361578,2,27,0.5501165986061096,4.093132495880127,27.69984935611604,26.911573364303912,110.2057891984366,98.52699188610288,6.47544875391759e-05,0.0915781408548355,0,0,0
9242,314311.82870971225,2010-10-12 05:48:20,4922.455123333924,2,27,0.5501165986061096,4.096046447753906,27.70443553225504,26.911573364303912,110.2245675880129,98.52699188610288,9.71794142969884e-05,0.0915781408548355,0,0,0
9243,314341.8437454618,2010-10-12 05:48:50,4952.470159083408,2,27,0.5501165986061096,4.0989603996276855,27.709021780547985,26.911573364303912,110.24335986710528,98.52699188610288,6.47544875391759e-05,0.0915781408548355,0,0,0
9244,314371.85898701416,2010-10-12 05:49:20,4982.485400640828,2,27,0.5499359965324402,4.102035999298096,27.713608118246643,26.911573364303912,110.26216624162994,98.52699188610288,6.47544875391759e-05,0.0915781408548355,0,0,0
9245,314401.874246356,2010-10-12 05:49:50,5012.50065995751,2,27,0.5499359965324402,4.104949951171875,27.71819441801557,26.911573364303912,110.28098614750398,98.52699188610288,6.47544875391759e-05,0.0915781408548355,0,0,0
9246,314431.8892778849,2010-10-12 05:50:20,5042.515691501511,2,27,0.550297200679779,4.108187675476074,27.722780737780244,26.911573364303912,110.29982015342186,98.52699188610288,9.70840483205393e-05,0.0915781408548355,0,0,0
9247,314461.9044581947,2010-10-12 05:50:50,5072.530871816296,2,27,0.5499359965324402,4.1111016273498535,27.72736704949178,26.911573364303912,110.3186682342114,98.52699188610288,6.47544875391759e-05,0.0915781408548355,0,0,0
9248,314491.921573888,2010-10-12 05:51:20,5102.547987499615,2,27,0.550297200679779,4.114339351654053,27.73195373068696,26.911573364303912,110.33753203217547,98.52699188610288,0.0001618385285837,0.0915781408548355,0,0,0
9249,314521.9349100967,2010-10-12 05:51:50,5132.561323738394,2,27,0.550297200679779,4.117577075958252,27.736539841289257,26.911573364303912,110.35640779672885,98.52699188610288,9.71794142969884e-05,0.0915781408548355,0,0,0
9250,314551.94989983155,2010-10-12 05:52:20,5162.57631342307,2,27,0.5499359965324402,4.120491027832031,27.74112614977424,26.911573364303912,110.3752987613648,98.52699188610288,6.47544875391759e-05,0.0915781408548355,0,0,0
9251,314581.965051119,2010-10-12 05:52:50,5192.591464715521,2,27,0.5501165986061096,4.123890399932861,27.745712980186244,26.911573364303912,110.3942064604057,98.52699188610288,0.0001295089750783,0.0915781408548355,0,0,0
9252,314611.9801674392,2010-10-12 05:53:20,5222.606581035812,2,27,0.5501165986061096,4.126804351806641,27.750300234189847,26.911573364303912,110.41313067383146,98.52699188610288,6.47544875391759e-05,0.0915781408548355,0,0,0
9253,314641.9954755726,2010-10-12 05:53:50,5252.621889199236,2,27,0.550297200679779,4.13036584854126,27.754887320473596,26.911573364303912,110.43206911174448,98.52699188610288,9.70840483205393e-05,0.0915781408548355,0,0,0
9254,314672.0105041793,2010-10-12 05:54:20,5282.636917830979,2,27,0.5501165986061096,4.133441925048828,27.75947453941753,26.911573364303912,110.45102316497726,98.52699188610288,6.47544875391759e-05,0.0915781408548355,0,0,0
9255,314702.02569226344,2010-10-12 05:54:50,5312.652105950214,2,27,0.5501165986061096,4.136679649353027,27.764061750594777,26.911573364303912,110.46999226017708,98.52699188610288,6.47544875391759e-05,0.0915781408548355,0,0,0
9256,314732.0408181676,2010-10-12 05:55:20,5342.667231799253,2,27,0.5501165986061096,4.140079021453857,27.76864893004792,26.911573364303912,110.4889764305675,98.52699188610288,9.70840483205393e-05,0.0915781408548355,0,0,0
9257,314762.0561501353,2010-10-12 05:55:50,5372.682563797079,2,27,0.5501165986061096,4.143478870391846,27.77323578448261,26.911573364303912,110.5079745757088,98.52699188610288,9.71794142969884e-05,0.0915781408548355,0,0,0
9258,314792.07115855167,2010-10-12 05:56:20,5402.697572183365,2,27,0.5499359965324402,4.146878242492676,27.77782134240587,26.911573364303912,110.52698283938058,98.52699188610288,9.70840483205393e-05,0.0915781408548355,0,0,0
9259,314822.0864465348,2010-10-12 05:56:50,5432.712860141429,2,27,0.5501165986061096,4.150439739227295,27.782407136570843,26.911573364303912,110.54600781273072,98.52699188610288,9.70840483205393e-05,0.0915781408548355,0,0,0
9260,314852.1014662694,2010-10-12 05:57:20,5462.727879870987,2,27,0.5501165986061096,4.153839588165283,27.786993479611624,26.911573364303912,110.5650508565211,98.52699188610288,9.71794142969884e-05,0.0915781408548355,0,0,0
9261,314882.1166328951,2010-10-12 05:57:50,5492.74304653174,2,27,0.5501165986061096,4.157238960266113,27.79157990704996,26.911573364303912,110.58410999239058,98.52699188610288,6.47544875391759e-05,0.0915781408548355,0,0,0
9262,314912.132037945,2010-10-12 05:58:20,5522.758451576621,2,27,0.5499359965324402,4.160800457000732,27.79616634642561,26.911573364303912,110.60318512949866,98.52699188610288,9.70840483205393e-05,0.0915781408548355,0,0,0
9263,314942.1469399611,2010-10-12 05:58:50,5552.773353597813,2,27,0.550297200679779,4.164361953735352,27.800752781590955,26.911573364303912,110.62227626571952,98.52699188610288,0.0001295089750783,0.0915781408548355,0,0,0
9264,314972.1645271797,2010-10-12 05:59:20,5582.790940906568,2,27,0.5501165986061096,4.16776180267334,27.80533960306185,26.911573364303912,110.64138498622562,98.52699188610288,6.47544875391759e-05,0.0915781408548355,0,0,0
9265,315002.1772577339,2010-10-12 05:59:50,5612.80367133047,2,27,0.5501165986061096,4.17148494720459,27.80992561607688,26.911573364303912,110.6605065339522,98.52699188610288,9.70840483205393e-05,0.0915781408548355,0,0,0
9266,315032.1925274615,2010-10-12 06:00:20,5642.818941068124,2,27,0.5501165986061096,4.174884796142578,27.81451206969898,26.911573364303912,110.67964627957384,98.52699188610288,9.71794142969884e-05,0.0915781408548355,0,0,0
9267,315062.2075818575,2010-10-12 06:00:50,5672.833995469093,2,27,0.550297200679779,4.178770065307617,27.81909845872608,26.911573364303912,110.69880221920675,98.52699188610288,0.0001295089750783,0.0915781408548355,0,0,0
9268,315092.2245900078,2010-10-12 06:01:20,5702.851003649481,2,27,0.5501165986061096,4.182169437408447,27.823685225475412,26.911573364303912,110.71797644318612,98.52699188610288,9.70840483205393e-05,0.0915781408548355,0,0,0
9269,315122.2401648709,2010-10-12 06:01:50,5732.866578597813,2,27,0.5501165986061096,4.185730934143066,27.82827172153431,26.911573364303912,110.73716614213672,98.52699188610288,6.47544875391759e-05,0.0915781408548355,0,0,0
9270,315152.25303460204,2010-10-12 06:02:20,5762.879448228662,2,27,0.5501165986061096,4.189454555511475,27.83285777042472,26.911573364303912,110.75637076009848,98.52699188610288,9.71794142969884e-05,0.0915781408548355,0,0,0
9271,315182.2681728219,2010-10-12 06:02:50,5792.894586423471,2,27,0.5501165986061096,4.193177700042725,27.837444158155737,26.911573364303912,110.77559374468642,98.52699188610288,0.0001295089750783,0.0915781408548355,0,0,0
9272,315212.283359673,2010-10-12 06:03:20,5822.909773429933,2,27,0.5499359965324402,4.196900844573975,27.84203056906273,26.911573364303912,110.79483393013392,98.52699188610288,6.47544875391759e-05,0.0915781408548355,0,0,0
9273,315236.04857131775,2010-10-12 06:03:44,5846.6749849444,2,27,0.550297200679779,4.200138568878174,27.845662046068576,26.911573364303912,110.81008035033118,98.52699188610288,0.0001618385285837,0.0915781408548355,0,0,0
9274,315266.061106992,2010-10-12 06:04:14,30.012597287084738,3,27,0.0,4.115634441375732,27.845662046068576,26.911573364303912,110.81008035033118,98.52699188610288,-0.0003885269106831,0.0915781408548355,0,0,0
9275,315296.0762495226,2010-10-12 06:04:44,60.02773979263704,3,27,0.0,4.105112075805664,27.845662046068576,26.911573364303912,110.81008035033118,98.52699188610288,-0.0002265930233988,0.0915781408548355,0,0,0
9276,315326.091552448,2010-10-12 06:05:14,90.04304271800487,3,27,0.0,4.0987982749938965,27.845662046068576,26.911573364303912,110.81008035033118,98.52699188610288,-0.0001295089750783,0.0915781408548355,0,0,0
9277,315356.059762323,2010-10-12 06:05:44,120.01125262307598,3,27,0.0,4.094751358032227,27.845662046068576,26.911573364303912,110.81008035033118,98.52699188610288,-9.70840483205393e-05,0.0915781408548355,0,0,0
9278,315356.06151691085,2010-10-12 06:05:44,2.676671088e-06,4,27,0.9989306926727296,4.199814796447754,27.8456620468113,26.911573364303912,110.81008035345047,98.52699188610288,0.0,0.0915781408548355,0,0,0
9279,315356.9834748788,2010-10-12 06:05:45,0.921960649619051,4,27,0.9485406875610352,4.199814796447754,27.84590993748918,26.911573364303912,110.81112142744792,98.52699188610288,0.0,0.0915781408548355,0,0,0
9280,315359.10842664744,2010-10-12 06:05:47,3.046912383170363,4,27,0.8985118865966797,4.199814796447754,27.84645410231143,26.911573364303912,110.81340678645708,98.52699188610288,0.0,0.0915781408548355,0,0,0
9281,315362.3426231502,2010-10-12 06:05:51,6.281108875967797,4,27,0.8481219410896301,4.199653148651123,27.847237530853555,26.911573364303912,110.8166969931319,98.52699188610288,-3.23295607813634e-05,0.0915781408548355,0,0,0
9282,315366.68632463587,2010-10-12 06:05:55,10.624810361593513,4,27,0.7980931401252747,4.199814796447754,27.84822930963153,26.911573364303912,110.82086223558176,98.52699188610288,0.0,0.0915781408548355,0,0,0
9283,315372.3269800648,2010-10-12 06:06:01,16.265465800533637,4,27,0.748064398765564,4.199814796447754,27.849438853659176,26.911573364303912,110.82594205141692,98.52699188610288,0.0,0.0915781408548355,0,0,0
9284,315379.5768759962,2010-10-12 06:06:08,23.51536175699436,4,27,0.6978549957275391,4.199814796447754,27.850892542664628,26.911573364303912,110.83204723046516,98.52699188610288,3.23295607813634e-05,0.0915781408548355,0,0,0
9285,315389.18596930336,2010-10-12 06:06:17,33.124455044109936,4,27,0.6478262543678284,4.199814796447754,27.852685184573144,26.911573364303912,110.8395759525021,98.52699188610288,0.0,0.0915781408548355,0,0,0
9286,315402.342127257,2010-10-12 06:06:31,46.28061299777908,4,27,0.5977974534034729,4.199814796447754,27.8549558933054,26.911573364303912,110.84911246815476,98.52699188610288,0.0,0.0915781408548355,0,0,0
9287,315421.919820292,2010-10-12 06:06:50,65.85830602270273,4,27,0.5477687120437622,4.199814796447754,27.85806117415832,26.911573364303912,110.86215401987369,98.52699188610288,3.23295607813634e-05,0.0915781408548355,0,0,0
9288,315454.5913143279,2010-10-12 06:07:23,98.5298000686326,4,27,0.4977399110794067,4.199814796447754,27.86278523713469,26.911573364303912,110.881994093354,98.52699188610288,0.0,0.0915781408548355,0,0,0
9289,315514.0590328051,2010-10-12 06:08:22,157.9975185658873,4,27,0.4477111399173736,4.199814796447754,27.870554931080505,26.911573364303912,110.91462522039748,98.52699188610288,-3.24249267578125e-05,0.0915781408548355,0,0,0
9290,315607.71390613134,2010-10-12 06:09:56,251.6523918820753,4,27,0.3976823985576629,4.199653148651123,27.88151958192291,26.911573364303912,110.9606745343526,98.52699188610288,-3.23295607813634e-05,0.0915781408548355,0,0,0
9291,315729.1493780571,2010-10-12 06:11:57,373.0878638128875,4,27,0.3476536273956299,4.199491024017334,27.894068603108703,26.911573364303912,111.01337790324996,98.52699188610288,-6.47544875391759e-05,0.0915781408548355,0,0,0
9292,315874.2721232914,2010-10-12 06:14:22,518.2106090722261,4,27,0.297444224357605,4.199814796447754,27.907051709392764,26.911573364303912,111.06790433076478,98.52699188610288,0.0,0.0915781408548355,0,0,0
9293,316050.7849412253,2010-10-12 06:17:19,694.7234269810914,4,27,0.2474154680967331,4.199653148651123,27.920383972659582,26.911573364303912,111.12389718050257,98.52699188610288,-3.23295607813634e-05,0.0915781408548355,0,0,0
9294,316268.1722680321,2010-10-12 06:20:56,912.1107537929148,4,27,0.1973866969347,4.199814796447754,27.93377050281604,26.911573364303912,111.18011785616848,98.52699188610288,0.0,0.0915781408548355,0,0,0
9295,316551.9354391112,2010-10-12 06:25:40,1195.8739248820136,4,27,0.1473579257726669,4.199491024017334,27.947290908239985,26.911573364303912,111.23690082542866,98.52699188610288,-6.47544875391759e-05,0.0915781408548355,0,0,0
9296,316967.9424833175,2010-10-12 06:32:36,1611.8809690783182,4,27,0.0973291546106338,4.199653148651123,27.96127443289976,26.911573364303912,111.2956287100459,98.52699188610288,-3.23295607813634e-05,0.0915781408548355,0,0,0
9297,317697.727678398,2010-10-12 06:44:46,2341.6661641637616,4,27,0.0498289167881011,4.199814796447754,27.975676133424148,26.911573364303912,111.3561129518133,98.52699188610288,0.0,0.0915781408548355,0,0,0
9298,317727.7321926166,2010-10-12 06:45:16,30.01263523666677,5,27,0.0,4.191882610321045,27.975676133424148,26.911573364303912,111.3561129518133,98.52699188610288,-3.24249267578125e-05,0.0915781408548355,0,0,0
9299,317757.731621514,2010-10-12 06:45:46,60.01206426940991,5,27,0.0,4.190749645233154,27.975676133424148,26.911573364303912,111.3561129518133,98.52699188610288,3.24249267578125e-05,0.0915781408548355,0,0,0
9300,317757.92766444734,2010-10-12 06:45:46,0.187633565578827,6,27,-1.9243103452026844e-05,4.190749645233154,27.975676133424148,26.91157336530687,111.3561129518133,98.52699189030604,0.0,0.0939245000481605,0,0,0
9301,317762.75571176683,2010-10-12 06:45:51,5.015680774777137,6,27,0.0007031940040178,4.190749645233154,27.97567708449411,26.91157336539076,111.35611693750106,98.52699189065758,0.0,0.0939245000481605,0,0,0
9302,317792.76360086154,2010-10-12 06:46:21,30.015120034547643,7,27,-1.099568486213684,4.014132022857666,27.97567708449411,26.9207408568852,111.35611693750106,98.56398965705624,-0.0009389877086505,0.0939245000481605,0,0,0
9303,317822.77875259006,2010-10-12 06:46:51,60.03027176809895,7,27,-1.0993878841400146,3.987582921981812,27.97567708449411,26.92990834090595,111.35611693750106,98.60065801494518,-0.0005504131549969,0.0939245000481605,0,0,0
9304,317852.7939311805,2010-10-12 06:47:21,90.04545037863599,7,27,-1.099568486213684,3.969127893447876,27.97567708449411,26.939075739423767,111.35611693750106,98.6371231069054,-0.0003561496851034,0.0939245000481605,0,0,0
9305,317882.8090825532,2010-10-12 06:47:51,120.06060173123784,7,27,-1.0993878841400146,3.9547200202941895,27.97567708449411,26.94824312248872,111.35611693750106,98.67344006784732,-0.0003237724304199,0.0939245000481605,0,0,0
9306,317912.8262244017,2010-10-12 06:48:21,150.077743609843,7,27,-1.099568486213684,3.942740440368652,27.97567708449411,26.957411093385304,111.35611693750106,98.7096403783748,-0.0002913951757363,0.0939245000481605,0,0,0
9307,317942.83949852566,2010-10-12 06:48:51,180.0910177338135,7,27,-1.0997490882873535,3.932055950164795,27.97567708449411,26.96657783368874,111.35611693750106,98.74573344783116,-0.0002913951757363,0.0939245000481605,0,0,0
9308,317972.8546051568,2010-10-12 06:49:21,210.10612448024307,7,27,-1.099568486213684,3.922342777252197,27.97567708449411,26.97574511106873,111.35611693750106,98.78173572361952,-0.0002590179501567,0.0939245000481605,0,0,0
9309,318002.8697903237,2010-10-12 06:49:51,240.12130962707056,7,27,-1.099568486213684,3.9132773876190186,27.97567708449411,26.984912494986624,111.35611693750106,98.8176511202616,-0.0002265930233988,0.0939245000481605,0,0,0
9310,318032.88512475765,2010-10-12 06:50:21,270.1366440709923,7,27,-1.099568486213684,3.904373645782471,27.97567708449411,26.99407990855926,111.35611693750106,98.8534838879304,-0.0002266406954731,0.0939245000481605,0,0,0
9311,318062.900283233,2010-10-12 06:50:51,300.15180255637125,7,27,-1.099568486213684,3.895793676376343,27.97567708449411,27.003247273703952,111.35611693750106,98.88923670058766,-0.0002266406954731,0.0939245000481605,0,0,0
9312,318092.9152192188,2010-10-12 06:51:22,330.166738522163,7,27,-1.099568486213684,3.887213706970215,27.97567708449411,27.012414565916277,111.35611693750106,98.9249115625366,-0.0002590179501567,0.0939245000481605,0,0,0
9313,318122.9302606124,2010-10-12 06:51:52,360.1817798154632,7,27,-1.099568486213684,3.879119396209717,27.97567708449411,27.02158190892012,111.35611693750106,98.96051021163372,-0.0001942634553415,0.0939245000481605,0,0,0
9314,318152.9454065665,2010-10-12 06:52:22,390.19692573953546,7,27,-1.099568486213684,3.8710250854492183,27.97567708449411,27.03074926670217,111.35611693750106,98.99603407146483,-0.0001942634553415,0.0939245000481605,0,0,0
9315,318182.96057546785,2010-10-12 06:52:52,420.2120955280853,7,27,-1.099568486213684,3.86309266090393,27.97567708449411,27.039916606642272,111.35611693750106,99.0314840718405,-0.0001942634553415,0.0939245000481605,0,0,0
9316,318212.9757482088,2010-10-12 06:53:22,450.2272674168698,7,27,-1.099568486213684,3.8551602363586426,27.97567708449411,27.049083930178032,111.35611693750106,99.06686147311916,-0.0001942634553415,0.0939245000481605,0,0,0
9317,318242.99087420816,2010-10-12 06:53:52,480.2423934162837,7,27,-1.099568486213684,3.8475515842437744,27.97567708449411,27.05825123684278,111.35611693750106,99.10216716288387,-0.0001618862152099,0.0939245000481605,0,0,0
9318,318273.00619234145,2010-10-12 06:54:22,510.2577115094544,7,27,-1.099568486213684,3.839942932128906,27.97567708449411,27.067418610345538,111.35611693750106,99.13740338407402,-0.0001942634553415,0.0939245000481605,0,0,0
9319,318303.0212749527,2010-10-12 06:54:52,540.2727941357691,7,27,-1.099568486213684,3.832496404647827,27.97567708449411,27.076585935561024,111.35611693750106,99.17257043988307,-0.0001618385285837,0.0939245000481605,0,0,0
9320,318333.0362879856,2010-10-12 06:55:22,570.2878071836732,7,27,-1.099568486213684,3.824887752532959,27.97567708449411,27.08575322494719,111.35611693750106,99.20766920940592,-0.0002590179501567,0.0939245000481605,0,0,0
9321,318363.0514859193,2010-10-12 06:55:52,600.3030050973194,7,27,-1.0993878841400146,3.8177647590637207,27.97567708449411,27.094920626559805,111.35611693750106,99.24270146106588,-0.0001942634553415,0.0939245000481605,0,0,0
9322,318393.0665848312,2010-10-12 06:56:22,630.318104029273,7,27,-1.0993878841400146,3.810479879379273,27.97567708449411,27.10408798519936,111.35611693750106,99.27766737723108,-0.0002266406954731,0.0939245000481605,0,0,0
9323,318423.0817427251,2010-10-12 06:56:52,660.3332619332027,7,27,-1.099568486213684,3.803518772125244,27.97567708449411,27.11325530062536,111.35611693750106,99.31256770302991,-0.0001942634553415,0.0939245000481605,0,0,0
9324,318453.0968987493,2010-10-12 06:57:22,690.3484179273729,7,27,-1.099568486213684,3.796719551086426,27.97567708449411,27.12242264319689,111.35611693750106,99.34740427070722,-0.0001942634553415,0.0939245000481605,0,0,0
9325,318483.1122024165,2010-10-12 06:57:52,720.3637216346895,7,27,-1.099568486213684,3.7900822162628174,27.97567708449411,27.13159006132864,111.35611693750106,99.38217929433304,-0.0001618862152099,0.0939245000481605,0,0,0
9326,318513.12903208204,2010-10-12 06:58:22,750.3805513954007,7,27,-1.099568486213684,3.783444881439209,27.97567708449411,27.140757981059597,111.35611693750106,99.41689551516504,-0.0001942634553415,0.0939245000481605,0,0,0
9327,318543.14243742306,2010-10-12 06:58:52,780.3939566010673,7,27,-1.099568486213684,3.7769694328308105,27.97567708449411,27.14992485525102,111.35611693750106,99.45154764333206,-0.0001942634553415,0.0939245000481605,0,0,0
9328,318573.157508676,2010-10-12 06:59:22,810.4090278790985,7,27,-1.0993878841400146,3.770493984222412,27.97567708449411,27.1590922016571,111.35611693750106,99.4861423702216,-0.0001942634553415,0.0939245000481605,0,0,0
9329,318603.1728085889,2010-10-12 06:59:52,840.4243277769209,7,27,-1.099568486213684,3.764504194259644,27.97567708449411,27.16825953251329,111.35611693750106,99.52068009026466,-0.0001618862152099,0.0939245000481605,0,0,0
9330,318633.1877972109,2010-10-12 07:00:22,870.4393163889232,7,27,-1.0997490882873535,3.758352518081665,27.97567708449411,27.177426896029537,111.35611693750106,99.55516162239128,-0.0001618862152099,0.0939245000481605,0,0,0
9331,318663.2029495059,2010-10-12 07:00:52,900.4544686838736,7,27,-1.0997490882873535,3.7522010803222656,27.97567708449411,27.18659432182634,111.35611693750106,99.58958845155249,-0.0001942157687153,0.0939245000481605,0,0,0
9332,318693.2181098759,2010-10-12 07:01:22,930.4696290539498,7,27,-1.0993878841400146,3.746696949005127,27.97567708449411,27.19576167478901,111.35611693750106,99.62396136401232,-0.0001295089750783,0.0939245000481605,0,0,0
9333,318723.2332756745,2010-10-12 07:01:52,960.4847948826306,7,27,-1.0997490882873535,3.7407071590423584,27.97567708449411,27.204929016841916,111.35611693750106,99.65828136562126,-0.0001942634553415,0.0939245000481605,0,0,0
9334,318753.248417759,2010-10-12 07:02:22,990.4999369370584,7,27,-1.099568486213684,3.73520302772522,27.97567708449411,27.21409635034454,111.35611693750106,99.6925488329006,-0.0001295089750783,0.0939245000481605,0,0,0
9335,318783.2635692068,2010-10-12 07:02:52,1020.5150883748728,7,27,-1.099568486213684,3.729375123977661,27.97567708449411,27.22326377377066,111.35611693750106,99.72676509278917,-0.0001942634553415,0.0939245000481605,0,0,0
9336,318813.2786935421,2010-10-12 07:03:22,1050.5302127151515,7,27,-1.099568486213684,3.7241947650909424,27.97567708449411,27.2324311097705,111.35611693750106,99.7609307480912,-0.0001618862152099,0.0939245000481605,0,0,0
9337,318843.29386282945,2010-10-12 07:03:52,1080.5453820275147,7,27,-1.0993878841400146,3.718690633773804,27.97567708449411,27.241598519826987,111.35611693750106,99.79504647133052,-0.0001295089750783,0.0939245000481605,0,0,0
9338,318873.3090030894,2010-10-12 07:04:22,1110.5605222874703,7,27,-1.099568486213684,3.713510274887085,27.97567708449411,27.250765878440955,111.35611693750106,99.8291131811057,-0.0001295089750783,0.0939245000481605,0,0,0
9339,318903.3244099789,2010-10-12 07:04:52,1140.5759292571486,7,27,-1.0993878841400146,3.708168029785156,27.97567708449411,27.259933281560546,111.35611693750106,99.86313139422568,-0.0001295089750783,0.0939245000481605,0,0,0
9340,318933.33928793506,2010-10-12 07:05:22,1170.5908071081003,7,27,-1.0993878841400146,3.703149557113648,27.97567708449411,27.26910054172537,111.35611693750106,99.89710105146288,-6.47544875391759e-05,0.0939245000481605,0,0,0
9341,318963.3544565056,2010-10-12 07:05:52,1200.6059756786144,7,27,-1.099568486213684,3.697807312011719,27.97567708449411,27.27826796049821,111.35611693750106,99.93102467027693,-0.0001942634553415,0.0939245000481605,0,0,0
9342,318993.3696089509,2010-10-12 07:06:22,1230.621128179077,7,27,-1.0993878841400146,3.69327449798584,27.97567708449411,27.28743532756791,111.35611693750106,99.96490316228294,-9.713172767078504e-05,0.0939245000481605,0,0,0
9343,319023.3847420731,2010-10-12 07:06:52,1260.636261276181,7,27,-1.099568486213684,3.688417911529541,27.97567708449411,27.296602771337746,111.35611693750106,99.99873762312204,-6.47544875391759e-05,0.0939245000481605,0,0,0
9344,319053.39989332046,2010-10-12 07:07:22,1290.65141252352,7,27,-1.0997490882873535,3.683561325073242,27.97567708449411,27.305770160257097,111.35611693750106,100.03252828200556,-0.0001295089750783,0.0939245000481605,0,0,0
9345,319083.4152523105,2010-10-12 07:07:52,1320.6667715086062,7,27,-1.0993878841400146,3.678866624832153,27.97567708449411,27.314937654237596,111.35611693750106,100.06627636120376,-0.0001295089750783,0.0939245000481605,0,0,0
9346,319113.4321347726,2010-10-12 07:08:22,1350.6836539907154,7,27,-1.099568486213684,3.6743338108062735,27.97567708449411,27.32410559368608,111.35611693750106,100.09998399624688,-9.713172767078504e-05,0.0939245000481605,0,0,0
9347,319143.4453581952,2010-10-12 07:08:52,1380.6968773982849,7,27,-1.099568486213684,3.669801235198975,27.97567708449411,27.33327248467936,111.35611693750106,100.13364558966134,-9.713172767078504e-05,0.0939245000481605,0,0,0
9348,319173.46077554574,2010-10-12 07:09:22,1410.712294753848,7,27,-1.0993878841400146,3.665268421173096,27.97567708449411,27.342440003305956,111.35611693750106,100.16726648197306,-6.47544875391759e-05,0.0939245000481605,0,0,0
9349,319203.4756818877,2010-10-12 07:09:52,1440.727201055708,7,27,-1.0993878841400146,3.660573720932007,27.97567708449411,27.35160737249836,111.35611693750106,100.20084511833136,-0.0001295089750783,0.0939245000481605,0,0,0
9350,319233.49341244344,2010-10-12 07:10:22,1470.7449317718776,7,27,-1.0993878841400146,3.656202793121338,27.97567708449411,27.360775647569163,111.35611693750106,100.23438577123748,-6.47544875391759e-05,0.0939245000481605,0,0,0
9351,319263.5059591746,2010-10-12 07:10:52,1500.7574783726366,7,27,-1.099568486213684,3.651831865310669,27.97567708449411,27.369942322963237,111.35611693750106,100.26788005936557,-9.713172767078504e-05,0.0939245000481605,0,0,0
9352,319293.52110145456,2010-10-12 07:11:22,1530.772620667664,7,27,-1.099568486213684,3.64729905128479,27.97567708449411,27.37910971323166,111.35611693750106,100.30133686335154,-0.0001295089750783,0.0939245000481605,0,0,0
9353,319323.5362777643,2010-10-12 07:11:52,1560.7877969624296,7,27,-1.099568486213684,3.643251895904541,27.97567708449411,27.38827700851672,111.35611693750106,100.33475377313482,-9.713172767078504e-05,0.0939245000481605,0,0,0
9354,319353.55140154826,2010-10-12 07:12:22,1590.8029207463217,7,27,-1.0993878841400146,3.638880968093872,27.97567708449411,27.397444339059213,111.35611693750106,100.36813230491968,-0.0001618862152099,0.0939245000481605,0,0,0
9355,319383.5688830383,2010-10-12 07:12:52,1620.8204023416051,7,27,-1.099568486213684,3.634833812713623,27.97567708449411,27.406612399623413,111.35611693750106,100.40147518445966,-0.0001295089750783,0.0939245000481605,0,0,0
9356,319413.5817239726,2010-10-12 07:13:22,1650.833243175684,7,27,-1.0993878841400146,3.630786657333374,27.97567708449411,27.415779064024896,111.35611693750106,100.43477573275692,-6.47544875391759e-05,0.0939245000481605,0,0,0
9357,319443.596872428,2010-10-12 07:13:52,1680.848391606003,7,27,-1.099568486213684,3.626901388168335,27.97567708449411,27.424946454502013,111.35611693750106,100.46804243836937,-0.0001295089750783,0.0939245000481605,0,0,0
9358,319473.6121238951,2010-10-12 07:14:22,1710.8636431082082,7,27,-1.0993878841400146,3.622854232788086,27.97567708449411,27.43411381570458,111.35611693750106,100.50127293535456,-0.0001295089750783,0.0939245000481605,0,0,0
9359,319503.62716093275,2010-10-12 07:14:52,1740.8786801308647,7,27,-1.099568486213684,3.618968963623047,27.97567708449411,27.44328118489996,111.35611693750106,100.53446816007032,-0.0001295089750783,0.0939245000481605,0,0,0
9360,319533.64231040067,2010-10-12 07:15:22,1770.8938295737066,7,27,-1.099568486213684,3.6152455806732178,27.97567708449411,27.45244861113281,111.35611693750106,100.5676289116034,-9.713172767078504e-05,0.0939245000481605,0,0,0
9361,319563.6575852411,2010-10-12 07:15:52,1800.9091044291156,7,27,-1.0993878841400146,3.6118459701538086,27.97567708449411,27.461615979383225,111.35611693750106,100.60075601578984,-9.713172767078504e-05,0.0939245000481605,0,0,0
9362,319593.6726002088,2010-10-12 07:16:22,1830.9241193767543,7,27,-1.099568486213684,3.60812258720398,27.97567708449411,27.47078323448857,111.35611693750106,100.63384979473636,-0.0001295089750783,0.0939245000481605,0,0,0
9363,319623.687889846,2010-10-12 07:16:52,1860.939409044079,7,27,-1.0997490882873535,3.6047229766845694,27.97567708449411,27.47995070695916,111.35611693750106,100.66691218364548,-9.713172767078504e-05,0.0939245000481605,0,0,0
9364,319653.7028916308,2010-10-12 07:17:22,1890.9544108339248,7,27,-1.0997490882873535,3.601323366165161,27.97567708449411,27.48911798895579,111.35611693750106,100.69994319104148,-0.0001295089750783,0.0939245000481605,0,0,0
9365,319683.7180662113,2010-10-12 07:17:52,1920.96958537933,7,27,-1.0997490882873535,3.598085641860962,27.97567708449411,27.498285340709305,111.35611693750106,100.7329438025486,-9.713172767078504e-05,0.0939245000481605,0,0,0
9366,319713.73531704146,2010-10-12 07:18:22,1950.986836344813,7,27,-1.099568486213684,3.5948479175567627,27.97567708449411,27.507453337513184,111.35611693750106,100.76591628279267,-6.47544875391759e-05,0.0939245000481605,0,0,0
9367,319743.7483762699,2010-10-12 07:18:52,1980.9998955731976,7,27,-1.0997490882873535,3.5914485454559326,27.97567708449411,27.51662005324012,111.35611693750106,100.79885441805308,-0.0001295089750783,0.0939245000481605,0,0,0
9368,319773.7634836178,2010-10-12 07:19:22,2011.0150028409264,7,27,-1.099568486213684,3.5885345935821533,27.97567708449411,27.52578745044918,111.35611693750106,100.83176607734916,-6.47544875391759e-05,0.0939245000481605,0,0,0
9369,319803.7786884988,2010-10-12 07:19:52,2041.0302076818373,7,27,-1.0997490882873535,3.585296869277954,27.97567708449411,27.53495488229903,111.35611693750106,100.8646492357824,-9.713172767078504e-05,0.0939245000481605,0,0,0
9370,319833.7938371396,2010-10-12 07:20:22,2071.0453563677934,7,27,-1.0993878841400146,3.582382917404175,27.97567708449411,27.544122260763324,111.35611693750106,100.89750386860456,-6.47544875391759e-05,0.0939245000481605,0,0,0
9371,319863.8092205356,2010-10-12 07:20:52,2101.0607397536937,7,27,-1.0997490882873535,3.579145193099976,27.97567708449411,27.55328971926013,111.35611693750106,100.93033092167158,-9.713172767078504e-05,0.0939245000481605,0,0,0
9372,319893.8241582407,2010-10-12 07:21:22,2131.0756775440327,7,27,-1.0993878841400146,3.5763931274414062,27.97567708449411,27.562457065822787,111.35611693750106,100.96312948896684,-6.47544875391759e-05,0.0939245000481605,0,0,0
9373,319923.8392780296,2010-10-12 07:21:52,2161.090797202643,7,27,-1.0997490882873535,3.573155403137207,27.97567708449411,27.57162450121121,111.35611693750106,100.99590040648788,-6.47544875391759e-05,0.0939245000481605,0,0,0
9374,319953.85449511104,2010-10-12 07:22:22,2191.1060143191494,7,27,-1.099568486213684,3.5700795650482178,27.97567708449411,27.580791873794396,111.35611693750106,101.02864343701089,-9.713172767078504e-05,0.0939245000481605,0,0,0
9375,319983.86968609743,2010-10-12 07:22:52,2221.1212053055306,7,27,-1.0997490882873535,3.5670037269592285,27.97567708449411,27.58995927431473,111.35611693750106,101.06135848592258,-9.713172767078504e-05,0.0939245000481605,0,0,0
9376,320013.88470964145,2010-10-12 07:23:23,2251.136228814507,7,27,-1.0993878841400146,3.564251661300659,27.97567708449411,27.599126644901524,111.35611693750106,101.09404546524,-6.47544875391759e-05,0.0939245000481605,0,0,0
9377,320043.8998882771,2010-10-12 07:23:53,2281.151407480181,7,27,-1.099568486213684,3.56117582321167,27.97567708449411,27.60829395726464,111.35611693750106,101.12670465078423,-6.47544875391759e-05,0.0939245000481605,0,0,0
9378,320073.9150087628,2010-10-12 07:24:23,2311.1665279658537,7,27,-1.0993878841400146,3.5579380989074707,27.97567708449411,27.6174612956264,111.35611693750106,101.15933610127406,-6.47544875391759e-05,0.0939245000481605,0,0,0
9379,320103.9301583058,2010-10-12 07:24:53,2341.181677508945,7,27,-1.099568486213684,3.554862260818481,27.97567708449411,27.626628684046658,111.35611693750106,101.19193960782904,-9.713172767078504e-05,0.0939245000481605,0,0,0
9380,320133.9453047763,2010-10-12 07:25:23,2371.196823979379,7,27,-1.099568486213684,3.551786422729492,27.97567708449411,27.63579606788489,111.35611693750106,101.2245145501926,-9.713172767078504e-05,0.0939245000481605,0,0,0
9381,320163.96048654465,2010-10-12 07:25:53,2401.212005747787,7,27,-1.099568486213684,3.548710584640503,27.97567708449411,27.64496354584032,111.35611693750106,101.25706170649364,-6.47544875391759e-05,0.0939245000481605,0,0,0
9382,320193.97596902255,2010-10-12 07:26:23,2431.227488330917,7,27,-1.099568486213684,3.545472860336304,27.97567708449411,27.654131115270577,111.35611693750106,101.2895809107208,-9.713172767078504e-05,0.0939245000481605,0,0,0
9383,320223.9907586035,2010-10-12 07:26:53,2461.242277771523,7,27,-1.099568486213684,3.5423970222473145,27.97567708449411,27.663298398743866,111.35611693750106,101.32206994686304,-6.47544875391759e-05,0.0939245000481605,0,0,0
9384,320254.00592885824,2010-10-12 07:27:23,2491.2574480563094,7,27,-1.0993878841400146,3.539321184158325,27.97567708449411,27.67246579002402,111.35611693750106,101.35453013742632,-6.47544875391759e-05,0.0939245000481605,0,0,0
9385,320284.0210787472,2010-10-12 07:27:53,2521.272597960301,7,27,-1.0997490882873535,3.535597801208496,27.97567708449411,27.681633221970504,111.35611693750106,101.38696034037832,-0.0001295089750783,0.0939245000481605,0,0,0
9386,320314.0382282548,2010-10-12 07:28:23,2551.289747462907,7,27,-1.099568486213684,3.532521963119507,27.97567708449411,27.690801302139693,111.35611693750106,101.41936227177337,-6.47544875391759e-05,0.0939245000481605,0,0,0
9387,320344.05135692627,2010-10-12 07:28:53,2581.302876129353,7,27,-1.0997490882873535,3.528960466384888,27.97567708449411,27.699968082957916,111.35611693750106,101.45172820718562,-0.0001295089750783,0.0939245000481605,0,0,0
9388,320374.0666334308,2010-10-12 07:29:23,2611.3181526088097,7,27,-1.0992072820663452,3.5255608558654785,27.97567708449411,27.709135299781277,111.35611693750106,101.48406327914655,-6.47544875391759e-05,0.0939245000481605,0,0,0
9389,320404.08165916026,2010-10-12 07:29:53,2641.333178328295,7,27,-1.0993878841400146,3.5218374729156494,27.97567708449411,27.71830194873819,111.35611693750106,101.51636340875342,-0.0001295089750783,0.0939245000481605,0,0,0
9390,320434.0967910143,2010-10-12 07:30:23,2671.348310187313,7,27,-1.099568486213684,3.5181140899658203,27.97567708449411,27.727468656813343,111.35611693750106,101.54862974152236,-0.0001295089750783,0.0939245000481605,0,0,0
9391,320464.1119341514,2010-10-12 07:30:53,2701.363453354514,7,27,-1.0992072820663452,3.514228820800781,27.97567708449411,27.73663535833248,111.35611693750106,101.5808607108272,-9.713172767078504e-05,0.0939245000481605,0,0,0
9392,320494.12709211046,2010-10-12 07:31:23,2731.3786113135816,7,27,-1.0997490882873535,3.5098581314086914,27.97567708449411,27.745802429814155,111.35611693750106,101.61305565424476,-6.47544875391759e-05,0.0939245000481605,0,0,0
9393,320524.14223417995,2010-10-12 07:31:53,2761.3937533780345,7,27,-1.099568486213684,3.5054872035980225,27.97567708449411,27.75496986341924,111.35611693750106,101.64521289680911,-0.0001295089750783,0.0939245000481605,0,0,0
9394,320554.1573569764,2010-10-12 07:32:23,2791.4088761794783,7,27,-1.0993878841400146,3.500954389572144,27.97567708449411,27.764137311818384,111.35611693750106,101.67732853984889,-9.713172767078504e-05,0.0939245000481605,0,0,0
9395,320584.1726372704,2010-10-12 07:32:53,2821.424156448379,7,27,-1.0993878841400146,3.4960978031158447,27.97567708449411,27.773304798873344,111.35611693750106,101.70940072811008,-0.0001295089750783,0.0939245000481605,0,0,0
9396,320614.1876584836,2010-10-12 07:33:23,2851.4391776566213,7,27,-1.099568486213684,3.490755558013916,27.97567708449411,27.782472228937632,111.35611693750106,101.74142645879284,-0.0001618862152099,0.0939245000481605,0,0,0
9397,320644.2029706921,2010-10-12 07:33:53,2881.454489880163,7,27,-1.0993878841400146,3.4852514266967773,27.97567708449411,27.79163971820917,111.35611693750106,101.77340234024376,-9.713172767078504e-05,0.0939245000481605,0,0,0
9398,320674.2179884918,2010-10-12 07:34:23,2911.4695076849225,7,27,-1.099568486213684,3.478614091873169,27.97567708449411,27.800807091301504,111.35611693750106,101.8053219155384,-0.0001618862152099,0.0939245000481605,0,0,0
9399,320704.2331096793,2010-10-12 07:34:53,2941.4846288522936,7,27,-1.099568486213684,3.4714910984039307,27.97567708449411,27.80997454297425,111.35611693750106,101.83718007951872,-0.0002266406954731,0.0939245000481605,0,0,0
9400,320734.24825508206,2010-10-12 07:35:23,2971.4997742550668,7,27,-1.099568486213684,3.4635586738586426,27.97567708449411,27.819142022396637,111.35611693750106,101.86896960618616,-0.0002590179501567,0.0939245000481605,0,0,0
9401,320764.2635423885,2010-10-12 07:35:53,3001.515061571532,7,27,-1.099568486213684,3.4544930458068848,27.97567708449411,27.82830946070176,111.35611693750106,101.90068075110965,-0.0002590179501567,0.0939245000481605,0,0,0
9402,320794.2785554514,2010-10-12 07:36:23,3031.5300746244484,7,27,-1.099568486213684,3.4436466693878174,27.97567708449411,27.837476841528176,111.35611693750106,101.93230108401238,-0.0003237724304199,0.0939245000481605,0,0,0
9403,320824.2938650534,2010-10-12 07:36:53,3061.5453843668065,7,27,-1.099568486213684,3.4308578968048096,27.97567708449411,27.84664428090554,111.35611693750106,101.96381461586395,-0.0004208564641885,0.0939245000481605,0,0,0
9404,320854.3088595701,2010-10-12 07:37:23,3091.5603787682376,7,27,-1.0993878841400146,3.4154787063598637,27.97567708449411,27.855811672214703,111.35611693750106,101.99519950767856,-0.0004532813909463,0.0939245000481605,0,0,0
9405,320884.3240447721,2010-10-12 07:37:53,3121.57556396519,7,27,-1.099568486213684,3.396052360534668,27.97567708449411,27.86497910217229,111.35611693750106,102.02642540760782,-0.0005504131549969,0.0939245000481605,0,0,0
9406,320914.3411923599,2010-10-12 07:38:23,3151.5927116632997,7,27,-1.0997490882873535,3.370959997177124,27.97567708449411,27.87414711238874,111.35611693750106,102.05745108666676,-0.0007122993702068,0.0939245000481605,0,0,0
9407,320944.3543022346,2010-10-12 07:38:53,3181.605821552947,7,27,-1.099568486213684,3.3366403579711914,27.97567708449411,27.88331391320097,111.35611693750106,102.08820340104096,-0.0010360718006268,0.0939245000481605,0,0,0
9408,320974.3694474068,2010-10-12 07:39:23,3211.620966604846,7,27,-1.0993878841400146,3.288883924484253,27.97567708449411,27.89248130304073,111.35611693750106,102.11858472357127,-0.0014569759368896,0.0939245000481605,0,0,0
9409,321004.38473723945,2010-10-12 07:39:53,3241.6362564325705,7,27,-1.099568486213684,3.2199206352233887,27.97567708449411,27.90164871202185,111.35611693750106,102.14843787099424,-0.0021045207977294,0.0939245000481605,0,0,0
9410,321034.3999117197,2010-10-12 07:40:23,3271.651430927851,7,27,-1.0993878841400146,3.1184182167053223,27.97567708449411,27.91081616661991,111.35611693750106,102.17752343516936,-0.0032053471077233,0.0939245000481605,0,0,0
9411,321064.4148877053,2010-10-12 07:40:53,3301.6664068732844,7,27,-1.099568486213684,2.951352119445801,27.97567708449411,27.91998359416912,111.35611693750106,102.20542422768736,-0.0058926581405103,0.0939245000481605,0,0,0
9412,321083.6490814192,2010-10-12 07:41:12,3320.9006006122954,7,27,-1.099568486213684,2.7512614727020264,27.97567708449411,27.92585824098097,111.35611693750106,102.22223010489272,-0.0102311614900827,0.0939245000481605,0,0,0
9413,321087.3365978398,2010-10-12 07:41:16,3324.5881171531355,7,27,-1.099568486213684,2.699943780899048,27.97567708449411,27.926984528317085,111.35611693750106,102.22530042237648,-0.0111053464934229,0.0939245000481605,0,0,0
9414,321147.368139213,2010-10-12 07:42:16,60.01740836854931,8,27,0.0,3.353638172149658,27.97567708449411,27.926984528317085,111.35611693750106,102.22530042237648,0.0012626647949218,0.0939245000481605,0,0,0
9415,321147.56828893634,2010-10-12 07:42:16,0.187622016795706,9,27,-1.9243103452026844e-05,3.354123830795288,27.97567708449411,27.92698452931998,111.35611693750106,102.22530042574031,0.0,0.0938397273421287,0,0,0
9416,321152.39622959495,2010-10-12 07:42:21,5.015562655387273,9,27,0.0007031940040178,3.361732482910156,27.97567798138848,27.926984529403377,111.35611994965642,102.22530042602004,0.0011332035064697,0.0938397273421287,0,0,0
