Data_Point,Test_Time(s),Date_Time,Step_Time(s),Step_Index,Cycle_Index,Current(A),Voltage(V),Charge_Capacity(Ah),Discharge_Capacity(Ah),Charge_Energy(Wh),Discharge_Energy(Wh),dV/dt(V/s),Internal_Resistance(Ohm),Is_FC_Data,AC_Impedance(Ohm),ACI_Phase_Angle(Deg)
16810,577167.3669026678,2010-10-15 06:49:44,30.015124049554277,1,50,0.0,3.42891526222229,50.005712358428696,49.9453543400066,199.30237224130084,182.4439077846861,0.0007446765666827,0.0909321531653404,0,0,0
16811,577197.382042271,2010-10-15 06:50:14,60.030263738085694,1,50,0.0,3.452550411224365,50.005712358428696,49.9453543400066,199.30237224130084,182.4439077846861,0.0005504131549969,0.0909321531653404,0,0,0
16812,577227.3972264304,2010-10-15 06:50:44,90.04544785735216,1,50,0.0,3.470357894897461,50.005712358428696,49.9453543400066,199.30237224130084,182.4439077846861,0.0003885269106831,0.0909321531653404,0,0,0
16813,577257.3656702385,2010-10-15 06:51:14,120.01389174558128,1,50,0.0,3.4849276542663574,50.005712358428696,49.9453543400066,199.30237224130084,182.4439077846861,0.0003561496851034,0.0909321531653404,0,0,0
16814,577287.3526927052,2010-10-15 06:51:44,30.01518210925692,2,50,0.5499359965324402,3.635643243789673,50.01029880349903,49.9453543400066,199.31889948638252,182.4439077846861,0.0014245987404137,0.0909321531653404,0,0,0
16815,577317.3678042286,2010-10-15 06:52:14,60.03029362757951,2,50,0.5501165986061096,3.678057193756104,50.0148852299266,49.9453543400066,199.33567769554745,182.4439077846861,0.0009389400365762,0.0909321531653404,0,0,0
16816,577347.3832095893,2010-10-15 06:52:44,90.04569902333508,2,50,0.5501165986061096,3.708168029785156,50.019471689452764,49.9453543400066,199.3526192787677,182.4439077846861,0.0006799221155233,0.0909321531653404,0,0,0
16817,577377.3981125327,2010-10-15 06:53:14,120.06060192672508,2,50,0.5501165986061096,3.7316415309906006,50.024058117896814,49.9453543400066,199.36968252482524,182.4439077846861,0.0005180359003134,0.0909321531653404,0,0,0
16818,577407.4132274846,2010-10-15 06:53:44,150.07571687860514,2,50,0.5499359965324402,3.750582218170166,50.02864450552895,49.9453543400066,199.38684184810936,182.4439077846861,0.0005180359003134,0.0909321531653404,0,0,0
16819,577437.428561738,2010-10-15 06:54:14,180.09105131751443,2,50,0.5501165986061096,3.7649898529052734,50.03323089627697,49.9453543400066,199.40407766248185,182.4439077846861,0.0003237724304199,0.0909321531653404,0,0,0
16820,577467.4435124005,2010-10-15 06:54:44,210.10600189472223,2,50,0.5501165986061096,3.774541139602661,50.03781723688415,49.9453543400066,199.42136841429377,182.4439077846861,0.0002266406954731,0.0909321531653404,0,0,0
16821,577497.4586491517,2010-10-15 06:55:14,240.12113860583293,2,50,0.5501165986061096,3.78036904335022,50.0424036124372,49.9453543400066,199.43869375693623,182.4439077846861,0.0001618862152099,0.0909321531653404,0,0,0
16822,577527.4739088494,2010-10-15 06:55:44,270.136398283414,2,50,0.5501165986061096,3.784578084945679,50.04698996272767,49.9453543400066,199.456041676899,182.4439077846861,0.0001295089750783,0.0909321531653404,0,0,0
16823,577557.4889428746,2010-10-15 06:56:14,300.1514322835374,2,50,0.550297200679779,3.788625240325928,50.05157631141426,49.9453543400066,199.4734082790623,182.4439077846861,0.0001295089750783,0.0909321531653404,0,0,0
16824,577587.504113019,2010-10-15 06:56:44,330.1666024480243,2,50,0.5501165986061096,3.792348623275757,50.05616271324682,49.9453543400066,199.49079245443204,182.4439077846861,0.0001295089750783,0.0909321531653404,0,0,0
16825,577617.5191968683,2010-10-15 06:57:14,360.1816862723249,2,50,0.5501165986061096,3.795910120010376,50.0607490868373,49.9453543400066,199.5081938274849,182.4439077846861,9.713172767078504e-05,0.0909321531653404,0,0,0
16826,577647.5343481457,2010-10-15 06:57:44,390.19683754472686,2,50,0.5499359965324402,3.799633502960205,50.06533551258978,49.9453543400066,199.52561227631008,182.4439077846861,9.713172767078504e-05,0.0909321531653404,0,0,0
16827,577677.549492972,2010-10-15 06:58:14,420.2119823710632,2,50,0.5501165986061096,3.803194999694824,50.06992196745196,49.9453543400066,199.5430474813102,182.4439077846861,9.713172767078504e-05,0.0909321531653404,0,0,0
16828,577707.5648381377,2010-10-15 06:58:44,450.2273276570067,2,50,0.5501165986061096,3.8067564964294434,50.07450845473792,49.9453543400066,199.56049911530312,182.4439077846861,9.713172767078504e-05,0.0909321531653404,0,0,0
16829,577737.5798926139,2010-10-15 06:59:14,480.2423820279003,2,50,0.5501165986061096,3.8103179931640634,50.07909489640594,49.9453543400066,199.57796655292788,182.4439077846861,0.0001295089750783,0.0909321531653404,0,0,0
16830,577767.5950345831,2010-10-15 06:59:44,510.2575240121534,2,50,0.5501165986061096,3.813717603683472,50.08368132914037,49.9453543400066,199.5954497286191,182.4439077846861,0.0001295089750783,0.0909321531653404,0,0,0
16831,577797.6102028027,2010-10-15 07:00:14,540.2726922518431,2,50,0.5499359965324402,3.817117214202881,50.088267709545626,49.9453543400066,199.6129484168464,182.4439077846861,9.713172767078504e-05,0.0909321531653404,0,0,0
16832,577827.6251923571,2010-10-15 07:00:44,570.2876818112064,2,50,0.5499359965324402,3.82035493850708,50.09285335232721,49.9453543400066,199.63045935419245,182.4439077846861,6.47544875391759e-05,0.0909321531653404,0,0,0
16833,577857.6403314541,2010-10-15 07:01:14,600.3028208531263,2,50,0.550297200679779,3.8235926628112793,50.09743889747817,49.9453543400066,199.64798496061235,182.4439077846861,9.713172767078504e-05,0.0909321531653404,0,0,0
16834,577887.6554750173,2010-10-15 07:01:44,630.3179645616768,2,50,0.5501165986061096,3.8268303871154794,50.10202437145671,49.9453543400066,199.66552511015337,182.4439077846861,9.713172767078504e-05,0.0909321531653404,0,0,0
16835,577917.6734190902,2010-10-15 07:02:14,660.3359086195595,2,50,0.5501165986061096,3.829906225204468,50.10661036808477,49.9453543400066,199.6830821070743,182.4439077846861,6.47544875391759e-05,0.0909321531653404,0,0,0
16836,577947.6857890106,2010-10-15 07:02:44,690.3482784146643,2,50,0.5501165986061096,3.833467483520508,50.11119617461076,49.9453543400066,199.7006534780405,182.4439077846861,0.0001618385285837,0.0909321531653404,0,0,0
16837,577977.7009025591,2010-10-15 07:03:14,720.3633919680589,2,50,0.5501165986061096,3.836543321609497,50.115782580015576,49.9453543400066,199.7182422700134,182.4439077846861,3.237724376958795e-05,0.0909321531653404,0,0,0
16838,578007.7160637713,2010-10-15 07:03:44,750.3785531902588,2,50,0.5499359965324402,3.840104818344116,50.12036896023002,49.9453543400066,199.73584624045208,182.4439077846861,0.0001295089750783,0.0909321531653404,0,0,0
16839,578037.7313226719,2010-10-15 07:04:14,780.3938120758659,2,50,0.5501165986061096,3.843342542648315,50.124955385635126,49.9453543400066,199.7534658990326,182.4439077846861,6.47544875391759e-05,0.0909321531653404,0,0,0
16840,578067.7463224417,2010-10-15 07:04:44,810.4088118406645,2,50,0.5501165986061096,3.846904039382935,50.12954176030611,49.9453543400066,199.77110088736404,182.4439077846861,0.0001295089750783,0.0909321531653404,0,0,0
16841,578097.761464441,2010-10-15 07:05:14,840.4239538399548,2,50,0.5501165986061096,3.850141763687134,50.13412820934301,49.9453543400066,199.7887517865999,182.4439077846861,9.713172767078504e-05,0.0909321531653404,0,0,0
16842,578127.7766101846,2010-10-15 07:05:44,870.4390995835774,2,50,0.5501165986061096,3.853541374206543,50.138714629406735,49.9453543400066,199.806418114104,182.4439077846861,9.713172767078504e-05,0.0909321531653404,0,0,0
16843,578157.7918289101,2010-10-15 07:06:14,900.4543184394182,2,50,0.5501165986061096,3.856940984725952,50.14330099511703,49.9453543400066,199.82409947580337,182.4439077846861,0.0001618862152099,0.0909321531653404,0,0,0
16844,578187.8068958974,2010-10-15 07:06:45,930.4693853315188,2,50,0.5501165986061096,3.860178709030152,50.147887337012016,49.9453543400066,199.8417958129587,182.4439077846861,9.713172767078504e-05,0.0909321531653404,0,0,0
16845,578217.8220475708,2010-10-15 07:07:15,960.4845370199574,2,50,0.5501165986061096,3.8632545471191406,50.15247371439686,49.9453543400066,199.8595070183236,182.4439077846861,6.47544875391759e-05,0.0909321531653404,0,0,0
16846,578247.8371904374,2010-10-15 07:07:45,990.4996799666092,2,50,0.5499359965324402,3.86633038520813,50.15706012428348,49.9453543400066,199.87723271469824,182.4439077846861,6.47544875391759e-05,0.0909321531653404,0,0,0
16847,578277.8523244967,2010-10-15 07:08:15,1020.5148139358864,2,50,0.550297200679779,3.869568109512329,50.16164652529579,49.9453543400066,199.8949725312012,182.4439077846861,0.0001295089750783,0.0909321531653404,0,0,0
16848,578307.8674530375,2010-10-15 07:08:45,1050.5299424615966,2,50,0.5501165986061096,3.8723201751708975,50.1662329281797,49.9453543400066,199.9127260955366,182.4439077846861,6.47544875391759e-05,0.0909321531653404,0,0,0
16849,578337.8825979992,2010-10-15 07:09:15,1080.5450875134952,2,50,0.5499359965324402,3.875072240829468,50.17081933397001,49.9453543400066,199.9304929122031,182.4439077846861,3.237724376958795e-05,0.0909321531653404,0,0,0
16850,578367.8977464195,2010-10-15 07:09:45,1110.5602358485764,2,50,0.5501165986061096,3.877824306488037,50.17540577894085,49.9453543400066,199.94827263250457,182.4439077846861,6.47544875391759e-05,0.0909321531653404,0,0,0
16851,578397.9131973487,2010-10-15 07:10:15,1140.5756868680403,2,50,0.5501165986061096,3.880414485931397,50.17999227810474,49.9453543400066,199.9660648650168,182.4439077846861,3.237724376958795e-05,0.0909321531653404,0,0,0
16852,578427.9280409141,2010-10-15 07:10:45,1170.5905303483296,2,50,0.5497553944587708,3.882842779159546,50.18457870748568,49.9453543400066,199.9838684648317,182.4439077846861,0.0,0.0909321531653404,0,0,0
16853,578457.9431686881,2010-10-15 07:11:15,1200.605658112141,2,50,0.5501165986061096,3.8852710723876953,50.18916518891147,49.9453543400066,200.0016833306776,182.4439077846861,3.237724376958795e-05,0.0909321531653404,0,0,0
16854,578487.9583023115,2010-10-15 07:11:45,1230.6207917054812,2,50,0.5501165986061096,3.887375593185425,50.19375152713057,49.9453543400066,200.01950804584493,182.4439077846861,0.0,0.0909321531653404,0,0,0
16855,578517.9734675286,2010-10-15 07:12:15,1260.6359569727629,2,50,0.5499359965324402,3.889642000198364,50.19833792138396,49.9453543400066,200.03734280403972,182.4439077846861,3.237724376958795e-05,0.0909321531653404,0,0,0
16856,578547.9885937235,2010-10-15 07:12:45,1290.6510831526266,2,50,0.5501165986061096,3.891584634780884,50.2029244092789,49.9453543400066,200.05518704264887,182.4439077846861,6.47544875391759e-05,0.0909321531653404,0,0,0
16857,578578.0037683692,2010-10-15 07:13:15,1320.6662577882569,2,50,0.5501165986061096,3.8935272693634033,50.20751080388814,49.9453543400066,200.07303939370263,182.4439077846861,9.713172767078504e-05,0.0909321531653404,0,0,0
16858,578608.0189838416,2010-10-15 07:13:45,1350.6814732757025,2,50,0.5501165986061096,3.894822359085083,50.21209728699694,49.9453543400066,200.0909000272728,182.4439077846861,0.0,0.0909321531653404,0,0,0
16859,578638.0340186738,2010-10-15 07:14:15,1380.6965080978748,2,50,0.5499359965324402,3.896441221237183,50.21668372321069,49.9453543400066,200.10876742240944,182.4439077846861,3.237724376958795e-05,0.0909321531653404,0,0,0
16860,578668.0492407327,2010-10-15 07:14:45,1410.7117301767482,2,50,0.5501165986061096,3.898060083389282,50.22127013133653,49.9453543400066,200.12664174570023,182.4439077846861,9.713172767078504e-05,0.0909321531653404,0,0,0
16861,578698.0643034844,2010-10-15 07:15:15,1440.7267928834171,2,50,0.5499359965324402,3.899355173110962,50.22585645367989,49.9453543400066,200.1445223027184,182.4439077846861,3.237724376958795e-05,0.0909321531653404,0,0,0
16862,578728.0794518346,2010-10-15 07:15:45,1470.7419412686231,2,50,0.5501165986061096,3.900812149047852,50.23044284670822,49.9453543400066,200.16240933179515,182.4439077846861,9.713172767078504e-05,0.0909321531653404,0,0,0
16863,578758.0946688858,2010-10-15 07:16:15,1500.7571583149545,2,50,0.5501165986061096,3.901945352554321,50.235029191525456,49.9453543400066,200.18030219262292,182.4439077846861,0.0,0.0909321531653404,0,0,0
16864,578788.1098494664,2010-10-15 07:16:45,1530.7723388803631,2,50,0.5501165986061096,3.903078556060791,50.23961550518194,49.9453543400066,200.19820069427297,182.4439077846861,0.0,0.0909321531653404,0,0,0
16865,578818.12486887,2010-10-15 07:17:15,1560.787358304158,2,50,0.5499359965324402,3.904373645782471,50.24420180743143,49.9453543400066,200.21610485693137,182.4439077846861,3.237724376958795e-05,0.0909321531653404,0,0,0
16866,578848.1400238618,2010-10-15 07:17:45,1590.8025132908172,2,50,0.5501165986061096,3.9056687355041504,50.24878818283207,49.9453543400066,200.2340148155652,182.4439077846861,6.47544875391759e-05,0.0909321531653404,0,0,0
16867,578878.1551629789,2010-10-15 07:18:15,1620.8176523728368,2,50,0.5501165986061096,3.90696382522583,50.25337456313,49.9453543400066,200.25193038824617,182.4439077846861,6.47544875391759e-05,0.0909321531653404,0,0,0
16868,578908.1702920108,2010-10-15 07:18:45,1650.8327814098216,2,50,0.5501165986061096,3.90793514251709,50.25796091674172,49.9453543400066,200.26985144830465,182.4439077846861,0.0,0.0909321531653404,0,0,0
16869,578938.1854241004,2010-10-15 07:19:15,1680.847913509439,2,50,0.5499359965324402,3.9092302322387695,50.26254725641112,49.9453543400066,200.2877780312984,182.4439077846861,3.237724376958795e-05,0.0909321531653404,0,0,0
16870,578968.2006954621,2010-10-15 07:19:45,1710.8631848861778,2,50,0.5501165986061096,3.910687208175659,50.26713361356657,49.9453543400066,200.30571030897823,182.4439077846861,6.47544875391759e-05,0.0909321531653404,0,0,0
16871,578998.2158601229,2010-10-15 07:20:15,1740.8783495369228,2,50,0.5501165986061096,3.911982297897339,50.271719968340285,49.9453543400066,200.3236481167364,182.4439077846861,9.713172767078504e-05,0.0909321531653404,0,0,0
16872,579028.230974388,2010-10-15 07:20:45,1770.8934638020912,2,50,0.5501165986061096,3.912953615188599,50.27630623838387,49.9453543400066,200.3415913052368,182.4439077846861,6.47544875391759e-05,0.0909321531653404,0,0,0
16873,579058.2460174457,2010-10-15 07:21:15,1800.9085069049015,2,50,0.550297200679779,3.914248466491699,50.280892577968885,49.9453543400066,200.35954048486187,182.4439077846861,6.47544875391759e-05,0.0909321531653404,0,0,0
16874,579088.2611355053,2010-10-15 07:21:45,1830.923624934452,2,50,0.550297200679779,3.915543556213379,50.28547900745978,49.9453543400066,200.37749583456372,182.4439077846861,6.47544875391759e-05,0.0909321531653404,0,0,0
16875,579118.2762831236,2010-10-15 07:22:15,1860.9387725527467,2,50,0.550297200679779,3.9166767597198486,50.290065348174224,49.9453543400066,200.3954564009447,182.4439077846861,3.237724376958795e-05,0.0909321531653404,0,0,0
16876,579148.291413469,2010-10-15 07:22:45,1890.953902897992,2,50,0.5501165986061096,3.917971849441528,50.294651706490335,49.9453543400066,200.41342296192627,182.4439077846861,0.0,0.0909321531653404,0,0,0
16877,579178.3066185154,2010-10-15 07:23:15,1920.96910803464,2,50,0.5501165986061096,3.919266939163208,50.29923802820128,49.9453543400066,200.4313952259268,182.4439077846861,6.47544875391759e-05,0.0909321531653404,0,0,0
16878,579208.3216994825,2010-10-15 07:23:45,1950.9841889115955,2,50,0.5499359965324402,3.920562028884888,50.30382435980015,49.9453543400066,200.44937353107431,182.4439077846861,0.0,0.0909321531653404,0,0,0
16879,579238.3369974906,2010-10-15 07:24:15,1980.99948690467,2,50,0.5501165986061096,3.921857118606568,50.30841075940234,49.9453543400066,200.46735799160007,182.4439077846861,0.0,0.0909321531653404,0,0,0
16880,579268.3522822356,2010-10-15 07:24:45,2011.0147716697768,2,50,0.5499359965324402,3.923152208328247,50.3129971271128,49.9453543400066,200.48534839981056,182.4439077846861,3.237724376958795e-05,0.0909321531653404,0,0,0
16881,579298.3671311093,2010-10-15 07:25:15,2041.0296205134337,2,50,0.5501165986061096,3.9246091842651367,50.317583451200136,49.9453543400066,200.50334469046905,182.4439077846861,3.237724376958795e-05,0.0909321531653404,0,0,0
16882,579328.3822602968,2010-10-15 07:25:45,2071.0447497007926,2,50,0.5501165986061096,3.925904273986816,50.32216988783368,49.9453543400066,200.52134765818047,182.4439077846861,0.0,0.0909321531653404,0,0,0
16883,579358.397425554,2010-10-15 07:26:15,2101.059914983112,2,50,0.5501165986061096,3.927199363708496,50.32675627848175,49.9453543400066,200.53935649547824,182.4439077846861,3.237724376958795e-05,0.0909321531653404,0,0,0
16884,579388.4125500196,2010-10-15 07:26:45,2131.07503942364,2,50,0.5499359965324402,3.928494453430176,50.33134265070666,49.9453543400066,200.55737156772796,182.4439077846861,0.0,0.0909321531653404,0,0,0
16885,579418.4276799138,2010-10-15 07:27:15,2161.090169322774,2,50,0.550297200679779,3.9301133155822754,50.33592901551557,49.9453543400066,200.57539290392788,182.4439077846861,6.47544875391759e-05,0.0909321531653404,0,0,0
16886,579448.4428296974,2010-10-15 07:27:45,2191.105319126515,2,50,0.5501165986061096,3.931408405303955,50.34051549687763,49.9453543400066,200.5934210823632,182.4439077846861,6.47544875391759e-05,0.0909321531653404,0,0,0
16887,579478.4579884636,2010-10-15 07:28:15,2221.1204778825686,2,50,0.550297200679779,3.9328653812408447,50.34510188291648,49.9453543400066,200.61145526899696,182.4439077846861,3.237724376958795e-05,0.0909321531653404,0,0,0
16888,579508.4732478053,2010-10-15 07:28:45,2251.135737249376,2,50,0.5499359965324402,3.9343223571777344,50.34968833547761,49.9453543400066,200.6294961940124,182.4439077846861,6.47544875391759e-05,0.0909321531653404,0,0,0
16889,579538.4882478508,2010-10-15 07:29:15,2281.1507372447486,2,50,0.5501165986061096,3.935779333114624,50.35427480316242,49.9453543400066,200.6475437071266,182.4439077846861,9.713172767078504e-05,0.0909321531653404,0,0,0
16890,579568.5035281397,2010-10-15 07:29:45,2311.166017553749,2,50,0.5499359965324402,3.937074422836304,50.358861270031234,49.9453543400066,200.6655976891048,182.4439077846861,3.237724376958795e-05,0.0909321531653404,0,0,0
16891,579598.5185334082,2010-10-15 07:30:15,2341.18102281224,2,50,0.550297200679779,3.938531398773194,50.36344762866884,49.9453543400066,200.68365797562416,182.4439077846861,3.237724376958795e-05,0.0909321531653404,0,0,0
16892,579628.5337887349,2010-10-15 07:30:45,2371.1962781439897,2,50,0.5501165986061096,3.939988374710083,50.36803400588895,49.9453543400066,200.70172501213085,182.4439077846861,3.237724376958795e-05,0.0909321531653404,0,0,0
16893,579658.5487984396,2010-10-15 07:31:15,2401.211287878636,2,50,0.5501165986061096,3.9414453506469727,50.37262042879436,49.9453543400066,200.71979900967133,182.4439077846861,0.0,0.0909321531653404,0,0,0
16894,579688.5639715664,2010-10-15 07:31:45,2431.226460975431,2,50,0.5499359965324402,3.9429023265838623,50.37720686593167,49.9453543400066,200.7378797567939,182.4439077846861,3.237724376958795e-05,0.0909321531653404,0,0,0
16895,579718.5792134096,2010-10-15 07:32:15,2461.241702808538,2,50,0.5501165986061096,3.944521188735962,50.38179326630151,49.9453543400066,200.7559672806704,182.4439077846861,3.237724376958795e-05,0.0909321531653404,0,0,0
16896,579748.5942297757,2010-10-15 07:32:45,2491.25671929,2,50,0.5499359965324402,3.945978164672852,50.38637962439561,49.9453543400066,200.77406154317617,182.4439077846861,3.237724376958795e-05,0.0909321531653404,0,0,0
16897,579778.6093615895,2010-10-15 07:33:15,2521.2718509936303,2,50,0.550297200679779,3.947597026824951,50.39096603650332,49.9453543400066,200.7921628487846,182.4439077846861,6.47544875391759e-05,0.0909321531653404,0,0,0
16898,579808.6245176139,2010-10-15 07:33:45,2551.287007042938,2,50,0.5499359965324402,3.948892116546631,50.395552362275005,49.9453543400066,200.81027084501537,182.4439077846861,0.0,0.0909321531653404,0,0,0
16899,579838.6424404989,2010-10-15 07:34:15,2581.3049300383263,2,50,0.5499359965324402,3.9505109786987305,50.400139144924886,49.9453543400066,200.82838774986968,182.4439077846861,6.47544875391759e-05,0.0909321531653404,0,0,0
16900,579868.6548211812,2010-10-15 07:34:45,2611.31731061029,2,50,0.5501165986061096,3.95212984085083,50.40472511897227,49.9453543400066,200.84650857949543,182.4439077846861,3.237724376958795e-05,0.0909321531653404,0,0,0
16901,579898.6699518673,2010-10-15 07:35:15,2641.332441296385,2,50,0.550297200679779,3.95391058921814,50.409311454888666,49.9453543400066,200.86463796735995,182.4439077846861,6.47544875391759e-05,0.0909321531653404,0,0,0
16902,579928.6850729544,2010-10-15 07:35:45,2671.347562363506,2,50,0.5501165986061096,3.955367565155029,50.413897872744776,49.9453543400066,200.88277496397453,182.4439077846861,6.47544875391759e-05,0.0909321531653404,0,0,0
16903,579958.7003485267,2010-10-15 07:36:15,2701.3628379407137,2,50,0.5501165986061096,3.956986427307129,50.41848430187369,49.9453543400066,200.90091930225952,182.4439077846861,3.237724376958795e-05,0.0909321531653404,0,0,0
16904,579988.7153505271,2010-10-15 07:36:45,2731.3778399511093,2,50,0.5499359965324402,3.9584434032440186,50.42307072102294,49.9453543400066,200.9190708001424,182.4439077846861,0.0,0.0909321531653404,0,0,0
16905,580018.7304886968,2010-10-15 07:37:15,2761.392978100805,2,50,0.550297200679779,3.960224151611328,50.42765712694776,49.9453543400066,200.9372296559252,182.4439077846861,0.0001295089750783,0.0909321531653404,0,0,0
16906,580048.7456311673,2010-10-15 07:37:45,2791.408120566258,2,50,0.5501165986061096,3.961843013763428,50.43224348023306,49.9453543400066,200.95539577581195,182.4439077846861,6.47544875391759e-05,0.0909321531653404,0,0,0
16907,580078.7607780988,2010-10-15 07:38:15,2821.423267542953,2,50,0.5501165986061096,3.9634618759155273,50.43682990809814,49.9453543400066,200.9735695895799,182.4439077846861,9.713172767078504e-05,0.0909321531653404,0,0,0
16908,580108.7759258976,2010-10-15 07:38:46,2851.4384153467104,2,50,0.5501165986061096,3.964918851852417,50.44141628053978,49.9453543400066,200.99175073470224,182.4439077846861,3.237724376958795e-05,0.0909321531653404,0,0,0
16909,580138.7910462178,2010-10-15 07:39:16,2881.45353564692,2,50,0.5501165986061096,3.966699600219727,50.44600266006404,49.9453543400066,201.0099395035562,182.4439077846861,6.47544875391759e-05,0.0909321531653404,0,0,0
16910,580168.806193385,2010-10-15 07:39:46,2911.4686828140907,2,50,0.550297200679779,3.968480348587036,50.45058911692614,49.9453543400066,201.0281361523973,182.4439077846861,6.47544875391759e-05,0.0909321531653404,0,0,0
16911,580198.8213593992,2010-10-15 07:40:16,2941.4838488131963,2,50,0.5501165986061096,3.969937324523926,50.45517550726045,49.9453543400066,201.04634022262803,182.4439077846861,0.0,0.0909321531653404,0,0,0
16912,580228.8364746618,2010-10-15 07:40:46,2971.498964065825,2,50,0.5501165986061096,3.971879959106445,50.4597619177348,49.9453543400066,201.0645521090488,182.4439077846861,6.47544875391759e-05,0.0909321531653404,0,0,0
16913,580258.8516130922,2010-10-15 07:41:16,3001.5141024912086,2,50,0.5499359965324402,3.973336935043335,50.46434845264323,49.9453543400066,201.0827723239831,182.4439077846861,0.0,0.0909321531653404,0,0,0
16914,580288.8667889007,2010-10-15 07:41:46,3031.529278304775,2,50,0.5501165986061096,3.975117683410645,50.46893482356364,49.9453543400066,201.1009997051532,182.4439077846861,3.237724376958795e-05,0.0909321531653404,0,0,0
16915,580318.8821060616,2010-10-15 07:42:16,3061.544595565872,2,50,0.5501165986061096,3.976736545562744,50.47352139294669,49.9453543400066,201.1192358834231,182.4439077846861,3.237724376958795e-05,0.0909321531653404,0,0,0
16916,580348.8970437467,2010-10-15 07:42:46,3091.5595331757613,2,50,0.5501165986061096,3.978355407714844,50.4781078154919,49.9453543400066,201.13747889902265,182.4439077846861,9.713172767078504e-05,0.0909321531653404,0,0,0
16917,580378.9121842873,2010-10-15 07:43:16,3121.574673726441,2,50,0.5499359965324402,3.980459928512573,50.48269413980754,49.9453543400066,201.15572999508385,182.4439077846861,6.47544875391759e-05,0.0909321531653404,0,0,0
16918,580408.9273227529,2010-10-15 07:43:46,3151.589812146812,2,50,0.550297200679779,3.982240676879883,50.48728048612712,49.9453543400066,201.17398919035324,182.4439077846861,9.713172767078504e-05,0.0909321531653404,0,0,0
16919,580438.9424692283,2010-10-15 07:44:16,3181.604958637296,2,50,0.5501165986061096,3.983697652816773,50.49186684686941,49.9453543400066,201.19225660316977,182.4439077846861,3.237724376958795e-05,0.0909321531653404,0,0,0
16920,580468.9576418138,2010-10-15 07:44:46,3211.620131217804,2,50,0.5501165986061096,3.985640287399292,50.49645317101206,49.9453543400066,201.21053203041996,182.4439077846861,3.237724376958795e-05,0.0909321531653404,0,0,0
16921,580498.9727188962,2010-10-15 07:45:16,3241.6352083203524,2,50,0.5499359965324402,3.9874210357666016,50.50103886164282,49.9453543400066,201.2288130940115,182.4439077846861,3.237724376958795e-05,0.0909321531653404,0,0,0
16922,580528.9879102285,2010-10-15 07:45:46,3271.650399652596,2,50,0.5501165986061096,3.989201784133911,50.50562444928215,49.9453543400066,201.24710189656324,182.4439077846861,6.47544875391759e-05,0.0909321531653404,0,0,0
16923,580559.0031852543,2010-10-15 07:46:16,3301.665674658379,2,50,0.5499359965324402,3.9909825325012207,50.51021062745029,49.9453543400066,201.26540164101476,182.4439077846861,3.237724376958795e-05,0.0909321531653404,0,0,0
16924,580589.0182863969,2010-10-15 07:46:46,3331.680775840942,2,50,0.550297200679779,3.99324893951416,50.51479696275862,49.9453543400066,201.28371060679083,182.4439077846861,9.713172767078504e-05,0.0909321531653404,0,0,0
16925,580619.0333122767,2010-10-15 07:47:16,3361.695801675715,2,50,0.5501165986061096,3.9948675632476807,50.519383251760345,49.9453543400066,201.30202795083363,182.4439077846861,6.47544875391759e-05,0.0909321531653404,0,0,0
16926,580649.0484490229,2010-10-15 07:47:46,3391.710938421913,2,50,0.5501165986061096,3.99697208404541,50.52396958961898,49.9453543400066,201.3203542530441,182.4439077846861,9.713172767078504e-05,0.0909321531653404,0,0,0
16927,580679.063599393,2010-10-15 07:48:16,3421.726088837179,2,50,0.5501165986061096,3.9985909461975098,50.52855589230519,49.9453543400066,201.33868926750569,182.4439077846861,0.0,0.0909321531653404,0,0,0
16928,580709.0788524942,2010-10-15 07:48:46,3451.741341903282,2,50,0.5501165986061096,4.000857353210449,50.53314228677086,49.9453543400066,201.35703358657955,182.4439077846861,9.70840483205393e-05,0.0909321531653404,0,0,0
16929,580739.0938843791,2010-10-15 07:49:16,3481.756373808183,2,50,0.550297200679779,4.002962112426758,50.53772853808026,49.9453543400066,201.37538646741703,182.4439077846861,9.71794142969884e-05,0.0909321531653404,0,0,0
16930,580769.1090087595,2010-10-15 07:49:46,3511.771498168512,2,50,0.5499359965324402,4.004580974578857,50.54231485254627,49.9453543400066,201.3937488095981,182.4439077846861,3.24249267578125e-05,0.0909321531653404,0,0,0
16931,580799.1241593101,2010-10-15 07:50:16,3541.7866487090905,2,50,0.5501165986061096,4.006685256958008,50.546901118685824,49.9453543400066,201.4121202369571,182.4439077846861,3.23295607813634e-05,0.0909321531653404,0,0,0
16932,580829.1392960863,2010-10-15 07:50:46,3571.801785490376,2,50,0.5499359965324402,4.008790016174316,50.55148742130832,49.9453543400066,201.43050120515065,182.4439077846861,6.47544875391759e-05,0.0909321531653404,0,0,0
16933,580859.154436206,2010-10-15 07:51:16,3601.816925609982,2,50,0.5501165986061096,4.010894298553467,50.556073766606175,49.9453543400066,201.4488916773312,182.4439077846861,3.23295607813634e-05,0.0909321531653404,0,0,0
16934,580889.1695768769,2010-10-15 07:51:46,3631.832066306024,2,50,0.5501165986061096,4.012999057769775,50.56066008157912,49.9453543400066,201.46729164472097,182.4439077846861,6.47544875391759e-05,0.0909321531653404,0,0,0
16935,580919.1848698375,2010-10-15 07:52:16,3661.847359281594,2,50,0.5499359965324402,4.014941692352295,50.56524639878495,49.9453543400066,201.4857013276581,182.4439077846861,3.24249267578125e-05,0.0909321531653404,0,0,0
16936,580949.199877888,2010-10-15 07:52:46,3691.862367291943,2,50,0.5499359965324402,4.017369747161865,50.56983269556271,49.9453543400066,201.5041207569973,182.4439077846861,6.47544875391759e-05,0.0909321531653404,0,0,0
16937,580979.2150025992,2010-10-15 07:53:16,3721.877492028209,2,50,0.5499359965324402,4.019312381744385,50.57441907126256,49.9453543400066,201.52255039440269,182.4439077846861,3.23295607813634e-05,0.0909321531653404,0,0,0
16938,581009.2301334256,2010-10-15 07:53:46,3751.8926228596656,2,50,0.5501165986061096,4.021578788757324,50.579005462165625,49.9453543400066,201.5409901255836,182.4439077846861,6.47544875391759e-05,0.0909321531653404,0,0,0
16939,581039.2452864422,2010-10-15 07:54:16,3781.9077758663902,2,50,0.5501165986061096,4.023845195770264,50.583591813630285,49.9453543400066,201.55943990250344,182.4439077846861,6.47544875391759e-05,0.0909321531653404,0,0,0
16940,581069.2608086944,2010-10-15 07:54:46,3811.9232981183873,2,50,0.5501165986061096,4.026273727416992,50.5881782358203,49.9453543400066,201.57790014987512,182.4439077846861,9.71794142969884e-05,0.0909321531653404,0,0,0
16941,581099.2755619647,2010-10-15 07:55:16,3841.938051403883,2,50,0.5501165986061096,4.028540134429932,50.5927645083907,49.9453543400066,201.59637006511136,182.4439077846861,0.0001295089750783,0.0909321531653404,0,0,0
16942,581129.290699137,2010-10-15 07:55:46,3871.953188576143,2,50,0.5501165986061096,4.030644416809082,50.59735088799374,49.9453543400066,201.61485073326185,182.4439077846861,6.47544875391759e-05,0.0909321531653404,0,0,0
16943,581159.3058918527,2010-10-15 07:56:16,3901.968381321909,2,50,0.5501165986061096,4.0329108238220215,50.60193724526047,49.9453543400066,201.63334182912703,182.4439077846861,6.47544875391759e-05,0.0909321531653404,0,0,0
16944,581189.3212441461,2010-10-15 07:56:46,3931.983733585243,2,50,0.5499359965324402,4.035015106201172,50.60652361814414,49.9453543400066,201.65184363488865,182.4439077846861,3.23295607813634e-05,0.0909321531653404,0,0,0
16945,581219.3361255861,2010-10-15 07:57:16,3961.9986150151153,2,50,0.550297200679779,4.03776741027832,50.611109955639655,49.9453543400066,201.67035600891063,182.4439077846861,9.71794142969884e-05,0.0909321531653404,0,0,0
16946,581249.3512551844,2010-10-15 07:57:46,3992.0137446084855,2,50,0.5499359965324402,4.03971004486084,50.6156963542671,49.9453543400066,201.68887941554163,182.4439077846861,0.0,0.0909321531653404,0,0,0
16947,581279.3666068362,2010-10-15 07:58:16,4022.0290963755824,2,50,0.5499359965324402,4.04246187210083,50.62028273342827,49.9453543400066,201.70741343449467,182.4439077846861,9.70840483205393e-05,0.0909321531653404,0,0,0
16948,581309.3815372833,2010-10-15 07:58:46,4052.0440268025695,2,50,0.5501165986061096,4.044890403747559,50.62486904707954,49.9453543400066,201.725958200295,182.4439077846861,0.0001295089750783,0.0909321531653404,0,0,0
16949,581339.396688696,2010-10-15 07:59:16,4082.059178120084,2,50,0.5499359965324402,4.047156810760498,50.6294554585729,49.9453543400066,201.7445144238572,182.4439077846861,6.47544875391759e-05,0.0909321531653404,0,0,0
16950,581369.4119694311,2010-10-15 07:59:46,4112.074458870185,2,50,0.550297200679779,4.049746990203857,50.63404189271228,49.9453543400066,201.7630819592428,182.4439077846861,9.71794142969884e-05,0.0909321531653404,0,0,0
16951,581399.4269645093,2010-10-15 08:00:16,4142.089453908202,2,50,0.5501165986061096,4.052175045013428,50.638628274916016,49.9453543400066,201.78166047563252,182.4439077846861,9.70840483205393e-05,0.0909321531653404,0,0,0
16952,581429.4422157157,2010-10-15 08:00:46,4172.104705119683,2,50,0.5501165986061096,4.054765224456787,50.643214731109,49.9453543400066,201.80025066859497,182.4439077846861,0.0001295089750783,0.0909321531653404,0,0,0
16953,581459.4572283074,2010-10-15 08:01:16,4202.119717711451,2,50,0.5501165986061096,4.056869983673096,50.6478010846007,49.9453543400066,201.81885185521972,182.4439077846861,6.47544875391759e-05,0.0909321531653404,0,0,0
16954,581489.4725002806,2010-10-15 08:01:46,4232.1349896947,2,50,0.5501165986061096,4.059621810913086,50.652387517307375,49.9453543400066,201.83746493793151,182.4439077846861,9.70840483205393e-05,0.0909321531653404,0,0,0
16955,581519.4875358897,2010-10-15 08:02:16,4262.150025283785,2,50,0.550297200679779,4.062211990356445,50.65697390548311,49.9453543400066,201.8560892702241,182.4439077846861,0.0001295089750783,0.0909321531653404,0,0,0
16956,581549.5026780947,2010-10-15 08:02:46,4292.165167493599,2,50,0.5499359965324402,4.064640522003174,50.66156026287928,49.9453543400066,201.8747252665763,182.4439077846861,9.71794142969884e-05,0.0909321531653404,0,0,0
16957,581579.5178138884,2010-10-15 08:03:16,4322.180303312487,2,50,0.5501165986061096,4.067068576812744,50.66614662391462,49.9453543400066,201.89337319050307,182.4439077846861,6.47544875391759e-05,0.0909321531653404,0,0,0
16958,581609.5329403289,2010-10-15 08:03:46,4352.195429758012,2,50,0.5499359965324402,4.069820880889893,50.67073299096044,49.9453543400066,201.91203315097144,182.4439077846861,6.47544875391759e-05,0.0909321531653404,0,0,0
16959,581639.5482139061,2010-10-15 08:04:16,4382.210703310173,2,50,0.550297200679779,4.072734832763672,50.67531936650532,49.9453543400066,201.9307051785355,182.4439077846861,9.71794142969884e-05,0.0909321531653404,0,0,0
16960,581669.5633334996,2010-10-15 08:04:46,4412.225822933696,2,50,0.5501165986061096,4.075325012207031,50.67990567732824,49.9453543400066,201.9493891864064,182.4439077846861,9.71794142969884e-05,0.0909321531653404,0,0,0
16961,581699.5783519258,2010-10-15 08:05:16,4442.24084134998,2,50,0.5499359965324402,4.077915191650391,50.6844920257596,49.9453543400066,201.968085712952,182.4439077846861,6.47544875391759e-05,0.0909321531653404,0,0,0
16962,581729.5934910229,2010-10-15 08:05:46,4472.25598045205,2,50,0.550297200679779,4.08082914352417,50.6890784015201,49.9453543400066,201.9867948327808,182.4439077846861,0.0001295089750783,0.0909321531653404,0,0,0
16963,581759.6114125598,2010-10-15 08:06:16,4502.27390196374,2,50,0.5501165986061096,4.083419322967529,50.69366518833761,49.9453543400066,202.0055180950054,182.4439077846861,9.71794142969884e-05,0.0909321531653404,0,0,0
16964,581789.6238167908,2010-10-15 08:06:46,4532.286306209708,2,50,0.5501165986061096,4.08617115020752,50.69825104084438,49.9453543400066,202.02425027807703,182.4439077846861,3.23295607813634e-05,0.0909321531653404,0,0,0
16965,581819.6389181236,2010-10-15 08:07:16,4562.301407557682,2,50,0.5499359965324402,4.089085102081299,50.70283730019473,49.9453543400066,202.0429969639645,182.4439077846861,9.70840483205393e-05,0.0909321531653404,0,0,0
16966,581849.6540354865,2010-10-15 08:07:46,4592.316524945633,2,50,0.5501165986061096,4.091675281524658,50.70742368786904,49.9453543400066,202.06175717989848,182.4439077846861,3.23295607813634e-05,0.0909321531653404,0,0,0
16967,581879.6693259608,2010-10-15 08:08:16,4622.33181541997,2,50,0.5501165986061096,4.094913005828857,50.71201015654504,49.9453543400066,202.0805307169512,182.4439077846861,0.0001295089750783,0.0909321531653404,0,0,0
16968,581909.6843173899,2010-10-15 08:08:46,4652.346806843981,2,50,0.5501165986061096,4.097665309906006,50.71659660502818,49.9453543400066,202.09931730555448,182.4439077846861,9.71794142969884e-05,0.0909321531653404,0,0,0
16969,581939.6994540457,2010-10-15 08:09:16,4682.361943499954,2,50,0.5501165986061096,4.100417137145996,50.721183025054486,49.9453543400066,202.1181170923833,182.4439077846861,6.47544875391759e-05,0.0909321531653404,0,0,0
16970,581969.7145959749,2010-10-15 08:09:46,4712.3770853989945,2,50,0.5499359965324402,4.1034932136535645,50.72576943549496,49.9453543400066,202.13693018601947,182.4439077846861,9.71794142969884e-05,0.0909321531653404,0,0,0
16971,581999.7297602297,2010-10-15 08:10:16,4742.392249648739,2,50,0.5501165986061096,4.106407165527344,50.73035594398456,49.9453543400066,202.15575731765875,182.4439077846861,0.0001295089750783,0.0909321531653404,0,0,0
16972,582029.7449226448,2010-10-15 08:10:47,4772.407412078951,2,50,0.5501165986061096,4.109482765197754,50.734942411616736,49.9453543400066,202.1745979118145,182.4439077846861,0.0001295089750783,0.0909321531653404,0,0,0
16973,582059.760014785,2010-10-15 08:11:17,4802.422504213963,2,50,0.5501165986061096,4.112396717071533,50.73952885105646,49.9453543400066,202.19345217422395,182.4439077846861,9.70840483205393e-05,0.0909321531653404,0,0,0
16974,582089.7751522379,2010-10-15 08:11:47,4832.437641641861,2,50,0.550297200679779,4.115472316741943,50.744115224967686,49.9453543400066,202.2123199869353,182.4439077846861,6.47544875391759e-05,0.0909321531653404,0,0,0
16975,582119.7903355751,2010-10-15 08:12:17,4862.4528250092535,2,50,0.5501165986061096,4.118548393249512,50.748701688740894,49.9453543400066,202.23120228653184,182.4439077846861,9.71794142969884e-05,0.0909321531653404,0,0,0
16976,582149.8054594041,2010-10-15 08:12:47,4892.46794892347,2,50,0.5501165986061096,4.121623992919922,50.75328804512544,49.9453543400066,202.25009840575083,182.4439077846861,6.47544875391759e-05,0.0909321531653404,0,0,0
16977,582179.8205828372,2010-10-15 08:13:17,4922.483072261251,2,50,0.550297200679779,4.124861717224121,50.757874482912925,49.9453543400066,202.26900920470388,182.4439077846861,9.70840483205393e-05,0.0909321531653404,0,0,0
16978,582209.8357435882,2010-10-15 08:13:47,4952.498233007264,2,50,0.5501165986061096,4.1279377937316895,50.76246090177015,49.9453543400066,202.28793444336583,182.4439077846861,0.0001295089750783,0.0909321531653404,0,0,0
16979,582239.8510755609,2010-10-15 08:14:17,4982.513565080277,2,50,0.5501165986061096,4.131175518035889,50.76704741657623,49.9453543400066,202.30687472339827,182.4439077846861,9.71794142969884e-05,0.0909321531653404,0,0,0
16980,582269.8660019479,2010-10-15 08:14:47,5012.528491346896,2,50,0.5501165986061096,4.134413242340088,50.77163389509369,49.9453543400066,202.3258296046331,182.4439077846861,9.71794142969884e-05,0.0909321531653404,0,0,0
16981,582299.8811522629,2010-10-15 08:15:17,5042.543641681961,2,50,0.5501165986061096,4.137812614440918,50.77622036820251,49.9453543400066,202.34479926005577,182.4439077846861,0.0001295089750783,0.0909321531653404,0,0,0
16982,582329.8962040374,2010-10-15 08:15:47,5072.558693461396,2,50,0.5501165986061096,4.140888690948486,50.78080681587255,49.9453543400066,202.36378373295435,182.4439077846861,6.47544875391759e-05,0.0909321531653404,0,0,0
16983,582359.9114452038,2010-10-15 08:16:17,5102.573934602779,2,50,0.5499359965324402,4.144288063049316,50.785393323289256,49.9453543400066,202.382783445213,182.4439077846861,0.0001618385285837,0.0909321531653404,0,0,0
16984,582389.9265777546,2010-10-15 08:16:47,5132.589067173572,2,50,0.5501165986061096,4.147687911987305,50.789979613430376,49.9453543400066,202.4017978080139,182.4439077846861,9.71794142969884e-05,0.0909321531653404,0,0,0
16985,582419.9417188566,2010-10-15 08:17:17,5162.604208250563,2,50,0.5501165986061096,4.151087284088135,50.794566350531404,49.9453543400066,202.4208293858732,182.4439077846861,9.70840483205393e-05,0.0909321531653404,0,0,0
16986,582449.9567472677,2010-10-15 08:17:47,5192.61923666677,2,50,0.550297200679779,4.154325008392334,50.79915348112366,49.9453543400066,202.43987808033276,182.4439077846861,9.70840483205393e-05,0.0909321531653404,0,0,0
16987,582479.9719984742,2010-10-15 08:18:17,5222.6344878983,2,50,0.5501165986061096,4.157724857330322,50.80374063273598,49.9453543400066,202.4589424807428,182.4439077846861,9.71794142969884e-05,0.0909321531653404,0,0,0
16988,582509.9871545937,2010-10-15 08:18:47,5252.649644017783,2,50,0.5501165986061096,4.161286354064941,50.808327800080285,49.9453543400066,202.4780226821485,182.4439077846861,9.71794142969884e-05,0.0909321531653404,0,0,0
16989,582540.0022849741,2010-10-15 08:19:17,5282.664774398116,2,50,0.5501165986061096,4.164685726165772,50.81291462094488,49.9453543400066,202.4971172625848,182.4439077846861,0.0001295089750783,0.0909321531653404,0,0,0
16990,582570.0173978658,2010-10-15 08:19:47,5312.6798872848485,2,50,0.550297200679779,4.16808557510376,50.817501025460885,49.9453543400066,202.51622606008425,182.4439077846861,9.71794142969884e-05,0.0909321531653404,0,0,0
16991,582600.0325506771,2010-10-15 08:20:17,5342.695040071024,2,50,0.5501165986061096,4.171647071838379,50.82208747844891,49.9453543400066,202.53535119555872,182.4439077846861,0.0001295089750783,0.0909321531653404,0,0,0
16992,582630.0476989069,2010-10-15 08:20:47,5372.710188325905,2,50,0.5499359965324402,4.175208568572998,50.82667387229255,49.9453543400066,202.55449231208576,182.4439077846861,9.71794142969884e-05,0.0909321531653404,0,0,0
16993,582660.0628166005,2010-10-15 08:21:17,5402.725305999567,2,50,0.5501165986061096,4.178770065307617,50.83126025345888,49.9453543400066,202.5736496502393,182.4439077846861,0.0001295089750783,0.0909321531653404,0,0,0
16994,582690.0779576877,2010-10-15 08:21:47,5432.740447081573,2,50,0.5501165986061096,4.182331562042236,50.83584659087951,49.9453543400066,202.5928231759548,182.4439077846861,9.71794142969884e-05,0.0909321531653404,0,0,0
16995,582720.0931041329,2010-10-15 08:22:17,5462.755593541981,2,50,0.5501165986061096,4.186054706573486,50.84043308210666,49.9453543400066,202.61201380211537,182.4439077846861,0.0001295089750783,0.0909321531653404,0,0,0
16996,582750.1083619208,2010-10-15 08:22:47,5492.770851379977,2,50,0.5501165986061096,4.189454555511475,50.845019440967,49.9453543400066,202.63122042866107,182.4439077846861,6.47544875391759e-05,0.0909321531653404,0,0,0
16997,582780.1233749036,2010-10-15 08:23:17,5522.785864322619,2,50,0.5499359965324402,4.193177700042725,50.84960578446123,49.9453543400066,202.65044369010832,182.4439077846861,9.70840483205393e-05,0.0909321531653404,0,0,0
16998,582810.1386418943,2010-10-15 08:23:47,5552.801131308415,2,50,0.5501165986061096,4.197062969207764,50.85419213175379,49.9453543400066,202.6696837222321,182.4439077846861,0.0001619339018361,0.0909321531653404,0,0,0
16999,582834.6382497355,2010-10-15 08:24:11,5577.300739144484,2,50,0.550297200679779,4.200138568878174,50.857935751607904,49.9453543400066,202.68540099023969,182.4439077846861,0.0001295089750783,0.0909321531653404,0,0,0
17000,582864.6841026259,2010-10-15 08:24:42,30.01515909189056,3,50,0.0,4.111911296844482,50.857935751607904,49.9453543400066,202.68540099023969,182.4439077846861,-0.0003561019839253,0.0909321531653404,0,0,0
17001,582894.6992567054,2010-10-15 08:25:12,60.0303131311885,3,50,0.0,4.100579261779785,50.857935751607904,49.9453543400066,202.68540099023969,182.4439077846861,-0.0002265930233988,0.0909321531653404,0,0,0
17002,582924.7143717174,2010-10-15 08:25:42,90.04542814321849,3,50,0.0,4.093780040740967,50.857935751607904,49.9453543400066,202.68540099023969,182.4439077846861,-0.0001295089750783,0.0909321531653404,0,0,0
17003,582954.6826368853,2010-10-15 08:26:12,120.0136933260588,3,50,0.0,4.089408874511719,50.857935751607904,49.9453543400066,202.68540099023969,182.4439077846861,-9.71794142969884e-05,0.0909321531653404,0,0,0
17004,582954.6841617407,2010-10-15 08:26:12,0.031268580924766,4,50,0.9989306926727296,4.199653148651123,50.85794448449981,49.9453543400066,202.68543766641497,182.4439077846861,-3.23295607813634e-05,0.0909321531653404,0,0,0
17005,582955.6998012117,2010-10-15 08:26:13,1.046908051991116,4,50,0.948901891708374,4.199814796447754,50.858217748522975,49.9453543400066,202.68658531134145,182.4439077846861,0.0,0.0909321531653404,0,0,0
17006,582957.949709726,2010-10-15 08:26:15,3.296816546238317,4,50,0.8983312845230103,4.199653148651123,50.85879379908883,49.9453543400066,202.68900458300192,182.4439077846861,-3.23295607813634e-05,0.0909321531653404,0,0,0
17007,582961.2466721508,2010-10-15 08:26:18,6.593778991100898,4,50,0.8481219410896301,4.199814796447754,50.859592351981846,49.9453543400066,202.692358327598,182.4439077846861,3.23295607813634e-05,0.0909321531653404,0,0,0
17008,582965.7152156512,2010-10-15 08:26:23,11.062322456352756,4,50,0.7980931401252747,4.199814796447754,50.86061262191797,49.9453543400066,202.6966432270991,182.4439077846861,3.23295607813634e-05,0.0909321531653404,0,0,0
17009,582971.4807440169,2010-10-15 08:26:29,16.8278508220488,4,50,0.748064398765564,4.199653148651123,50.861848977186966,49.9453543400066,202.70183564815983,182.4439077846861,-3.23295607813634e-05,0.0909321531653404,0,0,0
17010,582978.9337594496,2010-10-15 08:26:36,24.28086628983004,4,50,0.6980355978012085,4.199814796447754,50.86334368562953,49.9453543400066,202.70811311938945,182.4439077846861,0.0,0.0909321531653404,0,0,0
17011,582988.7929591488,2010-10-15 08:26:46,34.14006593895555,4,50,0.6480068564414978,4.199814796447754,50.86518372026618,49.9453543400066,202.7158408782948,182.4439077846861,0.0,0.0909321531653404,0,0,0
17012,583002.4177386917,2010-10-15 08:26:59,47.76484551189117,4,50,0.5979780554771423,4.199814796447754,50.86753654946656,49.9453543400066,202.7257222736424,182.4439077846861,-3.24249267578125e-05,0.0909321531653404,0,0,0
17013,583023.0582518715,2010-10-15 08:27:20,68.4053587518122,4,50,0.5479493141174316,4.199653148651123,50.87081142122173,49.9453543400066,202.7394760615413,182.4439077846861,-6.47544875391759e-05,0.0909321531653404,0,0,0
17014,583058.2293385313,2010-10-15 08:27:55,103.57644531139148,4,50,0.4975593090057373,4.199653148651123,50.87589772680139,49.9453543400066,202.7608375070656,182.4439077846861,-6.47544875391759e-05,0.0909321531653404,0,0,0
17015,583124.1501476358,2010-10-15 08:29:01,169.4972544510935,4,50,0.4473499357700348,4.199653148651123,50.8845116404801,49.9453543400066,202.79701418716093,182.4439077846861,0.0,0.0909321531653404,0,0,0
17016,583227.6797518949,2010-10-15 08:30:45,273.0268588054073,4,50,0.3973211646080017,4.199814796447754,50.89662811912572,49.9453543400066,202.84790086732875,182.4439077846861,0.0,0.0909321531653404,0,0,0
17017,583357.8494948817,2010-10-15 08:32:55,403.1966016969216,4,50,0.3472923934459686,4.199814796447754,50.910072886631895,49.9453543400066,202.90436618177225,182.4439077846861,3.23295607813634e-05,0.0909321531653404,0,0,0
17018,583512.8939904958,2010-10-15 08:35:30,558.2410974012154,4,50,0.2972636222839355,4.199653148651123,50.92393417535432,49.9453543400066,202.9625808064955,182.4439077846861,0.0,0.0909321531653404,0,0,0
17019,583699.6096360154,2010-10-15 08:38:37,744.9567429208179,4,50,0.2472348511219024,4.199653148651123,50.93803186780486,49.9453543400066,203.0217882147731,182.4439077846861,-6.47544875391759e-05,0.0909321531653404,0,0,0
17020,583930.8402500034,2010-10-15 08:42:28,976.1873567834448,4,50,0.1970254778861999,4.199653148651123,50.95226699542581,49.9453543400066,203.08157277708207,182.4439077846861,-3.23295607813634e-05,0.0909321531653404,0,0,0
17021,584237.3979274711,2010-10-15 08:47:34,1282.745034316296,4,50,0.1469967067241668,4.199653148651123,50.96683821193032,49.9453543400066,203.14276885259,182.4439077846861,-3.23295607813634e-05,0.0909321531653404,0,0,0
17022,584680.3282721863,2010-10-15 08:54:57,1725.6753790015116,4,50,0.0969679355621337,4.199814796447754,50.98165426682183,49.9453543400066,203.20499318012315,182.4439077846861,-3.24249267578125e-05,0.0909321531653404,0,0,0
17023,585443.597067827,2010-10-15 09:07:41,2488.944174617123,4,50,0.0498289167881011,4.199653148651123,50.99666788343195,49.9453543400066,203.26804719693448,182.4439077846861,-3.23295607813634e-05,0.0909321531653404,0,0,0
17024,585473.5913944183,2010-10-15 09:08:11,30.01512160345785,5,50,0.0,4.191558837890625,50.99666788343195,49.9453543400066,203.26804719693448,182.4439077846861,0.0,0.0909321531653404,0,0,0
17025,585503.5908955056,2010-10-15 09:08:41,60.01462272587064,5,50,0.0,4.1901021003723145,50.99666788343195,49.9453543400066,203.26804719693448,182.4439077846861,-6.47544875391759e-05,0.0909321531653404,0,0,0
17026,585503.758708762,2010-10-15 09:08:41,0.187619545636818,6,50,-1.9243103452026844e-05,4.190263748168945,50.99666788343195,49.94535434100947,203.26804719693448,182.44390778888845,0.0,0.0955438911914825,0,0,0
17027,585508.5866178771,2010-10-15 09:08:46,5.015528625574508,6,50,0.0008838032954372,4.190263748168945,50.99666888239425,49.94535434109264,203.26805138288827,182.44390778923696,-3.24249267578125e-05,0.0955438911914825,0,0,0
17028,585538.6133674743,2010-10-15 09:09:16,30.015223417209043,7,50,-1.0993878841400146,4.006361484527588,50.99666888239425,49.95452111384544,203.26805138288827,182.4808392056248,-0.0009389877086505,0.0955438911914825,0,0,0
17029,585568.6287593613,2010-10-15 09:09:46,60.030615239134455,7,50,-1.099568486213684,3.977545976638794,50.99666888239425,49.9636882701021,203.26805138288827,182.51742392940943,-0.0005827903514727,0.0955438911914825,0,0,0
17030,585598.643638295,2010-10-15 09:10:16,90.04549431313427,7,50,-1.0993878841400146,3.957472085952759,50.99666888239425,49.97285517183258,203.26805138288827,182.55378887772767,-0.0005504131549969,0.0955438911914825,0,0,0
17031,585628.6588259231,2010-10-15 09:10:46,120.06068192109566,7,50,-1.099568486213684,3.9422547817230233,50.99666888239425,49.98202215763636,203.26805138288827,182.58999489681463,-0.0003237724304199,0.0955438911914825,0,0,0
17032,585658.6738744093,2010-10-15 09:11:16,150.07573027699806,7,50,-1.099568486213684,3.9296276569366455,50.99666888239425,49.9911890866054,203.26805138288827,182.62607408641225,-0.0003237724304199,0.0955438911914825,0,0,0
17033,585688.6890556564,2010-10-15 09:11:46,180.0909115992936,7,50,-1.0993878841400146,3.918781280517578,50.99666888239425,50.00035614594487,203.26805138288827,182.66204649264947,-0.0002590179501567,0.0955438911914825,0,0,0
17034,585718.7041904778,2010-10-15 09:12:16,210.10604637558225,7,50,-1.099568486213684,3.90874457359314,50.99666888239425,50.00952322114436,203.26805138288827,182.69792345896556,-0.0002590179501567,0.0955438911914825,0,0,0
17035,585748.7193402816,2010-10-15 09:12:46,240.1211961492489,7,50,-1.099568486213684,3.899355173110962,50.99666888239425,50.01869025809125,203.26805138288827,182.73371177835836,-0.0002590179501567,0.0955438911914825,0,0,0
17036,585778.7344890678,2010-10-15 09:13:16,270.13634494046704,7,50,-1.0993878841400146,3.890775203704834,50.99666888239425,50.02785726323236,203.26805138288827,182.7694166277822,-0.0001618862152099,0.0955438911914825,0,0,0
17037,585808.749612636,2010-10-15 09:13:46,300.15146853388444,7,50,-1.099568486213684,3.881871461868286,50.99666888239425,50.03702432383494,203.26805138288827,182.805041308566,-0.0001942634553415,0.0955438911914825,0,0,0
17038,585838.7649279373,2010-10-15 09:14:16,330.16678383008417,7,50,-1.099568486213684,3.873453378677368,50.99666888239425,50.046191509614914,203.26805138288827,182.84058816904653,-0.0001618862152099,0.0955438911914825,0,0,0
17039,585868.7799009704,2010-10-15 09:14:46,360.1817568432092,7,50,-1.0997490882873535,3.86519718170166,50.99666888239425,50.05535851991429,203.26805138288827,182.8760579946733,-0.0002266406954731,0.0955438911914825,0,0,0
17040,585898.7950544684,2010-10-15 09:15:16,390.196910341158,7,50,-1.0993878841400146,3.856940984725952,50.99666888239425,50.06452563775566,203.26805138288827,182.91145234472904,-0.0002266406954731,0.0955438911914825,0,0,0
17041,585928.810184573,2010-10-15 09:15:46,420.2120404758783,7,50,-1.099568486213684,3.849008560180664,50.99666888239425,50.07369267099163,203.26805138288827,182.9467728321303,-0.0002266406954731,0.0955438911914825,0,0,0
17042,585958.8253038758,2010-10-15 09:16:16,450.22715979865205,7,50,-1.099568486213684,3.841399908065796,50.99666888239425,50.08285968228765,203.26805138288827,182.98202107144505,-0.0001942634553415,0.0955438911914825,0,0,0
17043,585988.8404460255,2010-10-15 09:16:46,480.2423019533298,7,50,-1.099568486213684,3.833467483520508,50.99666888239425,50.092026766633865,203.26805138288827,183.0171987038766,-0.0002266406954731,0.0955438911914825,0,0,0
17044,586018.8557393518,2010-10-15 09:17:16,510.25759525471176,7,50,-1.099568486213684,3.8258590698242183,50.99666888239425,50.10119394015441,203.26805138288827,183.05230616059623,-0.0001942634553415,0.0955438911914825,0,0,0
17045,586048.8708962384,2010-10-15 09:17:46,540.272752116043,7,50,-1.0993878841400146,3.818412303924561,50.99666888239425,50.11036104429672,203.26805138288827,183.0873440658885,-0.0001618862152099,0.0955438911914825,0,0,0
17046,586078.8859370555,2010-10-15 09:18:16,570.2877929582189,7,50,-1.099568486213684,3.8109655380249023,50.99666888239425,50.11952805859596,203.26805138288827,183.1223143533491,-0.0001942634553415,0.0955438911914825,0,0,0
17047,586108.9010784231,2010-10-15 09:18:46,600.3029343509979,7,50,-1.099568486213684,3.804004430770874,50.99666888239425,50.12869514468581,203.26805138288827,183.15721815992583,-0.0001618862152099,0.0955438911914825,0,0,0
17048,586138.9162345928,2010-10-15 09:19:16,630.3180904955427,7,50,-1.0993878841400146,3.796881437301636,50.99666888239425,50.13786198802901,203.26805138288827,183.19205697745343,-0.0001942634553415,0.0955438911914825,0,0,0
17049,586168.9313855545,2010-10-15 09:19:46,660.3332414521577,7,50,-1.0992072820663452,3.7900822162628174,50.99666888239425,50.14702833945309,203.26805138288827,183.2268300227157,-0.0001942634553415,0.0955438911914825,0,0,0
17050,586198.9465294934,2010-10-15 09:20:16,690.3483854063203,7,50,-1.0993878841400146,3.783282995223999,50.99666888239425,50.15619493459881,203.26805138288827,183.26154100310657,-0.0001618862152099,0.0955438911914825,0,0,0
17051,586228.9616764801,2010-10-15 09:20:46,720.363532443166,7,50,-1.0997490882873535,3.7764837741851807,50.99666888239425,50.16536207386928,203.26805138288827,183.29619214108564,-0.0001942634553415,0.0955438911914825,0,0,0
17052,586258.9773125609,2010-10-15 09:21:16,750.3791685639594,7,50,-1.099568486213684,3.770170211791992,50.99666888239425,50.17452935191602,203.26805138288827,183.3307825078028,-9.713172767078504e-05,0.0955438911914825,0,0,0
17053,586288.9919612658,2010-10-15 09:21:46,780.393817163546,7,50,-1.0997490882873535,3.763370990753174,50.99666888239425,50.18369632122755,203.26805138288827,183.365312457744,-0.0002266406954731,0.0955438911914825,0,0,0
17054,586319.0071002275,2010-10-15 09:22:16,810.4089561302785,7,50,-1.099568486213684,3.7572193145751953,50.99666888239425,50.192863520042,203.26805138288827,183.3997844277198,-0.0001618862152099,0.0955438911914825,0,0,0
17055,586349.0222441816,2010-10-15 09:22:46,840.4241000593789,7,50,-1.0997490882873535,3.750905990600586,50.99666888239425,50.202030800648025,203.26805138288827,183.43419935598124,-0.0001942634553415,0.0955438911914825,0,0,0
17056,586379.0374048625,2010-10-15 09:23:16,870.4392607602795,7,50,-1.0993878841400146,3.7449162006378174,50.99666888239425,50.21119803559931,203.26805138288827,183.4685582298013,-0.0001942634553415,0.0955438911914825,0,0,0
17057,586409.0525424358,2010-10-15 09:23:47,900.4543984438137,7,50,-1.0997490882873535,3.739088296890259,50.99666888239425,50.22036527550839,203.26805138288827,183.5028622882392,-0.0001618862152099,0.0955438911914825,0,0,0
17058,586439.0676728913,2010-10-15 09:24:17,930.4695288040964,7,50,-1.099568486213684,3.73309850692749,50.99666888239425,50.22953244463244,203.26805138288827,183.53711184494068,-0.0001618862152099,0.0955438911914825,0,0,0
17059,586469.0829618719,2010-10-15 09:24:47,960.4848177446096,7,50,-1.099568486213684,3.7274324893951416,50.99666888239425,50.23869967580268,203.26805138288827,183.5713089225175,-0.0001942634553415,0.0955438911914825,0,0,0
17060,586499.0979672858,2010-10-15 09:25:17,990.4998231685124,7,50,-1.099568486213684,3.722090244293213,50.99666888239425,50.24786687965067,203.26805138288827,183.6054547045572,-0.0001295089750783,0.0955438911914825,0,0,0
17061,586529.113109275,2010-10-15 09:25:47,1020.5149651728152,7,50,-1.0992072820663452,3.716586112976074,50.99666888239425,50.25703403042786,203.26805138288827,183.63954908846836,-0.0001295089750783,0.0955438911914825,0,0,0
17062,586559.1282628431,2010-10-15 09:26:17,1050.5301187509638,7,50,-1.099568486213684,3.710758209228516,50.99666888239425,50.26620126828563,203.26805138288827,183.67359308815088,-0.0001942634553415,0.0955438911914825,0,0,0
17063,586589.1433860256,2010-10-15 09:26:47,1080.5452418982695,7,50,-1.099568486213684,3.705415964126587,50.99666888239425,50.2753685087457,203.26805138288827,183.7075870467893,-0.0001942634553415,0.0955438911914825,0,0,0
17064,586619.1585347967,2010-10-15 09:27:17,1110.5603906694375,7,50,-1.0993878841400146,3.700235605239868,50.99666888239425,50.284535710542,203.26805138288827,183.74153230938657,-0.0001295089750783,0.0955438911914825,0,0,0
17065,586649.1737144248,2010-10-15 09:27:47,1140.575570402773,7,50,-1.099568486213684,3.695055246353149,50.99666888239425,50.29370297385518,203.26805138288827,183.77542993809567,-0.0001295089750783,0.0955438911914825,0,0,0
17066,586679.1888370408,2010-10-15 09:28:17,1170.590692963617,7,50,-1.099568486213684,3.6900367736816406,50.99666888239425,50.302870256891005,203.26805138288827,183.80928073230388,-0.0001295089750783,0.0955438911914825,0,0,0
17067,586709.2039707244,2010-10-15 09:28:47,1200.605826717357,7,50,-1.099568486213684,3.684856414794922,50.99666888239425,50.31203749206788,203.26805138288827,183.8430847415285,-0.0001295089750783,0.0955438911914825,0,0,0
17068,586739.2192996645,2010-10-15 09:29:17,1230.621155577362,7,50,-1.0993878841400146,3.679999828338623,50.99666888239425,50.3212048268851,203.26805138288827,183.8768435604996,-0.0001618862152099,0.0955438911914825,0,0,0
17069,586769.2342700461,2010-10-15 09:29:47,1260.636125973966,7,50,-1.0993878841400146,3.675305128097534,50.99666888239425,50.330372046155766,203.26805138288827,183.91055721215292,-9.713172767078504e-05,0.0955438911914825,0,0,0
17070,586799.2494002711,2010-10-15 09:30:17,1290.651256178861,7,50,-1.099568486213684,3.6701250076293945,50.99666888239425,50.339539292499694,203.26805138288827,183.94422578545053,-0.0001618862152099,0.0955438911914825,0,0,0
17071,586829.2645549019,2010-10-15 09:30:47,1320.6664108146456,7,50,-1.099568486213684,3.6654303073883057,50.99666888239425,50.3487065230752,203.26805138288827,183.9778504035564,-0.0001618862152099,0.0955438911914825,0,0,0
17072,586859.2796930264,2010-10-15 09:31:17,1350.6815489292546,7,50,-1.099568486213684,3.6608974933624263,50.99666888239425,50.3578737747424,203.26805138288827,184.0114322793712,-0.0001295089750783,0.0955438911914825,0,0,0
17073,586889.2948777422,2010-10-15 09:31:47,1380.6967336249577,7,50,-1.0993878841400146,3.656526565551758,50.99666888239425,50.36704107596975,203.26805138288827,184.0449718265297,-6.47544875391759e-05,0.0955438911914825,0,0,0
17074,586919.3099651654,2010-10-15 09:32:17,1410.7118210632657,7,50,-1.099568486213684,3.651831865310669,50.99666888239425,50.37620829552918,203.26805138288827,184.07846963015737,-9.713172767078504e-05,0.0955438911914825,0,0,0
17075,586949.3251093201,2010-10-15 09:32:47,1440.7269651928652,7,50,-1.099568486213684,3.64762282371521,50.99666888239425,50.38537555118052,203.26805138288827,184.1119269616339,-6.47544875391759e-05,0.0955438911914825,0,0,0
17076,586979.3430644457,2010-10-15 09:33:17,1470.744920443644,7,50,-1.0993878841400146,3.643251895904541,50.99666888239425,50.394543585356445,203.26805138288827,184.1453463983004,-6.47544875391759e-05,0.0955438911914825,0,0,0
17077,587009.3554740099,2010-10-15 09:33:47,1500.7573299176408,7,50,-1.0993878841400146,3.638719081878662,50.99666888239425,50.40370993934304,203.26805138288827,184.1787201514753,-9.713172767078504e-05,0.0955438911914825,0,0,0
17078,587039.3705434734,2010-10-15 09:34:17,1530.7723993560874,7,50,-1.099568486213684,3.634510040283203,50.99666888239425,50.41287709721085,203.26805138288827,184.212057744299,-0.0001295089750783,0.0955438911914825,0,0,0
17079,587069.3856826406,2010-10-15 09:34:47,1560.7875385233197,7,50,-1.0993878841400146,3.630462884902954,50.99666888239425,50.42204429584221,203.26805138288827,184.245357382524,-9.713172767078504e-05,0.0955438911914825,0,0,0
17080,587099.4008589904,2010-10-15 09:35:17,1590.8027148832473,7,50,-1.0993878841400146,3.626253843307495,50.99666888239425,50.43121159138159,203.26805138288827,184.2786196101549,-9.713172767078504e-05,0.0955438911914825,0,0,0
17081,587129.4159695414,2010-10-15 09:35:47,1620.817825444184,7,50,-1.099568486213684,3.622044801712036,50.99666888239425,50.44037876652147,203.26805138288827,184.3118434399389,-0.0001295089750783,0.0955438911914825,0,0,0
17082,587159.431115265,2010-10-15 09:36:17,1650.8329711477063,7,50,-1.099568486213684,3.617997646331787,50.99666888239425,50.44954600202239,203.26805138288827,184.34502983220796,-9.713172767078504e-05,0.0955438911914825,0,0,0
17083,587189.4463840303,2010-10-15 09:36:47,1680.8482399079244,7,50,-1.099568486213684,3.614274263381958,50.99666888239425,50.45871321570601,203.26805138288827,184.37817958874567,-9.713172767078504e-05,0.0955438911914825,0,0,0
17084,587219.4615339843,2010-10-15 09:37:17,1710.863389977328,7,50,-1.0993878841400146,3.610550880432129,50.99666888239425,50.46788043968097,203.26805138288827,184.4112936762579,-6.47544875391759e-05,0.0955438911914825,0,0,0
17085,587249.4765422152,2010-10-15 09:37:47,1740.8783981430645,7,50,-1.099568486213684,3.6068274974823,50.99666888239425,50.47704767380503,203.26805138288827,184.4443734130101,-9.713172767078504e-05,0.0955438911914825,0,0,0
17086,587279.4916966755,2010-10-15 09:38:17,1770.893552608424,7,50,-1.099568486213684,3.603104114532471,50.99666888239425,50.48621487111884,203.26805138288827,184.4774193240775,-6.47544875391759e-05,0.0955438911914825,0,0,0
17087,587309.5068447801,2010-10-15 09:38:47,1800.9087006778434,7,50,-1.099568486213684,3.5993807315826416,50.99666888239425,50.495382233655846,203.26805138288827,184.5104330179093,-9.713172767078504e-05,0.0955438911914825,0,0,0
17088,587339.5219970901,2010-10-15 09:39:17,1830.9238529627687,7,50,-1.0993878841400146,3.5961430072784424,50.99666888239425,50.504549556780354,203.26805138288827,184.5434148125303,-3.237724376958795e-05,0.0955438911914825,0,0,0
17089,587369.5372045476,2010-10-15 09:39:47,1860.9390604302264,7,50,-1.099568486213684,3.592743396759033,50.99666888239425,50.51371736083546,203.26805138288827,184.57636656997676,-6.47544875391759e-05,0.0955438911914825,0,0,0
17090,587399.552210222,2010-10-15 09:40:17,1890.9540660947284,7,50,-1.0993878841400146,3.589182138442993,50.99666888239425,50.522885432580686,203.26805138288827,184.6092878512449,-9.713172767078504e-05,0.0955438911914825,0,0,0
17091,587429.5672516206,2010-10-15 09:40:47,1920.969107503316,7,50,-1.099568486213684,3.585782527923584,50.99666888239425,50.53205337198207,203.26805138288827,184.6421782346232,-9.713172767078504e-05,0.0955438911914825,0,0,0
17092,587459.5823850035,2010-10-15 09:41:17,1950.9842409061816,7,50,-1.0997490882873535,3.5825448036193848,50.99666888239425,50.541221446285576,203.26805138288827,184.67503902321727,-0.0001295089750783,0.0955438911914825,0,0,0
17093,587489.5977965144,2010-10-15 09:41:47,1980.9996524522653,7,50,-1.099568486213684,3.579307079315185,50.99666888239425,50.5503895988905,203.26805138288827,184.70787017557723,-9.713172767078504e-05,0.0955438911914825,0,0,0
17094,587519.612693508,2010-10-15 09:42:17,2011.0145493807645,7,50,-1.099568486213684,3.5763931274414062,50.99666888239425,50.55955761884312,203.26805138288827,184.7406719411511,-9.713172767078504e-05,0.0955438911914825,0,0,0
17095,587549.627827367,2010-10-15 09:42:47,2041.0296832698416,7,50,-1.099568486213684,3.573317289352417,50.99666888239425,50.56872574214193,203.26805138288827,184.773445594208,-9.713172767078504e-05,0.0955438911914825,0,0,0
17096,587579.642961983,2010-10-15 09:43:17,2071.0448178807183,7,50,-1.0997490882873535,3.5700795650482178,50.99666888239425,50.57789379910378,203.26805138288827,184.8061905521581,-6.47544875391759e-05,0.0955438911914825,0,0,0
17097,587609.6580956014,2010-10-15 09:43:47,2101.0599514740584,7,50,-1.099929690361023,3.5668418407440186,50.99666888239425,50.587061880830426,203.26805138288827,184.8389070447889,-0.0001295089750783,0.0955438911914825,0,0,0
17098,587639.6732429238,2010-10-15 09:44:17,2131.075098801629,7,50,-1.099568486213684,3.5637660026550293,50.99666888239425,50.59622998361053,203.26805138288827,184.87159494556576,-9.713172767078504e-05,0.0955438911914825,0,0,0
17099,587669.6883836049,2010-10-15 09:44:47,2161.090239517721,7,50,-1.099568486213684,3.56101393699646,50.99666888239425,50.60539797640914,203.26805138288827,184.90425487977976,-6.47544875391759e-05,0.0955438911914825,0,0,0
17100,587699.7035348973,2010-10-15 09:45:17,2191.1053907800983,7,50,-1.099568486213684,3.5577762126922607,50.99666888239425,50.61456603500043,203.26805138288827,184.9368873857753,-9.713172767078504e-05,0.0955438911914825,0,0,0
17101,587729.7186863051,2010-10-15 09:45:47,2221.1205422129,7,50,-1.0993878841400146,3.5550241470336914,50.99666888239425,50.62373410221245,203.26805138288827,184.96949187923465,-3.237724376958795e-05,0.0955438911914825,0,0,0
17102,587759.7338140489,2010-10-15 09:46:17,2251.135669921574,7,50,-1.0997490882873535,3.5514626502990723,50.99666888239425,50.63290216032941,203.26805138288827,185.00206746134728,-9.713172767078504e-05,0.0955438911914825,0,0,0
17103,587789.7489575217,2010-10-15 09:46:47,2281.1508134296246,7,50,-1.0997490882873535,3.548386812210083,50.99666888239425,50.6420702038445,203.26805138288827,185.03461379730967,-6.47544875391759e-05,0.0955438911914825,0,0,0
17104,587819.7641140172,2010-10-15 09:47:17,2311.1659698899566,7,50,-1.099929690361023,3.545149087905884,50.99666888239425,50.651238319313705,203.26805138288827,185.0671315614165,-9.713172767078504e-05,0.0955438911914825,0,0,0
17105,587849.7792502572,2010-10-15 09:47:47,2341.1811061349053,7,50,-1.0997490882873535,3.5422351360321045,50.99666888239425,50.66040638278146,203.26805138288827,185.09962037604905,-6.47544875391759e-05,0.0955438911914825,0,0,0
17106,587879.79451203,2010-10-15 09:48:17,2371.196367937783,7,50,-1.099568486213684,3.5388355255126958,50.99666888239425,50.66957452553868,203.26805138288827,185.1320803567949,-0.0001295089750783,0.0955438911914825,0,0,0
17107,587909.8096542298,2010-10-15 09:48:47,2401.211510097474,7,50,-1.099568486213684,3.535597801208496,50.99666888239425,50.67874259583967,203.26805138288827,185.16451060342635,-0.0001295089750783,0.0955438911914825,0,0,0
17108,587939.8248247452,2010-10-15 09:49:17,2431.2266806278726,7,50,-1.0997490882873535,3.532198190689087,50.99666888239425,50.68791068739009,203.26805138288827,185.19691012103763,-9.713172767078504e-05,0.0955438911914825,0,0,0
17109,587969.8399461732,2010-10-15 09:49:47,2461.241802075943,7,50,-1.099568486213684,3.528960466384888,50.99666888239425,50.69707878770043,203.26805138288827,185.22927910740188,-9.713172767078504e-05,0.0955438911914825,0,0,0
17110,587999.8549676521,2010-10-15 09:50:17,2491.25682355486,7,50,-1.0993878841400146,3.5255608558654785,50.99666888239425,50.70624690113191,203.26805138288827,185.26161667299283,-6.47544875391759e-05,0.0955438911914825,0,0,0
17111,588029.8701086087,2010-10-15 09:50:47,2521.271964491502,7,50,-1.099568486213684,3.5216755867004395,50.99666888239425,50.715414940788136,203.26805138288827,185.29392093322824,-6.47544875391759e-05,0.0955438911914825,0,0,0
17112,588059.8853916696,2010-10-15 09:51:17,2551.287247572411,7,50,-1.099929690361023,3.5179522037506104,50.99666888239425,50.72458309511481,203.26805138288827,185.32619200561368,-9.713172767078504e-05,0.0955438911914825,0,0,0
17113,588089.9005329872,2010-10-15 09:51:47,2581.3023888649404,7,50,-1.099568486213684,3.5140669345855717,50.99666888239425,50.73375121046361,203.26805138288827,185.35842790472515,-9.713172767078504e-05,0.0955438911914825,0,0,0
17114,588119.9155400753,2010-10-15 09:52:17,2611.3173959479777,7,50,-1.0997490882873535,3.5101819038391118,50.99666888239425,50.74291922882237,203.26805138288827,185.3906278282148,-0.0001295089750783,0.0955438911914825,0,0,0
17115,588149.9307278236,2010-10-15 09:52:47,2641.332583721352,7,50,-1.099568486213684,3.5059728622436523,50.99666888239425,50.75208732873548,203.26805138288827,185.42279020954925,-9.713172767078504e-05,0.0955438911914825,0,0,0
17116,588179.9461426829,2010-10-15 09:53:17,2671.3479986759307,7,50,-1.099568486213684,3.5016019344329834,50.99666888239425,50.76125555860504,203.26805138288827,185.454912976296,-6.47544875391759e-05,0.0955438911914825,0,0,0
17117,588209.9609908198,2010-10-15 09:53:47,2701.362846722601,7,50,-1.099568486213684,3.496745347976685,50.99666888239425,50.77042355776864,203.26805138288827,185.4869929630038,-0.0001295089750783,0.0955438911914825,0,0,0
17118,588239.9761193355,2010-10-15 09:54:17,2731.3779752182363,7,50,-1.0993878841400146,3.4918887615203857,50.99666888239425,50.77959161544968,203.26805138288827,185.519028904786,-0.0001618862152099,0.0955438911914825,0,0,0
17119,588269.9912676656,2010-10-15 09:54:47,2761.393123573368,7,50,-1.0997490882873535,3.486546516418457,50.99666888239425,50.78875974525568,203.26805138288827,185.55101732112036,-9.713172767078504e-05,0.0955438911914825,0,0,0
17120,588300.0064197299,2010-10-15 09:55:17,2791.408275607668,7,50,-1.099568486213684,3.4805567264556885,50.99666888239425,50.7979278895877,203.26805138288827,185.582954679118,-0.0001618862152099,0.0955438911914825,0,0,0
17121,588330.0215603408,2010-10-15 09:55:48,2821.423416243561,7,50,-1.099568486213684,3.47391939163208,50.99666888239425,50.80709595030192,203.26805138288827,185.61483497149976,-0.0001942634553415,0.0955438911914825,0,0,0
17122,588360.0367218888,2010-10-15 09:56:18,2851.438577791573,7,50,-1.099568486213684,3.466796398162842,50.99666888239425,50.816264003574325,203.26805138288827,185.6466523293712,-0.0002266406954731,0.0955438911914825,0,0,0
17123,588390.051981797,2010-10-15 09:56:48,2881.4538376796786,7,50,-1.099568486213684,3.458540201187134,50.99666888239425,50.82543212993308,203.26805138288827,185.67839858875436,-0.0001942634553415,0.0955438911914825,0,0,0
17124,588420.0670023034,2010-10-15 09:57:18,2911.468858181159,7,50,-1.099568486213684,3.449312686920166,50.99666888239425,50.83460024022404,203.26805138288827,185.7100647587303,-0.0002590179501567,0.0955438911914825,0,0,0
17125,588450.0825332971,2010-10-15 09:57:48,2941.484389189982,7,50,-1.099568486213684,3.438466310501098,50.99666888239425,50.84376848574403,203.26805138288827,185.7416400100352,-0.0002913951757363,0.0955438911914825,0,0,0
17126,588480.0972876303,2010-10-15 09:58:18,2971.4991435030383,7,50,-1.0997490882873535,3.425839424133301,50.99666888239425,50.852936504935904,203.26805138288827,185.77310838172377,-0.0004209041653666,0.0955438911914825,0,0,0
17127,588510.1124339103,2010-10-15 09:58:48,3001.51428980806,7,50,-1.099568486213684,3.4104602336883545,50.99666888239425,50.86210472790902,203.26805138288827,185.80444965206283,-0.0004532813909463,0.0955438911914825,0,0,0
17128,588540.1276048317,2010-10-15 09:59:18,3031.52946070437,7,50,-1.099568486213684,3.391843318939209,50.99666888239425,50.87127292952498,203.26805138288827,185.83563407480383,-0.0005504131549969,0.0955438911914825,0,0,0
17129,588570.1427365001,2010-10-15 09:59:48,3061.544592372914,7,50,-1.099568486213684,3.3683698177337646,50.99666888239425,50.88044103945746,203.26805138288827,185.8666268031729,-0.0006475448608398,0.0955438911914825,0,0,0
17130,588600.15786663,2010-10-15 10:00:18,3091.5597225026218,7,50,-1.099568486213684,3.3371260166168213,50.99666888239425,50.88960914998796,203.26805138288827,185.89737232085093,-0.0009389400365762,0.0955438911914825,0,0,0
17131,588630.1731233251,2010-10-15 10:00:48,3121.5749792077945,7,50,-1.099568486213684,3.2950356006622314,50.99666888239425,50.898777314066045,203.26805138288827,185.9277859970952,-0.0013274669181555,0.0955438911914825,0,0,0
17132,588660.1881943726,2010-10-15 10:01:18,3151.590050255252,7,50,-1.099568486213684,3.235623598098755,50.99666888239425,50.90794532868616,203.26805138288827,185.95773833434663,-0.0018455028766766,0.0955438911914825,0,0,0
17133,588690.2032831542,2010-10-15 10:01:48,3181.6051391221195,7,50,-1.0993878841400146,3.148043394088745,50.99666888239425,50.91711340719173,203.26805138288827,185.987029340364,-0.0027844428550451,0.0955438911914825,0,0,0
17134,588720.2184177099,2010-10-15 10:02:18,3211.6202736277337,7,50,-1.099568486213684,3.008174180984497,50.99666888239425,50.926281484456766,203.26805138288827,186.0153072843864,-0.0047270297072827,0.0955438911914825,0,0,0
17135,588743.2336623712,2010-10-15 10:02:41,3234.635518253956,7,50,-1.0997490882873535,2.8079214096069336,50.99666888239425,50.933311533391006,203.26805138288827,186.03582288165035,-0.0088389869779348,0.0955438911914825,0,0,0
17136,588751.7180841409,2010-10-15 10:02:49,3243.1199400235973,7,50,-1.0993878841400146,2.699943780899048,50.99666888239425,50.9359030764564,203.26805138288827,186.04296401762323,-0.0106520652770996,0.0955438911914825,0,0,0
17137,588811.7495375542,2010-10-15 10:03:49,60.01486059872297,8,50,0.0,3.38504409790039,50.99666888239425,50.9359030764564,203.26805138288827,186.04296401762323,0.0013598442310467,0.0955438911914825,0,0,0
17138,588811.9544786264,2010-10-15 10:03:50,0.1874188103427,9,50,-1.9243103452026844e-05,3.38504409790039,50.99666888239425,50.93590307745821,203.26805138288827,186.04296402101443,0.0,0.0931989923119545,0,0,0
17139,588816.7827143956,2010-10-15 10:03:54,5.015654589515408,9,50,0.0001613661734154,3.3931384086608887,50.996669410567264,50.935903077542285,203.2680531732902,186.04296402129907,0.0011655807029455,0.0931989923119545,0,0,0
