Data_Point,Test_Time(s),Date_Time,Step_Time(s),Step_Index,Cycle_Index,Current(A),Voltage(V),Charge_Capacity(Ah),Discharge_Capacity(Ah),Charge_Energy(Wh),Discharge_Energy(Wh),dV/dt(V/s),Internal_Resistance(Ohm),Is_FC_Data,AC_Impedance(Ohm),ACI_Phase_Angle(Deg)
15134,518628.87228257407,2010-10-14 14:33:59,30.01538099995373,1,45,0.0,3.4149930477142334,45.000454655246735,44.94232477357683,179.31107616437683,164.20700306837534,0.0007446765666827,0.0931148082017898,0,0,0
15135,518658.8871504752,2010-10-14 14:34:29,60.030248850982446,1,45,0.0,3.4387900829315186,45.000454655246735,44.94232477357683,179.31107616437683,164.20700306837534,0.0005504131549969,0.0931148082017898,0,0,0
15136,518688.902424293,2010-10-14 14:34:59,90.04552270890528,1,45,0.0,3.456921339035034,45.000454655246735,44.94232477357683,179.31107616437683,164.20700306837534,0.0004856586456298,0.0931148082017898,0,0,0
15137,518718.8708521964,2010-10-14 14:35:29,120.01395062232024,1,45,0.0,3.4711673259735107,45.000454655246735,44.94232477357683,179.31107616437683,164.20700306837534,0.0003237724304199,0.0931148082017898,0,0,0
15138,518748.8957363693,2010-10-14 14:35:59,30.015271436888863,2,45,0.5499359965324402,3.623501777648926,45.005040910645526,44.94232477357683,179.32754212530006,164.20700306837534,0.0014893531333655,0.0931148082017898,0,0,0
15139,518778.9107671614,2010-10-14 14:36:29,60.03030217387951,2,45,0.5501165986061096,3.667534828186035,45.00962720380279,44.94232477357683,179.34426810614664,164.20700306837534,0.0010036944877356,0.0931148082017898,0,0,0
15140,518808.9260385632,2010-10-14 14:36:59,90.04557362079336,2,45,0.5499359965324402,3.698940515518189,45.01421344882928,44.94232477357683,179.3611639109666,164.20700306837534,0.0007446765666827,0.0931148082017898,0,0,0
15141,518838.9410572351,2010-10-14 14:37:29,120.06059227767666,2,45,0.5501165986061096,3.7233853340148926,45.018799649987976,44.94232477357683,179.37818628696198,164.20700306837534,0.0005827903514727,0.0931148082017898,0,0,0
15142,518868.9563332234,2010-10-14 14:37:59,150.07586827092138,2,45,0.5501165986061096,3.743135452270508,45.02338594930456,44.94232477357683,179.39530960941784,164.20700306837534,0.0004856586456298,0.0931148082017898,0,0,0
15143,518898.9715116935,2010-10-14 14:38:29,180.0910467411086,2,45,0.5501165986061096,3.758676290512085,45.027972173593895,44.94232477357683,179.4125137181449,164.20700306837534,0.0003237724304199,0.0931148082017898,0,0,0
15144,518928.9865199044,2010-10-14 14:38:59,210.10605491185723,2,45,0.5501165986061096,3.7696845531463614,45.03255835149367,44.94232477357683,179.42977882084682,164.20700306837534,0.0002590179501567,0.0931148082017898,0,0,0
15145,518959.0017830406,2010-10-14 14:39:29,240.1213180580832,2,45,0.5501165986061096,3.7761600017547607,45.0371445794706,44.94232477357683,179.44708333748372,164.20700306837534,0.0001618862152099,0.0931148082017898,0,0,0
15146,518989.0168058728,2010-10-14 14:39:59,270.1363408853604,2,45,0.5499359965324402,3.7805309295654297,45.04173076612932,44.94232477357683,179.46441232621825,164.20700306837534,0.0001295089750783,0.0931148082017898,0,0,0
15147,519019.0329035992,2010-10-14 14:40:29,300.152438767004,2,45,0.5499359965324402,3.7844161987304688,45.04631710623282,44.94232477357683,179.48176054878232,164.20700306837534,6.47544875391759e-05,0.0931148082017898,0,0,0
15148,519049.0352215871,2010-10-14 14:40:59,330.1547567549123,2,45,0.5501165986061096,3.788139581680298,45.050901425873136,44.94232477357683,179.49911828682755,164.20700306837534,0.0001295089750783,0.0931148082017898,0,0,0
15149,519079.04668776,2010-10-14 14:41:29,360.1662228076128,2,45,0.5497553944587708,3.791539192199707,45.05548711447988,44.94232477357683,179.5164979283981,164.20700306837534,6.47544875391759e-05,0.0931148082017898,0,0,0
15150,519109.0617793487,2010-10-14 14:41:59,390.1813143661896,2,45,0.5499359965324402,3.795424461364746,45.06007326316332,44.94232477357683,179.53389583832728,164.20700306837534,0.0001295089750783,0.0931148082017898,0,0,0
15151,519139.0769307014,2010-10-14 14:42:29,420.1964657187914,2,45,0.5501165986061096,3.7988240718841553,45.064659443565,44.94232477357683,179.5513101142761,164.20700306837534,9.713172767078504e-05,0.0931148082017898,0,0,0
15152,519169.0922296167,2010-10-14 14:42:59,450.2117646592277,2,45,0.5501165986061096,3.8023855686187744,45.06924572082839,44.94232477357683,179.56874080104438,164.20700306837534,9.713172767078504e-05,0.0931148082017898,0,0,0
15153,519199.1072494816,2010-10-14 14:43:29,480.22678449404674,2,45,0.5501165986061096,3.8056232929229736,45.07383189882742,44.94232477357683,179.58618682730258,164.20700306837534,6.47544875391759e-05,0.0931148082017898,0,0,0
15154,519229.1223994106,2010-10-14 14:43:59,510.24193446821306,2,45,0.5501165986061096,3.808861017227173,45.07841810978532,44.94232477357683,179.60364842298654,164.20700306837534,6.47544875391759e-05,0.0931148082017898,0,0,0
15155,519259.13756800623,2010-10-14 14:44:29,540.2571030387273,2,45,0.5501165986061096,3.812098741531372,45.08300433320965,44.94232477357683,179.6211251619666,164.20700306837534,6.47544875391759e-05,0.0931148082017898,0,0,0
15156,519289.15267769,2010-10-14 14:44:59,570.27221272749,2,45,0.5499359965324402,3.815822124481201,45.087590601280525,44.94232477357683,179.63861733273734,164.20700306837534,9.713172767078504e-05,0.0931148082017898,0,0,0
15157,519319.16781184473,2010-10-14 14:45:30,600.287346877217,2,45,0.5501165986061096,3.8190598487854,45.09217684193234,44.94232477357683,179.65612428409435,164.20700306837534,0.0001295089750783,0.0931148082017898,0,0,0
15158,519349.182951443,2010-10-14 14:46:00,630.3024864554737,2,45,0.5499359965324402,3.82197380065918,45.096763050385846,44.94232477357683,179.67364574140677,164.20700306837534,6.47544875391759e-05,0.0931148082017898,0,0,0
15159,519379.1981646648,2010-10-14 14:46:30,660.3176997073475,2,45,0.550297200679779,3.825373411178589,45.10134922448811,44.94232477357683,179.69118155817924,164.20700306837534,0.0001295089750783,0.0931148082017898,0,0,0
15160,519409.2132367398,2010-10-14 14:47:00,690.3327717823653,2,45,0.5501165986061096,3.828449249267578,45.1059354359899,44.94232477357683,179.70873211325346,164.20700306837534,9.713172767078504e-05,0.0931148082017898,0,0,0
15161,519439.2283526791,2010-10-14 14:47:30,720.3478877166939,2,45,0.5499359965324402,3.831686973571777,45.11052158721659,44.94232477357683,179.72629723025122,164.20700306837534,6.47544875391759e-05,0.0931148082017898,0,0,0
15162,519469.2435180366,2010-10-14 14:48:00,750.3630530942503,2,45,0.550297200679779,3.8349244594573975,45.115107603688514,44.94232477357683,179.74387673324105,164.20700306837534,9.713172767078504e-05,0.0931148082017898,0,0,0
15163,519499.25864656747,2010-10-14 14:48:30,780.3781816299854,2,45,0.5501165986061096,3.8381621837615967,45.11969359525946,44.94232477357683,179.76147140567474,164.20700306837534,6.47544875391759e-05,0.0931148082017898,0,0,0
15164,519529.27404133166,2010-10-14 14:49:00,810.393576424319,2,45,0.5501165986061096,3.841723680496216,45.12427961590532,44.94232477357683,179.77908166381826,164.20700306837534,6.47544875391759e-05,0.0931148082017898,0,0,0
15165,519559.2889457087,2010-10-14 14:49:30,840.4084807211821,2,45,0.5501165986061096,3.845123291015625,45.1288657218575,44.94232477357683,179.7967078221474,164.20700306837534,9.713172767078504e-05,0.0931148082017898,0,0,0
15166,519589.3041073821,2010-10-14 14:50:00,870.4236423894938,2,45,0.5501165986061096,3.848361015319824,45.13345187934454,44.94232477357683,179.81434965108403,164.20700306837534,3.237724376958795e-05,0.0931148082017898,0,0,0
15167,519619.319235226,2010-10-14 14:50:30,900.438770233505,2,45,0.5499359965324402,3.8517606258392334,45.13803809827122,44.94232477357683,179.83200710712725,164.20700306837534,9.713172767078504e-05,0.0931148082017898,0,0,0
15168,519649.334390353,2010-10-14 14:51:00,930.4539254156512,2,45,0.5499359965324402,3.8549983501434326,45.14262435721511,44.94232477357683,179.84967976665305,164.20700306837534,6.47544875391759e-05,0.0931148082017898,0,0,0
15169,519679.3495259363,2010-10-14 14:51:30,960.4690610039636,2,45,0.5499359965324402,3.858236074447632,45.14721065658247,44.94232477357683,179.8673674678616,164.20700306837534,6.47544875391759e-05,0.0931148082017898,0,0,0
15170,519709.36465347966,2010-10-14 14:52:00,990.4841885221632,2,45,0.5501165986061096,3.861311912536621,45.15179695421782,44.94232477357683,179.88506973126445,164.20700306837534,6.47544875391759e-05,0.0931148082017898,0,0,0
15171,519739.3798069826,2010-10-14 14:52:30,1020.4993420201116,2,45,0.5501165986061096,3.8643877506256095,45.15638332571583,44.94232477357683,179.9027865366609,164.20700306837534,6.47544875391759e-05,0.0931148082017898,0,0,0
15172,519769.39496435015,2010-10-14 14:53:00,1050.5144993877047,2,45,0.5499359965324402,3.8674635887146,45.16096963302665,44.94232477357683,179.92051701068735,164.20700306837534,9.713172767078504e-05,0.0931148082017898,0,0,0
15173,519799.4101018782,2010-10-14 14:53:30,1080.5296369108391,2,45,0.5501165986061096,3.870377540588379,45.165555920566845,44.94232477357683,179.9382609455719,164.20700306837534,9.713172767078504e-05,0.0931148082017898,0,0,0
15174,519829.4252486294,2010-10-14 14:54:00,1110.5447836870353,2,45,0.550297200679779,3.873129606246948,45.170142283992526,44.94232477357683,179.95601830513436,164.20700306837534,9.713172767078504e-05,0.0931148082017898,0,0,0
15175,519859.4404218816,2010-10-14 14:54:30,1140.5599569241804,2,45,0.5499359965324402,3.875719785690308,45.17472866845727,44.94232477357683,179.97378828169286,164.20700306837534,3.237724376958795e-05,0.0931148082017898,0,0,0
15176,519889.45556616667,2010-10-14 14:55:00,1170.575101209167,2,45,0.5499359965324402,3.878309965133667,45.17931497861496,44.94232477357683,179.99157008702275,164.20700306837534,6.47544875391759e-05,0.0931148082017898,0,0,0
15177,519919.4706922863,2010-10-14 14:55:30,1200.5902272937938,2,45,0.5501165986061096,3.880738258361816,45.18390128082396,44.94232477357683,180.00936334887004,164.20700306837534,0.0,0.0931148082017898,0,0,0
15178,519949.4858604559,2010-10-14 14:56:00,1230.6053954633085,2,45,0.5497553944587708,3.883166551589966,45.18848761195999,44.94232477357683,180.0271675513601,164.20700306837534,6.47544875391759e-05,0.0931148082017898,0,0,0
15179,519979.5009930016,2010-10-14 14:56:30,1260.620528049138,2,45,0.5497553944587708,3.885109186172485,45.19307404264397,44.94232477357683,180.04498228904268,164.20700306837534,0.0,0.0931148082017898,0,0,0
15180,520009.51614225394,2010-10-14 14:57:00,1290.6356773015054,2,45,0.550297200679779,3.887375593185425,45.19766038099588,44.94232477357683,180.06280612812392,164.20700306837534,6.47544875391759e-05,0.0931148082017898,0,0,0
15181,520039.5312783335,2010-10-14 14:57:30,1320.6508133710172,2,45,0.5501165986061096,3.889318227767944,45.20224678383316,44.94232477357683,180.0806390950336,164.20700306837534,9.713172767078504e-05,0.0931148082017898,0,0,0
15182,520069.5464262725,2010-10-14 14:58:00,1350.6659613101117,2,45,0.5499359965324402,3.890775203704834,45.20683321139991,44.94232477357683,180.09848037004485,164.20700306837534,0.0,0.0931148082017898,0,0,0
15183,520099.5615901915,2010-10-14 14:58:30,1380.6811252190075,2,45,0.5501165986061096,3.892555952072144,45.21141955481226,44.94232477357683,180.11632894555095,164.20700306837534,6.47544875391759e-05,0.0931148082017898,0,0,0
15184,520129.5768585407,2010-10-14 14:59:00,1410.6963935682008,2,45,0.550297200679779,3.894012928009033,45.21600607540356,44.94232477357683,180.13418538258745,164.20700306837534,6.47544875391759e-05,0.0931148082017898,0,0,0
15185,520159.5918677841,2010-10-14 14:59:30,1440.7114028216477,2,45,0.5499359965324402,3.895146131515503,45.22059252206616,44.94232477357683,180.15204789762885,164.20700306837534,3.237724376958795e-05,0.0931148082017898,0,0,0
15186,520189.60706767766,2010-10-14 15:00:00,1470.7266028204913,2,45,0.5501165986061096,3.8966031074523926,45.22517892993897,44.94232477357683,180.1699164236732,164.20700306837534,0.0,0.0931148082017898,0,0,0
15187,520219.6224703165,2010-10-14 15:00:30,1500.7420053541134,2,45,0.5501165986061096,3.898060083389282,45.22976536504805,44.94232477357683,180.1877911075832,164.20700306837534,6.47544875391759e-05,0.0931148082017898,0,0,0
15188,520249.6373677864,2010-10-14 15:01:00,1530.7569028941364,2,45,0.5499359965324402,3.899031400680542,45.23435170513218,44.94232477357683,180.20567125348404,164.20700306837534,0.0,0.0931148082017898,0,0,0
15189,520279.6524650593,2010-10-14 15:01:30,1560.7720001218422,2,45,0.5501165986061096,3.900488376617432,45.23893811500785,44.94232477357683,180.2235572820597,164.20700306837534,6.47544875391759e-05,0.0931148082017898,0,0,0
15190,520309.6676514693,2010-10-14 15:02:00,1590.78718659698,2,45,0.5501165986061096,3.901621580123901,45.243524425074696,44.94232477357683,180.24144843709823,164.20700306837534,6.47544875391759e-05,0.0931148082017898,0,0,0
15191,520339.68275395,2010-10-14 15:02:30,1620.802288992566,2,45,0.5501165986061096,3.902754783630371,45.24811078578214,44.94232477357683,180.2593452716316,164.20700306837534,3.237724376958795e-05,0.0931148082017898,0,0,0
15192,520369.697925924,2010-10-14 15:03:00,1650.8174609715752,2,45,0.5501165986061096,3.904049873352051,45.25269717627576,44.94232477357683,180.2772476987853,164.20700306837534,3.237724376958795e-05,0.0931148082017898,0,0,0
15193,520399.7133275704,2010-10-14 15:03:30,1680.8328626781365,2,45,0.5499359965324402,3.905183076858521,45.25728354083076,44.94232477357683,180.29515545635152,164.20700306837534,6.47544875391759e-05,0.0931148082017898,0,0,0
15194,520429.72820866446,2010-10-14 15:04:00,1710.847743727058,2,45,0.5499359965324402,3.9063162803649902,45.26186983020643,44.94232477357683,180.31306810936468,164.20700306837534,3.237724376958795e-05,0.0931148082017898,0,0,0
15195,520459.7433546738,2010-10-14 15:04:30,1740.8628897313304,2,45,0.5499359965324402,3.90728759765625,45.26645616109089,44.94232477357683,180.33098636655,164.20700306837534,0.0,0.0931148082017898,0,0,0
15196,520489.7587186212,2010-10-14 15:05:00,1770.878253628659,2,45,0.5501165986061096,3.90874457359314,45.27104254358201,44.94232477357683,180.34891024667724,164.20700306837534,3.237724376958795e-05,0.0931148082017898,0,0,0
15197,520519.773677038,2010-10-14 15:05:30,1800.893212050418,2,45,0.5499359965324402,3.90987777709961,45.27562885828718,44.94232477357683,180.36683956367693,164.20700306837534,0.0,0.0931148082017898,0,0,0
15198,520549.7888548716,2010-10-14 15:06:00,1830.9083899241184,2,45,0.5501165986061096,3.911334753036499,45.28021518763878,44.94232477357683,180.3847745257411,164.20700306837534,6.47544875391759e-05,0.0931148082017898,0,0,0
15199,520579.803951197,2010-10-14 15:06:30,1860.923486209476,2,45,0.5501165986061096,3.9124679565429688,45.2848015177566,44.94232477357683,180.40271522028027,164.20700306837534,6.47544875391759e-05,0.0931148082017898,0,0,0
15200,520609.8191146648,2010-10-14 15:07:00,1890.938649677273,2,45,0.5501165986061096,3.9136011600494394,45.28938792880222,44.94232477357683,180.42066198820024,164.20700306837534,0.0,0.0931148082017898,0,0,0
15201,520639.83425082953,2010-10-14 15:07:30,1920.9537858420213,2,45,0.5501165986061096,3.914896011352539,45.2939743679383,44.94232477357683,180.4386146558018,164.20700306837534,6.47544875391759e-05,0.0931148082017898,0,0,0
15202,520669.8495180509,2010-10-14 15:08:00,1950.9690530784417,2,45,0.5501165986061096,3.9161911010742183,45.29856081323768,44.94232477357683,180.4565729883106,164.20700306837534,6.47544875391759e-05,0.0931148082017898,0,0,0
15203,520699.864548011,2010-10-14 15:08:30,1980.984083018446,2,45,0.5497553944587708,3.917324304580689,45.30314714247596,44.94232477357683,180.47453678721308,164.20700306837534,0.0,0.0931148082017898,0,0,0
15204,520729.879744852,2010-10-14 15:09:00,2010.9992798744563,2,45,0.5501165986061096,3.918943166732788,45.30773349990596,44.94232477357683,180.49250661707228,164.20700306837534,9.713172767078504e-05,0.0931148082017898,0,0,0
15205,520759.8948428767,2010-10-14 15:09:30,2041.0143778841111,2,45,0.5499359965324402,3.920076370239258,45.31231980714028,44.94232477357683,180.51048223597363,164.20700306837534,0.0,0.0931148082017898,0,0,0
15206,520789.9099912568,2010-10-14 15:10:00,2071.0295262693176,2,45,0.5501165986061096,3.9213714599609375,45.31690607801304,44.94232477357683,180.5284636825396,164.20700306837534,3.237724376958795e-05,0.0931148082017898,0,0,0
15207,520819.9250813918,2010-10-14 15:10:30,2101.044616544696,2,45,0.550297200679779,3.922828435897827,45.32149246115961,44.94232477357683,180.5464517388567,164.20700306837534,6.47544875391759e-05,0.0931148082017898,0,0,0
15208,520849.9404196504,2010-10-14 15:11:00,2131.0599546577623,2,45,0.550297200679779,3.924123525619507,45.32607970490774,44.94232477357683,180.5644492639272,164.20700306837534,3.237724376958795e-05,0.0931148082017898,0,0,0
15209,520879.9553659117,2010-10-14 15:11:30,2161.0749009743517,2,45,0.5501165986061096,3.9254186153411865,45.33066683108462,44.94232477357683,180.58245253700824,164.20700306837534,0.0,0.0931148082017898,0,0,0
15210,520909.9705907074,2010-10-14 15:12:00,2191.0901257449336,2,45,0.550297200679779,3.926875591278076,45.33525321377118,44.94232477357683,180.6004590022188,164.20700306837534,6.47544875391759e-05,0.0931148082017898,0,0,0
15211,520939.9857566113,2010-10-14 15:12:30,2221.105291653814,2,45,0.5501165986061096,3.928170680999756,45.339839480548086,44.94232477357683,180.61847132169612,164.20700306837534,3.237724376958795e-05,0.0931148082017898,0,0,0
15212,520970.0037194459,2010-10-14 15:13:00,2251.123254463432,2,45,0.5501165986061096,3.9296276569366455,45.34442619203553,44.94232477357683,180.63649171723023,164.20700306837534,3.237724376958795e-05,0.0931148082017898,0,0,0
15213,521000.0161906137,2010-10-14 15:13:30,2281.1357256712886,2,45,0.5499359965324402,3.930922746658325,45.34901210511396,44.94232477357683,180.65451546845412,164.20700306837534,0.0,0.0931148082017898,0,0,0
15214,521030.03119064914,2010-10-14 15:14:00,2311.150725671674,2,45,0.5499359965324402,3.932217836380005,45.35359843405504,44.94232477357683,180.67254726525263,164.20700306837534,3.237724376958795e-05,0.0931148082017898,0,0,0
15215,521060.0463455005,2010-10-14 15:14:30,2341.1658805430457,2,45,0.5501165986061096,3.933836698532105,45.35818479772555,44.94232477357683,180.6905857851725,164.20700306837534,9.713172767078504e-05,0.0931148082017898,0,0,0
15216,521090.06203751056,2010-10-14 15:15:00,2371.181572653382,2,45,0.5499359965324402,3.935131788253784,45.36277122964351,44.94232477357683,180.70863116922607,164.20700306837534,0.0,0.0931148082017898,0,0,0
15217,521120.07662671217,2010-10-14 15:15:30,2401.196161724606,2,45,0.5501165986061096,3.936750650405884,45.36735757163115,44.94232477357683,180.7266828204633,164.20700306837534,6.47544875391759e-05,0.0931148082017898,0,0,0
15218,521150.0917931723,2010-10-14 15:16:00,2431.2113282149357,2,45,0.5499359965324402,3.9378838539123535,45.3719439291817,44.94232477357683,180.7447412697678,164.20700306837534,0.0,0.0931148082017898,0,0,0
15219,521180.1069158936,2010-10-14 15:16:30,2461.2264509311667,2,45,0.5501165986061096,3.939664602279663,45.376530241150654,44.94232477357683,180.76280627092424,164.20700306837534,3.237724376958795e-05,0.0931148082017898,0,0,0
15220,521210.1220838125,2010-10-14 15:17:00,2491.241618830007,2,45,0.5501165986061096,3.9412834644317623,45.38111655622059,44.94232477357683,180.78087815547457,164.20700306837534,6.47544875391759e-05,0.0931148082017898,0,0,0
15221,521240.1372305235,2010-10-14 15:17:31,2521.2567655410407,2,45,0.550297200679779,3.942740440368652,45.38570289636976,44.94232477357683,180.79895692957072,164.20700306837534,6.47544875391759e-05,0.0931148082017898,0,0,0
15222,521270.1523755304,2010-10-14 15:18:01,2551.271910592939,2,45,0.5501165986061096,3.944197416305542,45.3902892022905,44.94232477357683,180.81704246183472,164.20700306837534,3.237724376958795e-05,0.0931148082017898,0,0,0
15223,521300.1676308922,2010-10-14 15:18:31,2581.287165909652,2,45,0.5501165986061096,3.945654392242432,45.39487557090831,44.94232477357683,180.8351351842908,164.20700306837534,3.237724376958795e-05,0.0931148082017898,0,0,0
15224,521330.1826619048,2010-10-14 15:19:01,2611.3021969123047,2,45,0.5501165986061096,3.9472732543945312,45.39946196551042,44.94232477357683,180.8532349551687,164.20700306837534,9.713172767078504e-05,0.0931148082017898,0,0,0
15225,521360.1979402239,2010-10-14 15:19:31,2641.317475256408,2,45,0.5499359965324402,3.948730230331421,45.40404833903129,44.94232477357683,180.87134173362176,164.20700306837534,6.47544875391759e-05,0.0931148082017898,0,0,0
15226,521390.2129397631,2010-10-14 15:20:01,2671.3324747755946,2,45,0.5501165986061096,3.950349092483521,45.40863465242427,44.94232477357683,180.88945534863225,164.20700306837534,9.713172767078504e-05,0.0931148082017898,0,0,0
15227,521420.2282152351,2010-10-14 15:20:31,2701.3477502625774,2,45,0.5501165986061096,3.95180606842041,45.4132210285521,44.94232477357683,180.9075763513628,164.20700306837534,3.237724376958795e-05,0.0931148082017898,0,0,0
15228,521450.2434320559,2010-10-14 15:21:01,2731.362967073321,2,45,0.550297200679779,3.95358681678772,45.41780740467164,44.94232477357683,180.9257044197957,164.20700306837534,9.713172767078504e-05,0.0931148082017898,0,0,0
15229,521480.25841830194,2010-10-14 15:21:31,2761.3779533144143,2,45,0.5501165986061096,3.95504379272461,45.422393804906186,44.94232477357683,180.94383992699693,164.20700306837534,6.47544875391759e-05,0.0931148082017898,0,0,0
15230,521510.2735319556,2010-10-14 15:22:01,2791.3930669680585,2,45,0.5499359965324402,3.956500768661499,45.42698020195181,44.94232477357683,180.96198285296276,164.20700306837534,3.237724376958795e-05,0.0931148082017898,0,0,0
15231,521540.28867688216,2010-10-14 15:22:31,2821.408211899657,2,45,0.5499359965324402,3.9582815170288086,45.43156660034323,44.94232477357683,180.98013308887056,164.20700306837534,6.47544875391759e-05,0.0931148082017898,0,0,0
15232,521570.3038497584,2010-10-14 15:23:01,2851.423384821016,2,45,0.5501165986061096,3.960062265396118,45.43615288236388,44.94232477357683,180.99829031234137,164.20700306837534,0.0001295089750783,0.0931148082017898,0,0,0
15233,521600.3189791964,2010-10-14 15:23:31,2881.438514238949,2,45,0.5499359965324402,3.961357355117798,45.440739189065255,44.94232477357683,181.0164551877303,164.20700306837534,3.237724376958795e-05,0.0931148082017898,0,0,0
15234,521630.33411616815,2010-10-14 15:24:01,2911.453651200685,2,45,0.5501165986061096,3.9631381034851074,45.44532556942006,44.94232477357683,181.03462793097933,164.20700306837534,6.47544875391759e-05,0.0931148082017898,0,0,0
15235,521660.3492616512,2010-10-14 15:24:31,2941.46879670872,2,45,0.5499359965324402,3.964756965637207,45.44991188888727,44.94232477357683,181.05280807455983,164.20700306837534,3.237724376958795e-05,0.0931148082017898,0,0,0
15236,521690.36442364525,2010-10-14 15:25:01,2971.4839586827943,2,45,0.5501165986061096,3.9665377140045166,45.45449823954024,44.94232477357683,181.0709959758046,164.20700306837534,3.237724376958795e-05,0.0931148082017898,0,0,0
15237,521720.3795531484,2010-10-14 15:25:31,3001.499088200978,2,45,0.5501165986061096,3.968156576156616,45.4590846195252,44.94232477357683,181.08919174378207,164.20700306837534,6.47544875391759e-05,0.0931148082017898,0,0,0
15238,521750.39469899226,2010-10-14 15:26:01,3031.5142340298125,2,45,0.5501165986061096,3.969937324523926,45.4636709887947,44.94232477357683,181.1073953502986,164.20700306837534,6.47544875391759e-05,0.0931148082017898,0,0,0
15239,521780.4098825852,2010-10-14 15:26:31,3061.529417597705,2,45,0.5501165986061096,3.9715561866760254,45.46825734636205,44.94232477357683,181.1256067787577,164.20700306837534,3.237724376958795e-05,0.0931148082017898,0,0,0
15240,521810.42513442825,2010-10-14 15:27:01,3091.544669455797,2,45,0.5501165986061096,3.973336935043335,45.47284379137688,44.94232477357683,181.14382645890092,164.20700306837534,3.237724376958795e-05,0.0931148082017898,0,0,0
15241,521840.4402717961,2010-10-14 15:27:31,3121.55980685362,2,45,0.5499359965324402,3.9749557971954346,45.47743015982887,44.94232477357683,181.16205379782627,164.20700306837534,3.237724376958795e-05,0.0931148082017898,0,0,0
15242,521870.4553165129,2010-10-14 15:28:01,3151.5748515303526,2,45,0.5501165986061096,3.976898431777954,45.4820165087972,44.94232477357683,181.18028908246436,164.20700306837534,6.47544875391759e-05,0.0931148082017898,0,0,0
15243,521900.47044211125,2010-10-14 15:28:31,3181.589977148817,2,45,0.550297200679779,3.9785172939300537,45.4866029240447,44.94232477357683,181.19853222302453,164.20700306837534,3.237724376958795e-05,0.0931148082017898,0,0,0
15244,521930.48559338367,2010-10-14 15:29:01,3211.605128426232,2,45,0.5499359965324402,3.980459928512573,45.491189217804845,44.94232477357683,181.21678351490928,164.20700306837534,6.47544875391759e-05,0.0931148082017898,0,0,0
15245,521960.5007690268,2010-10-14 15:29:31,3241.6203040743853,2,45,0.5501165986061096,3.982240676879883,45.49577555582287,44.94232477357683,181.23504324996927,164.20700306837534,0.0,0.0931148082017898,0,0,0
15246,521990.51589522674,2010-10-14 15:30:01,3271.6354302893365,2,45,0.5499359965324402,3.984021425247192,45.500361868981294,44.94232477357683,181.25331111449356,164.20700306837534,3.237724376958795e-05,0.0931148082017898,0,0,0
15247,522020.53115175146,2010-10-14 15:30:31,3301.6506867789726,2,45,0.5497553944587708,3.985802173614502,45.50494821689017,44.94232477357683,181.27158751771745,164.20700306837534,3.237724376958795e-05,0.0931148082017898,0,0,0
15248,522050.5463080062,2010-10-14 15:31:01,3331.665843043817,2,45,0.550297200679779,3.987906694412232,45.50953455692856,44.94232477357683,181.2898724362434,164.20700306837534,6.47544875391759e-05,0.0931148082017898,0,0,0
15249,522080.5613309338,2010-10-14 15:31:31,3361.6808660415186,2,45,0.5501165986061096,3.989687442779541,45.51412084201243,44.94232477357683,181.30816553767272,164.20700306837534,6.47544875391759e-05,0.0931148082017898,0,0,0
15250,522110.5764378407,2010-10-14 15:32:01,3391.695972868148,2,45,0.5499359965324402,3.9914681911468506,45.51870711836966,44.94232477357683,181.32646725581367,164.20700306837534,3.237724376958795e-05,0.0931148082017898,0,0,0
15251,522140.5917329216,2010-10-14 15:32:31,3421.711268024153,2,45,0.5501165986061096,3.99341082572937,45.52329340343172,44.94232477357683,181.34477785149647,164.20700306837534,3.237724376958795e-05,0.0931148082017898,0,0,0
15252,522170.6067948712,2010-10-14 15:33:01,3451.7263300140357,2,45,0.5501165986061096,3.995353221893311,45.52787976971361,44.94232477357683,181.3630977246063,164.20700306837534,3.237724376958795e-05,0.0931148082017898,0,0,0
15253,522200.6219660031,2010-10-14 15:33:31,3481.7415010757586,2,45,0.550297200679779,3.99745774269104,45.53246600379837,44.94232477357683,181.3814261515263,164.20700306837534,3.237724376958795e-05,0.0931148082017898,0,0,0
15254,522230.6371172304,2010-10-14 15:34:01,3511.7566522729726,2,45,0.5501165986061096,3.9995622634887695,45.53705232240071,44.94232477357683,181.39976405516967,164.20700306837534,9.713172767078504e-05,0.0931148082017898,0,0,0
15255,522260.6522337662,2010-10-14 15:34:31,3541.771768783738,2,45,0.5499359965324402,4.001504898071289,45.54163861322139,44.94232477357683,181.41811110015072,164.20700306837534,3.23295607813634e-05,0.0931148082017898,0,0,0
15256,522290.66737380566,2010-10-14 15:35:01,3571.786908823144,2,45,0.5499359965324402,4.003609657287598,45.54622488161272,44.94232477357683,181.4364674063731,164.20700306837534,6.47544875391759e-05,0.0931148082017898,0,0,0
15257,522320.68275211885,2010-10-14 15:35:31,3601.802287176501,2,45,0.5501165986061096,4.005390167236328,45.55081120058034,44.94232477357683,181.45483325235972,164.20700306837534,3.23295607813634e-05,0.0931148082017898,0,0,0
15258,522350.6976546564,2010-10-14 15:36:01,3631.8171896688673,2,45,0.5499359965324402,4.007656574249268,45.555397437425206,44.94232477357683,181.47320835927707,164.20700306837534,6.47544875391759e-05,0.0931148082017898,0,0,0
15259,522380.71292678,2010-10-14 15:36:31,3661.832461807505,2,45,0.5501165986061096,4.009761333465576,45.5599838518805,44.94232477357683,181.49159380302,164.20700306837534,6.47544875391759e-05,0.0931148082017898,0,0,0
15260,522410.72797476494,2010-10-14 15:37:01,3691.847509802508,2,45,0.550297200679779,4.011865615844727,45.5645701609255,44.94232477357683,181.50998850272904,164.20700306837534,6.47544875391759e-05,0.0931148082017898,0,0,0
15261,522440.7431056064,2010-10-14 15:37:31,3721.862640643989,2,45,0.5501165986061096,4.013970375061035,45.56915647653759,44.94232477357683,181.52839310900657,164.20700306837534,6.47544875391759e-05,0.0931148082017898,0,0,0
15262,522470.7583729081,2010-10-14 15:38:01,3751.877907930535,2,45,0.5499359965324402,4.016236782073975,45.57374280379788,44.94232477357683,181.5468077171993,164.20700306837534,9.71794142969884e-05,0.0931148082017898,0,0,0
15263,522500.7733944972,2010-10-14 15:38:31,3781.892929539776,2,45,0.5499359965324402,4.018341064453125,45.57832912513936,44.94232477357683,181.5652323804931,164.20700306837534,3.23295607813634e-05,0.0931148082017898,0,0,0
15264,522530.78856327327,2010-10-14 15:39:01,3811.908098285728,2,45,0.5501165986061096,4.0206074714660645,45.5829154881551,44.94232477357683,181.5836672074655,164.20700306837534,3.23295607813634e-05,0.0931148082017898,0,0,0
15265,522560.8036847614,2010-10-14 15:39:31,3841.923219829035,2,45,0.5499359965324402,4.022712230682373,45.58750180166498,44.94232477357683,181.60211210883648,164.20700306837534,3.24249267578125e-05,0.0931148082017898,0,0,0
15266,522590.818830881,2010-10-14 15:40:01,3871.9383658934576,2,45,0.5501165986061096,4.0249786376953125,45.592088113935496,44.94232477357683,181.6205673412067,164.20700306837534,3.24249267578125e-05,0.0931148082017898,0,0,0
15267,522620.8339999627,2010-10-14 15:40:31,3901.9535350053206,2,45,0.5501165986061096,4.027406692504883,45.59667439313,44.94232477357683,181.63903285822016,164.20700306837534,6.47544875391759e-05,0.0931148082017898,0,0,0
15268,522650.84912952106,2010-10-14 15:41:01,3931.968664528517,2,45,0.5499359965324402,4.029511451721191,45.60126073028128,44.94232477357683,181.6575091075687,164.20700306837534,3.24249267578125e-05,0.0931148082017898,0,0,0
15269,522680.864390953,2010-10-14 15:41:31,3961.983925980521,2,45,0.5499359965324402,4.031939506530762,45.6058470114312,44.94232477357683,181.6759956187586,164.20700306837534,6.47544875391759e-05,0.0931148082017898,0,0,0
15270,522710.879408417,2010-10-14 15:42:01,3991.9989434344056,2,45,0.5499359965324402,4.034367561340332,45.610433281199285,44.94232477357683,181.69449285450443,164.20700306837534,6.46591215627268e-05,0.0931148082017898,0,0,0
15271,522740.89456707775,2010-10-14 15:42:31,4022.0141020902097,2,45,0.5501165986061096,4.036633968353272,45.61501955010436,44.94232477357683,181.71300090253123,164.20700306837534,6.47544875391759e-05,0.0931148082017898,0,0,0
15272,522770.9098421437,2010-10-14 15:43:01,4052.029377166168,2,45,0.5499359965324402,4.0390625,45.61960591548486,44.94232477357683,181.7315202096671,164.20700306837534,9.71794142969884e-05,0.0931148082017898,0,0,0
15273,522800.9248514973,2010-10-14 15:43:31,4082.04438650984,2,45,0.550297200679779,4.041652679443359,45.624192225863936,44.94232477357683,181.75005009875045,164.20700306837534,0.0001295089750783,0.0931148082017898,0,0,0
15274,522830.94001966185,2010-10-14 15:44:01,4112.05955470943,2,45,0.5495747923851013,4.04375696182251,45.6287785286867,44.94232477357683,181.76859099445065,164.20700306837534,6.47544875391759e-05,0.0931148082017898,0,0,0
15275,522860.9551433906,2010-10-14 15:44:31,4142.074678403097,2,45,0.5501165986061096,4.046347141265869,45.63336482773887,44.94232477357683,181.78714294702692,164.20700306837534,6.47544875391759e-05,0.0931148082017898,0,0,0
15276,522890.9731569968,2010-10-14 15:45:01,4172.09269215969,2,45,0.5501165986061096,4.048775672912598,45.63795157357059,44.94232477357683,181.80570795761705,164.20700306837534,6.47544875391759e-05,0.0931148082017898,0,0,0
15277,522920.984786111,2010-10-14 15:45:31,4202.104321118403,2,45,0.5501165986061096,4.051042079925537,45.64250644595262,44.94232477357683,181.82415514515287,164.20700306837534,3.24249267578125e-05,0.0931148082017898,0,0,0
15278,522950.98496905767,2010-10-14 15:46:01,4232.104504105232,2,45,0.5501165986061096,4.053793907165527,45.64712138586938,44.94232477357683,181.8428571010268,164.20700306837534,6.47544875391759e-05,0.0931148082017898,0,0,0
15279,522981.0001250819,2010-10-14 15:46:31,4262.119660119452,2,45,0.5501165986061096,4.056384086608887,45.65170779674721,44.94232477357683,181.86145516367893,164.20700306837534,9.70840483205393e-05,0.0931148082017898,0,0,0
15280,523011.0152509911,2010-10-14 15:47:01,4292.1347860035785,2,45,0.5501165986061096,4.058812618255615,45.65629418322354,44.94232477357683,181.88006494903647,164.20700306837534,3.24249267578125e-05,0.0931148082017898,0,0,0
15281,523041.0305349191,2010-10-14 15:47:31,4322.150069946636,2,45,0.5501165986061096,4.0615644454956055,45.66088055908098,44.94232477357683,181.89868630871297,164.20700306837534,9.70840483205393e-05,0.0931148082017898,0,0,0
15282,523071.0455360574,2010-10-14 15:48:01,4352.16507106982,2,45,0.5501165986061096,4.063992977142334,45.66546681283485,44.94232477357683,181.91731895061324,164.20700306837534,6.47544875391759e-05,0.0931148082017898,0,0,0
15283,523101.0606891693,2010-10-14 15:48:31,4382.180224211882,2,45,0.5501165986061096,4.066744804382324,45.67005309206819,44.94232477357683,181.9359637677885,164.20700306837534,6.47544875391759e-05,0.0931148082017898,0,0,0
15284,523131.0758317301,2010-10-14 15:49:01,4412.195366742496,2,45,0.5501165986061096,4.069334983825684,45.67463931072229,44.94232477357683,181.95462048742684,164.20700306837534,9.70840483205393e-05,0.0931148082017898,0,0,0
15285,523161.0909871729,2010-10-14 15:49:31,4442.210522190306,2,45,0.5501165986061096,4.072087287902832,45.67922562092683,44.94232477357683,181.97328983423336,164.20700306837534,6.47544875391759e-05,0.0931148082017898,0,0,0
15286,523191.1061422397,2010-10-14 15:50:02,4472.225677277214,2,45,0.5499359965324402,4.074839115142822,45.68381192704921,44.94232477357683,181.99197157762632,164.20700306837534,9.70840483205393e-05,0.0931148082017898,0,0,0
15287,523221.1212873167,2010-10-14 15:50:32,4502.2408223341245,2,45,0.550297200679779,4.077591419219971,45.68839830202082,44.94232477357683,182.0106662559537,164.20700306837534,9.71794142969884e-05,0.0931148082017898,0,0,0
15288,523251.1364246693,2010-10-14 15:51:02,4532.255959686835,2,45,0.5501165986061096,4.080343246459961,45.692984614082896,44.94232477357683,182.0293733561514,164.20700306837534,9.70840483205393e-05,0.0931148082017898,0,0,0
15289,523281.15157389664,2010-10-14 15:51:32,4562.271108914139,2,45,0.5499359965324402,4.083095550537109,45.69757099089728,44.94232477357683,182.04809343575823,164.20700306837534,6.47544875391759e-05,0.0931148082017898,0,0,0
15290,523311.16670920927,2010-10-14 15:52:02,4592.2862443119775,2,45,0.5501165986061096,4.086009502410889,45.702157295912734,44.94232477357683,182.06682619409932,164.20700306837534,9.71794142969884e-05,0.0931148082017898,0,0,0
15291,523341.18185910326,2010-10-14 15:52:32,4622.301394150807,2,45,0.5499359965324402,4.088761329650879,45.706743654893,44.94232477357683,182.0855722397168,164.20700306837534,9.70840483205393e-05,0.0931148082017898,0,0,0
15292,523371.1970013231,2010-10-14 15:53:02,4652.316536340572,2,45,0.5499359965324402,4.091513633728027,45.7113299638724,44.94232477357683,182.10433129714585,164.20700306837534,6.47544875391759e-05,0.0931148082017898,0,0,0
15293,523401.2123785236,2010-10-14 15:53:32,4682.331913556093,2,45,0.5495747923851013,4.094265460968018,45.71591633028914,44.94232477357683,182.12310384252007,164.20700306837534,3.23295607813634e-05,0.0931148082017898,0,0,0
15294,523431.22729629406,2010-10-14 15:54:02,4712.346831306488,2,45,0.5501165986061096,4.097503185272217,45.72050258435674,44.94232477357683,182.1418893487648,164.20700306837534,9.70840483205393e-05,0.0931148082017898,0,0,0
15295,523461.2424446892,2010-10-14 15:54:32,4742.361979731793,2,45,0.5501165986061096,4.100579261779785,45.72508891765331,44.94232477357683,182.16068866380456,164.20700306837534,9.71794142969884e-05,0.0931148082017898,0,0,0
15296,523491.2575876309,2010-10-14 15:55:02,4772.377122643357,2,45,0.5499359965324402,4.103331089019775,45.72967527784896,44.94232477357683,182.1795016005269,164.20700306837534,3.23295607813634e-05,0.0931148082017898,0,0,0
15297,523521.2727483418,2010-10-14 15:55:32,4802.392283359296,2,45,0.5501165986061096,4.106407165527344,45.73426164215777,44.94232477357683,182.19832826318188,164.20700306837534,9.71794142969884e-05,0.0931148082017898,0,0,0
15298,523551.2882761577,2010-10-14 15:56:02,4832.407811225285,2,45,0.5501165986061096,4.109321117401123,45.738848019281896,44.94232477357683,182.21716876290256,164.20700306837534,3.24249267578125e-05,0.0931148082017898,0,0,0
15299,523581.3030325208,2010-10-14 15:56:32,4862.4225676034885,2,45,0.5501165986061096,4.112396717071533,45.74343430475328,44.94232477357683,182.23602286763105,164.20700306837534,6.47544875391759e-05,0.0931148082017898,0,0,0
15300,523611.31819571793,2010-10-14 15:57:02,4892.437730780561,2,45,0.5499359965324402,4.115472316741943,45.748020660764894,44.94232477357683,182.2548912119411,164.20700306837534,9.70840483205393e-05,0.0931148082017898,0,0,0
15301,523641.3333246498,2010-10-14 15:57:32,4922.452859687221,2,45,0.5501165986061096,4.118548393249512,45.75260698110628,44.94232477357683,182.27377360125217,164.20700306837534,6.47544875391759e-05,0.0931148082017898,0,0,0
15302,523671.34845606267,2010-10-14 15:58:02,4952.467991105139,2,45,0.5501165986061096,4.121786117553711,45.75719325823172,44.94232477357683,182.2926702258721,164.20700306837534,9.71794142969884e-05,0.0931148082017898,0,0,0
15303,523701.36359544535,2010-10-14 15:58:32,4982.483130462846,2,45,0.5499359965324402,4.12502384185791,45.7617796387063,44.94232477357683,182.3115817144704,164.20700306837534,9.71794142969884e-05,0.0931148082017898,0,0,0
15304,523731.3788748822,2010-10-14 15:59:02,5012.49840993476,2,45,0.5499359965324402,4.12809944152832,45.7663659714587,44.94232477357683,182.3305075647519,164.20700306837534,6.47544875391759e-05,0.0931148082017898,0,0,0
15305,523761.39393085206,2010-10-14 15:59:32,5042.513465889602,2,45,0.5499359965324402,4.131499290466309,45.77095229411214,44.94232477357683,182.3494481517428,164.20700306837534,9.71794142969884e-05,0.0931148082017898,0,0,0
15306,523791.409181808,2010-10-14 16:00:02,5072.528716825396,2,45,0.5501165986061096,4.134574890136719,45.77553869807781,44.94232477357683,182.36840402063032,164.20700306837534,9.70840483205393e-05,0.0931148082017898,0,0,0
15307,523821.4243599624,2010-10-14 16:00:32,5102.5438950349335,2,45,0.5499359965324402,4.137974739074707,45.78012515805501,44.94232477357683,182.3873751442661,164.20700306837534,9.71794142969884e-05,0.0931148082017898,0,0,0
15308,523851.439329186,2010-10-14 16:01:02,5132.558864198464,2,45,0.550297200679779,4.141374111175537,45.78471154684635,44.94232477357683,182.40636095216036,164.20700306837534,9.70840483205393e-05,0.0931148082017898,0,0,0
15309,523881.4546148082,2010-10-14 16:01:32,5162.5741498557945,2,45,0.5501165986061096,4.144611835479736,45.78929797087151,44.94232477357683,182.425362069444,164.20700306837534,9.70840483205393e-05,0.0931148082017898,0,0,0
15310,523911.4696152498,2010-10-14 16:02:02,5192.589150257179,2,45,0.5499359965324402,4.147849559783936,45.79388422694188,44.94232477357683,182.4443780857261,164.20700306837534,9.70840483205393e-05,0.0931148082017898,0,0,0
15311,523941.4848929623,2010-10-14 16:02:32,5222.604428105046,2,45,0.5501165986061096,4.151411056518555,45.79847058319213,44.94232477357683,182.46340995470817,164.20700306837534,9.70840483205393e-05,0.0931148082017898,0,0,0
15312,523971.5000404101,2010-10-14 16:03:02,5252.619575467704,2,45,0.5501165986061096,4.154810905456543,45.80305685890985,44.94232477357683,182.48245708067915,164.20700306837534,0.0001295089750783,0.0931148082017898,0,0,0
15313,524001.5151929606,2010-10-14 16:03:32,5282.634727978191,2,45,0.5501165986061096,4.158210277557373,45.8076431259104,44.94232477357683,182.5015197962784,164.20700306837534,9.70840483205393e-05,0.0931148082017898,0,0,0
15314,524031.5303885336,2010-10-14 16:04:02,5312.649923666291,2,45,0.5501165986061096,4.161610126495361,45.81222947960164,44.94232477357683,182.5205986993071,164.20700306837534,9.71794142969884e-05,0.0931148082017898,0,0,0
15315,524061.545344053,2010-10-14 16:04:32,5342.664879105618,2,45,0.5501165986061096,4.1651716232299805,45.81681582147168,44.94232477357683,182.5396934730996,164.20700306837534,0.0001295089750783,0.0931148082017898,0,0,0
15316,524091.5606414096,2010-10-14 16:05:02,5372.680176437043,2,45,0.5501165986061096,4.1685709953308105,45.82140212834874,44.94232477357683,182.55880426564383,164.20700306837534,3.23295607813634e-05,0.0931148082017898,0,0,0
15317,524121.5757712034,2010-10-14 16:05:32,5402.695306210864,2,45,0.5499359965324402,4.172294616699219,45.82598841491357,44.94232477357683,182.57793115809216,164.20700306837534,9.71794142969884e-05,0.0931148082017898,0,0,0
15318,524151.5909312928,2010-10-14 16:06:02,5432.710466410515,2,45,0.5499359965324402,4.175856113433838,45.8305747397968,44.94232477357683,182.59707445482425,164.20700306837534,9.71794142969884e-05,0.0931148082017898,0,0,0
15319,524181.60592942353,2010-10-14 16:06:32,5462.725464435979,2,45,0.550297200679779,4.179579257965088,45.83516105066615,44.94232477357683,182.6162341370531,164.20700306837534,0.0001295089750783,0.0931148082017898,0,0,0
15320,524211.62118044455,2010-10-14 16:07:02,5492.740715617385,2,45,0.5501165986061096,4.182979106903076,45.83974739445179,44.94232477357683,182.63541047569083,164.20700306837534,9.71794142969884e-05,0.0931148082017898,0,0,0
15321,524241.6362566749,2010-10-14 16:07:32,5522.75579174751,2,45,0.5501165986061096,4.186702251434326,45.844333722250525,44.94232477357683,182.65460339205853,164.20700306837534,0.0001295089750783,0.0931148082017898,0,0,0
15322,524271.6516564767,2010-10-14 16:08:02,5552.771191524261,2,45,0.5497553944587708,4.190263748168945,45.84892010596322,44.94232477357683,182.6738133204848,164.20700306837534,6.47544875391759e-05,0.0931148082017898,0,0,0
15323,524301.6665217413,2010-10-14 16:08:32,5582.786056748743,2,45,0.5501165986061096,4.1939873695373535,45.85350640290659,44.94232477357683,182.6930397347118,164.20700306837534,9.71794142969884e-05,0.0931148082017898,0,0,0
15324,524331.6816628684,2010-10-14 16:09:02,5612.801197880873,2,45,0.5497553944587708,4.197548389434815,45.85809274711973,44.94232477357683,182.7122832866786,164.20700306837534,6.47544875391759e-05,0.0931148082017898,0,0,0
15325,524350.0720436259,2010-10-14 16:09:20,5631.19157880371,2,45,0.550297200679779,4.200138568878174,45.86090277621815,44.94232477357683,182.72408218443064,164.20700306837534,0.0001618385285837,0.0931148082017898,0,0,0
15326,524380.0775399728,2010-10-14 16:09:51,30.015307080724263,3,45,0.0,4.113044261932373,45.86090277621815,44.94232477357683,182.72408218443064,164.20700306837534,-0.0003885269106831,0.0931148082017898,0,0,0
15327,524410.0925339583,2010-10-14 16:10:21,60.03030106611863,3,45,0.0,4.101874351501465,45.86090277621815,44.94232477357683,182.72408218443064,164.20700306837534,-0.0002590179501567,0.0931148082017898,0,0,0
15328,524440.1078976501,2010-10-14 16:10:51,90.04566476294765,3,45,0.0,4.095236778259277,45.86090277621815,44.94232477357683,182.72408218443064,164.20700306837534,-0.0001295089750783,0.0931148082017898,0,0,0
15329,524470.0760461572,2010-10-14 16:11:21,120.013813259971,3,45,0.0,4.090866088867188,45.86090277621815,44.94232477357683,182.72408218443064,164.20700306837534,-6.47544875391759e-05,0.0931148082017898,0,0,0
15330,524470.0994057854,2010-10-14 16:11:21,2.837070854e-06,4,45,1.003084659576416,4.199814796447754,45.860902777008654,44.94232477357683,182.7240821877506,164.20700306837534,0.0,0.0931148082017898,0,0,0
15331,524470.9587687724,2010-10-14 16:11:22,0.859365819041303,4,45,0.9521528482437134,4.199814796447754,45.86113456761364,44.94232477357683,182.72505565180012,164.20700306837534,0.0,0.0931148082017898,0,0,0
15332,524473.0680926967,2010-10-14 16:11:24,2.968689723233289,4,45,0.9017629027366638,4.199814796447754,45.86167673654711,44.94232477357683,182.72733264217524,164.20700306837534,0.0,0.0931148082017898,0,0,0
15333,524476.2399136705,2010-10-14 16:11:27,6.140510687019957,4,45,0.8517341017723083,4.199814796447754,45.86244825207855,44.94232477357683,182.73057281030967,164.20700306837534,0.0,0.0931148082017898,0,0,0
15334,524480.5992943535,2010-10-14 16:11:31,10.499891495342236,4,45,0.8015246987342834,4.199653148651123,45.863447981577366,44.94232477357683,182.7347714722616,164.20700306837534,0.0,0.0931148082017898,0,0,0
15335,524486.2241473228,2010-10-14 16:11:37,16.12474438947839,4,45,0.7514959573745728,4.199814796447754,45.8646596348853,44.94232477357683,182.7398601725567,164.20700306837534,0.0,0.0931148082017898,0,0,0
15336,524493.520952692,2010-10-14 16:11:44,23.42154974359172,4,45,0.7012865543365479,4.199814796447754,45.866129777397504,44.94232477357683,182.74603447942516,164.20700306837534,3.23295607813634e-05,0.0931148082017898,0,0,0
15337,524503.0832445305,2010-10-14 16:11:54,32.98384154199697,4,45,0.6512578129768372,4.199814796447754,45.86792303375647,44.94232477357683,182.75356579493345,164.20700306837534,3.23295607813634e-05,0.0931148082017898,0,0,0
15338,524516.2861489006,2010-10-14 16:12:07,46.1867459371819,4,45,0.6010484099388123,4.199814796447754,45.8702145726361,44.94232477357683,182.76318980530152,164.20700306837534,-3.24249267578125e-05,0.0931148082017898,0,0,0
15339,524536.0202248499,2010-10-14 16:12:27,65.92082186642092,4,45,0.5510196685791016,4.199814796447754,45.87336297502858,44.94232477357683,182.7764124747944,164.20700306837534,0.0,0.0931148082017898,0,0,0
15340,524569.4259289933,2010-10-14 16:13:00,99.3265260599494,4,45,0.5008102655410767,4.199814796447754,45.87822237234785,44.94232477357683,182.7968209199479,164.20700306837534,3.23295607813634e-05,0.0931148082017898,0,0,0
15341,524631.0499728117,2010-10-14 16:14:02,160.95056984831425,4,45,0.4507815241813659,4.199814796447754,45.88632756074142,44.94232477357683,182.83086106808472,164.20700306837534,0.0,0.0931148082017898,0,0,0
15342,524728.9391427981,2010-10-14 16:15:40,258.8397398547148,4,45,0.4007527530193329,4.199653148651123,45.8978761056882,44.94232477357683,182.87936267516676,164.20700306837534,-3.23295607813634e-05,0.0931148082017898,0,0,0
15343,524853.9057514181,2010-10-14 16:17:45,383.80634843456,4,45,0.3507239818572998,4.199653148651123,45.91090376722792,44.94232477357683,182.93407627426572,164.20700306837534,-3.23295607813634e-05,0.0931148082017898,0,0,0
15344,525003.4971848783,2010-10-14 16:20:14,533.3977818848515,4,45,0.3006952106952667,4.199814796447754,45.92443566971296,44.94232477357683,182.9909075281304,164.20700306837534,0.0,0.0931148082017898,0,0,0
15345,525187.5097734433,2010-10-14 16:23:18,717.4103704498134,4,45,0.2506664395332336,4.199814796447754,45.93849840447406,44.94232477357683,183.0499672982815,164.20700306837534,0.0,0.0931148082017898,0,0,0
15346,525410.7718144857,2010-10-14 16:27:02,940.6724114921034,4,45,0.2006376683712005,4.199653148651123,45.95244121742659,44.94232477357683,183.1085242873632,164.20700306837534,-6.47544875391759e-05,0.0931148082017898,0,0,0
15347,525701.8453034963,2010-10-14 16:31:53,1231.7459005378787,4,45,0.1506088972091674,4.199491024017334,45.96656724721812,44.94232477357683,183.1678507367129,164.20700306837534,-6.47544875391759e-05,0.0931148082017898,0,0,0
15348,526124.7135286066,2010-10-14 16:38:55,1654.614125618079,4,45,0.1005801260471344,4.199814796447754,45.98114443118378,44.94232477357683,183.22907185197784,164.20700306837534,3.23295607813634e-05,0.0931148082017898,0,0,0
15349,526897.96692722,2010-10-14 16:51:49,2427.867524291696,4,45,0.0505513548851013,4.199653148651123,45.99675011611797,44.94232477357683,183.29461246365105,164.20700306837534,0.0,0.0931148082017898,0,0,0
15350,526912.7479371147,2010-10-14 16:52:04,2442.6485341863568,4,45,0.0498289167881011,4.199814796447754,45.99695792909638,44.94232477357683,183.29548523523343,164.20700306837534,0.0,0.0931148082017898,0,0,0
15351,526942.7782808,2010-10-14 16:52:34,30.014878056463804,5,45,0.0,4.191720962524414,45.99695792909638,44.94232477357683,183.29548523523343,164.20700306837534,-3.23295607813634e-05,0.0931148082017898,0,0,0
15352,526972.777816704,2010-10-14 16:53:04,60.01441394051328,5,45,0.0,4.190263748168945,45.99695792909638,44.94232477357683,183.29548523523343,164.20700306837534,-3.24249267578125e-05,0.0931148082017898,0,0,0
15353,526972.9819802671,2010-10-14 16:53:04,0.187630558083223,6,45,-1.9243103452026844e-05,4.190263748168945,45.99695792909638,44.94232477457978,183.29548523523343,164.20700307257795,0.0,0.0947341993451118,0,0,0
15354,526977.8099052366,2010-10-14 16:53:09,5.015555557697646,6,45,0.0005225847125984,4.190425872802734,45.99695885394564,44.94232477466284,183.2954891107672,164.207003072926,-3.23295607813634e-05,0.0947341993451118,0,0,0
15355,527007.8104097483,2010-10-14 16:53:39,30.01513448556402,7,45,-1.0997490882873535,4.008790016174316,45.99695885394564,44.951492078599614,183.2954891107672,164.24395653908127,-0.0009065627818927,0.0947341993451118,0,0,0
15356,527037.8255521687,2010-10-14 16:54:09,60.03027692595391,7,45,-1.099568486213684,3.980459928512573,45.99695885394564,44.96065936320871,183.2954891107672,164.28056698061096,-0.0006151676061563,0.0947341993451118,0,0,0
15357,527067.8406990853,2010-10-14 16:54:39,90.04542386756223,7,45,-1.099568486213684,3.961033582687378,45.99695885394564,44.96982647178372,183.2954891107672,164.3169621705731,-0.0004532813909463,0.0947341993451118,0,0,0
15358,527097.8559984317,2010-10-14 16:55:09,120.06072315887288,7,45,-1.0997490882873535,3.9458162784576416,45.99695885394564,44.97899367666466,183.2954891107672,164.35320181917334,-0.0003885269106831,0.0947341993451118,0,0,0
15359,527127.8710205923,2010-10-14 16:55:39,150.07574533953854,7,45,-1.099568486213684,3.933512926101685,45.99695885394564,44.98816081898951,183.2954891107672,164.38931648320846,-0.0003237724304199,0.0947341993451118,0,0,0
15360,527157.886263854,2010-10-14 16:56:09,180.0909885911811,7,45,-1.0993878841400146,3.922666549682617,45.99695885394564,44.99732802856978,183.2954891107672,164.42532533337317,-0.0002913951757363,0.0947341993451118,0,0,0
15361,527187.9014255924,2010-10-14 16:56:39,210.10615033468028,7,45,-1.0993878841400146,3.9127917289733887,45.99695885394564,45.00649518017035,183.2954891107672,164.46123909888607,-0.0002265930233988,0.0947341993451118,0,0,0
15362,527217.916467342,2010-10-14 16:57:09,240.12119206907988,7,45,-1.099568486213684,3.903564214706421,45.99695885394564,45.01566233387523,183.2954891107672,164.49706506483827,-0.0002266406954731,0.0947341993451118,0,0,0
15363,527247.9315776471,2010-10-14 16:57:39,270.1363023743792,7,45,-1.0993878841400146,3.894822359085083,45.99695885394564,45.0248294908687,183.2954891107672,164.5328074627908,-0.0001618862152099,0.0947341993451118,0,0,0
15364,527277.9467182981,2010-10-14 16:58:09,300.1514430804466,7,45,-1.0993878841400146,3.886080503463745,45.99695885394564,45.03399662975984,183.2954891107672,164.56847001547067,-0.0002266406954731,0.0947341993451118,0,0,0
15365,527307.9619552941,2010-10-14 16:58:39,330.1666800764984,7,45,-1.099568486213684,3.877500534057617,45.99695885394564,45.04316384348893,183.2954891107672,164.60405468084758,-0.0002266406954731,0.0947341993451118,0,0,0
15366,527337.9770167929,2010-10-14 16:59:09,360.1817415250316,7,45,-1.0992072820663452,3.869406223297119,45.99695885394564,45.05233100434111,183.2954891107672,164.63956248914548,-0.0001618862152099,0.0947341993451118,0,0,0
15367,527367.9924300782,2010-10-14 16:59:39,390.1971548555631,7,45,-1.0993878841400146,3.861150026321411,45.99695885394564,45.06149832213652,183.2954891107672,164.67499581947504,-0.0002266406954731,0.0947341993451118,0,0,0
15368,527398.0072981949,2010-10-14 17:00:09,420.2120229672415,7,45,-1.0997490882873535,3.853217601776123,45.99695885394564,45.070665481616544,183.2954891107672,164.71035523897052,-0.0002266406954731,0.0947341993451118,0,0,0
15369,527428.0224482844,2010-10-14 17:00:39,450.2271730416576,7,45,-1.0992072820663452,3.845608949661255,45.99695885394564,45.07983272472559,183.2954891107672,164.74564279875065,-0.0001295089750783,0.0947341993451118,0,0,0
15370,527458.037824357,2010-10-14 17:01:09,480.2425490792437,7,45,-1.099568486213684,3.837676525115967,45.99695885394564,45.08900003767969,183.2954891107672,164.78085945206703,-0.0001942634553415,0.0947341993451118,0,0,0
15371,527488.0527556061,2010-10-14 17:01:39,510.25748042351705,7,45,-1.099568486213684,3.830229997634888,45.99695885394564,45.09816724682175,183.2954891107672,164.8160061618224,-0.0001942634553415,0.0947341993451118,0,0,0
15372,527518.06792153,2010-10-14 17:02:09,540.2726462722478,7,45,-1.0993878841400146,3.82262134552002,45.99695885394564,45.107334593462696,183.2954891107672,164.85108465113154,-0.0002266406954731,0.0947341993451118,0,0,0
15373,527548.0830248079,2010-10-14 17:02:39,570.2877495400074,7,45,-1.099568486213684,3.8153364658355713,45.99695885394564,45.116501854072325,183.2954891107672,164.88609496602183,-0.0001942634553415,0.0947341993451118,0,0,0
15374,527578.0983115528,2010-10-14 17:03:09,600.3030363151239,7,45,-1.099568486213684,3.808213472366333,45.99695885394564,45.12566917921309,183.2954891107672,164.92103891577116,-0.0001942634553415,0.0947341993451118,0,0,0
15375,527608.1133144505,2010-10-14 17:03:39,630.3180391826553,7,45,-1.099568486213684,3.8012523651123047,45.99695885394564,45.13483640537532,183.2954891107672,164.95591711093283,-0.0001618862152099,0.0947341993451118,0,0,0
15376,527638.1285854613,2010-10-14 17:04:09,660.3333102185446,7,45,-1.0993878841400146,3.7941293716430655,45.99695885394564,45.14400374735515,183.2954891107672,164.99073146860994,-0.0001942634553415,0.0947341993451118,0,0,0
15377,527668.1435842436,2010-10-14 17:04:39,690.348309015932,7,45,-1.099568486213684,3.787330150604248,45.99695885394564,45.15317098070027,183.2954891107672,165.02548194468292,-0.0001618862152099,0.0947341993451118,0,0,0
15378,527698.158739115,2010-10-14 17:05:09,720.3634638722663,7,45,-1.0993878841400146,3.78069281578064,45.99695885394564,45.16233830232477,183.2954891107672,165.06017063148778,-0.0001618862152099,0.0947341993451118,0,0,0
15379,527728.1739061467,2010-10-14 17:05:39,750.3786309239952,7,45,-1.0997490882873535,3.7740554809570312,45.99695885394564,45.17150564203788,183.2954891107672,165.09479843811317,-0.0001618862152099,0.0947341993451118,0,0,0
15380,527758.188972723,2010-10-14 17:06:09,780.3936974752461,7,45,-1.0993878841400146,3.7677419185638423,45.99695885394564,45.18067233363142,183.2954891107672,165.12936457389748,-0.0001618862152099,0.0947341993451118,0,0,0
15381,527788.2041256996,2010-10-14 17:06:39,810.4088504268332,7,45,-1.099568486213684,3.7614283561706543,45.99695885394564,45.18983877857559,183.2954891107672,165.16387251884234,-0.0001942634553415,0.0947341993451118,0,0,0
15382,527818.2194191313,2010-10-14 17:07:09,840.4241438535273,7,45,-1.0993878841400146,3.7554385662078857,45.99695885394564,45.1990053923732,183.2954891107672,165.198324580009,-0.0001618862152099,0.0947341993451118,0,0,0
15383,527848.234434495,2010-10-14 17:07:39,870.4391592222154,7,45,-1.0993878841400146,3.7492871284484863,45.99695885394564,45.20817181613222,183.2954891107672,165.23272007901804,-0.0001295089750783,0.0947341993451118,0,0,0
15384,527878.2495758627,2010-10-14 17:08:09,900.4543005899318,7,45,-1.0993878841400146,3.743459224700928,45.99695885394564,45.2173382704345,183.2954891107672,165.2670613292051,-0.0001618862152099,0.0947341993451118,0,0,0
15385,527908.2647392805,2010-10-14 17:08:39,930.4694640076036,7,45,-1.0993878841400146,3.737793207168579,45.99695885394564,45.22650475638486,183.2954891107672,165.30134891733596,-9.713172767078504e-05,0.0947341993451118,0,0,0
15386,527938.2836041482,2010-10-14 17:09:09,960.488328875428,7,45,-1.099568486213684,3.7318034172058105,45.99695885394564,45.23567272284068,183.2954891107672,165.33558848098372,-0.0001618862152099,0.0947341993451118,0,0,0
15387,527968.2950920654,2010-10-14 17:09:39,990.4998168327216,7,45,-1.099568486213684,3.726137399673462,45.99695885394564,45.24483870931256,183.2954891107672,165.36976809412667,-0.0001295089750783,0.0947341993451118,0,0,0
15388,527998.3101622608,2010-10-14 17:10:09,1020.5148870130172,7,45,-1.099568486213684,3.720471382141113,45.99695885394564,45.25400583420655,183.2954891107672,165.40390091308416,-0.0001618862152099,0.0947341993451118,0,0,0
15389,528028.3253179492,2010-10-14 17:10:39,1050.5300426763629,7,45,-1.0993878841400146,3.7152910232543945,45.99695885394564,45.26317293776781,183.2954891107672,165.43798337413077,-0.0001295089750783,0.0947341993451118,0,0,0
15390,528058.3406031203,2010-10-14 17:11:09,1080.5453278575064,7,45,-1.099568486213684,3.709786891937256,45.99695885394564,45.27234016648652,183.2954891107672,165.4720168425279,-0.0001942634553415,0.0947341993451118,0,0,0
15391,528088.3556372507,2010-10-14 17:11:39,1110.5603620029922,7,45,-1.099568486213684,3.704606533050537,45.99695885394564,45.28150732757396,183.2954891107672,165.50600089931757,-0.0001295089750783,0.0947341993451118,0,0,0
15392,528118.3707812901,2010-10-14 17:12:09,1140.5755060674296,7,45,-1.0993878841400146,3.699264287948608,45.99695885394564,45.29067450619476,183.2954891107672,165.5399367640866,-0.0001295089750783,0.0947341993451118,0,0,0
15393,528148.3859169035,2010-10-14 17:12:39,1170.5906416507296,7,45,-1.0992072820663452,3.6940839290618896,45.99695885394564,45.299841692048815,183.2954891107672,165.5738251726041,-0.0001618862152099,0.0947341993451118,0,0,0
15394,528178.4010507475,2010-10-14 17:13:09,1200.6057755047195,7,45,-1.099568486213684,3.689065456390381,45.99695885394564,45.309008822790446,183.2954891107672,165.6076665935437,-0.0001295089750783,0.0947341993451118,0,0,0
15395,528208.4161798345,2010-10-14 17:13:40,1230.6209045918288,7,45,-1.099568486213684,3.684208869934082,45.99695885394564,45.31817596191453,183.2954891107672,165.641461854464,-0.0001295089750783,0.0947341993451118,0,0,0
15396,528238.4313376833,2010-10-14 17:14:10,1260.6360624406211,7,45,-1.099568486213684,3.6790285110473633,45.99695885394564,45.32734310141274,183.2954891107672,165.67521207047918,-0.0001295089750783,0.0947341993451118,0,0,0
15397,528268.4464717128,2010-10-14 17:14:40,1290.6511964900983,7,45,-1.099568486213684,3.674171924591065,45.99695885394564,45.33651024506055,183.2954891107672,165.70891775001593,-0.0001295089750783,0.0947341993451118,0,0,0
15398,528298.4617634553,2010-10-14 17:15:10,1320.6664881874826,7,45,-1.099568486213684,3.6694774627685542,45.99695885394564,45.345677384866775,183.2954891107672,165.7425798567726,-0.0001942634553415,0.0947341993451118,0,0,0
15399,528328.476771621,2010-10-14 17:15:40,1350.681496343194,7,45,-1.0993878841400146,3.6651065349578857,45.99695885394564,45.35484448530952,183.2954891107672,165.77619879361305,-9.713172767078504e-05,0.0947341993451118,0,0,0
15400,528358.4920578498,2010-10-14 17:16:10,1380.6967825819736,7,45,-1.099568486213684,3.660249948501587,45.99695885394564,45.36401165810059,183.2954891107672,165.80977542628125,-0.0001942634553415,0.0947341993451118,0,0,0
15401,528388.5071742502,2010-10-14 17:16:40,1410.7118990075264,7,45,-1.099568486213684,3.655879020690918,45.99695885394564,45.37317874431831,183.2954891107672,165.84330921851665,-6.47544875391759e-05,0.0947341993451118,0,0,0
15402,528418.5224186998,2010-10-14 17:17:10,1440.7271434270797,7,45,-1.0993878841400146,3.651184320449829,45.99695885394564,45.38234586004119,183.2954891107672,165.87680176930473,-0.0001618862152099,0.0947341993451118,0,0,0
15403,528448.5374476073,2010-10-14 17:17:40,1470.7421723695982,7,45,-1.0993878841400146,3.64665150642395,45.99695885394564,45.391512899724354,183.2954891107672,165.91025197452652,-0.0001295089750783,0.0947341993451118,0,0,0
15404,528478.5524888304,2010-10-14 17:18:10,1500.7572135726734,7,45,-1.0993878841400146,3.642442464828491,45.99695885394564,45.40067955871734,183.2954891107672,165.9436600780748,-0.0001295089750783,0.0947341993451118,0,0,0
15405,528508.5675993863,2010-10-14 17:18:40,1530.7723241085475,7,45,-1.099568486213684,3.638233423233032,45.99695885394564,45.409846313003655,183.2954891107672,165.97702939288888,-0.0001295089750783,0.0947341993451118,0,0,0
15406,528538.5827965932,2010-10-14 17:19:10,1560.7875213705695,7,45,-1.0993878841400146,3.634024381637573,45.99695885394564,45.41901338129848,183.2954891107672,166.01036103121854,-9.713172767078504e-05,0.0947341993451118,0,0,0
15407,528568.5979099913,2010-10-14 17:19:40,1590.8026347735895,7,45,-1.099568486213684,3.629815340042114,45.99695885394564,45.428180478860725,183.2954891107672,166.04365432930018,-9.713172767078504e-05,0.0947341993451118,0,0,0
15408,528598.6131086969,2010-10-14 17:20:10,1620.8178334240722,7,45,-1.099568486213684,3.6256062984466553,45.99695885394564,45.43734764440243,183.2954891107672,166.07691037263584,-0.0001295089750783,0.0947341993451118,0,0,0
15409,528628.6282569066,2010-10-14 17:20:40,1650.8329816639164,7,45,-1.099568486213684,3.621721029281616,45.99695885394564,45.44651471439556,183.2954891107672,166.11012949030507,-9.713172767078504e-05,0.0947341993451118,0,0,0
15410,528658.6434110913,2010-10-14 17:21:10,1680.8481358535892,7,45,-1.0992072820663452,3.617835760116577,45.99695885394564,45.4556818134766,183.2954891107672,166.1433121982166,-9.713172767078504e-05,0.0947341993451118,0,0,0
15411,528688.6585493061,2010-10-14 17:21:40,1710.86327407346,7,45,-1.099568486213684,3.613950490951538,45.99695885394564,45.4648489355681,183.2954891107672,166.1764596075946,-9.713172767078504e-05,0.0947341993451118,0,0,0
15412,528718.6736894208,2010-10-14 17:22:10,1740.878414173016,7,45,-1.0993878841400146,3.610227108001709,45.99695885394564,45.47401604746947,183.2954891107672,166.2095723743201,-0.0001295089750783,0.0947341993451118,0,0,0
15413,528748.6888341919,2010-10-14 17:22:40,1770.893558949227,7,45,-1.099568486213684,3.60666561126709,45.99695885394564,45.4831831677047,183.2954891107672,166.24265137481638,-0.0001295089750783,0.0947341993451118,0,0,0
15414,528778.704147012,2010-10-14 17:23:10,1800.908871794318,7,45,-1.099568486213684,3.6029422283172607,45.99695885394564,45.49235029600551,183.2954891107672,166.2756970189975,-9.713172767078504e-05,0.0947341993451118,0,0,0
15415,528808.7191375087,2010-10-14 17:23:40,1830.9238622659552,7,45,-1.0993878841400146,3.599542617797852,45.99695885394564,45.501517426941966,183.2954891107672,166.3087099700698,-6.47544875391759e-05,0.0947341993451118,0,0,0
15416,528838.7342980943,2010-10-14 17:24:10,1860.9390228515683,7,45,-1.099568486213684,3.5959811210632324,45.99695885394564,45.51068456471817,183.2954891107672,166.34169100697554,-0.0001295089750783,0.0947341993451118,0,0,0
15417,528868.7493912368,2010-10-14 17:24:40,1890.9541159690305,7,45,-1.099568486213684,3.5925815105438232,45.99695885394564,45.51985164815103,183.2954891107672,166.37464079687845,-9.713172767078504e-05,0.0947341993451118,0,0,0
15418,528898.7645387598,2010-10-14 17:25:10,1920.9692634820635,7,45,-1.099568486213684,3.589344024658203,45.99695885394564,45.52901879114583,183.2954891107672,166.407560462064,-9.713172767078504e-05,0.0947341993451118,0,0,0
15419,528928.779656213,2010-10-14 17:25:40,1950.9843809602392,7,45,-1.099568486213684,3.586268186569214,45.99695885394564,45.538185956126696,183.2954891107672,166.44045064627036,-6.47544875391759e-05,0.0947341993451118,0,0,0
15420,528958.7948387683,2010-10-14 17:26:10,1980.9995634905456,7,45,-1.099568486213684,3.583030462265014,45.99695885394564,45.54735317698716,183.2954891107672,166.47331199951125,-9.713172767078504e-05,0.0947341993451118,0,0,0
15421,528988.8101354731,2010-10-14 17:26:40,2011.0148602104475,7,45,-1.099568486213684,3.5799546241760254,45.99695885394564,45.55652047976348,183.2954891107672,166.50614476651285,-6.47544875391759e-05,0.0947341993451118,0,0,0
15422,529018.8252783247,2010-10-14 17:27:10,2041.0300030668743,7,45,-1.0993878841400146,3.577040672302246,45.99695885394564,45.56568770052536,183.2954891107672,166.53894886005298,-6.47544875391759e-05,0.0947341993451118,0,0,0
15423,529048.8402820092,2010-10-14 17:27:40,2071.045006751442,7,45,-1.0993878841400146,3.573641061782837,45.99695885394564,45.5748548627134,183.2954891107672,166.57172369867416,-6.47544875391759e-05,0.0947341993451118,0,0,0
15424,529078.8554436023,2010-10-14 17:28:10,2101.0601683846667,7,45,-1.0993878841400146,3.570565223693848,45.99695885394564,45.584022111868414,183.2954891107672,166.6044702182207,-6.47544875391759e-05,0.0947341993451118,0,0,0
15425,529108.8707509236,2010-10-14 17:28:40,2131.075475680928,7,45,-1.099568486213684,3.5676512718200684,45.99695885394564,45.59318940329091,183.2954891107672,166.63718869150742,-3.237724376958795e-05,0.0947341993451118,0,0,0
15426,529138.88572926,2010-10-14 17:29:10,2161.090453987245,7,45,-1.099568486213684,3.564413547515869,45.99695885394564,45.60235656205395,183.2954891107672,166.66987849154364,-6.47544875391759e-05,0.0947341993451118,0,0,0
15427,529168.9008535001,2010-10-14 17:29:40,2191.1055782322865,7,45,-1.099568486213684,3.56133770942688,45.99695885394564,45.61152371621231,183.2954891107672,166.70254022542596,-6.47544875391759e-05,0.0947341993451118,0,0,0
15428,529198.9162642391,2010-10-14 17:30:10,2221.12098901146,7,45,-1.099568486213684,3.5580999851226807,45.99695885394564,45.620690972479245,183.2954891107672,166.73517434536336,-0.0001295089750783,0.0947341993451118,0,0,0
15429,529228.9311467016,2010-10-14 17:30:40,2251.1358714338044,7,45,-1.099568486213684,3.5553479194641118,45.99695885394564,45.62985812381703,183.2954891107672,166.76777994554013,-6.47544875391759e-05,0.0947341993451118,0,0,0
15430,529258.9464363538,2010-10-14 17:31:10,2281.1511610961165,7,45,-1.099568486213684,3.552272081375122,45.99695885394564,45.63902533022513,183.2954891107672,166.80035815171283,-3.237724376958795e-05,0.0947341993451118,0,0,0
15431,529288.9617076505,2010-10-14 17:31:40,2311.1664324177186,7,45,-1.0993878841400146,3.549196243286133,45.99695885394564,45.64819263036561,183.2954891107672,166.83290885209914,-0.0001295089750783,0.0947341993451118,0,0,0
15432,529318.9767055856,2010-10-14 17:32:10,2341.1814303278943,7,45,-1.0993878841400146,3.5464441776275635,45.99695885394564,45.65735983712139,183.2954891107672,166.8654311352949,-3.237724376958795e-05,0.0947341993451118,0,0,0
15433,529348.9917276711,2010-10-14 17:32:40,2371.19645242836,7,45,-1.0993878841400146,3.5430445671081543,45.99695885394564,45.66652706260516,183.2954891107672,166.89792503343557,-6.47544875391759e-05,0.0947341993451118,0,0,0
15434,529379.0071030821,2010-10-14 17:33:10,2401.211827814322,7,45,-1.099568486213684,3.539806842803955,45.99695885394564,45.675694340036245,183.2954891107672,166.93039062854555,-9.713172767078504e-05,0.0947341993451118,0,0,0
15435,529409.0221560695,2010-10-14 17:33:40,2431.226880841868,7,45,-1.0993878841400146,3.536731004714966,45.99695885394564,45.684861560203466,183.2954891107672,166.96282683209176,-9.713172767078504e-05,0.0947341993451118,0,0,0
15436,529439.037177764,2010-10-14 17:34:10,2461.241902536321,7,45,-1.0997490882873535,3.5331695079803467,45.99695885394564,45.69402878937779,183.2954891107672,166.99523260621802,-9.713172767078504e-05,0.0947341993451118,0,0,0
15437,529469.0523099939,2010-10-14 17:34:40,2491.257034726164,7,45,-1.0993878841400146,3.5299317836761475,45.99695885394564,45.70319604046846,183.2954891107672,167.02760749874497,-0.0001295089750783,0.0947341993451118,0,0,0
15438,529499.0674598578,2010-10-14 17:35:10,2521.2721845950678,7,45,-1.0993878841400146,3.5263702869415283,45.99695885394564,45.7123633205998,183.2954891107672,167.05995098367262,-9.713172767078504e-05,0.0947341993451118,0,0,0
15439,529529.0825913359,2010-10-14 17:35:40,2551.287316073136,7,45,-1.099568486213684,3.523132562637329,45.99695885394564,45.72153062777397,183.2954891107672,167.09226304288967,-6.47544875391759e-05,0.0947341993451118,0,0,0
15440,529559.0977311046,2010-10-14 17:36:10,2581.3024558418674,7,45,-1.099568486213684,3.51908540725708,45.99695885394564,45.730697877401454,183.2954891107672,167.1245416552766,-0.0001295089750783,0.0947341993451118,0,0,0
15441,529589.1128909384,2010-10-14 17:36:40,2611.3176156705945,7,45,-1.099568486213684,3.515200138092041,45.99695885394564,45.73986510771687,183.2954891107672,167.15678596092536,-0.0001295089750783,0.0947341993451118,0,0,0
15442,529619.12804592,2010-10-14 17:37:10,2641.332770697353,7,45,-1.099568486213684,3.511476993560791,45.99695885394564,45.74903239440478,183.2954891107672,167.18899441877733,-6.470680091297254e-05,0.0947341993451118,0,0,0
15443,529649.1432886504,2010-10-14 17:37:40,2671.348013382584,7,45,-1.0993878841400146,3.507267951965332,45.99695885394564,45.758199695315405,183.2954891107672,167.22116474230504,-3.237724376958795e-05,0.0947341993451118,0,0,0
15444,529679.1583139588,2010-10-14 17:38:10,2701.3630386860327,7,45,-1.099568486213684,3.502573251724243,45.99695885394564,45.7673668832768,183.2954891107672,167.25329503760068,-0.0001618862152099,0.0947341993451118,0,0,0
15445,529709.1734602789,2010-10-14 17:38:40,2731.378185036167,7,45,-1.099568486213684,3.4978785514831543,45.99695885394564,45.77653420246729,183.2954891107672,167.28538293558412,-0.0001618862152099,0.0947341993451118,0,0,0
15446,529739.1887393548,2010-10-14 17:39:10,2761.3934641070823,7,45,-1.099568486213684,3.492860078811645,45.99695885394564,45.78570150905564,183.2954891107672,167.3174265603932,-0.0001295089750783,0.0947341993451118,0,0,0
15447,529769.203744052,2010-10-14 17:39:40,2791.408468804173,7,45,-1.099568486213684,3.487517833709717,45.99695885394564,45.79486868437333,183.2954891107672,167.34942172461825,-0.0001295089750783,0.0947341993451118,0,0,0
15448,529799.2188815048,2010-10-14 17:40:10,2821.423606227058,7,45,-1.099568486213684,3.481528043746948,45.99695885394564,45.80403592645872,183.2954891107672,167.38136500076163,-0.0001295089750783,0.0947341993451118,0,0,0
15449,529829.2340579199,2010-10-14 17:40:40,2851.438782667186,7,45,-1.0997490882873535,3.47472882270813,45.99695885394564,45.81320309777653,183.2954891107672,167.4132501294622,-0.0001942634553415,0.0947341993451118,0,0,0
15450,529859.2520231305,2010-10-14 17:41:10,2881.4567478727754,7,45,-1.099568486213684,3.467605829238892,45.99695885394564,45.8223711616467,183.2954891107672,167.44507490994036,-0.0001942634553415,0.0947341993451118,0,0,0
15451,529889.2643435426,2010-10-14 17:41:40,2911.46906829984,7,45,-1.0993878841400146,3.4591877460479736,45.99695885394564,45.83153749548289,183.2954891107672,167.47682217615292,-0.0002266406954731,0.0947341993451118,0,0,0
15452,529919.2794675971,2010-10-14 17:42:10,2941.484192329344,7,45,-1.099568486213684,3.449798345565796,45.99695885394564,45.84070473978279,183.2954891107672,167.50849085125685,-0.0002590179501567,0.0947341993451118,0,0,0
15453,529949.2946093909,2010-10-14 17:42:40,2971.4993341281347,7,45,-1.0993878841400146,3.438466310501098,45.99695885394564,45.84987194025435,183.2954891107672,167.54006439470578,-0.0003237724304199,0.0947341993451118,0,0,0
15454,529979.3104031296,2010-10-14 17:43:10,3001.5151279319225,7,45,-1.099568486213684,3.425029993057251,45.99695885394564,45.85903938712448,183.2954891107672,167.57152652380103,-0.0003885269106831,0.0947341993451118,0,0,0
15455,530009.3249053843,2010-10-14 17:43:40,3031.529630116598,7,45,-1.0993878841400146,3.408841371536255,45.99695885394564,45.86820647887768,183.2954891107672,167.6028516265644,-0.0004209041653666,0.0947341993451118,0,0,0
15456,530039.3402227557,2010-10-14 17:44:10,3061.5449483751813,7,45,-1.0993878841400146,3.3884437084198,45.99695885394564,45.877373704882736,183.2954891107672,167.63401081074988,-0.0006151676061563,0.0947341993451118,0,0,0
15457,530069.3553244696,2010-10-14 17:44:40,3091.560049211882,7,45,-1.099568486213684,3.362380027770996,45.99695885394564,45.886540942357456,183.2954891107672,167.66495998505104,-0.0008094310760498,0.0947341993451118,0,0,0
15458,530099.3703684848,2010-10-14 17:45:10,3121.5750932470155,7,45,-1.099568486213684,3.327736616134644,45.99695885394564,45.89570817489835,183.2954891107672,167.69563428363537,-0.0010360718006268,0.0947341993451118,0,0,0
15459,530129.3854710507,2010-10-14 17:45:41,3151.590195777939,7,45,-1.0993878841400146,3.279332637786865,45.99695885394564,45.90487537656087,183.2954891107672,167.72593100039867,-0.0014893531333655,0.0947341993451118,0,0,0
15460,530159.4006200174,2010-10-14 17:46:11,3181.6053447696568,7,45,-1.0993878841400146,3.209721803665161,45.99695885394564,45.91404260583111,183.2954891107672,167.75569363536468,-0.0021045207977294,0.0947341993451118,0,0,0
15461,530189.4158047582,2010-10-14 17:46:41,3211.6205295305226,7,45,-1.0993878841400146,3.1054675579071045,45.99695885394564,45.92320984493167,183.2954891107672,167.78467371597347,-0.0033348083961755,0.0947341993451118,0,0,0
15462,530219.4310425462,2010-10-14 17:47:11,3241.635767308523,7,45,-1.0993878841400146,2.9244792461395264,45.99695885394564,45.93237708264064,183.2954891107672,167.81241131291205,-0.006572532467544,0.0947341993451118,0,0,0
15463,530237.2459235913,2010-10-14 17:47:28,3259.450648448826,7,45,-1.099568486213684,2.724064588546753,45.99695885394564,45.9378181163744,183.2954891107672,167.82782049376587,-0.0106197353452444,0.0947341993451118,0,0,0
15464,530238.9618521483,2010-10-14 17:47:30,3261.1665769105307,7,45,-1.099568486213684,2.699943780899048,45.99695885394564,45.9383421916038,183.2954891107672,167.82924190890648,-0.0109758377075195,0.0947341993451118,0,0,0
15465,530298.9671240571,2010-10-14 17:48:30,60.01459767343225,8,45,0.0,3.3737120628356934,45.99695885394564,45.9383421916038,183.2954891107672,167.82924190890648,0.0012950897216796,0.0947341993451118,0,0,0
15466,530299.1462723525,2010-10-14 17:48:31,0.187525872173725,9,45,0.0017868496943265,3.375330924987793,45.996958947023565,45.9383421916038,183.29548942493605,167.82924190890648,0.0,0.0923051163554191,0,0,0
15467,530303.9741905101,2010-10-14 17:48:35,5.015444024723156,9,45,0.0008838032954372,3.3819682598114014,45.996959860561695,45.9383421916038,183.2954925114766,167.82924190890648,0.0011655807029455,0.0923051163554191,0,0,0
