Data_Point,Test_Time(s),Date_Time,Step_Time(s),Step_Index,Cycle_Index,Current(A),Voltage(V),Charge_Capacity(Ah),Discharge_Capacity(Ah),Charge_Energy(Wh),Discharge_Energy(Wh),dV/dt(V/s),Internal_Resistance(Ohm),Is_FC_Data,AC_Impedance(Ohm),ACI_Phase_Angle(Deg)
5288,180802.6440180416,2010-10-10 16:42:57,30.015354443767546,1,16,0.0,3.3063676357269287,15.71855613988878,15.687454883292231,62.55528372007856,57.49632021182499,0.0007122993702068,0.0906038731336593,0,0,0
5289,180832.6591470084,2010-10-10 16:43:27,60.03048345067708,1,16,0.0,3.328222274780273,15.71855613988878,15.687454883292231,62.55528372007856,57.49632021182499,0.0005504131549969,0.0906038731336593,0,0,0
5290,180862.6743614282,2010-10-10 16:43:57,90.04569781532435,1,16,0.0,3.3450584411621094,15.71855613988878,15.687454883292231,62.55528372007856,57.49632021182499,0.0004209041653666,0.0906038731336593,0,0,0
5291,180892.64272510653,2010-10-10 16:44:27,120.0140614936457,1,16,0.0,3.358332872390747,15.71855613988878,15.687454883292231,62.55528372007856,57.49632021182499,0.0003885269106831,0.0906038731336593,0,0,0
5292,180922.66078341127,2010-10-10 16:44:57,30.015376684197538,2,16,0.5499359965324402,3.5181140899658203,15.723141848400392,15.687454883292231,62.57123182329649,57.49632021182499,0.0018130779499188,0.0906038731336593,0,0,0
5293,180952.6758639524,2010-10-10 16:45:27,60.03045721027792,2,16,0.5499359965324402,3.574126720428467,15.727727580235902,15.687454883292231,62.58750124987278,57.49632021182499,0.0012950897216796,0.0906038731336593,0,0,0
5294,180982.69125226056,2010-10-10 16:45:57,90.04584551844597,2,16,0.5499359965324402,3.615731239318848,15.732314234268689,15.687454883292231,62.603994628784186,57.49632021182499,0.0010036944877356,0.0906038731336593,0,0,0
5295,181012.7063303305,2010-10-10 16:46:27,120.06092358339248,2,16,0.5499359965324402,3.6492416858673096,15.73690082228626,15.687454883292231,62.620657959058605,57.49632021182499,0.0008094310760498,0.0906038731336593,0,0,0
5296,181042.7215701035,2010-10-10 16:46:57,150.0761633513526,2,16,0.550297200679779,3.676600217819214,15.741487403898285,15.687454883292231,62.637459621534326,57.49632021182499,0.0007122993702068,0.0906038731336593,0,0,0
5297,181072.7368245029,2010-10-10 16:47:27,180.09141781594127,2,16,0.5501165986061096,3.699588060379028,15.746074061331123,15.687454883292231,62.65437709951549,57.49632021182499,0.0005827903514727,0.0906038731336593,0,0,0
5298,181102.75204747403,2010-10-10 16:47:57,210.10664074192604,2,16,0.5501165986061096,3.719338178634644,15.750660679379845,15.687454883292231,62.671392339101736,57.49632021182499,0.0005180359003134,0.0906038731336593,0,0,0
5299,181132.76925659025,2010-10-10 16:48:27,240.12384997339524,2,16,0.550297200679779,3.73585057258606,15.755247634491958,15.687454883292231,62.68849167407206,57.49632021182499,0.0004209041653666,0.0906038731336593,0,0,0
5300,181162.78250094497,2010-10-10 16:48:57,270.13709421288445,2,16,0.5501165986061096,3.748801469802856,15.759834006798776,15.687454883292231,62.70565686710472,57.49632021182499,0.0002913951757363,0.0906038731336593,0,0,0
5301,181192.7981671608,2010-10-10 16:49:27,300.1527604487338,2,16,0.550297200679779,3.757381200790405,15.764420680583122,15.687454883292231,62.72287263273262,57.49632021182499,0.0001942634553415,0.0906038731336593,0,0,0
5302,181222.8131051717,2010-10-10 16:49:57,330.1676984495975,2,16,0.5501165986061096,3.762075901031494,15.769007291565664,15.687454883292231,62.74011764110673,57.49632021182499,0.0001295089750783,0.0906038731336593,0,0,0
5303,181252.8306609368,2010-10-10 16:50:27,360.1852543049601,2,16,0.5501165986061096,3.7654755115509033,15.773594225080156,15.687454883292231,62.75738219237325,57.49632021182499,9.713172767078504e-05,0.0906038731336593,0,0,0
5304,181282.8435647729,2010-10-10 16:50:57,390.1981580608594,2,16,0.550297200679779,3.7685513496398926,15.778180507064333,15.687454883292231,62.77465894729978,57.49632021182499,9.713172767078504e-05,0.0906038731336593,0,0,0
5305,181312.85866788027,2010-10-10 16:51:27,420.21326112811926,2,16,0.5501165986061096,3.771465301513672,15.782767136054414,15.687454883292231,62.79195074622855,57.49632021182499,6.47544875391759e-05,0.0906038731336593,0,0,0
5306,181342.87391439,2010-10-10 16:51:57,450.2285076378821,2,16,0.5501165986061096,3.774541139602661,15.787353728021229,15.687454883292231,62.80925591224254,57.49632021182499,9.713172767078504e-05,0.0906038731336593,0,0,0
5307,181372.8891371205,2010-10-10 16:52:27,480.2437304185046,2,16,0.5501165986061096,3.7772932052612314,15.791940321054064,15.687454883292231,62.82657436018245,57.49632021182499,6.47544875391759e-05,0.0906038731336593,0,0,0
5308,181402.9067178479,2010-10-10 16:52:57,510.2613112310681,2,16,0.5501165986061096,3.7802071571350098,15.796527294869955,15.687454883292231,62.843907296058674,57.49632021182499,9.713172767078504e-05,0.0906038731336593,0,0,0
5309,181432.91962363385,2010-10-10 16:53:27,540.2742169117647,2,16,0.5501165986061096,3.782959222793579,15.801113529205724,15.687454883292231,62.86125019608442,57.49632021182499,9.713172767078504e-05,0.0906038731336593,0,0,0
5310,181462.9348436626,2010-10-10 16:53:57,570.2894369605787,2,16,0.5501165986061096,3.785711288452149,15.805700110366956,15.687454883292231,62.87860708143858,57.49632021182499,6.47544875391759e-05,0.0906038731336593,0,0,0
5311,181492.95005702475,2010-10-10 16:54:27,600.304650277615,2,16,0.5501165986061096,3.7884633541107178,15.810286742448618,15.687454883292231,62.89597663160192,57.49632021182499,9.713172767078504e-05,0.0906038731336593,0,0,0
5312,181522.96529287795,2010-10-10 16:54:57,630.3198861608932,2,16,0.5499359965324402,3.790891647338867,15.814873364415048,15.687454883292231,62.91335847338552,57.49632021182499,6.47544875391759e-05,0.0906038731336593,0,0,0
5313,181552.98053690657,2010-10-10 16:55:27,660.3351301543847,2,16,0.5501165986061096,3.793643712997437,15.819459964343691,15.687454883292231,62.93075238778434,57.49632021182499,6.47544875391759e-05,0.0906038731336593,0,0,0
5314,181582.9957926944,2010-10-10 16:55:57,690.3503859623214,2,16,0.5499359965324402,3.796233892440796,15.824046593882452,15.687454883292231,62.94815869098634,57.49632021182499,6.47544875391759e-05,0.0906038731336593,0,0,0
5315,181613.0110061117,2010-10-10 16:56:27,720.36559938462,2,16,0.5499359965324402,3.799147844314575,15.828633196630648,15.687454883292231,62.96557712119954,57.49632021182499,9.713172767078504e-05,0.0906038731336593,0,0,0
5316,181643.0263424704,2010-10-10 16:56:57,750.3809357132392,2,16,0.5501165986061096,3.801738023757935,15.833219832030768,15.687454883292231,62.98300809471716,57.49632021182499,6.47544875391759e-05,0.0906038731336593,0,0,0
5317,181673.0414533822,2010-10-10 16:57:27,780.3960466200376,2,16,0.5501165986061096,3.804490089416504,15.837806522528988,15.687454883292231,63.00045190317691,57.49632021182499,6.47544875391759e-05,0.0906038731336593,0,0,0
5318,181703.05669033816,2010-10-10 16:57:57,810.4112835910269,2,16,0.5501165986061096,3.807404041290283,15.84239319464582,15.687454883292231,63.017908675503776,57.49632021182499,9.713172767078504e-05,0.0906038731336593,0,0,0
5319,181733.0739719099,2010-10-10 16:58:27,840.4285651978778,2,16,0.5499359965324402,3.8103179931640634,15.846980113225149,15.687454883292231,63.03537987772766,57.49632021182499,3.237724376958795e-05,0.0906038731336593,0,0,0
5320,181763.08714868623,2010-10-10 16:58:57,870.4417419842531,2,16,0.5499359965324402,3.8135557174682617,15.851566424066784,15.687454883292231,63.05286283307508,57.49632021182499,6.47544875391759e-05,0.0906038731336593,0,0,0
5321,181793.1024604186,2010-10-10 16:59:27,900.4570536764705,2,16,0.5501165986061096,3.816793441772461,15.85615301393596,15.687454883292231,63.07036170593391,57.49632021182499,6.47544875391759e-05,0.0906038731336593,0,0,0
5322,181823.1177151288,2010-10-10 16:59:57,930.4723083766464,2,16,0.5499359965324402,3.82003116607666,15.860739590956776,15.687454883292231,63.08787552167574,57.49632021182499,6.47544875391759e-05,0.0906038731336593,0,0,0
5323,181853.1328566068,2010-10-10 17:00:27,960.4874498746876,2,16,0.5499359965324402,3.8235926628112793,15.865326122859267,15.687454883292231,63.1054045125587,57.49632021182499,9.713172767078504e-05,0.0906038731336593,0,0,0
5324,181883.1482037624,2010-10-10 17:00:57,990.502797010241,2,16,0.5499359965324402,3.826992273330689,15.869912723262006,15.687454883292231,63.122949256580846,57.49632021182499,9.713172767078504e-05,0.0906038731336593,0,0,0
5325,181913.16331091983,2010-10-10 17:01:27,1020.5179041626824,2,16,0.5501165986061096,3.830229997634888,15.874499307992036,15.687454883292231,63.14050949961198,57.49632021182499,9.713172767078504e-05,0.0906038731336593,0,0,0
5326,181943.17868020057,2010-10-10 17:01:57,1050.5332734584656,2,16,0.5501165986061096,3.8336293697357178,15.879085974332131,15.687454883292231,63.15808545209171,57.49632021182499,9.70840483205393e-05,0.0906038731336593,0,0,0
5327,181973.1937679597,2010-10-10 17:02:27,1080.548361197523,2,16,0.5501165986061096,3.837028980255127,15.883672485046093,15.687454883292231,63.175675883927,57.49632021182499,9.713172767078504e-05,0.0906038731336593,0,0,0
5328,182003.20900816875,2010-10-10 17:02:57,1110.5636014366576,2,16,0.5501165986061096,3.840266704559326,15.888259074058366,15.687454883292231,63.19328149581753,57.49632021182499,0.0001295089750783,0.0906038731336593,0,0,0
5329,182033.2242581371,2010-10-10 17:03:28,1140.578851435115,2,16,0.5501165986061096,3.843342542648315,15.892845680987971,15.687454883292231,63.21090184112645,57.49632021182499,9.713172767078504e-05,0.0906038731336593,0,0,0
5330,182063.23950162937,2010-10-10 17:03:58,1170.5940948822447,2,16,0.5501165986061096,3.8464183807373047,15.897432311157772,15.687454883292231,63.22853666151536,57.49632021182499,9.713172767078504e-05,0.0906038731336593,0,0,0
5331,182093.25472109675,2010-10-10 17:04:28,1200.6093143746723,2,16,0.5501165986061096,3.849494218826294,15.902018933773183,15.687454883292231,63.24618565564385,57.49632021182499,9.713172767078504e-05,0.0906038731336593,0,0,0
5332,182123.2699389752,2010-10-10 17:04:58,1230.6245322179896,2,16,0.550297200679779,3.852570056915283,15.906605596546337,15.687454883292231,63.26384865097905,57.49632021182499,9.713172767078504e-05,0.0906038731336593,0,0,0
5333,182153.28520637692,2010-10-10 17:05:28,1260.6397997501465,2,16,0.550297200679779,3.855322122573853,15.911192210188748,15.687454883292231,63.28152484788961,57.49632021182499,9.713172767078504e-05,0.0906038731336593,0,0,0
5334,182183.30043432047,2010-10-10 17:05:58,1290.6550275933866,2,16,0.550297200679779,3.858236074447632,15.915778840168946,15.687454883292231,63.29921416978164,57.49632021182499,9.713172767078504e-05,0.0906038731336593,0,0,0
5335,182213.31584657333,2010-10-10 17:06:28,1320.670439931445,2,16,0.550297200679779,3.860826253890991,15.920365482237283,15.687454883292231,63.31691590144908,57.49632021182499,6.47544875391759e-05,0.0906038731336593,0,0,0
5336,182243.33089046308,2010-10-10 17:06:58,1350.6854837560536,2,16,0.5501165986061096,3.86309266090393,15.924952098224075,15.687454883292231,63.33462923258569,57.49632021182499,3.237724376958795e-05,0.0906038731336593,0,0,0
5337,182273.34610009592,2010-10-10 17:07:28,1380.7006933688576,2,16,0.5497553944587708,3.86552095413208,15.929538751889076,15.687454883292231,63.35235367837209,57.49632021182499,6.47544875391759e-05,0.0906038731336593,0,0,0
5338,182303.3613504052,2010-10-10 17:07:58,1410.7159436480151,2,16,0.5501165986061096,3.86778736114502,15.934125356383138,15.687454883292231,63.3700882974756,57.49632021182499,9.713172767078504e-05,0.0906038731336593,0,0,0
5339,182333.37854536608,2010-10-10 17:08:28,1440.7331386690676,2,16,0.5501165986061096,3.869729995727539,15.938712336588724,15.687454883292231,63.38783403008097,57.49632021182499,6.47544875391759e-05,0.0906038731336593,0,0,0
5340,182363.39185405624,2010-10-10 17:08:58,1470.7464473341247,2,16,0.550297200679779,3.8716726303100586,15.943298584011904,15.687454883292231,63.40558593972359,57.49632021182499,9.713172767078504e-05,0.0906038731336593,0,0,0
5341,182393.4070422857,2010-10-10 17:09:28,1500.7616355636355,2,16,0.5501165986061096,3.873291492462158,15.947885269791694,15.687454883292231,63.42334789602799,57.49632021182499,6.47544875391759e-05,0.0906038731336593,0,0,0
5342,182423.42227999857,2010-10-10 17:09:58,1530.776873241386,2,16,0.5499359965324402,3.874910354614258,15.95247190970412,15.687454883292231,63.44111724241262,57.49632021182499,3.237724376958795e-05,0.0906038731336593,0,0,0
5343,182453.43751589183,2010-10-10 17:10:28,1560.7921092850645,2,16,0.5501165986061096,3.876529216766357,15.957058539476591,15.687454883292231,63.45889369294957,57.49632021182499,6.47544875391759e-05,0.0906038731336593,0,0,0
5344,182483.4527326675,2010-10-10 17:10:58,1590.8073259454331,2,16,0.5499359965324402,3.877824306488037,15.961645187267786,15.687454883292231,63.47667676333943,57.49632021182499,3.237724376958795e-05,0.0906038731336593,0,0,0
5345,182513.467961809,2010-10-10 17:11:28,1620.8225550568338,2,16,0.5499359965324402,3.879119396209717,15.966231828485611,15.687454883292231,63.49446594883523,57.49632021182499,0.0,0.0906038731336593,0,0,0
5346,182543.48322754668,2010-10-10 17:11:58,1650.8378208145689,2,16,0.5501165986061096,3.8802525997161865,15.970818531107696,15.687454883292231,63.51226114641196,57.49632021182499,0.0,0.0906038731336593,0,0,0
5347,182573.4984623322,2010-10-10 17:12:28,1680.8530556051237,2,16,0.550297200679779,3.881547689437866,15.975405181663788,15.687454883292231,63.53006168958129,57.49632021182499,3.237724376958795e-05,0.0906038731336593,0,0,0
5348,182603.5136618449,2010-10-10 17:12:58,1710.8682550977048,2,16,0.550297200679779,3.882842779159546,15.97999188217164,15.687454883292231,63.54786776830528,57.49632021182499,6.47544875391759e-05,0.0906038731336593,0,0,0
5349,182633.52896823385,2010-10-10 17:13:28,1740.8835615318178,2,16,0.5501165986061096,3.8838140964508057,15.984578545324954,15.687454883292231,63.56567894883207,57.49632021182499,6.47544875391759e-05,0.0906038731336593,0,0,0
5350,182663.5441603029,2010-10-10 17:13:58,1770.8987535658102,2,16,0.550297200679779,3.885109186172485,15.98916524791868,15.687454883292231,63.5834952989772,57.49632021182499,6.47544875391759e-05,0.0906038731336593,0,0,0
5351,182693.5594842457,2010-10-10 17:14:28,1800.9140775286096,2,16,0.5499359965324402,3.886080503463745,15.993751873796173,15.687454883292231,63.60131638633993,57.49632021182499,9.713172767078504e-05,0.0906038731336593,0,0,0
5352,182723.57454987464,2010-10-10 17:14:58,1830.9291431475367,2,16,0.550297200679779,3.887051820755005,15.998338736518704,15.687454883292231,63.6191434505356,57.49632021182499,3.237724376958795e-05,0.0906038731336593,0,0,0
5353,182753.58978391832,2010-10-10 17:15:28,1860.9443771611552,2,16,0.5501165986061096,3.8881850242614746,16.002926234099302,15.687454883292231,63.63697801167395,57.49632021182499,3.237724376958795e-05,0.0906038731336593,0,0,0
5354,182783.6050461974,2010-10-10 17:15:58,1890.959639435208,2,16,0.550297200679779,3.889318227767944,16.007513576816415,15.687454883292231,63.654817024648864,57.49632021182499,3.237724376958795e-05,0.0906038731336593,0,0,0
5355,182813.6203927064,2010-10-10 17:16:28,1920.974985984299,2,16,0.5501165986061096,3.890451431274414,16.012101089501133,15.687454883292231,63.67266168497808,57.49632021182499,3.237724376958795e-05,0.0906038731336593,0,0,0
5356,182843.6356508351,2010-10-10 17:16:58,1950.99024417317,2,16,0.5501165986061096,3.891584634780884,16.016688570951487,15.687454883292231,63.69051126587019,57.49632021182499,3.237724376958795e-05,0.0906038731336593,0,0,0
5357,182873.65088715943,2010-10-10 17:17:28,1981.0054804373976,2,16,0.5501165986061096,3.8927178382873535,16.021276030081065,15.687454883292231,63.70836583353183,57.49632021182499,6.47544875391759e-05,0.0906038731336593,0,0,0
5358,182903.66598686337,2010-10-10 17:17:58,2011.020580106188,2,16,0.5501165986061096,3.893689155578613,16.025863394712935,15.687454883292231,63.726225150707975,57.49632021182499,6.47544875391759e-05,0.0906038731336593,0,0,0
5359,182933.6831710474,2010-10-10 17:18:28,2041.0377643253184,2,16,0.5501165986061096,3.894822359085083,16.030450491107356,15.687454883292231,63.74408856744338,57.49632021182499,3.237724376958795e-05,0.0906038731336593,0,0,0
5360,182963.69644605857,2010-10-10 17:18:58,2071.051039331488,2,16,0.5501165986061096,3.8959555625915527,16.035036979281884,15.687454883292231,63.7619541914113,57.49632021182499,0.0,0.0906038731336593,0,0,0
5361,182993.7118010838,2010-10-10 17:19:28,2101.066394341666,2,16,0.5501165986061096,3.8970887660980233,16.03962371393948,15.687454883292231,63.77982620760199,57.49632021182499,3.237724376958795e-05,0.0906038731336593,0,0,0
5362,183023.72691977496,2010-10-10 17:19:58,2131.0815130128167,2,16,0.5501165986061096,3.898221969604492,16.04421040809252,15.687454883292231,63.79770328780645,57.49632021182499,3.237724376958795e-05,0.0906038731336593,0,0,0
5363,183053.74214096664,2010-10-10 17:20:28,2161.096734214504,2,16,0.5501165986061096,3.899193286895752,16.04879714001022,15.687454883292231,63.81558583934983,57.49632021182499,-3.237724376958795e-05,0.0906038731336593,0,0,0
5364,183083.7573910804,2010-10-10 17:20:58,2191.1119843432866,2,16,0.550297200679779,3.900488376617432,16.05338392861674,15.687454883292231,63.83347393044305,57.49632021182499,3.237724376958795e-05,0.0906038731336593,0,0,0
5365,183113.77288029,2010-10-10 17:21:28,2221.127473572982,2,16,0.5501165986061096,3.9017834663391113,16.057970733453235,15.687454883292231,63.851367500854735,57.49632021182499,6.47544875391759e-05,0.0906038731336593,0,0,0
5366,183143.78785525804,2010-10-10 17:21:58,2251.142448540979,2,16,0.5499359965324402,3.902916669845581,16.062557460120992,15.687454883292231,63.86926628986628,57.49632021182499,3.237724376958795e-05,0.0906038731336593,0,0,0
5367,183173.80553949336,2010-10-10 17:22:28,2281.1601328915917,2,16,0.5501165986061096,3.9042117595672607,16.067144615629516,15.687454883292231,63.88717228755419,57.49632021182499,3.237724376958795e-05,0.0906038731336593,0,0,0
5368,183203.8184382969,2010-10-10 17:22:58,2311.173031604923,2,16,0.5501165986061096,3.9053449630737305,16.07173103282132,15.687454883292231,63.90508102686877,57.49632021182499,6.47544875391759e-05,0.0906038731336593,0,0,0
5369,183233.83353767,2010-10-10 17:23:28,2341.1881309178257,2,16,0.550297200679779,3.90664005279541,16.076317754167484,15.687454883292231,63.922996516178536,57.49632021182499,3.237724376958795e-05,0.0906038731336593,0,0,0
5370,183263.8486832682,2010-10-10 17:23:58,2371.203276566211,2,16,0.550297200679779,3.90793514251709,16.080904481424824,15.687454883292231,63.94091783437588,57.49632021182499,6.47544875391759e-05,0.0906038731336593,0,0,0
5371,183293.8639979629,2010-10-10 17:24:28,2401.218591230837,2,16,0.5501165986061096,3.90906834602356,16.085491280604614,15.687454883292231,63.95884514683574,57.49632021182499,3.237724376958795e-05,0.0906038731336593,0,0,0
5372,183323.8824828086,2010-10-10 17:24:58,2431.2370761817915,2,16,0.5501165986061096,3.9103634357452393,16.0900786360177,15.687454883292231,63.97678054466265,57.49632021182499,3.237724376958795e-05,0.0906038731336593,0,0,0
5373,183353.89458445544,2010-10-10 17:25:28,2461.249177743376,2,16,0.550297200679779,3.911820411682129,16.094665005674127,15.687454883292231,63.99471795673249,57.49632021182499,3.237724376958795e-05,0.0906038731336593,0,0,0
5374,183383.90985842363,2010-10-10 17:25:58,2491.264451696536,2,16,0.5501165986061096,3.912953615188599,16.099251879582834,15.687454883292231,64.0126633942261,57.49632021182499,3.237724376958795e-05,0.0906038731336593,0,0,0
5375,183413.92491285468,2010-10-10 17:26:28,2521.279506092492,2,16,0.5501165986061096,3.914248466491699,16.103838727275907,15.687454883292231,64.03061474512724,57.49632021182499,0.0,0.0906038731336593,0,0,0
5376,183443.9401473595,2010-10-10 17:26:58,2551.294740637434,2,16,0.5501165986061096,3.915705442428589,16.108425606742916,15.687454883292231,64.04857239079651,57.49632021182499,3.237724376958795e-05,0.0906038731336593,0,0,0
5377,183473.9553882653,2010-10-10 17:27:28,2581.309981513156,2,16,0.5499359965324402,3.9168386459350586,16.113012441757082,15.687454883292231,64.0665358941065,57.49632021182499,0.0,0.0906038731336593,0,0,0
5378,183503.97063841412,2010-10-10 17:27:58,2611.3252316820385,2,16,0.5499359965324402,3.918295621871948,16.1175992616173,15.687454883292231,64.08450565389347,57.49632021182499,3.237724376958795e-05,0.0906038731336593,0,0,0
5379,183533.98779302448,2010-10-10 17:28:28,2641.342386397637,2,16,0.5501165986061096,3.919752597808838,16.122186436585217,15.687454883292231,64.10248309355262,57.49632021182499,3.237724376958795e-05,0.0906038731336593,0,0,0
5380,183564.00121263607,2010-10-10 17:28:58,2671.355805929008,2,16,0.5501165986061096,3.9210476875305176,16.12677310652051,15.687454883292231,64.12046491908396,57.49632021182499,0.0,0.0906038731336593,0,0,0
5381,183594.0162884855,2010-10-10 17:29:28,2701.3708817583824,2,16,0.5501165986061096,3.9225046634674072,16.131359984920728,15.687454883292231,64.13845397672056,57.49632021182499,0.0,0.0906038731336593,0,0,0
5382,183624.03084623365,2010-10-10 17:29:58,2731.3854394814766,2,16,0.5501165986061096,3.923961639404297,16.135925449028864,15.687454883292231,64.15636549563276,57.49632021182499,3.237724376958795e-05,0.0906038731336593,0,0,0
5383,183654.0312347076,2010-10-10 17:30:28,2761.385828015593,2,16,0.550297200679779,3.9257423877716064,16.140531477504865,15.687454883292231,64.17444279101501,57.49632021182499,6.47544875391759e-05,0.0906038731336593,0,0,0
5384,183684.04635943883,2010-10-10 17:30:58,2791.400952686696,2,16,0.5499359965324402,3.926713705062866,16.145118288134558,15.687454883292231,64.1924511621869,57.49632021182499,3.237724376958795e-05,0.0906038731336593,0,0,0
5385,183714.06172160685,2010-10-10 17:31:28,2821.416314889802,2,16,0.5499359965324402,3.928170680999756,16.149705133102795,15.687454883292231,64.21046637656193,57.49632021182499,3.237724376958795e-05,0.0906038731336593,0,0,0
5386,183744.0768513105,2010-10-10 17:31:58,2851.4314445583605,2,16,0.5501165986061096,3.929789543151856,16.154292004121054,15.687454883292231,64.22848837917488,57.49632021182499,3.237724376958795e-05,0.0906038731336593,0,0,0
5387,183774.09208803088,2010-10-10 17:32:28,2881.446681298776,2,16,0.5501165986061096,3.931246519088745,16.158878922623842,15.687454883292231,64.24651737968414,57.49632021182499,3.237724376958795e-05,0.0906038731336593,0,0,0
5388,183804.10729470133,2010-10-10 17:32:58,2911.461887949197,2,16,0.5501165986061096,3.9327034950256343,16.16346582609051,15.687454883292231,64.26455312796283,57.49632021182499,0.0,0.0906038731336593,0,0,0
5389,183834.12265831296,2010-10-10 17:33:28,2941.4772515708382,2,16,0.5501165986061096,3.934160470962525,16.168052774003236,15.687454883292231,64.28259599107012,57.49632021182499,6.47544875391759e-05,0.0906038731336593,0,0,0
5390,183864.13778340007,2010-10-10 17:33:58,2971.4923766479533,2,16,0.5501165986061096,3.935941219329834,16.172639688353023,15.687454883292231,64.30064567880454,57.49632021182499,6.47544875391759e-05,0.0906038731336593,0,0,0
5391,183894.15300792505,2010-10-10 17:34:28,3001.507601197986,2,16,0.5501165986061096,3.9372363090515137,16.17722662338576,15.687454883292231,64.31870232759384,57.49632021182499,3.237724376958795e-05,0.0906038731336593,0,0,0
5392,183924.168237232,2010-10-10 17:34:58,3031.522830484824,2,16,0.5501165986061096,3.938855171203613,16.18181348740361,15.687454883292231,64.33676586748054,57.49632021182499,3.237724376958795e-05,0.0906038731336593,0,0,0
5393,183954.18347106516,2010-10-10 17:35:28,3061.53806431298,2,16,0.550297200679779,3.940474033355713,16.186400343655524,15.687454883292231,64.35483647642181,57.49632021182499,6.47544875391759e-05,0.0906038731336593,0,0,0
5394,183984.1988263961,2010-10-10 17:35:59,3091.5534196439585,2,16,0.5501165986061096,3.942092895507813,16.190987296306105,15.687454883292231,64.3729146798097,57.49632021182499,9.713172767078504e-05,0.0906038731336593,0,0,0
5395,184014.2139528817,2010-10-10 17:36:29,3121.568546149634,2,16,0.550297200679779,3.943711757659912,16.19557419636181,15.687454883292231,64.39099997802566,57.49632021182499,6.47544875391759e-05,0.0906038731336593,0,0,0
5396,184044.22935167604,2010-10-10 17:36:59,3151.5839449339123,2,16,0.550297200679779,3.9451687335968018,16.200161102892427,15.687454883292231,64.4090925813545,57.49632021182499,0.0,0.0906038731336593,0,0,0
5397,184074.24442989635,2010-10-10 17:37:29,3181.599023144221,2,16,0.550297200679779,3.9469494819641113,16.204747969344993,15.687454883292231,64.42719251073271,57.49632021182499,6.47544875391759e-05,0.0906038731336593,0,0,0
5398,184104.2596555141,2010-10-10 17:37:59,3211.614248761914,2,16,0.5501165986061096,3.948568344116211,16.209334840331525,15.687454883292231,64.44529985308603,57.49632021182499,6.47544875391759e-05,0.0906038731336593,0,0,0
5399,184134.2749255324,2010-10-10 17:38:29,3241.629518780268,2,16,0.5501165986061096,3.9500253200531006,16.21392165398485,15.687454883292231,64.46341454904669,57.49632021182499,3.237724376958795e-05,0.0906038731336593,0,0,0
5400,184164.29221655772,2010-10-10 17:38:59,3271.646809950955,2,16,0.5501165986061096,3.95180606842041,16.218508860002288,15.687454883292231,64.48153846002008,57.49632021182499,6.47544875391759e-05,0.0906038731336593,0,0,0
5401,184194.3053403971,2010-10-10 17:39:29,3301.6599336399954,2,16,0.5501165986061096,3.95358681678772,16.2230954494603,15.687454883292231,64.49966754185779,57.49632021182499,6.47544875391759e-05,0.0906038731336593,0,0,0
5402,184224.3205722504,2010-10-10 17:39:59,3331.6751654982418,2,16,0.550297200679779,3.9552056789398193,16.227682358047712,15.687454883292231,64.51780570239367,57.49632021182499,6.47544875391759e-05,0.0906038731336593,0,0,0
5403,184254.3358308603,2010-10-10 17:40:29,3361.6904241031493,2,16,0.550297200679779,3.956824541091919,16.23226926538732,15.687454883292231,64.53595169312806,57.49632021182499,0.0,0.0906038731336593,0,0,0
5404,184284.35106880876,2010-10-10 17:40:59,3391.705662076637,2,16,0.550297200679779,3.9587671756744394,16.23685614684501,15.687454883292231,64.55410534248509,57.49632021182499,6.47544875391759e-05,0.0906038731336593,0,0,0
5405,184314.3662791383,2010-10-10 17:41:29,3421.720872416253,2,16,0.5504778623580933,3.960547924041748,16.241443072487847,15.687454883292231,64.57226727545974,57.49632021182499,6.47544875391759e-05,0.0906038731336593,0,0,0
5406,184344.38150256555,2010-10-10 17:41:59,3451.736095813412,2,16,0.550297200679779,3.962166786193848,16.24602993078536,15.687454883292231,64.59043706293501,57.49632021182499,6.47544875391759e-05,0.0906038731336593,0,0,0
5407,184374.39689082865,2010-10-10 17:42:29,3481.751484116567,2,16,0.550297200679779,3.963947534561157,16.250616883866748,15.687454883292231,64.60861532249973,57.49632021182499,6.47544875391759e-05,0.0906038731336593,0,0,0
5408,184404.41207712333,2010-10-10 17:42:59,3511.766670411256,2,16,0.5501165986061096,3.965728282928467,16.255203738040695,15.687454883292231,64.62680148628428,57.49632021182499,6.47544875391759e-05,0.0906038731336593,0,0,0
5409,184434.4273221093,2010-10-10 17:43:29,3541.781915397221,2,16,0.5501165986061096,3.967509031295776,16.25979067705624,15.687454883292231,64.64499632356889,57.49632021182499,3.237724376958795e-05,0.0906038731336593,0,0,0
5410,184464.44256171683,2010-10-10 17:43:59,3571.7971549646813,2,16,0.550297200679779,3.969451665878296,16.264377598693223,15.687454883292231,64.66319948278992,57.49632021182499,3.237724376958795e-05,0.0906038731336593,0,0,0
5411,184494.4576913954,2010-10-10 17:44:29,3601.812284658302,2,16,0.5501165986061096,3.971394300460816,16.2689644969588,15.687454883292231,64.68141108421538,57.49632021182499,9.713172767078504e-05,0.0906038731336593,0,0,0
5412,184524.4729006624,2010-10-10 17:44:59,3631.827493910207,2,16,0.5501165986061096,3.973013162612915,16.273551385887053,15.687454883292231,64.69963131533,57.49632021182499,0.0,0.0906038731336593,0,0,0
5413,184554.4881258389,2010-10-10 17:45:29,3661.842719081788,2,16,0.5501165986061096,3.975117683410645,16.278138311824403,15.687454883292231,64.71786046117606,57.49632021182499,3.237724376958795e-05,0.0906038731336593,0,0,0
5414,184584.5033634816,2010-10-10 17:45:59,3691.857956769564,2,16,0.550297200679779,3.977060317993164,16.282725272381892,15.687454883292231,64.73609860097066,57.49632021182499,6.47544875391759e-05,0.0906038731336593,0,0,0
5415,184614.51861235223,2010-10-10 17:46:29,3721.8732056201607,2,16,0.550297200679779,3.979002952575684,16.287312196056,15.687454883292231,64.75434519069216,57.49632021182499,3.237724376958795e-05,0.0906038731336593,0,0,0
5416,184644.53384635085,2010-10-10 17:46:59,3751.8884396287663,2,16,0.5501165986061096,3.980945587158203,16.291899055797682,15.687454883292231,64.7726010464641,57.49632021182499,3.237724376958795e-05,0.0906038731336593,0,0,0
5417,184674.549061723,2010-10-10 17:47:29,3781.903654965839,2,16,0.5501165986061096,3.9830501079559326,16.29648590867729,15.687454883292231,64.7908661166467,57.49632021182499,6.47544875391759e-05,0.0906038731336593,0,0,0
5418,184704.56435765093,2010-10-10 17:47:59,3811.918950953915,2,16,0.550297200679779,3.985154628753662,16.301072821767278,15.687454883292231,64.80914072197147,57.49632021182499,6.47544875391759e-05,0.0906038731336593,0,0,0
5419,184734.57955330392,2010-10-10 17:48:29,3841.934146546778,2,16,0.5501165986061096,3.9870972633361816,16.305659698960135,15.687454883292231,64.82742463202493,57.49632021182499,3.237724376958795e-05,0.0906038731336593,0,0,0
5420,184764.59691093524,2010-10-10 17:48:59,3871.9515042232174,2,16,0.550297200679779,3.989201784133911,16.31024688633422,15.687454883292231,64.84571926001476,57.49632021182499,0.0,0.0906038731336593,0,0,0
5421,184794.61012814732,2010-10-10 17:49:29,3901.964721430335,2,16,0.550297200679779,3.9913063049316406,16.314833420245385,15.687454883292231,64.86402085593414,57.49632021182499,6.47544875391759e-05,0.0906038731336593,0,0,0
5422,184824.6252525027,2010-10-10 17:49:59,3931.9798457806382,2,16,0.5501165986061096,3.99341082572937,16.319420284458403,15.687454883292231,64.88233348377382,57.49632021182499,9.713172767078504e-05,0.0906038731336593,0,0,0
5423,184854.64061807425,2010-10-10 17:50:29,3961.9952113320896,2,16,0.5501165986061096,3.995515108108521,16.324007161352856,15.687454883292231,64.90065591011728,57.49632021182499,3.237724376958795e-05,0.0906038731336593,0,0,0
5424,184884.6556992168,2010-10-10 17:50:59,3992.0102924646817,2,16,0.5501165986061096,3.99778151512146,16.328593998927158,15.687454883292231,64.91898804593585,57.49632021182499,3.237724376958795e-05,0.0906038731336593,0,0,0
5425,184914.67095682424,2010-10-10 17:51:29,4022.025550122228,2,16,0.5501165986061096,3.9998860359191895,16.33318087627534,15.687454883292231,64.93733017348283,57.49632021182499,6.47544875391759e-05,0.0906038731336593,0,0,0
5426,184944.6862958396,2010-10-10 17:51:59,4052.040889147568,2,16,0.5501165986061096,4.002152442932129,16.337767771045833,15.687454883292231,64.95568241331559,57.49632021182499,6.47544875391759e-05,0.0906038731336593,0,0,0
5427,184974.70140569875,2010-10-10 17:52:29,4082.055998971668,2,16,0.550297200679779,4.004418849945068,16.342354587603303,15.687454883292231,64.97404440110485,57.49632021182499,9.70840483205393e-05,0.0906038731336593,0,0,0
5428,185004.7167229047,2010-10-10 17:52:59,4112.071316167602,2,16,0.5501165986061096,4.006523609161377,16.346941392814088,15.687454883292231,64.99241645626168,57.49632021182499,6.47544875391759e-05,0.0906038731336593,0,0,0
5429,185034.7318418766,2010-10-10 17:53:29,4142.086435114439,2,16,0.5501165986061096,4.008790016174316,16.351528191955477,15.687454883292231,65.01079870188386,57.49632021182499,6.47544875391759e-05,0.0906038731336593,0,0,0
5430,185064.7473134473,2010-10-10 17:53:59,4172.101906705173,2,16,0.5499359965324402,4.010894298553467,16.356115071074772,15.687454883292231,65.02919141367855,57.49632021182499,3.23295607813634e-05,0.0906038731336593,0,0,0
5431,185094.76238153732,2010-10-10 17:54:29,4202.116974785234,2,16,0.5501165986061096,4.013322830200195,16.360701926873244,15.687454883292231,65.04759441480937,57.49632021182499,6.47544875391759e-05,0.0906038731336593,0,0,0
5432,185124.7801431706,2010-10-10 17:54:59,4232.1347365688325,2,16,0.5501165986061096,4.015427112579346,16.365289179280076,15.687454883292231,65.06600940121112,57.49632021182499,0.0,0.0906038731336593,0,0,0
5433,185154.79283571008,2010-10-10 17:55:29,4262.147429048167,2,16,0.5501165986061096,4.017693519592285,16.36987562676342,15.687454883292231,65.08443161897159,57.49632021182499,3.23295607813634e-05,0.0906038731336593,0,0,0
5434,185184.80806444056,2010-10-10 17:55:59,4292.162657718468,2,16,0.5501165986061096,4.020122051239014,16.37446249327001,15.687454883292231,65.10286601812834,57.49632021182499,6.47544875391759e-05,0.0906038731336593,0,0,0
5435,185214.8233060681,2010-10-10 17:56:29,4322.177899310976,2,16,0.5501165986061096,4.022388458251953,16.379049244879745,15.687454883292231,65.12131065269163,57.49632021182499,6.47544875391759e-05,0.0906038731336593,0,0,0
5436,185244.83864622127,2010-10-10 17:56:59,4352.193239509239,2,16,0.5501165986061096,4.024654865264893,16.383636050773458,15.687454883292231,65.13976621930152,57.49632021182499,3.24249267578125e-05,0.0906038731336593,0,0,0
5437,185274.85610177164,2010-10-10 17:57:29,4382.210695134797,2,16,0.5501165986061096,4.027245044708252,16.38822318116135,15.687454883292231,65.15823391032094,57.49632021182499,6.47544875391759e-05,0.0906038731336593,0,0,0
5438,185304.86912364195,2010-10-10 17:57:59,4412.223716899813,2,16,0.550297200679779,4.029673099517822,16.392809694315734,15.687454883292231,65.17671004757568,57.49632021182499,9.70840483205393e-05,0.0906038731336593,0,0,0
5439,185334.88425238812,2010-10-10 17:58:29,4442.238845631035,2,16,0.5501165986061096,4.031939506530762,16.397396549472923,15.687454883292231,65.19519857716352,57.49632021182499,9.70840483205393e-05,0.0906038731336593,0,0,0
5440,185364.9013380016,2010-10-10 17:58:59,4472.255931289522,2,16,0.550297200679779,4.034529685974121,16.40198371918603,15.687454883292231,65.2136995896161,57.49632021182499,6.47544875391759e-05,0.0906038731336593,0,0,0
5441,185394.91469302212,2010-10-10 17:59:29,4502.269286295074,2,16,0.550297200679779,4.036957740783691,16.406570333295413,15.687454883292231,65.23220964699196,57.49632021182499,9.70840483205393e-05,0.0906038731336593,0,0,0
5442,185424.92993196307,2010-10-10 17:59:59,4532.284525215923,2,16,0.5501165986061096,4.039224147796631,16.41115722316592,15.687454883292231,65.25073223002771,57.49632021182499,3.23295607813634e-05,0.0906038731336593,0,0,0
5443,185454.9451708137,2010-10-10 18:00:29,4562.299764056572,2,16,0.5499359965324402,4.04181432723999,16.415744090032316,15.687454883292231,65.26926614060292,57.49632021182499,3.23295607813634e-05,0.0906038731336593,0,0,0
5444,185484.96039518333,2010-10-10 18:00:59,4592.314988461242,2,16,0.550297200679779,4.0447282791137695,16.42033090357222,15.687454883292231,65.28781158057247,57.49632021182499,9.70840483205393e-05,0.0906038731336593,0,0,0
5445,185514.97574871985,2010-10-10 18:01:29,4622.330341997748,2,16,0.5499359965324402,4.047156810760498,16.424917740298863,15.687454883292231,65.30636889974795,57.49632021182499,9.71794142969884e-05,0.0906038731336593,0,0,0
5446,185544.99086516543,2010-10-10 18:01:59,4652.345458413276,2,16,0.550297200679779,4.049746990203857,16.42950462441133,15.687454883292231,65.32493832368628,57.49632021182499,9.71794142969884e-05,0.0906038731336593,0,0,0
5447,185575.0060845626,2010-10-10 18:02:29,4682.360677810466,2,16,0.5501165986061096,4.052337169647217,16.434091520812967,15.687454883292231,65.34351977071114,57.49632021182499,9.71794142969884e-05,0.0906038731336593,0,0,0
5448,185605.0213554381,2010-10-10 18:02:59,4712.375948685956,2,16,0.5501165986061096,4.055088996887207,16.438678344759396,15.687454883292231,65.36211311379301,57.49632021182499,9.70840483205393e-05,0.0906038731336593,0,0,0
5449,185635.03658833893,2010-10-10 18:03:29,4742.391181576776,2,16,0.5501165986061096,4.057679176330566,16.443265207275935,15.687454883292231,65.38071888915273,57.49632021182499,3.23295607813634e-05,0.0906038731336593,0,0,0
5450,185665.0523435365,2010-10-10 18:03:59,4772.406936839508,2,16,0.550297200679779,4.060431480407715,16.447852155872628,15.687454883292231,65.3993373571801,57.49632021182499,9.71794142969884e-05,0.0906038731336593,0,0,0
5451,185695.06707754897,2010-10-10 18:04:29,4802.421670816882,2,16,0.5501165986061096,4.063183307647705,16.4524389685136,15.687454883292231,65.41796729894766,57.49632021182499,0.0001295089750783,0.0906038731336593,0,0,0
5452,185725.08229816923,2010-10-10 18:04:59,4832.436891467195,2,16,0.5501165986061096,4.0657734870910645,16.457025833142833,15.687454883292231,65.436610095633,57.49632021182499,6.47544875391759e-05,0.0906038731336593,0,0,0
5453,185755.09766748507,2010-10-10 18:05:29,4862.452260737917,2,16,0.550297200679779,4.068525791168213,16.461612730723733,15.687454883292231,65.45526569302427,57.49632021182499,9.71794142969884e-05,0.0906038731336593,0,0,0
5454,185785.11275808123,2010-10-10 18:05:59,4892.467351359157,2,16,0.5501165986061096,4.071277618408203,16.466199659224205,15.687454883292231,65.47393423712245,57.49632021182499,6.47544875391759e-05,0.0906038731336593,0,0,0
5455,185815.1280212325,2010-10-10 18:06:29,4922.482614490345,2,16,0.5501165986061096,4.074191570281982,16.470786482483287,15.687454883292231,65.49261524361438,57.49632021182499,9.70840483205393e-05,0.0906038731336593,0,0,0
5456,185845.14322388792,2010-10-10 18:06:59,4952.497817160846,2,16,0.5501165986061096,4.076943874359131,16.47537330505424,15.687454883292231,65.51130937286003,57.49632021182499,6.47544875391759e-05,0.0906038731336593,0,0,0
5457,185875.1586136096,2010-10-10 18:07:29,4982.5132068675,2,16,0.550297200679779,4.080019474029541,16.47996018130391,15.687454883292231,65.53001696154149,57.49632021182499,9.70840483205393e-05,0.0906038731336593,0,0,0
5458,185905.1737064163,2010-10-10 18:08:00,5012.528299694238,2,16,0.5499359965324402,4.0827717781066895,16.48454704495638,15.687454883292231,65.5487377756546,57.49632021182499,6.47544875391759e-05,0.0906038731336593,0,0,0
5459,185935.188944846,2010-10-10 18:08:30,5042.543538118851,2,16,0.5501165986061096,4.0858473777771,16.48913389491037,15.687454883292231,65.56747197913549,57.49632021182499,9.70840483205393e-05,0.0906038731336593,0,0,0
5460,185965.2041825588,2010-10-10 18:09:00,5072.558775831688,2,16,0.5501165986061096,4.088923454284668,16.493720767539624,15.687454883292231,65.5862197770238,57.49632021182499,9.71794142969884e-05,0.0906038731336593,0,0,0
5461,185995.20576138445,2010-10-10 18:09:30,5102.560354747602,2,16,0.550297200679779,4.091675281524658,16.498305530327734,15.687454883292231,65.60497257437119,57.49632021182499,6.47544875391759e-05,0.0906038731336593,0,0,0
5462,186025.2190069272,2010-10-10 18:10:00,5132.573600175052,2,16,0.5499359965324402,4.094751358032227,16.502892006553143,15.687454883292231,65.62374607586281,57.49632021182499,9.71794142969884e-05,0.0906038731336593,0,0,0
5463,186055.23424455983,2010-10-10 18:10:30,5162.5888378026775,2,16,0.5499359965324402,4.097665309906006,16.50747889658423,15.687454883292231,65.64253517757099,57.49632021182499,6.47544875391759e-05,0.0906038731336593,0,0,0
5464,186085.24949534528,2010-10-10 18:11:00,5192.604088593109,2,16,0.550297200679779,4.100740909576416,16.51206574692807,15.687454883292231,65.6613379992044,57.49632021182499,3.23295607813634e-05,0.0906038731336593,0,0,0
5465,186115.2649266506,2010-10-10 18:11:30,5222.619520003702,2,16,0.550297200679779,4.103816986083984,16.516652656700735,15.687454883292231,65.68015506658628,57.49632021182499,9.71794142969884e-05,0.0906038731336593,0,0,0
5466,186145.2799598688,2010-10-10 18:12:00,5252.634553146689,2,16,0.5501165986061096,4.107054710388184,16.521239479323388,15.687454883292231,65.69898607237552,57.49632021182499,9.71794142969884e-05,0.0906038731336593,0,0,0
5467,186175.29518691,2010-10-10 18:12:30,5282.649780182917,2,16,0.5499359965324402,4.110130310058594,16.525826332107105,15.687454883292231,65.71783150482152,57.49632021182499,9.70840483205393e-05,0.0906038731336593,0,0,0
5468,186205.31043458768,2010-10-10 18:13:00,5312.665027835528,2,16,0.550297200679779,4.113368034362793,16.53041320859152,15.687454883292231,65.73669154487176,57.49632021182499,9.70840483205393e-05,0.0906038731336593,0,0,0
5469,186235.32577999396,2010-10-10 18:13:30,5342.680373241772,2,16,0.550297200679779,4.116605758666992,16.53500007491238,15.687454883292231,65.75556604365099,57.49632021182499,9.71794142969884e-05,0.0906038731336593,0,0,0
5470,186265.3409208654,2010-10-10 18:14:00,5372.695514238563,2,16,0.550297200679779,4.119681358337402,16.539587007484464,15.687454883292231,65.77445557557903,57.49632021182499,6.47544875391759e-05,0.0906038731336593,0,0,0
5471,186295.35625507875,2010-10-10 18:14:30,5402.710848336624,2,16,0.5499359965324402,4.122757434844971,16.544173934272624,15.687454883292231,65.7933598753402,57.49632021182499,6.47544875391759e-05,0.0906038731336593,0,0,0
5472,186325.3713842611,2010-10-10 18:15:00,5432.725977564082,2,16,0.5501165986061096,4.126156806945801,16.548760846372566,15.687454883292231,65.8122790707688,57.49632021182499,6.47544875391759e-05,0.0906038731336593,0,0,0
5473,186355.38676663447,2010-10-10 18:15:30,5462.741359902372,2,16,0.550297200679779,4.129556655883789,16.553347722396182,15.687454883292231,65.83121320004008,57.49632021182499,9.71794142969884e-05,0.0906038731336593,0,0,0
5474,186385.4019616559,2010-10-10 18:16:00,5492.756554938847,2,16,0.550297200679779,4.132956027984619,16.557934574322378,15.687454883292231,65.8501624036867,57.49632021182499,6.47544875391759e-05,0.0906038731336593,0,0,0
5475,186415.41706610165,2010-10-10 18:16:30,5522.771659374518,2,16,0.5501165986061096,4.136193752288818,16.562521455667227,15.687454883292231,65.86912695068906,57.49632021182499,9.70840483205393e-05,0.0906038731336593,0,0,0
5476,186445.43243754777,2010-10-10 18:17:00,5552.787030795598,2,16,0.5501165986061096,4.139593601226807,16.567108367485105,15.687454883292231,65.88810709549261,57.49632021182499,0.0001295089750783,0.0906038731336593,0,0,0
5477,186475.44753423912,2010-10-10 18:17:30,5582.802127527068,2,16,0.550297200679779,4.142992973327637,16.571695225722877,15.687454883292231,65.90710254952091,57.49632021182499,9.70840483205393e-05,0.0906038731336593,0,0,0
5478,186505.462751902,2010-10-10 18:18:00,5612.817345149835,2,16,0.5501165986061096,4.146554470062256,16.576282063463697,15.687454883292231,65.92611371640301,57.49632021182499,9.70840483205393e-05,0.0906038731336593,0,0,0
5479,186535.4780467823,2010-10-10 18:18:30,5642.832640080277,2,16,0.5501165986061096,4.149792194366455,16.58086897145467,15.687454883292231,65.94514109642938,57.49632021182499,6.47544875391759e-05,0.0906038731336593,0,0,0
5480,186565.49327875584,2010-10-10 18:19:00,5672.847872033761,2,16,0.5501165986061096,4.153192043304443,16.585455829303466,15.687454883292231,65.96418406421353,57.49632021182499,6.47544875391759e-05,0.0906038731336593,0,0,0
5481,186595.5103868753,2010-10-10 18:19:30,5702.8649801582405,2,16,0.550297200679779,4.156915187835693,16.590043009822935,15.687454883292231,65.98324431219763,57.49632021182499,9.70840483205393e-05,0.0906038731336593,0,0,0
5482,186625.5237390137,2010-10-10 18:20:00,5732.878332291635,2,16,0.550297200679779,4.1604766845703125,16.594629611502153,15.687454883292231,66.002318301065,57.49632021182499,0.0001295089750783,0.0906038731336593,0,0,0
5483,186655.538992947,2010-10-10 18:20:30,5762.893586224899,2,16,0.5501165986061096,4.164038181304932,16.599216591400953,15.687454883292231,66.02141020094496,57.49632021182499,6.47544875391759e-05,0.0906038731336593,0,0,0
5484,186685.5542471659,2010-10-10 18:21:00,5792.908840443875,2,16,0.5499359965324402,4.16743803024292,16.603803490450186,15.687454883292231,66.04051800656902,57.49632021182499,6.47544875391759e-05,0.0906038731336593,0,0,0
5485,186715.56944189165,2010-10-10 18:21:30,5822.924035174588,2,16,0.5501165986061096,4.17116117477417,16.60839037195198,15.687454883292231,66.05964218654074,57.49632021182499,6.47544875391759e-05,0.0906038731336593,0,0,0
5486,186745.5848377888,2010-10-10 18:22:00,5852.939431171921,2,16,0.5501165986061096,4.174561023712158,16.6129772915696,15.687454883292231,66.07878300640415,57.49632021182499,9.71794142969884e-05,0.0906038731336593,0,0,0
5487,186775.59991307172,2010-10-10 18:22:30,5882.954506349672,2,16,0.5499359965324402,4.178122520446777,16.617564153127386,15.687454883292231,66.0979400857072,57.49632021182499,6.47544875391759e-05,0.0906038731336593,0,0,0
5488,186805.6152860166,2010-10-10 18:23:00,5912.969879284525,2,16,0.5501165986061096,4.182007789611816,16.622151134803744,15.687454883292231,66.1171144483525,57.49632021182499,9.71794142969884e-05,0.0906038731336593,0,0,0
5489,186835.63040632184,2010-10-10 18:23:30,5942.984999609796,2,16,0.550297200679779,4.185730934143066,16.62673807521401,15.687454883292231,66.13630538859042,57.49632021182499,0.0001295089750783,0.0906038731336593,0,0,0
5490,186865.6457518284,2010-10-10 18:24:00,5973.000345111277,2,16,0.5501165986061096,4.189454555511475,16.63132496569618,15.687454883292231,66.15551305441849,57.49632021182499,0.0001295089750783,0.0906038731336593,0,0,0
5491,186895.66086185296,2010-10-10 18:24:30,6003.01545510079,2,16,0.5501165986061096,4.193177700042725,16.63591184633341,15.687454883292231,66.17473767744782,57.49632021182499,0.0001295089750783,0.0906038731336593,0,0,0
5492,186925.67623882784,2010-10-10 18:25:00,6033.030832115811,2,16,0.550297200679779,4.196900844573975,16.640498780699314,15.687454883292231,66.1939796471261,57.49632021182499,9.70840483205393e-05,0.0906038731336593,0,0,0
5493,186950.56660841245,2010-10-10 18:25:25,6057.921201845754,2,16,0.5501165986061096,4.200138568878174,16.64430255725709,15.687454883292231,66.20994939268806,57.49632021182499,0.0001295089750783,0.0906038731336593,0,0,0
5494,186980.5851475972,2010-10-10 18:25:55,30.015181407507946,3,16,0.0,4.122271537780762,16.64430255725709,15.687454883292231,66.20994939268806,57.49632021182499,-0.0003561973571777,0.0906038731336593,0,0,0
5495,187010.60040555545,2010-10-10 18:26:25,60.03043936580401,3,16,0.0,4.112720489501953,16.64430255725709,15.687454883292231,66.20994939268806,57.49632021182499,-0.0001619339018361,0.0906038731336593,0,0,0
5496,187040.6158931962,2010-10-10 18:26:55,90.04592703661433,3,16,0.0,4.107216358184815,16.64430255725709,15.687454883292231,66.20994939268806,57.49632021182499,-9.71794142969884e-05,0.0906038731336593,0,0,0
5497,187070.58397882656,2010-10-10 18:27:25,120.0140126368796,3,16,0.0,4.1034932136535645,16.64430255725709,15.687454883292231,66.20994939268806,57.49632021182499,-0.0001295089750783,0.0906038731336593,0,0,0
5498,187070.58910866064,2010-10-10 18:27:25,2.486196366e-06,4,16,0.9931511878967284,4.199653148651123,16.64430255794297,15.687454883292231,66.20994939556851,57.49632021182499,0.0,0.0906038731336593,0,0,0
5499,187071.4015605607,2010-10-10 18:27:26,0.812454371279188,4,16,0.9423999786376952,4.199653148651123,16.64451925208044,15.687454883292231,66.21085943303012,57.49632021182499,0.0,0.0906038731336593,0,0,0
5500,187073.4171806512,2010-10-10 18:27:28,2.828074496822851,4,16,0.8923711776733398,4.199653148651123,16.645031758877867,15.687454883292231,66.21301177421573,57.49632021182499,0.0,0.0906038731336593,0,0,0
5501,187076.5264960619,2010-10-10 18:27:31,5.937389907538789,4,16,0.8423424363136292,4.199653148651123,16.64577963108196,15.687454883292231,66.21615256432216,57.49632021182499,0.0,0.0906038731336593,0,0,0
5502,187080.77649857587,2010-10-10 18:27:35,10.187392406459177,4,16,0.7921330332756042,4.199653148651123,16.64674308878312,15.687454883292231,66.22019874580492,57.49632021182499,-3.23295607813634e-05,0.0906038731336593,0,0,0
5503,187086.32351397505,2010-10-10 18:27:41,15.734407890820195,4,16,0.7421042919158936,4.199653148651123,16.64792351378814,15.687454883292231,66.22515612863705,57.49632021182499,0.0,0.0906038731336593,0,0,0
5504,187093.47941577417,2010-10-10 18:27:48,22.89030957964465,4,16,0.6920754909515381,4.199491024017334,16.649346677509502,15.687454883292231,66.2311329632767,57.49632021182499,-3.24249267578125e-05,0.0906038731336593,0,0,0
5505,187102.88560443048,2010-10-10 18:27:57,32.296498301150564,4,16,0.6420467495918274,4.199814796447754,16.65108665097312,15.687454883292231,66.23844025903956,57.49632021182499,3.23295607813634e-05,0.0906038731336593,0,0,0
5506,187115.82309790497,2010-10-10 18:28:10,45.23399181575619,4,16,0.5920179486274719,4.199491024017334,16.653299262913634,15.687454883292231,66.24773240684775,57.49632021182499,0.0,0.0906038731336593,0,0,0
5507,187134.854006946,2010-10-10 18:28:29,64.26490075650081,4,16,0.5418086051940918,4.199491024017334,16.656288658404247,15.687454883292231,66.26028672123398,57.49632021182499,-3.24249267578125e-05,0.0906038731336593,0,0,0
5508,187166.57477888488,2010-10-10 18:29:01,95.98567282072244,4,16,0.4917798042297363,4.199653148651123,16.660825872641666,15.687454883292231,66.27934123690704,57.49632021182499,0.0,0.0906038731336593,0,0,0
5509,187221.89973182065,2010-10-10 18:29:57,151.31062565625095,4,16,0.4417510628700256,4.199491024017334,16.66796705128468,15.687454883292231,66.30933139926505,57.49632021182499,-3.24249267578125e-05,0.0906038731336593,0,0,0
5510,187308.60160413897,2010-10-10 18:31:23,238.01249800965485,4,16,0.3917222917079925,4.199653148651123,16.6779769745097,15.687454883292231,66.35136975811707,57.49632021182499,0.0,0.0906038731336593,0,0,0
5511,187419.3658293545,2010-10-10 18:33:14,348.77672320514205,4,16,0.3415128886699676,4.199491024017334,16.689244036545414,15.687454883292231,66.39868771595278,57.49632021182499,-3.24249267578125e-05,0.0906038731336593,0,0,0
5512,187554.5984525716,2010-10-10 18:35:29,484.0093463721121,4,16,0.2914841175079345,4.199653148651123,16.701123116892475,15.687454883292231,66.44857594045523,57.49632021182499,-3.23295607813634e-05,0.0906038731336593,0,0,0
5513,187716.72135982543,2010-10-10 18:38:11,646.1322536710726,4,16,0.241274744272232,4.199653148651123,16.71309865479366,15.687454883292231,66.49886933434948,57.49632021182499,-3.23295607813634e-05,0.0906038731336593,0,0,0
5514,187917.93749234537,2010-10-10 18:41:33,847.3483861759307,4,16,0.1912459880113601,4.199653148651123,16.72515410587164,15.687454883292231,66.54949828482556,57.49632021182499,0.0,0.0906038731336593,0,0,0
5515,188185.99655592156,2010-10-10 18:46:01,1115.4074497370368,4,16,0.1410365998744964,4.199653148651123,16.737455358214632,15.687454883292231,66.60115951294118,57.49632021182499,0.0,0.0906038731336593,0,0,0
5516,188586.31948623512,2010-10-10 18:52:41,1515.7303800757272,4,16,0.0910078287124633,4.199491024017334,16.75017394180724,15.687454883292231,66.65457336750885,57.49632021182499,-3.24249267578125e-05,0.0906038731336593,0,0,0
5517,189177.2650851019,2010-10-10 19:02:32,2106.675978962568,4,16,0.0496483072638511,4.199491024017334,16.761425317222336,15.687454883292231,66.70182551367185,57.49632021182499,-6.47544875391759e-05,0.0906038731336593,0,0,0
5518,189207.28129710865,2010-10-10 19:03:02,30.015224108933037,5,16,0.0,4.192692279815674,16.761425317222336,15.687454883292231,66.70182551367185,57.49632021182499,0.0,0.0906038731336593,0,0,0
5519,189237.2810467003,2010-10-10 19:03:32,60.01497371564516,5,16,0.0,4.191397190093994,16.761425317222336,15.687454883292231,66.70182551367185,57.49632021182499,-6.47544875391759e-05,0.0906038731336593,0,0,0
5520,189237.47220384527,2010-10-10 19:03:32,0.189412013017058,6,16,-1.9243103452026844e-05,4.191397190093994,16.761425317222336,15.687454884304698,66.70182551367185,57.49632021606863,0.0,0.0898760333657264,0,0,0
5521,189242.3007028655,2010-10-10 19:03:37,5.017911128504889,6,16,0.0010644125286489,4.191397190093994,16.761426191048216,15.68745488437848,66.70182917629653,57.49632021637787,-3.23295607813634e-05,0.0898760333657264,0,0,0
5522,189272.3155480063,2010-10-10 19:04:07,30.015235828140906,7,16,-1.099568486213684,4.031777858734131,16.761426191048216,15.696624123519095,66.70182917629653,57.53346398229084,-0.000841712928377,0.0898760333657264,0,0,0
5523,189302.33077352875,2010-10-10 19:04:37,60.03046138568432,7,16,-1.0997490882873535,4.008627891540527,16.761426191048216,15.705793351420963,66.70182917629653,57.57031733792493,-0.0004857063177041,0.0898760333657264,0,0,0
5524,189332.3461838869,2010-10-10 19:05:07,90.04587167864524,7,16,-1.0997490882873535,3.9927632808685294,16.761426191048216,15.714962565707443,66.70182917629653,57.60699653013267,-0.0003561019839253,0.0898760333657264,0,0,0
5525,189362.3612555258,2010-10-10 19:05:37,120.06094337772603,7,16,-1.099568486213684,3.9802980422973633,16.761426191048216,15.724131693233725,66.70182917629653,57.64354747946384,-0.0002913951757363,0.0898760333657264,0,0,0
5526,189392.37651305803,2010-10-10 19:06:07,150.07620084981033,7,16,-1.0997490882873535,3.969451665878296,16.761426191048216,15.733300798519451,66.70182917629653,57.67999215201432,-0.0002590179501567,0.0898760333657264,0,0,0
5527,189422.39375697591,2010-10-10 19:06:37,180.09344480281626,7,16,-1.0997490882873535,3.959576606750488,16.761426191048216,15.742470946991697,66.70182917629653,57.71634693581672,-0.0002266406954731,0.0898760333657264,0,0,0
5528,189452.40697152645,2010-10-10 19:07:07,210.1066594435362,7,16,-1.0997490882873535,3.9505109786987305,16.761426191048216,15.751640180774109,66.70182917629653,57.75261155057349,-0.0002266406954731,0.0898760333657264,0,0,0
5529,189482.42223974533,2010-10-10 19:07:37,240.1219276573923,7,16,-1.099568486213684,3.9417691230773926,16.761426191048216,15.760809699381392,66.70182917629653,57.788795273053225,-0.0002266406954731,0.0898760333657264,0,0,0
5530,189512.43748536787,2010-10-10 19:08:07,270.13717318470646,7,16,-1.0997490882873535,3.9333510398864746,16.761426191048216,15.76997886558032,66.70182917629653,57.824899262920354,-0.0002266406954731,0.0898760333657264,0,0,0
5531,189542.45289088396,2010-10-10 19:08:37,300.1525787107869,7,16,-1.099929690361023,3.925094842910767,16.761426191048216,15.779148092349256,66.70182917629653,57.86092708135023,-0.0001942634553415,0.0898760333657264,0,0,0
5532,189572.46806812103,2010-10-10 19:09:07,330.1677559529134,7,16,-1.0997490882873535,3.9168386459350586,16.761426191048216,15.788317288705038,66.70182917629653,57.89687954781214,-0.0002590179501567,0.0898760333657264,0,0,0
5533,189602.48330366847,2010-10-10 19:09:37,360.1829915254172,7,16,-1.099929690361023,3.90874457359314,16.761426191048216,15.797486544288246,66.70182917629653,57.932758084946606,-0.0002913951757363,0.0898760333657264,0,0,0
5534,189632.49842523684,2010-10-10 19:10:07,390.1981130336377,7,16,-1.099568486213684,3.901135921478272,16.761426191048216,15.80665578254336,66.70182917629653,57.96856353525654,-0.0001618862152099,0.0898760333657264,0,0,0
5535,189662.51365767152,2010-10-10 19:10:37,420.21334549839605,7,16,-1.099568486213684,3.8935272693634033,16.761426191048216,15.815824943672917,66.70182917629653,58.00429687972383,-0.0001618862152099,0.0898760333657264,0,0,0
5536,189692.5288992941,2010-10-10 19:11:07,450.228587085891,7,16,-1.0997490882873535,3.8855948448181152,16.761426191048216,15.824994139950029,66.70182917629653,58.039959872778496,-0.0001942634553415,0.0898760333657264,0,0,0
5537,189722.5441992972,2010-10-10 19:11:38,480.24388711905056,7,16,-1.099568486213684,3.877986192703247,16.761426191048216,15.834163407742423,66.70182917629653,58.07555265026927,-0.0001618862152099,0.0898760333657264,0,0,0
5538,189752.5593197929,2010-10-10 19:12:08,510.259007629785,7,16,-1.099929690361023,3.870377540588379,16.761426191048216,15.843332551648828,66.70182917629653,58.11107573005122,-0.0002266406954731,0.0898760333657264,0,0,0
5539,189782.57460141016,2010-10-10 19:12:38,540.2742892520589,7,16,-1.0997490882873535,3.86309266090393,16.761426191048216,15.852501789514925,66.70182917629653,58.14653084078789,-0.0002266406954731,0.0898760333657264,0,0,0
5540,189812.5899552775,2010-10-10 19:13:08,570.2896431294149,7,16,-1.099929690361023,3.855645895004273,16.761426191048216,15.861671035100503,66.70182917629653,58.181918481483,-0.0002266406954731,0.0898760333657264,0,0,0
5541,189842.60508883576,2010-10-10 19:13:38,600.3047766525802,7,16,-1.0997490882873535,3.848522901535034,16.761426191048216,15.870840239034695,66.70182917629653,58.21723968873902,-0.0001942634553415,0.0898760333657264,0,0,0
5542,189872.62033543072,2010-10-10 19:14:08,630.3200232275055,7,16,-1.0997490882873535,3.841561794281006,16.761426191048216,15.880009469326763,66.70182917629653,58.25249582080522,-0.0002266406954731,0.0898760333657264,0,0,0
5543,189902.63577799912,2010-10-10 19:14:38,660.3354659162065,7,16,-1.0997490882873535,3.834762573242188,16.761426191048216,15.889178834888748,66.70182917629653,58.2876876301017,-0.0001295089750783,0.0898760333657264,0,0,0
5544,189932.65079315729,2010-10-10 19:15:08,690.3504809490577,7,16,-1.0997490882873535,3.827639818191528,16.761426191048216,15.898347998624716,66.70182917629653,58.32281468085344,-0.0001618862152099,0.0898760333657264,0,0,0
5545,189962.666049266,2010-10-10 19:15:38,720.3657370627565,7,16,-1.099929690361023,3.82084059715271,16.761426191048216,15.907517294505446,66.70182917629653,58.35787952641238,-0.0001618862152099,0.0898760333657264,0,0,0
5546,189992.68128052773,2010-10-10 19:16:08,750.3809683545913,7,16,-1.0997490882873535,3.814041376113892,16.761426191048216,15.916686585720196,66.70182917629653,58.39288277107266,-0.0001618862152099,0.0898760333657264,0,0,0
5547,190022.6985856432,2010-10-10 19:16:38,780.3982734750455,7,16,-1.0997490882873535,3.807565927505493,16.761426191048216,15.925856461163304,66.70182917629653,58.42782699174034,-0.0001618862152099,0.0898760333657264,0,0,0
5548,190052.71175069528,2010-10-10 19:17:08,810.4114385171506,7,16,-1.099568486213684,3.8012523651123047,16.761426191048216,15.935025117767063,66.70182917629653,58.462707165779634,-0.0001295089750783,0.0898760333657264,0,0,0
5549,190082.7269868292,2010-10-10 19:17:38,840.4266746761158,7,16,-1.0997490882873535,3.794776916503906,16.761426191048216,15.94419437889661,66.70182917629653,58.497531411926495,-0.0001618862152099,0.0898760333657264,0,0,0
5550,190112.7422329981,2010-10-10 19:18:08,870.4419208249792,7,16,-1.099929690361023,3.7887871265411377,16.761426191048216,15.953363642373317,66.70182917629653,58.532298956500114,-9.713172767078504e-05,0.0898760333657264,0,0,0
5551,190142.7574634729,2010-10-10 19:18:38,900.4571512997779,7,16,-1.0997490882873535,3.782635450363159,16.761426191048216,15.962533020076126,66.70182917629653,58.5670111980366,-0.0001618862152099,0.0898760333657264,0,0,0
5552,190172.77271664928,2010-10-10 19:19:08,930.472404466131,7,16,-1.099929690361023,3.7764837741851807,16.761426191048216,15.971702339472454,66.70182917629653,58.60166838516983,-0.0001618862152099,0.0898760333657264,0,0,0
5553,190202.78793752016,2010-10-10 19:19:38,960.4876253420064,7,16,-1.0997490882873535,3.770979642868042,16.761426191048216,15.980871633630848,66.70182917629653,58.63627186801225,-0.0001618862152099,0.0898760333657264,0,0,0
5554,190232.8033219136,2010-10-10 19:20:08,990.5030097554676,7,16,-1.099568486213684,3.765313625335693,16.761426191048216,15.990040927976835,66.70182917629653,58.670822637298805,-0.0001295089750783,0.0898760333657264,0,0,0
5555,190262.818413422,2010-10-10 19:20:38,1020.5181012188068,7,16,-1.0997490882873535,3.7596476078033447,16.761426191048216,15.999210195391234,66.70182917629653,58.70532152125732,-0.0001295089750783,0.0898760333657264,0,0,0
5556,190292.8336486036,2010-10-10 19:21:08,1050.5333364253986,7,16,-1.0997490882873535,3.754143476486206,16.761426191048216,16.00837949910212,66.70182917629653,58.739769638895766,-0.0001618862152099,0.0898760333657264,0,0,0
5557,190322.84888958457,2010-10-10 19:21:38,1080.5485774113945,7,16,-1.0997490882873535,3.748801469802856,16.761426191048216,16.017548806687326,66.70182917629653,58.77416778201663,-0.0001295089750783,0.0898760333657264,0,0,0
5558,190352.8641312472,2010-10-10 19:22:08,1110.5638190740767,7,16,-1.099568486213684,3.7436211109161377,16.761426191048216,16.026718131582836,66.70182917629653,58.8085168192491,-9.713172767078504e-05,0.0898760333657264,0,0,0
5559,190382.8793912105,2010-10-10 19:22:38,1140.5790790323576,7,16,-1.0997490882873535,3.738278865814209,16.761426191048216,16.035887401900744,66.70182917629653,58.84281786926968,-0.0001295089750783,0.0898760333657264,0,0,0
5560,190412.89461873297,2010-10-10 19:23:08,1170.5943065598103,7,16,-1.0997490882873535,3.7332603931427,16.761426191048216,16.0450565953188,66.70182917629653,58.87707142104818,-9.713172767078504e-05,0.0898760333657264,0,0,0
5561,190442.90983532817,2010-10-10 19:23:38,1200.609523215167,7,16,-1.0997490882873535,3.728080034255981,16.761426191048216,16.054225930226544,66.70182917629653,58.91127884092544,-0.0001618862152099,0.0898760333657264,0,0,0
5562,190472.92507683043,2010-10-10 19:24:08,1230.6247646272247,7,16,-1.0997490882873535,3.7230615615844727,16.761426191048216,16.063395215717964,66.70182917629653,58.94544095688887,-0.0001295089750783,0.0898760333657264,0,0,0
5563,190502.9404389684,2010-10-10 19:24:38,1260.640126800256,7,16,-1.0997490882873535,3.718366861343384,16.761426191048216,16.072564515747377,66.70182917629653,58.979557871174,-0.0001295089750783,0.0898760333657264,0,0,0
5564,190532.95566899708,2010-10-10 19:25:08,1290.6553568289428,7,16,-1.099568486213684,3.713510274887085,16.761426191048216,16.081733741956757,66.70182917629653,59.01362996311626,-0.0001295089750783,0.0898760333657264,0,0,0
5565,190562.97078933736,2010-10-10 19:25:38,1320.6704771893026,7,16,-1.0997490882873535,3.708815574645996,16.761426191048216,16.090903057505997,66.70182917629653,59.04765843790927,-0.0001295089750783,0.0898760333657264,0,0,0
5566,190592.9861336559,2010-10-10 19:26:08,1350.6858216281346,7,16,-1.099929690361023,3.7041208744049072,16.761426191048216,16.100072371457227,66.70182917629653,59.08164385491082,-9.713172767078504e-05,0.0898760333657264,0,0,0
5567,190623.0032302416,2010-10-10 19:26:38,1380.7029180735062,7,16,-1.0997490882873535,3.6994261741638175,16.761426191048216,16.109242284670206,66.70182917629653,59.11558891966585,-0.0001295089750783,0.0898760333657264,0,0,0
5568,190653.01651043573,2010-10-10 19:27:08,1410.716198292668,7,16,-1.0997490882873535,3.69489336013794,16.761426191048216,16.118410968628602,66.70182917629653,59.149487375828045,-9.713172767078504e-05,0.0898760333657264,0,0,0
5569,190683.0318659873,2010-10-10 19:27:38,1440.7315538441962,7,16,-1.0997490882873535,3.690360546112061,16.761426191048216,16.127580273946336,66.70182917629653,59.18334661253307,-0.0001295089750783,0.0898760333657264,0,0,0
5570,190713.0469962172,2010-10-10 19:28:08,1470.746684014004,7,16,-1.099568486213684,3.685989618301392,16.761426191048216,16.136749504445042,66.70182917629653,59.21716439402073,-9.713172767078504e-05,0.0898760333657264,0,0,0
5571,190743.06234618483,2010-10-10 19:28:38,1500.7620339966534,7,16,-1.0997490882873535,3.681618690490722,16.761426191048216,16.14591886998904,66.70182917629653,59.25094236572926,-9.713172767078504e-05,0.0898760333657264,0,0,0
5572,190773.07757426868,2010-10-10 19:29:08,1530.7772620955302,7,16,-1.0997490882873535,3.6772477626800537,16.761426191048216,16.15508814704488,66.70182917629653,59.284680204578976,-0.0001295089750783,0.0898760333657264,0,0,0
5573,190803.0929350232,2010-10-10 19:29:38,1560.7926228550386,7,16,-1.0997490882873535,3.6730387210845943,16.761426191048216,16.164257442091287,66.70182917629653,59.31837914428244,-9.713172767078504e-05,0.0898760333657264,0,0,0
5574,190833.1079526776,2010-10-10 19:30:08,1590.807640474336,7,16,-1.099929690361023,3.668829917907715,16.761426191048216,16.173426730518024,66.70182917629653,59.35203941721581,-0.0001295089750783,0.0898760333657264,0,0,0
5575,190863.1256395144,2010-10-10 19:30:38,1620.8253274013696,7,16,-1.0997490882873535,3.664620876312256,16.761426191048216,16.182596836906207,66.70182917629653,59.38566468255616,-0.0001618862152099,0.0898760333657264,0,0,0
5576,190893.13854318,2010-10-10 19:31:08,1650.8382309818317,7,16,-1.0997490882873535,3.660573720932007,16.761426191048216,16.19176547965954,66.70182917629653,59.41924737712203,-0.0001618862152099,0.0898760333657264,0,0,0
5577,190923.15365285875,2010-10-10 19:31:38,1680.8533406505444,7,16,-1.1001102924346924,3.656688451766968,16.761426191048216,16.200934818327166,66.70182917629653,59.4527959803217,-0.0001295089750783,0.0898760333657264,0,0,0
5578,190953.1689034888,2010-10-10 19:32:08,1710.8685912855888,7,16,-1.099929690361023,3.6528031826019287,16.761426191048216,16.210104148424808,66.70182917629653,59.48630870952347,-0.0001295089750783,0.0898760333657264,0,0,0
5579,190983.18424939128,2010-10-10 19:32:38,1740.8839372231562,7,16,-1.0997490882873535,3.6490797996521,16.761426191048216,16.219273464758835,66.70182917629653,59.51978616534573,-0.0001295089750783,0.0898760333657264,0,0,0
5580,191013.2005746396,2010-10-10 19:33:08,1770.9002624664547,7,16,-1.099929690361023,3.645194530487061,16.761426191048216,16.228442996996783,66.70182917629653,59.553229553971,-0.0001618862152099,0.0898760333657264,0,0,0
5581,191043.21464016096,2010-10-10 19:33:38,1800.914328017906,7,16,-1.0997490882873535,3.6416330337524414,16.761426191048216,16.237611857044723,66.70182917629653,59.58663660725961,-0.0001295089750783,0.0898760333657264,0,0,0
5582,191073.22988125723,2010-10-10 19:34:08,1830.9295690891145,7,16,-1.099568486213684,3.638233423233032,16.761426191048216,16.246781019462958,66.70182917629653,59.62001160955446,-9.713172767078504e-05,0.0898760333657264,0,0,0
5583,191103.24507811823,2010-10-10 19:34:38,1860.9447659401123,7,16,-1.099929690361023,3.634510040283203,16.761426191048216,16.25595018795094,66.70182917629653,59.65335442714028,-0.0001295089750783,0.0898760333657264,0,0,0
5584,191133.26045106817,2010-10-10 19:35:08,1890.9601390103023,7,16,-1.0997490882873535,3.631272315979004,16.761426191048216,16.265119480976306,66.70182917629653,59.68666616917984,-9.713172767078504e-05,0.0898760333657264,0,0,0
5585,191163.27566922727,2010-10-10 19:35:38,1920.975357059132,7,16,-1.099568486213684,3.6280345916748047,16.761426191048216,16.274288736709007,66.70182917629653,59.7199470713903,-6.47544875391759e-05,0.0898760333657264,0,0,0
5586,191193.2908184596,2010-10-10 19:36:08,1950.990506256362,7,16,-1.0997490882873535,3.6247968673706055,16.761426191048216,16.283457889944106,66.70182917629653,59.75319769438478,-6.47544875391759e-05,0.0898760333657264,0,0,0
5587,191223.3080042326,2010-10-10 19:36:38,1981.007692094528,7,16,-1.0997490882873535,3.6215591430664062,16.761426191048216,16.292627707845558,66.70182917629653,59.78642176587487,-6.47544875391759e-05,0.0898760333657264,0,0,0
5588,191253.3214031275,2010-10-10 19:37:08,2011.0210909243035,7,16,-1.0997490882873535,3.618807077407837,16.761426191048216,16.30179647165892,66.70182917629653,59.81961364358949,-3.237724376958795e-05,0.0898760333657264,0,0,0
5589,191283.33664224888,2010-10-10 19:37:38,2041.0363300757272,7,16,-1.099568486213684,3.615731239318848,16.761426191048216,16.310965752214607,66.70182917629653,59.85277997034066,-6.47544875391759e-05,0.0898760333657264,0,0,0
5590,191313.351763737,2010-10-10 19:38:08,2071.0514515338227,7,16,-1.0997490882873535,3.612817287445069,16.761426191048216,16.320134985631057,66.70182917629653,59.88591933599422,-6.47544875391759e-05,0.0898760333657264,0,0,0
5591,191343.3669932745,2010-10-10 19:38:38,2101.066681066273,7,16,-1.0997490882873535,3.609903335571289,16.761426191048216,16.3293042972389,66.70182917629653,59.91903267634314,-6.47544875391759e-05,0.0898760333657264,0,0,0
5592,191373.3823955425,2010-10-10 19:39:08,2131.082083434483,7,16,-1.0997490882873535,3.60715126991272,16.761426191048216,16.33847360862847,66.70182917629653,59.952120391809885,-6.47544875391759e-05,0.0898760333657264,0,0,0
5593,191403.3975255669,2010-10-10 19:39:38,2161.0972133987784,7,16,-1.0997490882873535,3.604237318038941,16.761426191048216,16.347642788542895,66.70182917629653,59.985182247363134,-9.713172767078504e-05,0.0898760333657264,0,0,0
5594,191433.4127541821,2010-10-10 19:40:08,2191.1124420039173,7,16,-1.099568486213684,3.601809024810791,16.761426191048216,16.35681199770683,66.70182917629653,60.01821952806698,-6.47544875391759e-05,0.0898760333657264,0,0,0
5595,191463.4279497148,2010-10-10 19:40:38,2221.1276375366297,7,16,-1.099929690361023,3.5990569591522217,16.761426191048216,16.365981305798385,66.70182917629653,60.051232565234336,-9.713172767078504e-05,0.0898760333657264,0,0,0
5596,191493.44343010243,2010-10-10 19:41:08,2251.143117924288,7,16,-1.0997490882873535,3.5963048934936523,16.761426191048216,16.37515068494111,66.70182917629653,60.08422159938859,-6.47544875391759e-05,0.0898760333657264,0,0,0
5597,191523.4584273309,2010-10-10 19:41:38,2281.1581151527657,7,16,-1.0997490882873535,3.593876600265503,16.761426191048216,16.384319972810584,66.70182917629653,60.11718599365346,-6.47544875391759e-05,0.0898760333657264,0,0,0
5598,191553.4736858356,2010-10-10 19:42:08,2311.173373667448,7,16,-1.0997490882873535,3.5911247730255127,16.761426191048216,16.393489269277904,66.70182917629653,60.15012639439127,-6.47544875391759e-05,0.0898760333657264,0,0,0
5599,191583.48890543828,2010-10-10 19:42:38,2341.188593235063,7,16,-1.099568486213684,3.5886964797973637,16.761426191048216,16.40265854506129,66.70182917629653,60.18304232788897,0.0,0.0898760333657264,0,0,0
5600,191613.504266268,2010-10-10 19:43:08,2371.2039540697583,7,16,-1.0997490882873535,3.585944414138794,16.761426191048216,16.411827912467984,66.70182917629653,60.21593427363242,-6.47544875391759e-05,0.0898760333657264,0,0,0
5601,191643.51939838764,2010-10-10 19:43:39,2401.219086204464,7,16,-1.0997490882873535,3.5831923484802246,16.761426191048216,16.42099719974263,66.70182917629653,60.24880128785432,-6.47544875391759e-05,0.0898760333657264,0,0,0
5602,191673.5347590519,2010-10-10 19:44:09,2431.234446873747,7,16,-1.099929690361023,3.5802783966064453,16.761426191048216,16.43016657741898,66.70182917629653,60.28164388774368,-9.713172767078504e-05,0.0898760333657264,0,0,0
5603,191703.54986138231,2010-10-10 19:44:39,2461.24954918412,7,16,-1.099568486213684,3.577688217163086,16.761426191048216,16.43933589329756,66.70182917629653,60.31446097122698,-9.713172767078504e-05,0.0898760333657264,0,0,0
5604,191733.5651276062,2010-10-10 19:45:09,2491.26481545313,7,16,-1.0997490882873535,3.574774265289306,16.761426191048216,16.44850523009902,66.70182917629653,60.34725221728237,-9.713172767078504e-05,0.0898760333657264,0,0,0
5605,191763.58047615027,2010-10-10 19:45:39,2521.280163957093,7,16,-1.0997490882873535,3.571860313415528,16.761426191048216,16.457674585736353,66.70182917629653,60.38001706581361,-6.47544875391759e-05,0.0898760333657264,0,0,0
5606,191793.59571884555,2010-10-10 19:46:09,2551.2954066573616,7,16,-1.0997490882873535,3.568784475326538,16.761426191048216,16.466843912732735,66.70182917629653,60.412754703908654,-9.713172767078504e-05,0.0898760333657264,0,0,0
5607,191823.6129850239,2010-10-10 19:46:39,2581.312672845785,7,16,-1.0997490882873535,3.565708637237549,16.761426191048216,16.47601384718559,66.70182917629653,60.44546648103061,-6.47544875391759e-05,0.0898760333657264,0,0,0
5608,191853.62609124443,2010-10-10 19:47:09,2611.325779091351,7,16,-1.0997490882873535,3.56263279914856,16.761426191048216,16.485182541047532,66.70182917629653,60.478144842630265,-6.47544875391759e-05,0.0898760333657264,0,0,0
5609,191883.64130689728,2010-10-10 19:47:39,2641.340994729171,7,16,-1.0997490882873535,3.5592331886291504,16.761426191048216,16.494351834905675,66.70182917629653,60.51079589251787,-9.713172767078504e-05,0.0898760333657264,0,0,0
5610,191913.656657692,2010-10-10 19:48:09,2671.356345523844,7,16,-1.099568486213684,3.5556716918945312,16.761426191048216,16.503521086914244,66.70182917629653,60.54341553500956,-0.0001295089750783,0.0898760333657264,0,0,0
5611,191943.6717571001,2010-10-10 19:48:39,2701.3714449570466,7,16,-1.0997490882873535,3.552110195159912,16.761426191048216,16.512690367395862,66.70182917629653,60.57600264232923,-9.713172767078504e-05,0.0898760333657264,0,0,0
5612,191973.687000853,2010-10-10 19:49:09,2731.386688679864,7,16,-1.099929690361023,3.548386812210083,16.761426191048216,16.52185972190292,66.70182917629653,60.608556366034335,-9.713172767078504e-05,0.0898760333657264,0,0,0
5613,192003.70236064508,2010-10-10 19:49:39,2761.402048502036,7,16,-1.099568486213684,3.544501543045044,16.761426191048216,16.531029143476477,66.70182917629653,60.64107528792847,-9.713172767078504e-05,0.0898760333657264,0,0,0
5614,192033.71748320595,2010-10-10 19:50:09,2791.417171027792,7,16,-1.099568486213684,3.540616273880005,16.761426191048216,16.540198459156628,66.70182917629653,60.67355760115935,-9.713172767078504e-05,0.0898760333657264,0,0,0
5615,192063.7327376004,2010-10-10 19:50:39,2821.432425417194,7,16,-1.099568486213684,3.536407232284546,16.761426191048216,16.54936780368891,66.70182917629653,60.70600262331567,-9.713172767078504e-05,0.0898760333657264,0,0,0
5616,192093.7480954175,2010-10-10 19:51:09,2851.447783229356,7,16,-1.099568486213684,3.532198190689087,16.761426191048216,16.55853720220351,66.70182917629653,60.73840930644443,-6.47544875391759e-05,0.0898760333657264,0,0,0
5617,192123.7631916628,2010-10-10 19:51:39,2881.4628794846385,7,16,-1.099568486213684,3.527827262878418,16.761426191048216,16.56770646377668,66.70182917629653,60.77077610713082,-6.47544875391759e-05,0.0898760333657264,0,0,0
5618,192153.77844323515,2010-10-10 19:52:09,2911.478131087094,7,16,-1.0997490882873535,3.523132562637329,16.761426191048216,16.576875837082014,66.70182917629653,60.8031021011682,-9.713172767078504e-05,0.0898760333657264,0,0,0
5619,192183.79367382528,2010-10-10 19:52:39,2941.493361652117,7,16,-1.0997490882873535,3.51843786239624,16.761426191048216,16.58604520503436,66.70182917629653,60.83538527861193,-9.713172767078504e-05,0.0898760333657264,0,0,0
5620,192213.80890943285,2010-10-10 19:53:09,2971.508597229634,7,16,-1.0993878841400146,3.5134193897247314,16.761426191048216,16.595214074985776,66.70182917629653,60.86762160030112,-9.713172767078504e-05,0.0898760333657264,0,0,0
5621,192243.82412666964,2010-10-10 19:53:39,3001.523814461427,7,16,-1.099929690361023,3.507753610610962,16.761426191048216,16.604382694490624,66.70182917629653,60.899808947982905,-0.0001618862152099,0.0898760333657264,0,0,0
5622,192273.839406723,2010-10-10 19:54:09,3031.539094549878,7,16,-1.0997490882873535,3.5019257068634038,16.761426191048216,16.613551904868626,66.70182917629653,60.93194591522229,-0.0001618862152099,0.0898760333657264,0,0,0
5623,192303.85468173385,2010-10-10 19:54:39,3061.554369535612,7,16,-1.0997490882873535,3.495288372039795,16.761426191048216,16.62272130711146,66.70182917629653,60.964026093326034,-0.0001618862152099,0.0898760333657264,0,0,0
5624,192333.86988664992,2010-10-10 19:55:09,3091.5695744517107,7,16,-1.099568486213684,3.4880034923553467,16.761426191048216,16.63189075936473,66.70182917629653,60.99604205774827,-0.0001618862152099,0.0898760333657264,0,0,0
5625,192363.88515284372,2010-10-10 19:55:39,3121.5848406756068,7,16,-1.099568486213684,3.479099750518799,16.761426191048216,16.641060154191386,66.70182917629653,61.027983880866,-0.0002266406954731,0.0898760333657264,0,0,0
5626,192393.90046838555,2010-10-10 19:56:09,3151.600156227444,7,16,-1.0997490882873535,3.468577146530152,16.761426191048216,16.650229609547978,66.70182917629653,61.05983828608168,-0.0002913951757363,0.0898760333657264,0,0,0
5627,192423.9177453859,2010-10-10 19:56:39,3181.6174333230515,7,16,-1.0997490882873535,3.4554643630981445,16.761426191048216,16.659399653942952,66.70182917629653,61.09158807918145,-0.0004209041653666,0.0898760333657264,0,0,0
5628,192453.93102735945,2010-10-10 19:57:09,3211.630715281548,7,16,-1.0997490882873535,3.438466310501098,16.761426191048216,16.66856854497561,66.70182917629653,61.12319715321401,-0.0005180359003134,0.0898760333657264,0,0,0
5629,192483.9461724565,2010-10-10 19:57:39,3241.6458602933462,7,16,-1.0997490882873535,3.4148311614990234,16.761426191048216,16.677738008288177,66.70182917629653,61.15462385808234,-0.0007122993702068,0.0898760333657264,0,0,0
5630,192513.96137806927,2010-10-10 19:58:09,3271.6610659061816,7,16,-1.099929690361023,3.381158828735352,16.761426191048216,16.68690752397237,66.70182917629653,61.18579138725105,-0.0010684489971026,0.0898760333657264,0,0,0
5631,192543.97659628352,2010-10-10 19:58:39,3301.676284120423,7,16,-1.099568486213684,3.3325932025909424,16.761426191048216,16.69607704726764,66.70182917629653,61.2165856352084,-0.0015217304462566,0.0898760333657264,0,0,0
5632,192573.991836242,2010-10-10 19:59:09,3331.6915240688327,7,16,-1.0997490882873535,3.2628204822540283,16.761426191048216,16.705246545436125,66.70182917629653,61.24684354486707,-0.0021692276932299,0.0898760333657264,0,0,0
5633,192604.0070791528,2010-10-10 19:59:39,3361.7067669746134,7,16,-1.0997490882873535,3.162127494812012,16.761426191048216,16.71441603137079,66.70182917629653,61.27633225519136,-0.0032053471077233,0.0898760333657264,0,0,0
5634,192634.02232660988,2010-10-10 20:00:09,3391.72201443675,7,16,-1.0997490882873535,2.99716591835022,16.761426191048216,16.723585587722987,66.70182917629653,61.304649565884695,-0.005795526318252,0.0898760333657264,0,0,0
5635,192651.0065306673,2010-10-10 20:00:26,3408.7062184791325,7,16,-1.099929690361023,2.7967512607574463,16.761426191048216,16.72877415769685,66.70182917629653,61.31974698589983,-0.01236810721457,0.0898760333657264,0,0,0
5636,192656.5064035929,2010-10-10 20:00:32,3414.2060914197696,7,16,-1.099568486213684,2.699781894683838,16.761426191048216,16.730454325639233,66.70182917629653,61.3243659383361,-0.0142783168703317,0.0898760333657264,0,0,0
5637,192716.52035669755,2010-10-10 20:01:32,60.014964928745485,8,16,0.0,3.265410661697388,16.761426191048216,16.730454325639233,66.70182917629653,61.3243659383361,0.0012303352123126,0.0898760333657264,0,0,0
5638,192716.70748353287,2010-10-10 20:01:32,0.187492032835683,9,16,-1.9243103452026844e-05,3.265410661697388,16.761426191048216,16.730454326641436,66.70182917629653,61.324365941608704,0.0,0.0914128422737121,0,0,0
5639,192721.5355630977,2010-10-10 20:01:37,5.015571607699188,9,16,0.0001613661734154,3.272695302963257,16.761426961851324,16.73045432672513,66.70183169650811,61.324365941882,0.0010360240703448,0.0914128422737121,0,0,0
