Data_Point,Test_Time(s),Date_Time,Step_Time(s),Step_Index,Cycle_Index,Current(A),Voltage(V),Charge_Capacity(Ah),Discharge_Capacity(Ah),Charge_Energy(Wh),Discharge_Energy(Wh),dV/dt(V/s),Internal_Resistance(Ohm),Is_FC_Data,AC_Impedance(Ohm),ACI_Phase_Angle(Deg)
2113,72818.76084472363,2010-10-09 10:43:02,30.01518036992196,1,7,0.0,3.327412843704224,6.306737675183814,6.276477422285145,25.125255792473236,22.975273325922725,0.0007446765666827,0.0899572893977165,0,0,0
2114,72848.77604933396,2010-10-09 10:43:32,60.03038490005861,1,7,0.0,3.3497531414031982,6.306737675183814,6.276477422285145,25.125255792473236,22.975273325922725,0.0005180359003134,0.0899572893977165,0,0,0
2115,72878.79134879068,2010-10-09 10:44:02,90.04568434174404,1,7,0.0,3.366750955581665,6.306737675183814,6.276477422285145,25.125255792473236,22.975273325922725,0.0003885269106831,0.0899572893977165,0,0,0
2116,72908.75953284634,2010-10-09 10:44:32,120.01386851267776,1,7,0.0,3.380511283874512,6.306737675183814,6.276477422285145,25.125255792473236,22.975273325922725,0.0003561496851034,0.0899572893977165,0,0,0
2117,72938.77233645465,2010-10-09 10:45:02,30.01519223950461,2,7,0.5501165986061096,3.536892890930176,6.311324251408248,6.276477422285145,25.14130067702593,22.975273325922725,0.0017807483673095,0.0899572893977165,0,0,0
2118,72968.78744598302,2010-10-09 10:45:32,60.03030175784262,2,7,0.550297200679779,3.590315341949463,6.315910862571849,6.276477422285145,25.157652104363716,22.975273325922725,0.0012627125252038,0.0899572893977165,0,0,0
2119,72998.80265197679,2010-10-09 10:46:02,90.04550774160215,2,7,0.5499359965324402,3.629653453826904,6.320497498660385,6.276477422285145,25.174213589120164,22.975273325922725,0.0009389400365762,0.0899572893977165,0,0,0
2120,73028.81784866742,2010-10-09 10:46:32,120.06070446728768,2,7,0.5499359965324402,3.661221265792847,6.325084111357616,6.276477422285145,25.190936776179225,22.975273325922725,0.0007122993702068,0.0899572893977165,0,0,0
2121,73058.83305461105,2010-10-09 10:47:02,150.07591044102224,2,7,0.5501165986061096,3.687608480453491,6.32967069872987,6.276477422285145,25.207791561569245,22.975273325922725,0.0006151676061563,0.0899572893977165,0,0,0
2122,73088.84843566116,2010-10-09 10:47:32,180.0912914911009,2,7,0.550297200679779,3.709625005722046,6.33425731616796,6.276477422285145,25.224756640016388,22.975273325922725,0.0005827903514727,0.0899572893977165,0,0,0
2123,73118.865417952,2010-10-09 10:48:02,210.1082737468768,2,7,0.5501165986061096,3.728080034255981,6.338844210827251,6.276477422285145,25.24181552391733,22.975273325922725,0.0004856586456298,0.0899572893977165,0,0,0
2124,73148.8786792891,2010-10-09 10:48:32,240.1215351792159,2,7,0.5499359965324402,3.743135452270508,6.343430582489217,6.276477422285145,25.258949463480533,22.975273325922725,0.0003561496851034,0.0899572893977165,0,0,0
2125,73178.8941279577,2010-10-09 10:49:02,270.1369837626084,2,7,0.5499359965324402,3.754143476486206,6.34801726978449,6.276477422285145,25.276145274718804,22.975273325922725,0.0001942634553415,0.0899572893977165,0,0,0
2126,73208.90906822923,2010-10-09 10:49:32,300.1519239940313,2,7,0.5499359965324402,3.7607808113098153,6.352603856193095,6.276477422285145,25.29338079294283,22.975273325922725,0.0001295089750783,0.0899572893977165,0,0,0
2127,73238.92674354733,2010-10-09 10:50:02,330.1695994725315,2,7,0.550297200679779,3.764827966690064,6.357190838788906,6.276477422285145,25.310641041462315,22.975273325922725,9.713172767078504e-05,0.0899572893977165,0,0,0
2128,73268.93959396529,2010-10-09 10:50:32,360.182449745134,2,7,0.5499359965324402,3.7677419185638423,6.361777138294646,6.276477422285145,25.327914477913698,22.975273325922725,6.47544875391759e-05,0.0899572893977165,0,0,0
2129,73298.95470027564,2010-10-09 10:51:02,390.1975561757766,2,7,0.5499359965324402,3.770493984222412,6.366363808792837,6.276477422285145,25.345202849648057,22.975273325922725,3.237724376958795e-05,0.0899572893977165,0,0,0
2130,73328.9698981542,2010-10-09 10:51:32,420.2127539490732,2,7,0.5499359965324402,3.773569822311402,6.37095034561573,6.276477422285145,25.362503760050107,22.975273325922725,6.47544875391759e-05,0.0899572893977165,0,0,0
2131,73358.985054399,2010-10-09 10:52:02,450.22791016880535,2,7,0.5501165986061096,3.7763218879699703,6.375536970488888,6.276477422285145,25.37981804125953,22.975273325922725,6.47544875391759e-05,0.0899572893977165,0,0,0
2132,73389.00283501955,2010-10-09 10:52:32,480.2456909447392,2,7,0.5499359965324402,3.77907395362854,6.380123948290062,6.276477422285145,25.39714658667713,22.975273325922725,3.237724376958795e-05,0.0899572893977165,0,0,0
2133,73419.01546456703,2010-10-09 10:53:02,510.25832036691446,2,7,0.5499359965324402,3.781826019287109,6.384710185043068,6.276477422285145,25.41448508501957,22.975273325922725,6.47544875391759e-05,0.0899572893977165,0,0,0
2134,73449.03067724747,2010-10-09 10:53:32,540.2735330473643,2,7,0.5499359965324402,3.784578084945679,6.389296829834752,6.276477422285145,25.431837691448195,22.975273325922725,6.47544875391759e-05,0.0899572893977165,0,0,0
2135,73479.0458650008,2010-10-09 10:54:02,570.2887207906629,2,7,0.5499359965324402,3.787330150604248,6.3938834459458604,6.276477422285145,25.449202614303125,22.975273325922725,6.47544875391759e-05,0.0899572893977165,0,0,0
2136,73509.06117738975,2010-10-09 10:54:32,600.3040331896419,2,7,0.5499359965324402,3.789920330047608,6.398470076301853,6.276477422285145,25.46657987981663,22.975273325922725,6.47544875391759e-05,0.0899572893977165,0,0,0
2137,73539.0763078553,2010-10-09 10:55:02,630.3191636301243,2,7,0.550297200679779,3.7928342819213863,6.403056692081224,6.276477422285145,25.48396924806336,22.975273325922725,6.47544875391759e-05,0.0899572893977165,0,0,0
2138,73569.09146533819,2010-10-09 10:55:32,660.3343211130046,2,7,0.5501165986061096,3.795262575149536,6.407643246052429,6.276477422285145,25.501370564861904,22.975273325922725,3.237724376958795e-05,0.0899572893977165,0,0,0
2139,73599.10665689598,2010-10-09 10:56:02,690.3495126908604,2,7,0.5501165986061096,3.797852754592896,6.412229951214711,6.276477422285145,25.51878469798488,22.975273325922725,3.237724376958795e-05,0.0899572893977165,0,0,0
2140,73629.12198060816,2010-10-09 10:56:32,720.3648363779728,2,7,0.5499359965324402,3.800604820251465,6.416816613629146,6.276477422285145,25.53621095792588,22.975273325922725,3.237724376958795e-05,0.0899572893977165,0,0,0
2141,73659.13706374072,2010-10-09 10:57:02,750.3799195356119,2,7,0.5501165986061096,3.803356885910034,6.421403246925841,6.276477422285145,25.553649530315656,22.975273325922725,6.47544875391759e-05,0.0899572893977165,0,0,0
2142,73689.15226877213,2010-10-09 10:57:32,780.3951245669978,2,7,0.5501165986061096,3.8062708377838135,6.425989912545491,6.276477422285145,25.57110091676497,22.975273325922725,9.713172767078504e-05,0.0899572893977165,0,0,0
2143,73719.16977863788,2010-10-09 10:58:02,810.4126344678275,2,7,0.550297200679779,3.8091847896575928,6.43057694388398,6.276477422285145,25.58856678376747,22.975273325922725,6.47544875391759e-05,0.0899572893977165,0,0,0
2144,73749.18269676458,2010-10-09 10:58:32,840.4255525895309,2,7,0.5501165986061096,3.812098741531372,6.435163266121823,6.276477422285145,25.60604346020228,22.975273325922725,6.47544875391759e-05,0.0899572893977165,0,0,0
2145,73779.19789237247,2010-10-09 10:59:02,870.440748192418,2,7,0.5501165986061096,3.8153364658355713,6.439749920669478,6.276477422285145,25.62353567832912,22.975273325922725,0.0001295089750783,0.0899572893977165,0,0,0
2146,73809.21310545894,2010-10-09 10:59:32,900.4559612287547,2,7,0.5501165986061096,3.818412303924561,6.444336560254762,6.276477422285145,25.64104249419037,22.975273325922725,3.237724376958795e-05,0.0899572893977165,0,0,0
2147,73839.22826140298,2010-10-09 11:00:02,930.4711171727998,2,7,0.5501165986061096,3.8218119144439697,6.448923190630394,6.276477422285145,25.65856435728782,22.975273325922725,6.47544875391759e-05,0.0899572893977165,0,0,0
2148,73869.24359556119,2010-10-09 11:00:32,960.4864513811344,2,7,0.5499359965324402,3.825049638748169,6.453509813557311,6.276477422285145,25.676101490472128,22.975273325922725,3.237724376958795e-05,0.0899572893977165,0,0,0
2149,73899.25865978666,2010-10-09 11:01:02,990.5015155564638,2,7,0.5501165986061096,3.828611135482788,6.458096384404555,6.276477422285145,25.693654060356018,22.975273325922725,6.47544875391759e-05,0.0899572893977165,0,0,0
2150,73929.27387820139,2010-10-09 11:01:32,1020.51673402133,2,7,0.5501165986061096,3.832010746002197,6.462682971002621,6.276477422285145,25.711222291587685,22.975273325922725,6.47544875391759e-05,0.0899572893977165,0,0,0
2151,73959.28908177414,2010-10-09 11:02:02,1050.5319375489682,2,7,0.5499359965324402,3.8352482318878174,6.467269546228366,6.276477422285145,25.728805891205017,22.975273325922725,6.47544875391759e-05,0.0899572893977165,0,0,0
2152,73989.304263728,2010-10-09 11:02:32,1080.5471195178754,2,7,0.5501165986061096,3.8386478424072266,6.471856205730029,6.276477422285145,25.74640517843063,22.975273325922725,9.713172767078504e-05,0.0899572893977165,0,0,0
2153,74019.31946516543,2010-10-09 11:03:03,1110.562320935254,2,7,0.5501165986061096,3.842047452926636,6.476442762748885,6.276477422285145,25.76401915658042,22.975273325922725,9.713172767078504e-05,0.0899572893977165,0,0,0
2154,74049.33467266797,2010-10-09 11:03:33,1140.5775284628612,2,7,0.5499359965324402,3.845123291015625,6.481029354908411,6.276477422285145,25.78164812093386,22.975273325922725,3.237724376958795e-05,0.0899572893977165,0,0,0
2155,74079.34986659168,2010-10-09 11:04:03,1170.5927223665135,2,7,0.550297200679779,3.848361015319824,6.485615947182364,6.276477422285145,25.799291690364136,22.975273325922725,9.713172767078504e-05,0.0899572893977165,0,0,0
2156,74109.36509163796,2010-10-09 11:04:33,1200.6079475230574,2,7,0.5499359965324402,3.8514368534088135,6.490202571843631,6.276477422285145,25.816949827424487,22.975273325922725,9.713172767078504e-05,0.0899572893977165,0,0,0
2157,74139.3803049199,2010-10-09 11:05:03,1230.623160689719,2,7,0.5501165986061096,3.8545126914978023,6.494789228698743,6.276477422285145,25.83462219459458,22.975273325922725,9.713172767078504e-05,0.0899572893977165,0,0,0
2158,74169.39562887268,2010-10-09 11:05:33,1260.6384846424935,2,7,0.5501165986061096,3.857426643371582,6.499375929299549,6.276477422285145,25.85230855820736,22.975273325922725,6.47544875391759e-05,0.0899572893977165,0,0,0
2159,74199.4108691118,2010-10-09 11:06:03,1290.6537249668404,2,7,0.550297200679779,3.860340595245361,6.50396256514222,6.276477422285145,25.87000803975561,22.975273325922725,6.47544875391759e-05,0.0899572893977165,0,0,0
2160,74229.42586782899,2010-10-09 11:06:33,1320.6687235988154,2,7,0.5501165986061096,3.86309266090393,6.508549176661606,6.276477422285145,25.887720190797488,22.975273325922725,6.47544875391759e-05,0.0899572893977165,0,0,0
2161,74259.44106004846,2010-10-09 11:07:03,1350.6839158132575,2,7,0.550297200679779,3.8658447265625,6.513135834526167,6.276477422285145,25.905444615833265,22.975273325922725,0.0001295089750783,0.0899572893977165,0,0,0
2162,74289.45628895935,2010-10-09 11:07:33,1380.6991447542334,2,7,0.5501165986061096,3.8679492473602295,6.51772244830827,6.276477422285145,25.923180282241237,22.975273325922725,3.237724376958795e-05,0.0899572893977165,0,0,0
2163,74319.47343757476,2010-10-09 11:08:03,1410.716293379654,2,7,0.550297200679779,3.870377540588379,6.522309420745675,6.276477422285145,25.940928003794035,22.975273325922725,9.713172767078504e-05,0.0899572893977165,0,0,0
2164,74349.48667180429,2010-10-09 11:08:33,1440.7295275941576,2,7,0.5501165986061096,3.8723201751708975,6.526895822008141,6.276477422285145,25.95868349458808,22.975273325922725,6.47544875391759e-05,0.0899572893977165,0,0,0
2165,74379.50189226413,2010-10-09 11:09:03,1470.7447480489834,2,7,0.5501165986061096,3.874262809753418,6.531482516929263,6.276477422285145,25.97644930835309,22.975273325922725,3.237724376958795e-05,0.0899572893977165,0,0,0
2166,74409.51708211268,2010-10-09 11:09:33,1500.759937907554,2,7,0.5501165986061096,3.876043558120728,6.536069090363943,6.276477422285145,25.994222997414475,22.975273325922725,3.237724376958795e-05,0.0899572893977165,0,0,0
2167,74439.5322640064,2010-10-09 11:10:03,1530.7751198062865,2,7,0.5501165986061096,3.877500534057617,6.540655706853777,6.276477422285145,26.012004700862565,22.975273325922725,0.0,0.0899572893977165,0,0,0
2168,74469.54746423081,2010-10-09 11:10:33,1560.7903200357043,2,7,0.5501165986061096,3.879281282424927,6.545242305728269,6.276477422285145,26.029793487825877,22.975273325922725,3.237724376958795e-05,0.0899572893977165,0,0,0
2169,74499.56267266066,2010-10-09 11:11:03,1590.8055284555355,2,7,0.5499359965324402,3.880414485931397,6.549828925168662,6.276477422285145,26.04758884099047,22.975273325922725,-3.237724376958795e-05,0.0899572893977165,0,0,0
2170,74529.57787418833,2010-10-09 11:11:33,1620.8207299882013,2,7,0.5501165986061096,3.881871461868286,6.554415555271768,6.276477422285145,26.06539036922816,22.975273325922725,6.47544875391759e-05,0.0899572893977165,0,0,0
2171,74559.59306478873,2010-10-09 11:12:03,1650.835920548521,2,7,0.550297200679779,3.883166551589966,6.559002232268362,6.276477422285145,26.08319779138481,22.975273325922725,3.237724376958795e-05,0.0899572893977165,0,0,0
2172,74589.60829863192,2010-10-09 11:12:33,1680.8511545220397,2,7,0.5501165986061096,3.8841378688812256,6.563588944002219,6.276477422285145,26.10101080751278,22.975273325922725,0.0,0.0899572893977165,0,0,0
2173,74619.62362112607,2010-10-09 11:13:03,1710.866476895879,2,7,0.5501165986061096,3.8852710723876953,6.568175661491729,6.276477422285145,26.118828952541563,22.975273325922725,6.47544875391759e-05,0.0899572893977165,0,0,0
2174,74649.63867299573,2010-10-09 11:13:33,1740.8815288056387,2,7,0.550297200679779,3.886566162109375,6.572762355030052,6.276477422285145,26.136652134281185,22.975273325922725,6.47544875391759e-05,0.0899572893977165,0,0,0
2175,74679.65386275905,2010-10-09 11:14:03,1770.8967185789968,2,7,0.550297200679779,3.887375593185425,6.577349045633448,6.276477422285145,26.15448026414877,22.975273325922725,3.237724376958795e-05,0.0899572893977165,0,0,0
2176,74709.66906589572,2010-10-09 11:14:33,1800.911921670548,2,7,0.5499359965324402,3.8885087966918954,6.581935666855454,6.276477422285145,26.17231308148264,22.975273325922725,0.0,0.0899572893977165,0,0,0
2177,74739.68426963889,2010-10-09 11:15:03,1830.9271254437983,2,7,0.5501165986061096,3.8894801139831534,6.586522297840028,6.276477422285145,26.19015089422881,22.975273325922725,0.0,0.0899572893977165,0,0,0
2178,74769.6994722292,2010-10-09 11:15:33,1860.9423279990133,2,7,0.5499359965324402,3.890775203704834,6.591108985556119,6.276477422285145,26.20799376044619,22.975273325922725,6.47544875391759e-05,0.0899572893977165,0,0,0
2179,74799.71467725557,2010-10-09 11:16:03,1890.957533065486,2,7,0.5501165986061096,3.8917465209960938,6.595695655009211,6.276477422285145,26.225841499110537,22.975273325922725,3.237724376958795e-05,0.0899572893977165,0,0,0
2180,74829.72999017083,2010-10-09 11:16:33,1920.9728460459144,2,7,0.5501165986061096,3.892879724502564,6.600282355271106,6.276477422285145,26.24369419782978,22.975273325922725,3.237724376958795e-05,0.0899572893977165,0,0,0
2181,74859.74506330349,2010-10-09 11:17:03,1950.9879190682927,2,7,0.5501165986061096,3.8938510417938232,6.604869006274403,6.276477422285145,26.261551602705424,22.975273325922725,3.237724376958795e-05,0.0899572893977165,0,0,0
2182,74889.76027185866,2010-10-09 11:17:33,1981.0031276535367,2,7,0.5499359965324402,3.894822359085083,6.609455794018476,6.276477422285145,26.27941449965568,22.975273325922725,0.0,0.0899572893977165,0,0,0
2183,74919.77739784264,2010-10-09 11:18:03,2011.0202536375275,2,7,0.5499359965324402,3.8959555625915527,6.614042747662814,6.276477422285145,26.29728240675352,22.975273325922725,3.237724376958795e-05,0.0899572893977165,0,0,0
2184,74949.79080894802,2010-10-09 11:18:33,2041.0336647579352,2,7,0.550297200679779,3.8970887660980233,6.618629125743269,6.276477422285145,26.315153300180757,22.975273325922725,3.237724376958795e-05,0.0899572893977165,0,0,0
2185,74979.80587227123,2010-10-09 11:19:03,2071.048728066103,2,7,0.5501165986061096,3.898221969604492,6.623215753943603,6.276477422285145,26.333030156975145,22.975273325922725,6.47544875391759e-05,0.0899572893977165,0,0,0
2186,75009.82112182358,2010-10-09 11:19:33,2101.0639776535363,2,7,0.550297200679779,3.899355173110962,6.627802368012676,6.276477422285145,26.35091204210084,22.975273325922725,6.47544875391759e-05,0.0899572893977165,0,0,0
2187,75039.83616187377,2010-10-09 11:20:03,2131.079017668651,2,7,0.5501165986061096,3.9003264904022217,6.632389033155637,6.276477422285145,26.36879921768605,22.975273325922725,3.237724376958795e-05,0.0899572893977165,0,0,0
2188,75069.85154810677,2010-10-09 11:20:33,2161.094403931722,2,7,0.550297200679779,3.901621580123901,6.636975688570661,6.276477422285145,26.386691517748588,22.975273325922725,6.47544875391759e-05,0.0899572893977165,0,0,0
2189,75099.86686597439,2010-10-09 11:21:03,2191.109721819381,2,7,0.5501165986061096,3.902592897415161,6.641562343778578,6.276477422285145,26.40458905561965,22.975273325922725,3.237724376958795e-05,0.0899572893977165,0,0,0
2190,75129.8819339241,2010-10-09 11:21:33,2221.1247897240046,2,7,0.5501165986061096,3.903726100921631,6.646148998059934,6.276477422285145,26.42249184696673,22.975273325922725,3.237724376958795e-05,0.0899572893977165,0,0,0
2191,75159.89958545293,2010-10-09 11:22:03,2251.142441348052,2,7,0.5499359965324402,3.9048593044281006,6.650736029049813,6.276477422285145,26.44040151432304,22.975273325922725,0.0,0.0899572893977165,0,0,0
2192,75189.91230522528,2010-10-09 11:22:33,2281.1551610251704,2,7,0.5501165986061096,3.90615439414978,6.655322324207776,6.276477422285145,26.45831356273717,22.975273325922725,3.237724376958795e-05,0.0899572893977165,0,0,0
2193,75219.92752542447,2010-10-09 11:23:03,2311.1703812544342,2,7,0.5499359965324402,3.90744948387146,6.659908922248594,6.276477422285145,26.47623227483285,22.975273325922725,0.0,0.0899572893977165,0,0,0
2194,75249.94271587953,2010-10-09 11:23:33,2341.185571649341,2,7,0.5501165986061096,3.9085826873779297,6.66449555327778,6.276477422285145,26.494156609649128,22.975273325922725,0.0,0.0899572893977165,0,0,0
2195,75279.95789380836,2010-10-09 11:24:03,2371.200749603242,2,7,0.5499359965324402,3.9097158908844,6.669082167163955,6.276477422285145,26.512086508959243,22.975273325922725,0.0,0.0899572893977165,0,0,0
2196,75309.97323173597,2010-10-09 11:24:33,2401.216087520821,2,7,0.5501165986061096,3.911010980606079,6.6736688222982,6.276477422285145,26.530022158476537,22.975273325922725,3.237724376958795e-05,0.0899572893977165,0,0,0
2197,75339.97521562621,2010-10-09 11:25:03,2431.218071551405,2,7,0.5501165986061096,3.912306070327759,6.678253414275744,6.276477422285145,26.5479554802824,22.975273325922725,6.47544875391759e-05,0.0899572893977165,0,0,0
2198,75369.98798741821,2010-10-09 11:25:33,2461.230843233135,2,7,0.5501165986061096,3.913439273834229,6.682839653605045,6.276477422285145,26.56590101452806,22.975273325922725,3.237724376958795e-05,0.0899572893977165,0,0,0
2199,75400.00321791807,2010-10-09 11:26:03,2491.246073702921,2,7,0.5501165986061096,3.914734125137329,6.687426363780094,6.276477422285145,26.583854313233385,22.975273325922725,3.237724376958795e-05,0.0899572893977165,0,0,0
2200,75430.0182664093,2010-10-09 11:26:33,2521.2611221891484,2,7,0.550297200679779,3.9161911010742183,6.692013030877603,6.276477422285145,26.60181321811906,22.975273325922725,6.47544875391759e-05,0.0899572893977165,0,0,0
2201,75460.03347524517,2010-10-09 11:27:03,2551.2763310400537,2,7,0.5501165986061096,3.9174861907958975,6.696599640254781,6.276477422285145,26.61977790489525,22.975273325922725,6.47544875391759e-05,0.0899572893977165,0,0,0
2202,75490.04881672664,2010-10-09 11:27:33,2581.2916725415653,2,7,0.5501165986061096,3.918781280517578,6.701186303632325,6.276477422285145,26.63774889430949,22.975273325922725,6.47544875391759e-05,0.0899572893977165,0,0,0
2203,75520.06388724779,2010-10-09 11:28:03,2611.30674302261,2,7,0.550297200679779,3.920238256454468,6.70577292884169,6.276477422285145,26.655725892276084,22.975273325922725,6.47544875391759e-05,0.0899572893977165,0,0,0
2204,75550.0811635063,2010-10-09 11:28:33,2641.3240194164687,2,7,0.550297200679779,3.921533346176148,6.710359900529729,6.276477422285145,26.67371040760835,22.975273325922725,6.47544875391759e-05,0.0899572893977165,0,0,0
2205,75580.09441708907,2010-10-09 11:29:03,2671.337272863907,2,7,0.5499359965324402,3.922666549682617,6.71494618322735,6.276477422285145,26.69169851107992,22.975273325922725,0.0,0.0899572893977165,0,0,0
2206,75610.10959994522,2010-10-09 11:29:33,2701.3524557200253,2,7,0.5501165986061096,3.924285411834717,6.719532796838572,6.276477422285145,26.70969422867116,22.975273325922725,3.237724376958795e-05,0.0899572893977165,0,0,0
2207,75640.12468544368,2010-10-09 11:30:03,2731.3675412134858,2,7,0.5499359965324402,3.9257423877716064,6.724119440849151,6.276477422285145,26.727696519738423,22.975273325922725,6.47544875391759e-05,0.0899572893977165,0,0,0
2208,75670.13988703149,2010-10-09 11:30:33,2761.382742826352,2,7,0.550297200679779,3.927037477493286,6.728706093499081,6.276477422285145,26.745705196254463,22.975273325922725,3.237724376958795e-05,0.0899572893977165,0,0,0
2209,75700.15510463419,2010-10-09 11:31:03,2791.397960434082,2,7,0.5501165986061096,3.928332567214966,6.733292711143215,6.276477422285145,26.763720292140604,22.975273325922725,0.0,0.0899572893977165,0,0,0
2210,75730.17031659787,2010-10-09 11:31:33,2821.4131723726823,2,7,0.5499359965324402,3.9299514293670654,6.737879352031184,6.276477422285145,26.781742038331387,22.975273325922725,6.47544875391759e-05,0.0899572893977165,0,0,0
2211,75760.18561251076,2010-10-09 11:32:03,2851.4284682955986,2,7,0.5501165986061096,3.931408405303955,6.742466046318697,6.276477422285145,26.79977069491508,22.975273325922725,6.47544875391759e-05,0.0899572893977165,0,0,0
2212,75790.20069445537,2010-10-09 11:32:33,2881.4435502452266,2,7,0.550297200679779,3.9328653812408447,6.747052732050358,6.276477422285145,26.81780600817894,22.975273325922725,3.237724376958795e-05,0.0899572893977165,0,0,0
2213,75820.21600548594,2010-10-09 11:33:03,2911.45886128582,2,7,0.5501165986061096,3.9343223571777344,6.751639440762707,6.276477422285145,26.835848166440258,22.975273325922725,3.237724376958795e-05,0.0899572893977165,0,0,0
2214,75850.23107611736,2010-10-09 11:33:33,2941.473931892177,2,7,0.5501165986061096,3.935779333114624,6.75622606198627,6.276477422285145,26.85389684836368,22.975273325922725,3.237724376958795e-05,0.0899572893977165,0,0,0
2215,75880.24629544938,2010-10-09 11:34:03,2971.489151249268,2,7,0.5501165986061096,3.937398195266724,6.760812681679757,6.276477422285145,26.8719522552466,22.975273325922725,9.713172767078504e-05,0.0899572893977165,0,0,0
2216,75910.26148263628,2010-10-09 11:34:33,3001.504338431167,2,7,0.5501165986061096,3.938855171203613,6.765399282063936,6.276477422285145,26.890014641045024,22.975273325922725,3.237724376958795e-05,0.0899572893977165,0,0,0
2217,75940.27667649984,2010-10-09 11:35:03,3031.519532299732,2,7,0.5499359965324402,3.940312147140503,6.769985859686797,6.276477422285145,26.90808387723209,22.975273325922725,6.47544875391759e-05,0.0899572893977165,0,0,0
2218,75970.29188137583,2010-10-09 11:35:34,3061.534737140643,2,7,0.5501165986061096,3.9419310092926025,6.774572568038258,6.276477422285145,26.926160709062017,22.975273325922725,6.47544875391759e-05,0.0899572893977165,0,0,0
2219,76000.30711775033,2010-10-09 11:36:04,3091.549973570283,2,7,0.550297200679779,3.943549871444702,6.779159273308006,6.276477422285145,26.94424461753573,22.975273325922725,6.47544875391759e-05,0.0899572893977165,0,0,0
2220,76030.32227913295,2010-10-09 11:36:34,3121.5651349328327,2,7,0.5501165986061096,3.945006847381592,6.783745971347443,6.276477422285145,26.96233563086839,22.975273325922725,0.0,0.0899572893977165,0,0,0
2221,76060.3374799789,2010-10-09 11:37:04,3151.5803357737746,2,7,0.5499359965324402,3.9464638233184814,6.788332656770837,6.276477422285145,26.980433849389577,22.975273325922725,3.237724376958795e-05,0.0899572893977165,0,0,0
2222,76090.35269119068,2010-10-09 11:37:34,3181.595546960501,2,7,0.5501165986061096,3.948082685470581,6.792919350933594,6.276477422285145,26.99853924229373,22.975273325922725,0.0,0.0899572893977165,0,0,0
2223,76120.36808011039,2010-10-09 11:38:04,3211.610935930318,2,7,0.5499359965324402,3.94986343383789,6.797506047043603,6.276477422285145,27.016652019993817,22.975273325922725,6.47544875391759e-05,0.0899572893977165,0,0,0
2224,76150.38501534397,2010-10-09 11:38:34,3241.6278711488635,2,7,0.5501165986061096,3.9514822959899902,6.802092937427677,6.276477422285145,27.03477306840128,22.975273325922725,3.237724376958795e-05,0.0899572893977165,0,0,0
2225,76180.39828678123,2010-10-09 11:39:04,3271.641142581125,2,7,0.550297200679779,3.95310115814209,6.806679315030476,6.276477422285145,27.052899494790893,22.975273325922725,6.47544875391759e-05,0.0899572893977165,0,0,0
2226,76210.41351645904,2010-10-09 11:39:34,3301.6563722589376,2,7,0.5504778623580933,3.9548819065094,6.81126600362133,6.276477422285145,27.071034699408106,22.975273325922725,9.713172767078504e-05,0.0899572893977165,0,0,0
2227,76240.42870300937,2010-10-09 11:40:04,3331.6715588042507,2,7,0.550297200679779,3.956338882446289,6.815852791634852,6.276477422285145,27.089177905732477,22.975273325922725,3.237724376958795e-05,0.0899572893977165,0,0,0
2228,76270.44389159979,2010-10-09 11:40:34,3361.6867474297483,2,7,0.550297200679779,3.958119630813599,6.820440271191524,6.276477422285145,27.107331466556367,22.975273325922725,6.47544875391759e-05,0.0899572893977165,0,0,0
2229,76300.45910518749,2010-10-09 11:41:04,3391.701960987384,2,7,0.5499359965324402,3.959576606750488,6.825027563513092,6.276477422285145,27.125492063132636,22.975273325922725,0.0,0.0899572893977165,0,0,0
2230,76330.47444328052,2010-10-09 11:41:34,3421.7172990954377,2,7,0.5501165986061096,3.961519241333008,6.829614205462168,6.276477422285145,27.143657893620052,22.975273325922725,3.237724376958795e-05,0.0899572893977165,0,0,0
2231,76360.48942748652,2010-10-09 11:42:04,3451.732283261359,2,7,0.5501165986061096,3.9631381034851074,6.834200774737558,6.276477422285145,27.161831357479063,22.975273325922725,3.237724376958795e-05,0.0899572893977165,0,0,0
2232,76390.50470481811,2010-10-09 11:42:34,3481.747560597952,2,7,0.5501165986061096,3.964918851852417,6.83878738398651,6.276477422285145,27.180012959479704,22.975273325922725,3.237724376958795e-05,0.0899572893977165,0,0,0
2233,76420.51991127805,2010-10-09 11:43:04,3511.762767042861,2,7,0.5499359965324402,3.966699600219727,6.843374007841709,6.276477422285145,27.19820274651684,22.975273325922725,6.47544875391759e-05,0.0899572893977165,0,0,0
2234,76450.53509720683,2010-10-09 11:43:34,3541.7779529866743,2,7,0.5499359965324402,3.968318462371826,6.847960739465526,6.276477422285145,27.216401112210097,22.975273325922725,3.237724376958795e-05,0.0899572893977165,0,0,0
2235,76480.55025242407,2010-10-09 11:44:04,3571.7931082189457,2,7,0.5501165986061096,3.970422983169556,6.852547366092431,6.276477422285145,27.234607320665663,22.975273325922725,6.47544875391759e-05,0.0899572893977165,0,0,0
2236,76510.5654972697,2010-10-09 11:44:34,3601.808353074586,2,7,0.5501165986061096,3.9720418453216553,6.85713401696358,6.276477422285145,27.25282207779077,22.975273325922725,0.0,0.0899572893977165,0,0,0
2237,76540.58081993424,2010-10-09 11:45:04,3631.823675739151,2,7,0.5501165986061096,3.973984479904175,6.861720687246821,6.276477422285145,27.2710453732478,22.975273325922725,3.237724376958795e-05,0.0899572893977165,0,0,0
2238,76570.5958961145,2010-10-09 11:45:34,3661.8387519193993,2,7,0.5501165986061096,3.9759271144866943,6.866307346773273,6.276477422285145,27.289277260701297,22.975273325922725,6.47544875391759e-05,0.0899572893977165,0,0,0
2239,76600.61123367117,2010-10-09 11:46:04,3691.8540894710654,2,7,0.550297200679779,3.977707862854004,6.870894063776225,6.276477422285145,27.30751811173689,22.975273325922725,3.237724376958795e-05,0.0899572893977165,0,0,0
2240,76630.62631451304,2010-10-09 11:46:34,3721.869170343009,2,7,0.5501165986061096,3.979812383651733,6.875480723494312,6.276477422285145,27.325767219121392,22.975273325922725,3.237724376958795e-05,0.0899572893977165,0,0,0
2241,76660.64151121367,2010-10-09 11:47:04,3751.8843669784687,2,7,0.5499359965324402,3.981755018234253,6.880067273924823,6.276477422285145,27.34402518081527,22.975273325922725,6.47544875391759e-05,0.0899572893977165,0,0,0
2242,76690.65672321743,2010-10-09 11:47:34,3781.899579022333,2,7,0.5501165986061096,3.9838595390319824,6.884653878594642,6.276477422285145,27.36229245720335,22.975273325922725,6.47544875391759e-05,0.0899572893977165,0,0,0
2243,76720.67191242939,2010-10-09 11:48:04,3811.914768229279,2,7,0.550297200679779,3.985802173614502,6.88924042841465,6.276477422285145,27.38056868796645,22.975273325922725,6.47544875391759e-05,0.0899572893977165,0,0,0
2244,76750.68710596212,2010-10-09 11:48:34,3841.929961736944,2,7,0.5501165986061096,3.9877448081970215,6.893827059181546,6.276477422285145,27.39885464059948,22.975273325922725,3.237724376958795e-05,0.0899572893977165,0,0,0
2245,76780.68867203602,2010-10-09 11:49:04,3871.931527966239,2,7,0.5501165986061096,3.989849328994751,6.898411545913197,6.276477422285145,27.417141349905524,22.975273325922725,6.47544875391759e-05,0.0899572893977165,0,0,0
2246,76810.70201320208,2010-10-09 11:49:34,3901.9448689718993,2,7,0.5499359965324402,3.9917919635772714,6.902997812793435,6.276477422285145,27.435444708926227,22.975273325922725,3.237724376958795e-05,0.0899572893977165,0,0,0
2247,76840.71710740223,2010-10-09 11:50:04,3931.959963207147,2,7,0.550297200679779,3.994058132171631,6.907584446156316,6.276477422285145,27.45375910953986,22.975273325922725,6.470680091297254e-05,0.0899572893977165,0,0,0
2248,76870.7323179925,2010-10-09 11:50:34,3961.975173797387,2,7,0.550297200679779,3.9963245391845694,6.912170974416477,6.276477422285145,27.47208279596988,22.975273325922725,6.47544875391759e-05,0.0899572893977165,0,0,0
2249,76900.74747907935,2010-10-09 11:51:04,3991.9903348792377,2,7,0.550297200679779,3.99826717376709,6.916757596599414,6.276477422285145,27.49041670502161,22.975273325922725,6.47544875391759e-05,0.0899572893977165,0,0,0
2250,76930.76268015086,2010-10-09 11:51:34,4022.005535925692,2,7,0.5501165986061096,4.000371932983398,6.921344194494198,6.276477422285145,27.508760269436152,22.975273325922725,6.47544875391759e-05,0.0899572893977165,0,0,0
2251,76960.77788416973,2010-10-09 11:52:04,4052.020739969617,2,7,0.550297200679779,4.002638339996338,6.92593063524747,6.276477422285145,27.52711318370242,22.975273325922725,6.47544875391759e-05,0.0899572893977165,0,0,0
2252,76990.79313095017,2010-10-09 11:52:34,4082.0359867751167,2,7,0.5501165986061096,4.004904747009277,6.930517271242676,6.276477422285145,27.54547695434779,22.975273325922725,9.71794142969884e-05,0.0899572893977165,0,0,0
2253,77020.80828665863,2010-10-09 11:53:04,4112.051142458512,2,7,0.5499359965324402,4.007009029388428,6.935103830492028,6.276477422285145,27.56385051593312,22.975273325922725,6.47544875391759e-05,0.0899572893977165,0,0,0
2254,77050.82362163888,2010-10-09 11:53:34,4142.066477443783,2,7,0.5501165986061096,4.009275436401367,6.939690422661941,6.276477422285145,27.582234349446253,22.975273325922725,6.47544875391759e-05,0.0899572893977165,0,0,0
2255,77080.83896262912,2010-10-09 11:54:04,4172.08181843402,2,7,0.5501165986061096,4.011703968048096,6.944277089899226,6.276477422285145,27.60062869950324,22.975273325922725,9.71794142969884e-05,0.0899572893977165,0,0,0
2256,77110.85403167659,2010-10-09 11:54:34,4202.096887481492,2,7,0.5501165986061096,4.013808250427246,6.948863698736786,6.276477422285145,27.619033115084253,22.975273325922725,3.23295607813634e-05,0.0899572893977165,0,0,0
2257,77140.87160645914,2010-10-09 11:55:04,4232.114462384327,2,7,0.550297200679779,4.0160746574401855,6.95345063832037,6.276477422285145,27.637449160479207,22.975273325922725,9.70840483205393e-05,0.0899572893977165,0,0,0
2258,77170.88442829082,2010-10-09 11:55:34,4262.127284095746,2,7,0.5501165986061096,4.018341064453125,6.958036830000972,6.276477422285145,27.65587263006321,22.975273325922725,6.47544875391759e-05,0.0899572893977165,0,0,0
2259,77200.89952674661,2010-10-09 11:56:04,4292.142382641739,2,7,0.5501165986061096,4.0206074714660645,6.962623447060025,6.276477422285145,27.674308188534056,22.975273325922725,6.47544875391759e-05,0.0899572893977165,0,0,0
2260,77230.91471200873,2010-10-09 11:56:34,4322.157567808615,2,7,0.5501165986061096,4.022873878479004,6.967210021352321,6.276477422285145,27.692754220054137,22.975273325922725,6.47544875391759e-05,0.0899572893977165,0,0,0
2261,77260.9299348495,2010-10-09 11:57:04,4352.172790624325,2,7,0.5501165986061096,4.025302410125732,6.97179652429254,6.276477422285145,27.7112105889896,22.975273325922725,9.71794142969884e-05,0.0899572893977165,0,0,0
2262,77290.94747057972,2010-10-09 11:57:34,4382.1903264898665,2,7,0.5501165986061096,4.027568817138672,6.976383485851478,6.276477422285145,27.729679599285035,22.975273325922725,6.47544875391759e-05,0.0899572893977165,0,0,0
2263,77320.96033498754,2010-10-09 11:58:04,4412.203190812486,2,7,0.5501165986061096,4.029835224151611,6.980969766889507,6.276477422285145,27.74815672044354,22.975273325922725,6.47544875391759e-05,0.0899572893977165,0,0,0
2264,77350.97553939738,2010-10-09 11:58:34,4442.218395182224,2,7,0.5501165986061096,4.032263278961182,6.985556360568698,6.276477422285145,27.76664596225164,22.975273325922725,3.23295607813634e-05,0.0899572893977165,0,0,0
2265,77380.99260552217,2010-10-09 11:59:04,4472.235461337102,2,7,0.5501165986061096,4.034691333770752,6.990143226268958,6.276477422285145,27.7851473875638,22.975273325922725,3.23295607813634e-05,0.0899572893977165,0,0,0
2266,77411.00595546511,2010-10-09 11:59:34,4502.248811270011,2,7,0.5501165986061096,4.037281513214111,6.994729541239294,6.276477422285145,27.803657772808737,22.975273325922725,6.47544875391759e-05,0.0899572893977165,0,0,0
2267,77441.02128583388,2010-10-09 12:00:04,4532.264141618727,2,7,0.5499359965324402,4.03971004486084,6.999315916045897,6.276477422285145,27.822179721681337,22.975273325922725,9.71794142969884e-05,0.0899572893977165,0,0,0
2268,77471.03635676103,2010-10-09 12:00:34,4562.279212565933,2,7,0.5499359965324402,4.042300224304199,7.00390152690445,6.276477422285145,27.84070974757327,22.975273325922725,9.71794142969884e-05,0.0899572893977165,0,0,0
2269,77501.05165630297,2010-10-09 12:01:04,4592.294512117894,2,7,0.5499359965324402,4.044890403747559,7.008487155724195,6.276477422285145,27.85925140640008,22.975273325922725,0.0001295089750783,0.0899572893977165,0,0,0
2270,77531.06699542855,2010-10-09 12:01:34,4622.309851213408,2,7,0.5501165986061096,4.047318458557129,7.013072788163726,6.276477422285145,27.8778046851624,22.975273325922725,9.70840483205393e-05,0.0899572893977165,0,0,0
2271,77561.08194451204,2010-10-09 12:02:04,4652.324800286869,2,7,0.550297200679779,4.049908638000488,7.017658628364696,6.276477422285145,27.896370639102816,22.975273325922725,6.47544875391759e-05,0.0899572893977165,0,0,0
2272,77591.09723420945,2010-10-09 12:02:34,4682.3400899942935,2,7,0.5501165986061096,4.052337169647217,7.022245281828587,6.276477422285145,27.91495177126176,22.975273325922725,6.47544875391759e-05,0.0899572893977165,0,0,0
2273,77621.11236673011,2010-10-09 12:03:04,4712.355222494911,2,7,0.5499359965324402,4.054927349090576,7.026831823906772,6.276477422285145,27.933544420784127,22.975273325922725,3.24249267578125e-05,0.0899572893977165,0,0,0
2274,77651.12766738482,2010-10-09 12:03:34,4742.370523159643,2,7,0.550297200679779,4.057841300964356,7.031418465341285,6.276477422285145,27.95214953036725,22.975273325922725,9.71794142969884e-05,0.0899572893977165,0,0,0
2275,77681.14357308247,2010-10-09 12:04:04,4772.386428847281,2,7,0.5501165986061096,4.060269355773926,7.036005166174062,6.276477422285145,27.97076710268951,22.975273325922725,6.47544875391759e-05,0.0899572893977165,0,0,0
2276,77711.15810112159,2010-10-09 12:04:34,4802.400956906444,2,7,0.5501165986061096,4.062859535217285,7.040591658390359,6.276477422285145,27.98939570587181,22.975273325922725,6.47544875391759e-05,0.0899572893977165,0,0,0
2277,77741.17340689406,2010-10-09 12:05:04,4832.416262724019,2,7,0.5501165986061096,4.0657734870910645,7.045178255234434,6.276477422285145,28.00803731093669,22.975273325922725,9.70840483205393e-05,0.0899572893977165,0,0,0
2278,77771.18859168,2010-10-09 12:05:34,4862.43144757511,2,7,0.5501165986061096,4.068525791168213,7.04976486783682,6.276477422285145,28.02669152446872,22.975273325922725,9.71794142969884e-05,0.0899572893977165,0,0,0
2279,77801.20355339996,2010-10-09 12:06:04,4892.446409169777,2,7,0.5501165986061096,4.071277618408203,7.054351415657136,6.276477422285145,28.04535815203841,22.975273325922725,9.70840483205393e-05,0.0899572893977165,0,0,0
2280,77831.21885071135,2010-10-09 12:06:34,4922.461706636541,2,7,0.5501165986061096,4.074029922485352,7.058937974837571,6.276477422285145,28.06403753746948,22.975273325922725,6.47544875391759e-05,0.0899572893977165,0,0,0
2281,77861.23396032491,2010-10-09 12:07:04,4952.476816119791,2,7,0.5499359965324402,4.076781749725342,7.063524506246293,6.276477422285145,28.08272970323035,22.975273325922725,6.47544875391759e-05,0.0899572893977165,0,0,0
2282,77891.24927877898,2010-10-09 12:07:34,4982.492134583886,2,7,0.5501165986061096,4.079695701599121,7.068111068749483,6.276477422285145,28.101435006368657,22.975273325922725,6.47544875391759e-05,0.0899572893977165,0,0,0
2283,77921.26435706449,2010-10-09 12:08:05,5012.507212834295,2,7,0.550297200679779,4.0827717781066895,7.072697611745135,6.276477422285145,28.120153329743825,22.975273325922725,0.0001295089750783,0.0899572893977165,0,0,0
2284,77951.27957249679,2010-10-09 12:08:35,5042.522428271615,2,7,0.5501165986061096,4.08552360534668,7.077284095365561,6.276477422285145,28.138884725645827,22.975273325922725,6.47544875391759e-05,0.0899572893977165,0,0,0
2285,77981.2969036421,2010-10-09 12:09:05,5072.539759472068,2,7,0.5501165986061096,4.088437557220459,7.081870914608826,6.276477422285145,28.15763083321863,22.975273325922725,6.47544875391759e-05,0.0899572893977165,0,0,0
2286,78011.30997695058,2010-10-09 12:09:35,5102.552832730421,2,7,0.5501165986061096,4.091351509094238,7.086457154801325,6.276477422285145,28.176388092114905,22.975273325922725,6.47544875391759e-05,0.0899572893977165,0,0,0
2287,78041.32520121992,2010-10-09 12:10:05,5132.568057019803,2,7,0.5501165986061096,4.094265460968018,7.091043680659719,6.276477422285145,28.19516004958133,22.975273325922725,6.47544875391759e-05,0.0899572893977165,0,0,0
2288,78071.3403978203,2010-10-09 12:10:35,5162.583253625189,2,7,0.5501165986061096,4.097179412841797,7.095630237859132,6.276477422285145,28.213945897740103,22.975273325922725,6.47544875391759e-05,0.0899572893977165,0,0,0
2289,78101.35578864474,2010-10-09 12:11:05,5192.598644414541,2,7,0.5501165986061096,4.100417137145996,7.100216762878382,6.276477422285145,28.232745469739843,22.975273325922725,6.47544875391759e-05,0.0899572893977165,0,0,0
2290,78131.37078625415,2010-10-09 12:11:35,5222.613642033993,2,7,0.5499359965324402,4.1034932136535645,7.104803277438246,6.276477422285145,28.25155898299747,22.975273325922725,9.71794142969884e-05,0.0899572893977165,0,0,0
2291,78161.38611097384,2010-10-09 12:12:05,5252.628966748666,2,7,0.5501165986061096,4.106730937957764,7.109389772859908,6.276477422285145,28.270386530516344,22.975273325922725,0.0001295089750783,0.0899572893977165,0,0,0
2292,78191.40120340459,2010-10-09 12:12:35,5282.644059179416,2,7,0.5499359965324402,4.109482765197754,7.113976276380737,6.276477422285145,28.28922842347247,22.975273325922725,6.47544875391759e-05,0.0899572893977165,0,0,0
2293,78221.41640460643,2010-10-09 12:13:05,5312.65926040632,2,7,0.550297200679779,4.112882614135742,7.118562841767202,6.276477422285145,28.308084939669985,22.975273325922725,9.71794142969884e-05,0.0899572893977165,0,0,0
2294,78251.43163627421,2010-10-09 12:13:35,5342.674492054042,2,7,0.5499359965324402,4.115796089172363,7.123149364989571,6.276477422285145,28.32695574513459,22.975273325922725,6.47544875391759e-05,0.0899572893977165,0,0,0
2295,78281.44679935102,2010-10-09 12:14:05,5372.689655115827,2,7,0.5501165986061096,4.119195938110352,7.12773587542463,6.276477422285145,28.345841128945427,22.975273325922725,9.71794142969884e-05,0.0899572893977165,0,0,0
2296,78311.46198901412,2010-10-09 12:14:35,5402.704844808985,2,7,0.550297200679779,4.122595310211182,7.132322432826904,6.276477422285145,28.36474145647723,22.975273325922725,0.0001295089750783,0.0899572893977165,0,0,0
2297,78341.47721408043,2010-10-09 12:15:05,5432.7200699905925,2,7,0.550297200679779,4.12567138671875,7.136909010996155,6.276477422285145,28.3836565854302,22.975273325922725,6.47544875391759e-05,0.0899572893977165,0,0,0
2298,78371.4923917436,2010-10-09 12:15:35,5462.735247518431,2,7,0.5499359965324402,4.128909111022949,7.141495617763919,6.276477422285145,28.402586852948836,22.975273325922725,9.71794142969884e-05,0.0899572893977165,0,0,0
2299,78401.50771038314,2010-10-09 12:16:05,5492.750566167988,2,7,0.5499359965324402,4.132308483123779,7.146082180552702,6.276477422285145,28.42153202748036,22.975273325922725,9.70840483205393e-05,0.0899572893977165,0,0,0
2300,78431.52281534512,2010-10-09 12:16:35,5522.76567112997,2,7,0.550297200679779,4.135708332061768,7.150668761383431,6.276477422285145,28.44049243805772,22.975273325922725,0.0001295089750783,0.0899572893977165,0,0,0
2301,78461.53800489292,2010-10-09 12:17:05,5552.780860687792,2,7,0.5499359965324402,4.138783931732178,7.155255360278207,6.276477422285145,28.45946821066049,22.975273325922725,6.47544875391759e-05,0.0899572893977165,0,0,0
2302,78491.55318719767,2010-10-09 12:17:35,5582.796042972485,2,7,0.5501165986061096,4.142345428466797,7.159841952233284,6.276477422285145,28.47845937057258,22.975273325922725,0.0001295089750783,0.0899572893977165,0,0,0
2303,78521.56838228425,2010-10-09 12:18:05,5612.811238059086,2,7,0.5499359965324402,4.145745277404785,7.164428526448842,6.276477422285145,28.49746607051602,22.975273325922725,6.47544875391759e-05,0.0899572893977165,0,0,0
2304,78551.58371584599,2010-10-09 12:18:35,5642.826571620809,2,7,0.5501165986061096,4.149144649505615,7.169015068198921,6.276477422285145,28.51648848659088,22.975273325922725,9.70840483205393e-05,0.0899572893977165,0,0,0
2305,78581.60079315366,2010-10-09 12:19:05,5672.843648953546,2,7,0.5501165986061096,4.152706146240234,7.173601911451469,6.276477422285145,28.53552796362764,22.975273325922725,0.0001618385285837,0.0899572893977165,0,0,0
2306,78611.61412233485,2010-10-09 12:19:35,5702.856978194886,2,7,0.5501165986061096,4.156429767608643,7.178188219992375,6.276477422285145,28.554581078146647,22.975273325922725,0.0001295089750783,0.0899572893977165,0,0,0
2307,78641.62919046503,2010-10-09 12:20:05,5732.872046229834,2,7,0.550297200679779,4.159505367279053,7.182774775828144,6.276477422285145,28.573651260189905,22.975273325922725,6.47544875391759e-05,0.0899572893977165,0,0,0
2308,78671.64442961644,2010-10-09 12:20:35,5762.887285441408,2,7,0.5501165986061096,4.163066864013672,7.187361290548073,6.276477422285145,28.592737401765696,22.975273325922725,9.70840483205393e-05,0.0899572893977165,0,0,0
2309,78701.65967608111,2010-10-09 12:21:05,5792.902531896033,2,7,0.5501165986061096,4.166628360748291,7.191947848900608,6.276477422285145,28.61183989800998,22.975273325922725,9.70840483205393e-05,0.0899572893977165,0,0,0
2310,78731.67493188403,2010-10-09 12:21:35,5822.917787678907,2,7,0.5501165986061096,4.170351982116699,7.196534428461912,6.276477422285145,28.630958804410305,22.975273325922725,0.0001295089750783,0.0899572893977165,0,0,0
2311,78761.690001939,2010-10-09 12:22:05,5852.932857713841,2,7,0.5501165986061096,4.173913478851318,7.201120936811234,6.276477422285145,28.650093854752097,22.975273325922725,9.71794142969884e-05,0.0899572893977165,0,0,0
2312,78791.70534991666,2010-10-09 12:22:35,5882.948205716555,2,7,0.5499359965324402,4.177151203155518,7.205707524397193,6.276477422285145,28.66924576635257,22.975273325922725,0.0,0.0899572893977165,0,0,0
2313,78821.72040839781,2010-10-09 12:23:05,5912.963264167618,2,7,0.5501165986061096,4.181036472320557,7.21029400706592,6.276477422285145,28.688413849401872,22.975273325922725,9.71794142969884e-05,0.0899572893977165,0,0,0
2314,78851.73573725781,2010-10-09 12:23:35,5942.978593032635,2,7,0.5501165986061096,4.184597969055176,7.21488059878884,6.276477422285145,28.707599202396967,22.975273325922725,6.47544875391759e-05,0.0899572893977165,0,0,0
2315,78881.75082675123,2010-10-09 12:24:05,5972.99368253609,2,7,0.5499359965324402,4.188321113586426,7.219467098475021,6.276477422285145,28.72680093749734,22.975273325922725,6.47544875391759e-05,0.0899572893977165,0,0,0
2316,78911.76602654457,2010-10-09 12:24:35,6003.0088823444585,2,7,0.5499359965324402,4.192044734954834,7.224053622000988,6.276477422285145,28.746019729501217,22.975273325922725,6.47544875391759e-05,0.0899572893977165,0,0,0
2317,78941.78121463374,2010-10-09 12:25:05,6033.02407039352,2,7,0.5501165986061096,4.195767879486084,7.228640145003761,6.276477422285145,28.7652555892938,22.975273325922725,9.71794142969884e-05,0.0899572893977165,0,0,0
2318,78971.79641871776,2010-10-09 12:25:35,6063.039274522656,2,7,0.5501165986061096,4.199653148651123,7.233226619918215,6.276477422285145,28.78450839407711,22.975273325922725,0.0001295089750783,0.0899572893977165,0,0,0
2319,78974.23388326439,2010-10-09 12:25:37,6065.476739029196,2,7,0.550297200679779,4.200138568878174,7.233599086560984,6.276477422285145,28.78607267857297,22.975273325922725,0.0001295089750783,0.0899572893977165,0,0,0
2320,79004.24618464784,2010-10-09 12:26:08,30.01500172969555,3,7,0.0,4.121138572692871,7.233599086560984,6.276477422285145,28.78607267857297,22.975273325922725,-0.0003237724304199,0.0899572893977165,0,0,0
2321,79034.26147937277,2010-10-09 12:26:38,60.03029646465036,3,7,0.0,4.111425399780273,7.233599086560984,6.276477422285145,28.78607267857297,22.975273325922725,-0.0001942634553415,0.0899572893977165,0,0,0
2322,79064.27659484596,2010-10-09 12:27:08,90.0454119177797,3,7,0.0,4.105597496032715,7.233599086560984,6.276477422285145,28.78607267857297,22.975273325922725,-0.0001295089750783,0.0899572893977165,0,0,0
2323,79094.24489677537,2010-10-09 12:27:38,120.01371383216632,3,7,0.0,4.102035999298096,7.233599086560984,6.276477422285145,28.78607267857297,22.975273325922725,-6.47544875391759e-05,0.0899572893977165,0,0,0
2324,79094.25954231939,2010-10-09 12:27:38,0.015669107236497,4,7,0.9839401245117188,4.199653148651123,7.233603387273432,6.276477422285145,28.78609074042019,22.975273325922725,-3.23295607813634e-05,0.0899572893977165,0,0,0
2325,79095.35320466748,2010-10-09 12:27:39,1.109331304944631,4,7,0.933369517326355,4.199653148651123,7.233892999657064,6.276477422285145,28.78730699791583,22.975273325922725,-3.23295607813634e-05,0.0899572893977165,0,0,0
2326,79097.61880599309,2010-10-09 12:27:41,3.374932625543663,4,7,0.8833407163619995,4.199814796447754,7.234463368744282,6.276477422285145,28.78970233706595,22.975273325922725,0.0,0.0899572893977165,0,0,0
2327,79100.97833474744,2010-10-09 12:27:45,6.734461389925661,4,7,0.8331313729286194,4.199653148651123,7.235263009642444,6.276477422285145,28.793060554737764,22.975273325922725,0.0,0.0899572893977165,0,0,0
2328,79105.52491858331,2010-10-09 12:27:49,11.281045215768533,4,7,0.7829219698905945,4.199653148651123,7.236282222430246,6.276477422285145,28.797340893995045,22.975273325922725,0.0,0.0899572893977165,0,0,0
2329,79111.41559018445,2010-10-09 12:27:55,17.171716826937907,4,7,0.7327125668525696,4.199653148651123,7.237520744575764,6.276477422285145,28.80254227566741,22.975273325922725,0.0,0.0899572893977165,0,0,0
2330,79119.02473132545,2010-10-09 12:28:03,24.78085798798544,4,7,0.6825032234191895,4.199653148651123,7.239014412639077,6.276477422285145,28.808815169173982,22.975273325922725,0.0,0.0899572893977165,0,0,0
2331,79129.18098269387,2010-10-09 12:28:13,34.937109336345976,4,7,0.632474422454834,4.199491024017334,7.240866151135578,6.276477422285145,28.816591844725437,22.975273325922725,-3.24249267578125e-05,0.0899572893977165,0,0,0
2332,79143.2120439658,2010-10-09 12:28:27,48.96817060828526,4,7,0.5822650790214539,4.199653148651123,7.243228444042876,6.276477422285145,28.82651269208803,22.975273325922725,0.0,0.0899572893977165,0,0,0
2333,79164.43036982254,2010-10-09 12:28:48,70.18649648508591,4,7,0.5322362780570984,4.199491024017334,7.246503972464345,6.276477422285145,28.840268827070897,22.975273325922725,0.0,0.0899572893977165,0,0,0
2334,79200.63298305399,2010-10-09 12:29:24,106.38910975161173,4,7,0.4822075366973877,4.199329376220703,7.25158379706363,6.276477422285145,28.86160235028565,22.975273325922725,-6.47544875391759e-05,0.0899572893977165,0,0,0
2335,79263.75707373577,2010-10-09 12:30:27,169.51320049353774,4,7,0.4321787655353546,4.199653148651123,7.259566306949632,6.276477422285145,28.89512622483466,22.975273325922725,0.0,0.0899572893977165,0,0,0
2336,79357.88269569742,2010-10-09 12:32:01,263.63882236497113,4,7,0.3821499943733215,4.199653148651123,7.270187727471633,6.276477422285145,28.93973266192788,22.975273325922725,0.0,0.0899572893977165,0,0,0
2337,79476.91031867276,2010-10-09 12:34:00,382.6664453703846,4,7,0.3321212232112884,4.199653148651123,7.281980626289277,6.276477422285145,28.98925894127368,22.975273325922725,0.0,0.0899572893977165,0,0,0
2338,79620.31452147552,2010-10-09 12:36:24,526.0706481129893,4,7,0.2820924520492553,4.199491024017334,7.294191002867308,6.276477422285145,29.040538403341944,22.975273325922725,-3.24249267578125e-05,0.0899572893977165,0,0,0
2339,79793.14022230412,2010-10-09 12:39:17,698.8963489415928,4,7,0.2320636808872223,4.199491024017334,7.306500041366268,6.276477422285145,29.092232206039437,22.975273325922725,-3.24249267578125e-05,0.0899572893977165,0,0,0
2340,80011.10593637997,2010-10-09 12:42:55,916.8620630274684,4,7,0.1820349097251892,4.199653148651123,7.318985367301531,6.276477422285145,29.14466612340541,22.975273325922725,0.0,0.0899572893977165,0,0,0
2341,80306.58628331657,2010-10-09 12:47:50,1212.3424099590518,4,7,0.1318255215883255,4.199491024017334,7.331780307711856,6.276477422285145,29.198400567868955,22.975273325922725,-3.24249267578125e-05,0.0899572893977165,0,0,0
2342,80761.31425632663,2010-10-09 12:55:25,1667.0703829991671,4,7,0.081796757876873,4.199653148651123,7.345055055454428,6.276477422285145,29.2541500511088,22.975273325922725,-3.23295607813634e-05,0.0899572893977165,0,0,0
2343,81264.1196763627,2010-10-09 13:03:48,2169.875803035257,4,7,0.0498289167881011,4.199653148651123,7.354113457104585,6.276477422285145,29.29219228876896,22.975273325922725,-3.23295607813634e-05,0.0899572893977165,0,0,0
2344,81294.13315145214,2010-10-09 13:04:18,30.01532556178476,5,7,0.0,4.192368507385254,7.354113457104585,6.276477422285145,29.29219228876896,22.975273325922725,-6.47544875391759e-05,0.0899572893977165,0,0,0
2345,81324.13263374261,2010-10-09 13:04:48,60.01480784725007,5,7,0.0,4.191397190093994,7.354113457104585,6.276477422285145,29.29219228876896,22.975273325922725,0.0,0.0899572893977165,0,0,0
2346,81324.31937004665,2010-10-09 13:04:48,0.187632723480058,6,7,-1.9243103452026844e-05,4.191235065460205,7.354113457104585,6.276477423288099,29.29219228876896,22.975273330126345,0.0,0.0891468673944473,0,0,0
2347,81329.14733981784,2010-10-09 13:04:53,5.015602464604091,6,7,0.0005225847125984,4.191235065460205,7.354114279219826,6.276477423454411,29.29219573453808,22.975273330823395,-3.24249267578125e-05,0.0891468673944473,0,0,0
2348,81359.16166370061,2010-10-09 13:05:23,30.015176991501896,7,7,-1.099568486213684,4.029187679290772,7.354114279219826,6.285646270891153,29.29219573453808,23.01239352622124,-0.0008093834039755,0.0891468673944473,0,0,0
2349,81389.17713889532,2010-10-09 13:05:53,60.03065217619297,7,7,-1.099568486213684,4.005713939666748,7.354114279219826,6.294815197687679,29.29219573453808,23.049221322258365,-0.0004857063177041,0.0891468673944473,0,0,0
2350,81419.19222803289,2010-10-09 13:06:23,90.04574130371078,7,7,-1.0997490882873535,3.989525556564331,7.354114279219826,6.303983878953583,29.29219573453808,23.08587153552264,-0.0003885269106831,0.0891468673944473,0,0,0
2351,81449.20975865534,2010-10-09 13:06:53,120.06327205149758,7,7,-1.0997490882873535,3.977060317993164,7.354114279219826,6.313153370590854,29.29219573453808,23.122395480230857,-0.0003237724304199,0.0891468673944473,0,0,0
2352,81479.22248735996,2010-10-09 13:07:23,150.07600062077796,7,7,-1.099929690361023,3.966375827789306,7.354114279219826,6.322321290220001,29.29219573453808,23.15880676611059,-0.0002590179501567,0.0891468673944473,0,0,0
2353,81509.23776200986,2010-10-09 13:07:53,180.0912754160369,7,7,-1.0997490882873535,3.956500768661499,7.354114279219826,6.331489998316514,29.29219573453808,23.19512752273001,-0.0002590179501567,0.0891468673944473,0,0,0
2354,81539.25304665968,2010-10-09 13:08:23,210.1065599605941,7,7,-1.099568486213684,3.947435140609741,7.354114279219826,6.340658706148267,29.29219573453808,23.231362075456545,-0.0002590179501567,0.0891468673944473,0,0,0
2355,81569.26820924025,2010-10-09 13:08:53,240.12172259631697,7,7,-1.0997490882873535,3.9386932849884033,7.354114279219826,6.349827361262578,29.29219573453808,23.26751442557762,-0.0002590179501567,0.0891468673944473,0,0,0
2356,81599.28581344613,2010-10-09 13:09:23,270.1393267470465,7,7,-1.099568486213684,3.9301133155822754,7.354114279219826,6.358996770988862,29.29219573453808,23.303591003935537,-0.0002266406954731,0.0891468673944473,0,0,0
2357,81629.29849412105,2010-10-09 13:09:53,300.1520073918844,7,7,-1.0997490882873535,3.921857118606568,7.354114279219826,6.368164706876778,29.29219573453808,23.339585058728247,-0.0002590179501567,0.0891468673944473,0,0,0
2358,81659.31372743793,2010-10-09 13:10:23,330.16724073884143,7,7,-1.099568486213684,3.9139246940612793,7.354114279219826,6.37733343991018,29.29219573453808,23.375507373868736,-0.0001942634553415,0.0891468673944473,0,0,0
2359,81689.32889502098,2010-10-09 13:10:53,360.18240841211946,7,7,-1.099568486213684,3.90583062171936,7.354114279219826,6.386502185996545,29.29219573453808,23.411355841599253,-0.0002266406954731,0.0891468673944473,0,0,0
2360,81719.34410105484,2010-10-09 13:11:23,390.19761441091646,7,7,-1.099568486213684,3.898060083389282,7.354114279219826,6.395670874015895,29.29219573453808,23.447131434998926,-0.0001942634553415,0.0891468673944473,0,0,0
2361,81749.35932979034,2010-10-09 13:11:53,420.2128430611678,7,7,-1.099568486213684,3.890289545059204,7.354114279219826,6.404839565112945,29.29219573453808,23.482835658201772,-0.0001942634553415,0.0891468673944473,0,0,0
2362,81779.37452649596,2010-10-09 13:12:23,450.2280397668034,7,7,-1.0997490882873535,3.882519006729126,7.354114279219826,6.414008235652768,29.29219573453808,23.51846929704251,-0.0002266406954731,0.0891468673944473,0,0,0
2363,81809.3916291067,2010-10-09 13:12:53,480.2451424226534,7,7,-1.0997490882873535,3.874910354614258,7.354114279219826,6.423177537310637,29.29219573453808,23.554035321802427,-0.0002266406954731,0.0891468673944473,0,0,0
2364,81839.40503809178,2010-10-09 13:13:23,510.25855136262686,7,7,-1.0993878841400146,3.8676254749298096,7.354114279219826,6.432345661330848,29.29219573453808,23.58952757893565,-0.0001618862152099,0.0891468673944473,0,0,0
2365,81869.4201204775,2010-10-09 13:13:53,540.273633778417,7,7,-1.0997490882873535,3.860016822814941,7.354114279219826,6.441514359950776,29.29219573453808,23.62495383629104,-0.0002266406954731,0.0891468673944473,0,0,0
2366,81899.4353184513,2010-10-09 13:14:23,570.2888317622381,7,7,-1.0997490882873535,3.852731943130493,7.354114279219826,6.450682998928517,29.29219573453808,23.6603126483396,-0.0002266406954731,0.0891468673944473,0,0,0
2367,81929.45050429988,2010-10-09 13:14:53,600.3040176308647,7,7,-1.099929690361023,3.845608949661255,7.354114279219826,6.45985169188621,29.29219573453808,23.69560548043004,-0.0001942634553415,0.0891468673944473,0,0,0
2368,81959.46572251411,2010-10-09 13:15:23,630.3192357799438,7,7,-1.099568486213684,3.838809728622437,7.354114279219826,6.469020451348952,29.29219573453808,23.73083293218362,-0.0001618862152099,0.0891468673944473,0,0,0
2369,81989.48106674742,2010-10-09 13:15:53,660.3345800283014,7,7,-1.0997490882873535,3.831525087356568,7.354114279219826,6.478189334205295,29.29219573453808,23.765996305883952,-0.0001942634553415,0.0891468673944473,0,0,0
2370,82019.4961663661,2010-10-09 13:16:23,690.3496796269163,7,7,-1.0997490882873535,3.824725866317749,7.354114279219826,6.48735812916066,29.29219573453808,23.801096056785788,-0.0001942634553415,0.0891468673944473,0,0,0
2371,82049.51136837997,2010-10-09 13:16:53,720.3648816407816,7,7,-1.099929690361023,3.81792664527893,7.354114279219826,6.496526982070677,29.29219573453808,23.836133334635036,-0.0001942634553415,0.0891468673944473,0,0,0
2372,82079.52669163099,2010-10-09 13:17:23,750.3802049369199,7,7,-1.0997490882873535,3.811127424240112,7.354114279219826,6.505695769394387,29.29219573453808,23.8711086976219,-0.0001942634553415,0.0891468673944473,0,0,0
2373,82109.54176954055,2010-10-09 13:17:53,780.395282806379,7,7,-1.099568486213684,3.804813861846924,7.354114279219826,6.514864527221016,29.29219573453808,23.90602327587873,-0.0001618862152099,0.0891468673944473,0,0,0
2374,82139.5569859152,2010-10-09 13:18:23,810.4104991810358,7,7,-1.0993878841400146,3.798500299453736,7.354114279219826,6.524033322918967,29.29219573453808,23.940879160120225,-0.0001295089750783,0.0891468673944473,0,0,0
2375,82169.572314289,2010-10-09 13:18:53,840.4258275698664,7,7,-1.0997490882873535,3.792186737060547,7.354114279219826,6.533202220911737,29.29219573453808,23.97567789397889,-0.0001618862152099,0.0891468673944473,0,0,0
2376,82199.58736600829,2010-10-09 13:19:23,870.4408792841389,7,7,-1.0997490882873535,3.786035060882568,7.354114279219826,6.542371032590991,29.29219573453808,24.010419591307897,-0.0001618862152099,0.0891468673944473,0,0,0
2377,82229.6025843328,2010-10-09 13:19:54,900.4560975986304,7,7,-1.0997490882873535,3.7800452709198,7.354114279219826,6.5515399511179,29.29219573453808,24.04510597416885,-0.0001618862152099,0.0891468673944473,0,0,0
2378,82259.61778944438,2010-10-09 13:20:24,930.4713027152288,7,7,-1.0997490882873535,3.7740554809570312,7.354114279219826,6.560708897417364,29.29219573453808,24.07973756942771,-0.0001618862152099,0.0891468673944473,0,0,0
2379,82289.63299645069,2010-10-09 13:20:54,960.4865097365742,7,7,-1.099568486213684,3.7685513496398926,7.354114279219826,6.569877748654372,29.29219573453808,24.114314937405403,-0.0001295089750783,0.0891468673944473,0,0,0
2380,82319.64818212383,2010-10-09 13:21:24,990.5016953996884,7,7,-1.099568486213684,3.762723445892334,7.354114279219826,6.57904661126568,29.29219573453808,24.148839980892248,-0.0001295089750783,0.0891468673944473,0,0,0
2381,82349.66338761637,2010-10-09 13:21:54,1020.5169008821988,7,7,-1.0997490882873535,3.757057428359986,7.354114279219826,6.588215530450534,29.29219573453808,24.18331354626228,-0.0001295089750783,0.0891468673944473,0,0,0
2382,82379.67862298337,2010-10-09 13:22:24,1050.5321363043277,7,7,-1.0997490882873535,3.751553535461426,7.354114279219826,6.597384475022778,29.29219573453808,24.21773649517909,-0.0001295089750783,0.0891468673944473,0,0,0
2383,82409.69605863413,2010-10-09 13:22:54,1080.549571960116,7,7,-1.099929690361023,3.746049404144287,7.354114279219826,6.606554043642152,29.29219573453808,24.25211220922325,-0.0001618862152099,0.0891468673944473,0,0,0
2384,82439.70903633932,2010-10-09 13:23:24,1110.5625496051698,7,7,-1.0997490882873535,3.740869045257568,7.354114279219826,6.615722299040565,29.29219573453808,24.28643421691054,-0.0001618862152099,0.0891468673944473,0,0,0
2385,82469.7242039224,2010-10-09 13:23:54,1140.577717188223,7,7,-1.099929690361023,3.73585057258606,7.354114279219826,6.624891198288783,29.29219573453808,24.32071063302789,-0.0001295089750783,0.0891468673944473,0,0,0
2386,82499.7394286629,2010-10-09 13:24:24,1170.5929419537924,7,7,-1.099568486213684,3.730670213699341,7.354114279219826,6.634060057311503,29.29219573453808,24.35494002321683,-0.0001618862152099,0.0891468673944473,0,0,0
2387,82529.75473135269,2010-10-09 13:24:54,1200.608244628536,7,7,-1.0997490882873535,3.725813627243042,7.354114279219826,6.643228908923585,29.29219573453808,24.38912365503219,-9.713172767078504e-05,0.0891468673944473,0,0,0
2388,82559.76994025371,2010-10-09 13:25:24,1230.6234535345784,7,7,-1.0997490882873535,3.720795154571533,7.354114279219826,6.652397836111709,29.29219573453808,24.42326229825265,-0.0001295089750783,0.0891468673944473,0,0,0
2389,82589.78505157655,2010-10-09 13:25:54,1260.6385648724513,7,7,-1.0997490882873535,3.7159385681152335,7.354114279219826,6.661566707600499,29.29219573453808,24.45735585859843,-0.0001295089750783,0.0891468673944473,0,0,0
2390,82619.80023956044,2010-10-09 13:26:24,1290.6537529465743,7,7,-1.099568486213684,3.7112438678741455,7.354114279219826,6.670735646287795,29.29219573453808,24.49140537536845,-0.0001295089750783,0.0891468673944473,0,0,0
2391,82649.815417775,2010-10-09 13:26:54,1320.6689311611246,7,7,-1.099568486213684,3.706387281417847,7.354114279219826,6.679904560924056,29.29219573453808,24.52541109786391,-0.0001618862152099,0.0891468673944473,0,0,0
2392,82679.83062880131,2010-10-09 13:27:24,1350.6841420671522,7,7,-1.099929690361023,3.701692581176758,7.354114279219826,6.689073501228892,29.29219573453808,24.55937396410507,-0.0001618862152099,0.0891468673944473,0,0,0
2393,82709.8458350708,2010-10-09 13:27:54,1380.6993483366234,7,7,-1.099568486213684,3.697321653366089,7.354114279219826,6.698242406607314,29.29219573453808,24.59329419163842,-0.0001295089750783,0.0891468673944473,0,0,0
2394,82739.8610482976,2010-10-09 13:28:24,1410.7145615684476,7,7,-1.099929690361023,3.692626953125,7.354114279219826,6.707411381450466,29.29219573453808,24.62717283260371,-0.0001618862152099,0.0891468673944473,0,0,0
2395,82769.87623255722,2010-10-09 13:28:54,1440.7297458581386,7,7,-1.099929690361023,3.688094139099121,7.354114279219826,6.716580265349707,29.29219573453808,24.661009875445288,-0.0001295089750783,0.0891468673944473,0,0,0
2396,82799.89145762855,2010-10-09 13:29:24,1470.7449709495204,7,7,-1.099568486213684,3.683885097503662,7.354114279219826,6.72574917484739,29.29219573453808,24.694805878240253,-9.713172767078504e-05,0.0891468673944473,0,0,0
2397,82829.90663823407,2010-10-09 13:29:54,1500.760151499892,7,7,-1.099568486213684,3.679352283477783,7.354114279219826,6.734918033879651,29.29219573453808,24.728561401905157,-0.0001295089750783,0.0891468673944473,0,0,0
2398,82859.92186149588,2010-10-09 13:30:24,1530.7753747717388,7,7,-1.099568486213684,3.675143241882324,7.354114279219826,6.744086913506875,29.29219573453808,24.76227714819538,-0.0001295089750783,0.0891468673944473,0,0,0
2399,82889.93704552493,2010-10-09 13:30:54,1560.7905587957678,7,7,-1.0997490882873535,3.6707725524902335,7.354114279219826,6.75325588048527,29.29219573453808,24.795953945747485,-0.0001295089750783,0.0891468673944473,0,0,0
2400,82919.95237639494,2010-10-09 13:31:24,1590.8058896758075,7,7,-1.0997490882873535,3.666725397109986,7.354114279219826,6.762424841954936,29.29219573453808,24.829591788704327,-3.237724376958795e-05,0.0891468673944473,0,0,0
2401,82949.96745625437,2010-10-09 13:31:54,1620.8209695201888,7,7,-1.099568486213684,3.662354469299317,7.354114279219826,6.771593707490865,29.29219573453808,24.86319124140192,-9.713172767078504e-05,0.0891468673944473,0,0,0
2402,82979.98267514027,2010-10-09 13:32:24,1650.8361884111168,7,7,-1.0997490882873535,3.658469200134277,7.354114279219826,6.78076264999875,29.29219573453808,24.896753365785944,-6.47544875391759e-05,0.0891468673944473,0,0,0
2403,83009.99987165505,2010-10-09 13:32:54,1680.853384986042,7,7,-1.0997490882873535,3.654422044754028,7.354114279219826,6.789932210059211,29.29219573453808,24.930280561240465,-9.713172767078504e-05,0.0891468673944473,0,0,0
2404,83040.0132109364,2010-10-09 13:33:24,1710.86672433758,7,7,-1.0997490882873535,3.6503748893737793,7.354114279219826,6.79910053552016,29.29219573453808,24.963767035201897,-9.713172767078504e-05,0.0891468673944473,0,0,0
2405,83070.02829560281,2010-10-09 13:33:54,1740.8818088987166,7,7,-1.0997490882873535,3.64648962020874,7.354114279219826,6.808269412881122,29.29219573453808,24.99721979649769,-9.713172767078504e-05,0.0891468673944473,0,0,0
2406,83100.04353268909,2010-10-09 13:34:24,1770.8970459900058,7,7,-1.099929690361023,3.642766237258911,7.354114279219826,6.817438244597998,29.29219573453808,25.03063739758472,-0.0001295089750783,0.0891468673944473,0,0,0
2407,83130.05868281864,2010-10-09 13:34:54,1800.9121960894845,7,7,-1.0997490882873535,3.639204740524292,7.354114279219826,6.826607153521201,29.29219573453808,25.06402117685838,-6.47544875391759e-05,0.0891468673944473,0,0,0
2408,83160.07388499792,2010-10-09 13:35:24,1830.9273982637496,7,7,-1.099929690361023,3.635481357574463,7.354114279219826,6.835776051517782,29.29219573453808,25.097371613022883,-9.713172767078504e-05,0.0891468673944473,0,0,0
2409,83190.08911891631,2010-10-09 13:35:54,1860.9426321971685,7,7,-1.099568486213684,3.631919860839844,7.354114279219826,6.844944980711866,29.29219573453808,25.130689764111725,-0.0001618862152099,0.0891468673944473,0,0,0
2410,83220.10433054413,2010-10-09 13:36:24,1890.9578438650944,7,7,-1.099929690361023,3.628682136535645,7.354114279219826,6.854113976422261,29.29219573453808,25.163976514118968,-6.47544875391759e-05,0.0891468673944473,0,0,0
2411,83250.11950607199,2010-10-09 13:36:54,1920.973019342824,7,7,-1.0997490882873535,3.6252825260162354,7.354114279219826,6.863282880910415,29.29219573453808,25.197232108032463,-9.713172767078504e-05,0.0891468673944473,0,0,0
2412,83280.13470576507,2010-10-09 13:37:24,1950.9882190409176,7,7,-1.0997490882873535,3.622206687927246,7.354114279219826,6.872451864902757,29.29219573453808,25.23045801323928,-6.47544875391759e-05,0.0891468673944473,0,0,0
2413,83310.15014106034,2010-10-09 13:37:54,1981.0036543612543,7,7,-1.099568486213684,3.618968963623047,7.354114279219826,6.881620099636818,29.29219573453808,25.263651913965724,-9.713172767078504e-05,0.0891468673944473,0,0,0
2414,83340.16508341204,2010-10-09 13:38:24,2011.018596677874,7,7,-1.0997490882873535,3.6158931255340576,7.354114279219826,6.890788201982965,29.29219573453808,25.296816714254103,-9.713172767078504e-05,0.0891468673944473,0,0,0
2415,83370.18276114616,2010-10-09 13:38:54,2041.0362745423208,7,7,-1.0997490882873535,3.612817287445069,7.354114279219826,6.899957155356946,29.29219573453808,25.329956880658063,-9.713172767078504e-05,0.0891468673944473,0,0,0
2416,83400.1955289382,2010-10-09 13:39:24,2071.0490423042816,7,7,-1.099568486213684,3.610065221786499,7.354114279219826,6.909124535326859,29.29219573453808,25.363064364328547,-9.713172767078504e-05,0.0891468673944473,0,0,0
2417,83430.21076138792,2010-10-09 13:39:54,2101.0642746838275,7,7,-1.0997490882873535,3.60715126991272,7.354114279219826,6.918292648984505,29.29219573453808,25.396148206568373,-6.47544875391759e-05,0.0891468673944473,0,0,0
2418,83460.2259215575,2010-10-09 13:40:24,2131.0794348183163,7,7,-1.099568486213684,3.604237318038941,7.354114279219826,6.927460695215724,29.29219573453808,25.429205571484584,-6.47544875391759e-05,0.0891468673944473,0,0,0
2419,83490.24111267421,2010-10-09 13:40:54,2161.0946259400357,7,7,-1.099568486213684,3.601647138595581,7.354114279219826,6.936629325470133,29.29219573453808,25.46223960341685,-6.47544875391759e-05,0.0891468673944473,0,0,0
2420,83520.25865969254,2010-10-09 13:41:24,2191.112173098723,7,7,-1.0997490882873535,3.598895072937012,7.354114279219826,6.945798767612748,29.29219573453808,25.49525147188601,-6.47544875391759e-05,0.0891468673944473,0,0,0
2421,83550.27166430981,2010-10-09 13:41:54,2221.1251775806627,7,7,-1.0997490882873535,3.5961430072784424,7.354114279219826,6.954966882137094,29.29219573453808,25.52823379423976,-9.713172767078504e-05,0.0891468673944473,0,0,0
2422,83580.2867600087,2010-10-09 13:42:24,2251.140273309634,7,7,-1.099568486213684,3.593552827835083,7.354114279219826,6.964135668967821,29.29219573453808,25.561194004041493,-6.47544875391759e-05,0.0891468673944473,0,0,0
2423,83610.30384646419,2010-10-09 13:42:54,2281.157359775132,7,7,-1.0997490882873535,3.5908010005950928,7.354114279219826,6.973305019916421,29.29219573453808,25.59413217795777,-6.47544875391759e-05,0.0891468673944473,0,0,0
2424,83640.31716132468,2010-10-09 13:43:24,2311.1706746205928,7,7,-1.0997490882873535,3.5882108211517334,7.354114279219826,6.982473162020359,29.29219573453808,25.62704181200027,-6.47544875391759e-05,0.0891468673944473,0,0,0
2425,83670.33234990005,2010-10-09 13:43:54,2341.185863200978,7,7,-1.099568486213684,3.585620641708374,7.354114279219826,6.991641973957925,29.29219573453808,25.659929597055616,-3.237724376958795e-05,0.0891468673944473,0,0,0
2426,83700.3475900189,2010-10-09 13:44:24,2371.2011033097874,7,7,-1.0997490882873535,3.583030462265014,7.354114279219826,7.000810702217351,29.29219573453808,25.692792684203862,-6.47544875391759e-05,0.0891468673944473,0,0,0
2427,83730.3627516471,2010-10-09 13:44:54,2401.216264917949,7,7,-1.099568486213684,3.5802783966064453,7.354114279219826,7.009979452265336,29.29219573453808,25.72563129313573,-3.237724376958795e-05,0.0891468673944473,0,0,0
2428,83760.37819933827,2010-10-09 13:45:24,2431.231712619143,7,7,-1.099568486213684,3.577526330947876,7.354114279219826,7.019148280033019,29.29219573453808,25.75844536861281,-9.713172767078504e-05,0.0891468673944473,0,0,0
2429,83790.39316145425,2010-10-09 13:45:54,2461.246674745134,7,7,-1.0997490882873535,3.5746123790740967,7.354114279219826,7.028316875984842,29.29219573453808,25.79123343226828,-9.713172767078504e-05,0.0891468673944473,0,0,0
2430,83820.4083689217,2010-10-09 13:46:24,2491.261882247679,7,7,-1.0997490882873535,3.571860313415528,7.354114279219826,7.037485520436754,29.29219573453808,25.823995893952127,-9.713172767078504e-05,0.0891468673944473,0,0,0
2431,83850.42357796308,2010-10-09 13:46:54,2521.277091253972,7,7,-1.0997490882873535,3.569108247756958,7.354114279219826,7.046654232324083,29.29219573453808,25.85673222404466,-6.47544875391759e-05,0.0891468673944473,0,0,0
2432,83880.43876833293,2010-10-09 13:47:24,2551.292281628829,7,7,-1.0997490882873535,3.5660324096679688,7.354114279219826,7.055822881794984,29.29219573453808,25.889441175060423,-6.47544875391759e-05,0.0891468673944473,0,0,0
2433,83910.45410060142,2010-10-09 13:47:54,2581.307613902341,7,7,-1.0997490882873535,3.5629565715789795,7.354114279219826,7.064991628504008,29.29219573453808,25.92212223518543,-6.47544875391759e-05,0.0891468673944473,0,0,0
2434,83940.46932178308,2010-10-09 13:48:24,2611.3228350539034,7,7,-1.0997490882873535,3.5597188472747803,7.354114279219826,7.074160350556533,29.29219573453808,25.9547748992995,-6.47544875391759e-05,0.0891468673944473,0,0,0
2435,83970.48438489574,2010-10-09 13:48:54,2641.337898161572,7,7,-1.099568486213684,3.556481122970581,7.354114279219826,7.083329075778782,29.29219573453808,25.9873978194966,-9.713172767078504e-05,0.0891468673944473,0,0,0
2436,84000.49971878328,2010-10-09 13:49:24,2671.353232109257,7,7,-1.0997490882873535,3.552919626235962,7.354114279219826,7.092497897165983,29.29219573453808,26.01999011025674,-6.47544875391759e-05,0.0891468673944473,0,0,0
2437,84030.51480136949,2010-10-09 13:49:54,2701.3683146603844,7,7,-1.0997490882873535,3.5493581295013428,7.354114279219826,7.101666627124879,29.29219573453808,26.052550084188944,-9.713172767078504e-05,0.0891468673944473,0,0,0
2438,84060.53014798375,2010-10-09 13:50:24,2731.383661359851,7,7,-1.099568486213684,3.545796632766724,7.354114279219826,7.110835431766944,29.29219573453808,26.085077348921555,-0.0001295089750783,0.0891468673944473,0,0,0
2439,84090.54520007897,2010-10-09 13:50:54,2761.398713344798,7,7,-1.0997490882873535,3.5420732498168945,7.354114279219826,7.120004160235199,29.29219573453808,26.1175701365766,-6.47544875391759e-05,0.0891468673944473,0,0,0
2440,84120.5604082231,2010-10-09 13:51:24,2791.413921493954,7,7,-1.0997490882873535,3.5381879806518555,7.354114279219826,7.12917290750648,29.29219573453808,26.15002800383527,-9.713172767078504e-05,0.0891468673944473,0,0,0
2441,84150.57561387605,2010-10-09 13:51:55,2821.4291271368643,7,7,-1.0997490882873535,3.5341408252716064,7.354114279219826,7.138341664938804,29.29219573453808,26.182449713788472,-9.713172767078504e-05,0.0891468673944473,0,0,0
2442,84180.59085310265,2010-10-09 13:52:25,2851.4443663935504,7,7,-1.0997490882873535,3.5299317836761475,7.354114279219826,7.147510456890461,29.29219573453808,26.214834206904904,-0.0001295089750783,0.0891468673944473,0,0,0
2443,84210.60797168821,2010-10-09 13:52:55,2881.461484959052,7,7,-1.099929690361023,3.5257227420806885,7.354114279219826,7.156679846716531,29.29219573453808,26.24718242821444,-9.713172767078504e-05,0.0891468673944473,0,0,0
2444,84240.62123942125,2010-10-09 13:53:25,2911.4747527271816,7,7,-1.0997490882873535,3.5211899280548096,7.354114279219826,7.165848050464631,29.29219573453808,26.27948657810736,-0.0001295089750783,0.0891468673944473,0,0,0
2445,84270.63645413678,2010-10-09 13:53:55,2941.489967422653,7,7,-1.099568486213684,3.5166571140289307,7.354114279219826,7.175016851983187,29.29219573453808,26.311751435559845,-9.713172767078504e-05,0.0891468673944473,0,0,0
2446,84300.65178303687,2010-10-09 13:54:25,2971.505296317746,7,7,-1.099568486213684,3.511638879776001,7.354114279219826,7.184185693385224,29.29219573453808,26.343972758120508,-0.0001618385285837,0.0891468673944473,0,0,0
2447,84330.66685483119,2010-10-09 13:54:55,3001.5203681271014,7,7,-1.0997490882873535,3.5064585208892822,7.354114279219826,7.19335449708107,29.29219573453808,26.376147467050316,-0.0001618862152099,0.0891468673944473,0,0,0
2448,84360.68205398294,2010-10-09 13:55:25,3031.535567283846,7,7,-1.099568486213684,3.5007925033569336,7.354114279219826,7.202523326658692,29.29219573453808,26.40827176184834,-0.0001295089750783,0.0891468673944473,0,0,0
2449,84390.69727375606,2010-10-09 13:55:55,3061.550787046948,7,7,-1.0997490882873535,3.494478940963745,7.354114279219826,7.211692135585349,29.29219573453808,26.440341007176738,-0.0001942634553415,0.0891468673944473,0,0,0
2450,84420.71262504697,2010-10-09 13:56:25,3091.5661383278325,7,7,-1.099568486213684,3.487194061279297,7.354114279219826,7.220861022290291,29.29219573453808,26.47234876212076,-0.0001942634553415,0.0891468673944473,0,0,0
2451,84450.72766015485,2010-10-09 13:56:55,3121.581173430704,7,7,-1.0997490882873535,3.479099750518799,7.354114279219826,7.230029836555886,29.29219573453808,26.504286063207545,-0.0001942634553415,0.0891468673944473,0,0,0
2452,84480.74289008329,2010-10-09 13:57:25,3151.5964033491164,7,7,-1.0997490882873535,3.469224691390991,7.354114279219826,7.239198594078277,29.29219573453808,26.536141248743515,-0.0003237724304199,0.0891468673944473,0,0,0
2453,84510.75807771631,2010-10-09 13:57:55,3181.61159102224,7,7,-1.0997490882873535,3.457245111465454,7.354114279219826,7.248367387238154,29.29219573453808,26.56789796486333,-0.0003561496851034,0.0891468673944473,0,0,0
2454,84540.77329283784,2010-10-09 13:58:25,3211.626806108686,7,7,-1.0997490882873535,3.442189693450928,7.354114279219826,7.257536247357735,29.29219573453808,26.599531392209165,-0.0004532813909463,0.0891468673944473,0,0,0
2455,84570.78848158865,2010-10-09 13:58:55,3241.6419948645084,7,7,-1.0997490882873535,3.421468496322632,7.354114279219826,7.266705130393136,29.29219573453808,26.63100231037977,-0.0006475448608398,0.0891468673944473,0,0,0
2456,84600.803686204,2010-10-09 13:59:25,3271.657199469833,7,7,-1.099568486213684,3.3931384086608887,7.354114279219826,7.275873943917081,29.29219573453808,26.662250637120145,-0.0008741855854168,0.0891468673944473,0,0,0
2457,84630.81890204232,2010-10-09 13:59:55,3301.672415338227,7,7,-1.099568486213684,3.3525049686431885,7.354114279219826,7.28504267684358,29.29219573453808,26.69318534145983,-0.0012303352123126,0.0891468673944473,0,0,0
2458,84660.83413231662,2010-10-09 14:00:25,3331.687645617539,7,7,-1.0997490882873535,3.294388055801392,7.354114279219826,7.294211538435982,29.29219573453808,26.723672386524093,-0.0017807483673095,0.0891468673944473,0,0,0
2459,84690.84932334309,2010-10-09 14:00:55,3361.7028366440204,7,7,-1.0997490882873535,3.2113406658172607,7.354114279219826,7.303380452321593,29.29219573453808,26.753520099637456,-0.0025901794433593,0.0891468673944473,0,0,0
2460,84720.86451078566,2010-10-09 14:01:25,3391.7180240715325,7,7,-1.0997490882873535,3.085879325866699,7.354114279219826,7.312549323135296,29.29219573453808,26.782433439390864,-0.0040795328095555,0.0891468673944473,0,0,0
2461,84746.36427182624,2010-10-09 14:01:50,3417.217785092076,7,7,-1.0997490882873535,2.8857884407043457,7.354114279219826,7.320338817718716,29.29219573453808,26.80580519744221,-0.0090980054810643,0.0891468673944473,0,0,0
2462,84758.395241299,2010-10-09 14:02:02,3429.248754569851,7,7,-1.0997490882873535,2.699943780899048,7.354114279219826,7.324013973943942,29.29219573453808,26.816088966007705,-0.0136631485074758,0.0891468673944473,0,0,0
2463,84818.41043194995,2010-10-09 14:03:02,60.01476785758352,8,7,0.0,3.2815990447998047,7.354114279219826,7.324013973943942,29.29219573453808,26.816088966007705,0.0011655807029455,0.0891468673944473,0,0,0
2464,84818.599127112,2010-10-09 14:03:03,0.187425627332737,9,7,-1.9243103452026844e-05,3.281760931015014,7.354114279219826,7.32401397494579,29.29219573453808,26.816088969295528,0.0,0.0884163826704025,0,0,0
2465,84823.42729708717,2010-10-09 14:03:08,5.01559560250162,9,7,0.0007031940040178,3.289207696914673,7.354115074641918,7.324013975112931,29.29219834831795,26.81608896984404,0.0010684489971026,0.0884163826704025,0,0,0
