Data_Point,Test_Time(s),Date_Time,Step_Time(s),Step_Index,Cycle_Index,Current(A),Voltage(V),Charge_Capacity(Ah),Discharge_Capacity(Ah),Charge_Energy(Wh),Discharge_Energy(Wh),dV/dt(V/s),Internal_Resistance(Ohm),Is_FC_Data,AC_Impedance(Ohm),ACI_Phase_Angle(Deg)
7697,261805.17534993123,2010-10-11 15:13:08,30.015134265014343,1,23,0.0,3.3737120628356934,22.851121411767632,22.806844719289323,90.92506327364968,83.5167023327022,0.0007122993702068,0.0907677188515663,0,0,0
7698,261835.1906438692,2010-10-11 15:13:38,60.03042826313273,1,23,0.0,3.396538019180298,22.851121411767632,22.806844719289323,90.92506327364968,83.5167023327022,0.0005827903514727,0.0907677188515663,0,0,0
7699,261865.20571074623,2010-10-11 15:14:08,90.04549520034548,1,23,0.0,3.413374185562134,22.851121411767632,22.806844719289323,90.92506327364968,83.5167023327022,0.0004532813909463,0.0907677188515663,0,0,0
7700,261895.1739531022,2010-10-11 15:14:38,120.0137374610568,1,23,0.0,3.4264869689941406,22.851121411767632,22.806844719289323,90.92506327364968,83.5167023327022,0.0003561496851034,0.0907677188515663,0,0,0
7701,261925.19630439745,2010-10-11 15:15:08,30.014896221737253,2,23,0.5499359965324402,3.581249713897705,22.855707743947463,22.806844719289323,90.94132494166436,83.5167023327022,0.0015864849556237,0.0907677188515663,0,0,0
7702,261955.21424570848,2010-10-11 15:15:38,60.032837638036334,2,23,0.5501165986061096,3.630139112472534,22.860294523606346,22.806844719289323,90.95787063506404,83.5167023327022,0.0010684489971026,0.0907677188515663,0,0,0
7703,261985.22662797468,2010-10-11 15:16:08,90.04521974382307,2,23,0.550297200679779,3.6660778522491455,22.86488052667251,22.806844719289323,90.974604542889,83.5167023327022,0.0008418083307333,0.0907677188515663,0,0,0
7704,262015.2417869513,2010-10-11 15:16:38,120.06037873045128,2,23,0.5501165986061096,3.6940839290618896,22.869466801100305,22.806844719289323,90.9914844778126,83.5167023327022,0.0006799221155233,0.0907677188515663,0,0,0
7705,262045.2569609403,2010-10-11 15:17:08,150.07555274453253,2,23,0.5501165986061096,3.717071771621704,22.8740531213946,22.806844719289323,91.00848129824986,83.5167023327022,0.0005504131549969,0.0907677188515663,0,0,0
7706,262075.2720926289,2010-10-11 15:17:38,180.0906844080632,2,23,0.550297200679779,3.7363362312316895,22.87863954791545,22.806844719289323,91.02557494432332,83.5167023327022,0.0004532813909463,0.0907677188515663,0,0,0
7707,262105.290612542,2010-10-11 15:18:08,210.1092044564916,2,23,0.5501165986061096,3.752039194107056,22.88322644274422,22.806844719289323,91.0427500789858,83.5167023327022,0.0003885269106831,0.0907677188515663,0,0,0
7708,262135.30244462696,2010-10-11 15:18:38,240.1210364612573,2,23,0.550297200679779,3.762885332107544,22.887812299453,22.806844719289323,91.05998294926395,83.5167023327022,0.0002590179501567,0.0907677188515663,0,0,0
7709,262165.3177164348,2010-10-11 15:19:08,270.1363082440081,2,23,0.5501165986061096,3.769522666931152,22.89239871258306,22.806844719289323,91.07725752837976,83.5167023327022,0.0001295089750783,0.0907677188515663,0,0,0
7710,262195.33271487127,2010-10-11 15:19:38,300.151306680496,2,23,0.5501165986061096,3.7737317085266113,22.896985099281345,22.806844719289323,91.09455596091816,83.5167023327022,9.713172767078504e-05,0.0907677188515663,0,0,0
7711,262225.347935276,2010-10-11 15:20:08,330.16652704008453,2,23,0.5501165986061096,3.777131319046021,22.901571429918956,22.806844719289323,91.11187151726428,83.5167023327022,6.47544875391759e-05,0.0907677188515663,0,0,0
7712,262255.363190713,2010-10-11 15:20:38,360.1817824871218,2,23,0.5501165986061096,3.7805309295654297,22.906157781360303,22.806844719289323,91.12920250615264,83.5167023327022,6.47544875391759e-05,0.0907677188515663,0,0,0
7713,262285.37824207137,2010-10-11 15:21:08,390.19683385553225,2,23,0.5499359965324402,3.783768653869629,22.91074405732219,22.806844719289323,91.14654809647232,83.5167023327022,9.713172767078504e-05,0.0907677188515663,0,0,0
7714,262315.39530137414,2010-10-11 15:21:38,420.213893198433,2,23,0.5501165986061096,3.787006378173828,22.915330677637428,22.806844719289323,91.1639098369707,83.5167023327022,6.47544875391759e-05,0.0907677188515663,0,0,0
7715,262345.4086882241,2010-10-11 15:22:08,450.2272800333138,2,23,0.5499359965324402,3.7900822162628174,22.91991674442452,22.806844719289323,91.18128429808056,83.5167023327022,9.713172767078504e-05,0.0907677188515663,0,0,0
7716,262375.4237294272,2010-10-11 15:22:38,480.24232126646416,2,23,0.5501165986061096,3.7933199405670166,22.924503094554645,22.806844719289323,91.198674521362,83.5167023327022,9.713172767078504e-05,0.0907677188515663,0,0,0
7717,262405.43885910074,2010-10-11 15:23:08,510.25745097512265,2,23,0.5501165986061096,3.796395778656006,22.929089376741373,22.806844719289323,91.21607906981656,83.5167023327022,6.47544875391759e-05,0.0907677188515663,0,0,0
7718,262435.4539879773,2010-10-11 15:23:38,540.2725797664949,2,23,0.5499359965324402,3.799471616744995,22.933675643287565,22.806844719289323,91.2334978953889,83.5167023327022,6.47544875391759e-05,0.0907677188515663,0,0,0
7719,262465.4691431193,2010-10-11 15:24:08,570.2877348884913,2,23,0.5499359965324402,3.802547454833984,22.938261879327168,22.806844719289323,91.25093068630116,83.5167023327022,6.47544875391759e-05,0.0907677188515663,0,0,0
7720,262495.4843127576,2010-10-11 15:24:38,600.3029045567415,2,23,0.5501165986061096,3.8056232929229736,22.942848112494456,22.806844719289323,91.26837734747072,83.5167023327022,6.47544875391759e-05,0.0907677188515663,0,0,0
7721,262525.49947860127,2010-10-11 15:25:08,630.3180703804096,2,23,0.5501165986061096,3.808699131011963,22.947434422874,22.806844719289323,91.2858381228624,83.5167023327022,9.713172767078504e-05,0.0907677188515663,0,0,0
7722,262555.51461590885,2010-10-11 15:25:38,660.3332076880071,2,23,0.5501165986061096,3.811613082885742,22.952020797088537,22.806844719289323,91.30331283672528,83.5167023327022,3.237724376958795e-05,0.0907677188515663,0,0,0
7723,262585.52993084915,2010-10-11 15:26:08,690.3485227285697,2,23,0.5501165986061096,3.814688920974731,22.956607090317284,22.806844719289323,91.32080102342758,83.5167023327022,6.47544875391759e-05,0.0907677188515663,0,0,0
7724,262615.5450679663,2010-10-11 15:26:38,720.3636597454424,2,23,0.5501165986061096,3.8177647590637207,22.961193406904837,22.806844719289323,91.33830328324544,83.5167023327022,9.713172767078504e-05,0.0907677188515663,0,0,0
7725,262645.5601134751,2010-10-11 15:27:08,750.378705284324,2,23,0.5501165986061096,3.8206787109375,22.965779701985824,22.806844719289323,91.35581952673816,83.5167023327022,6.47544875391759e-05,0.0907677188515663,0,0,0
7726,262675.5752931032,2010-10-11 15:27:38,780.3938849073845,2,23,0.5501165986061096,3.823916435241699,22.9703660093006,22.806844719289323,91.37335013085124,83.5167023327022,6.47544875391759e-05,0.0907677188515663,0,0,0
7727,262705.59039154387,2010-10-11 15:28:08,810.4089833380888,2,23,0.5501165986061096,3.827316045761109,22.974952304456306,22.806844719289323,91.3908954600976,83.5167023327022,9.713172767078504e-05,0.0907677188515663,0,0,0
7728,262735.6055383953,2010-10-11 15:28:39,840.4241301744347,2,23,0.5501165986061096,3.830553770065308,22.979538678345435,22.806844719289323,91.40845622740255,83.5167023327022,9.713172767078504e-05,0.0907677188515663,0,0,0
7729,262765.6207083893,2010-10-11 15:29:09,870.4393001634844,2,23,0.5501165986061096,3.8339531421661377,22.984124980151257,22.806844719289323,91.42603212806412,83.5167023327022,6.47544875391759e-05,0.0907677188515663,0,0,0
7730,262795.63587681955,2010-10-11 15:29:39,900.4544687440236,2,23,0.5499359965324402,3.837352752685547,22.9887112894014,22.806844719289323,91.44362369722246,83.5167023327022,6.47544875391759e-05,0.0907677188515663,0,0,0
7731,262825.6510078765,2010-10-11 15:30:09,930.4695996757304,2,23,0.5501165986061096,3.840914249420166,22.9932975951958,22.806844719289323,91.46123088715548,83.5167023327022,0.0001295089750783,0.0907677188515663,0,0,0
7732,262855.66615791083,2010-10-11 15:30:39,960.4847497200716,2,23,0.5501165986061096,3.844313859939575,22.99788393299852,22.806844719289323,91.47885380295192,83.5167023327022,0.0001295089750783,0.0907677188515663,0,0,0
7733,262885.68145755806,2010-10-11 15:31:09,990.5000493472191,2,23,0.550297200679779,3.8475515842437744,23.00247023601799,22.806844719289323,91.49649194044837,83.5167023327022,0.0001295089750783,0.0907677188515663,0,0,0
7734,262915.6986001033,2010-10-11 15:31:39,1020.5171919275732,2,23,0.5499359965324402,3.8507893085479736,23.00705687845938,22.806844719289323,91.5141464834186,83.5167023327022,9.713172767078504e-05,0.0907677188515663,0,0,0
7735,262945.71162938705,2010-10-11 15:32:09,1050.530221156189,2,23,0.5501165986061096,3.854027032852173,23.011642870512613,22.806844719289323,91.53181329820258,83.5167023327022,9.713172767078504e-05,0.0907677188515663,0,0,0
7736,262975.726774845,2010-10-11 15:32:39,1080.5453666241249,2,23,0.5501165986061096,3.857264757156372,23.016229184440675,22.806844719289323,91.54949598215552,83.5167023327022,0.0001295089750783,0.0907677188515663,0,0,0
7737,263005.7419731897,2010-10-11 15:33:09,1110.5605649788704,2,23,0.5501165986061096,3.860178709030152,23.02081551093847,22.806844719289323,91.56719302875564,83.5167023327022,6.47544875391759e-05,0.0907677188515663,0,0,0
7738,263035.7570914799,2010-10-11 15:33:39,1140.5756832590455,2,23,0.5501165986061096,3.86309266090393,23.0254018680254,22.806844719289323,91.58490423053216,83.5167023327022,6.47544875391759e-05,0.0907677188515663,0,0,0
7739,263065.7722366471,2010-10-11 15:34:09,1170.5908284162067,2,23,0.550297200679779,3.86600661277771,23.02998816626681,22.806844719289323,91.60262873936098,83.5167023327022,0.0,0.0907677188515663,0,0,0
7740,263095.7873887766,2010-10-11 15:34:39,1200.6059805557695,2,23,0.5501165986061096,3.868920564651489,23.034574486990007,22.806844719289323,91.62036647480622,83.5167023327022,9.713172767078504e-05,0.0907677188515663,0,0,0
7741,263125.8025534725,2010-10-11 15:35:09,1230.6211452466148,2,23,0.5501165986061096,3.8715107440948486,23.03916083895615,22.806844719289323,91.63811681513796,83.5167023327022,9.713172767078504e-05,0.0907677188515663,0,0,0
7742,263155.8178512149,2010-10-11 15:35:39,1260.636442989065,2,23,0.5499359965324402,3.874100923538208,23.04374722637633,22.806844719289323,91.65587932110591,83.5167023327022,9.713172767078504e-05,0.0907677188515663,0,0,0
7743,263185.8328660623,2010-10-11 15:36:09,1290.651457836454,2,23,0.5501165986061096,3.876529216766357,23.04833350886632,22.806844719289323,91.67365258841946,83.5167023327022,9.713172767078504e-05,0.0907677188515663,0,0,0
7744,263215.84818254644,2010-10-11 15:36:39,1320.6667743857768,2,23,0.5501165986061096,3.878795623779297,23.05291985947592,22.806844719289323,91.69143681327304,83.5167023327022,6.47544875391759e-05,0.0907677188515663,0,0,0
7745,263245.8632316994,2010-10-11 15:37:09,1350.6818234985658,2,23,0.5501165986061096,3.8805763721466064,23.0575061802108,22.806844719289323,91.70923080847273,83.5167023327022,0.0,0.0907677188515663,0,0,0
7746,263275.8783093282,2010-10-11 15:37:39,1380.6969011174003,2,23,0.5501165986061096,3.882680892944336,23.06209250830492,22.806844719289323,91.72703416180028,83.5167023327022,3.237724376958795e-05,0.0907677188515663,0,0,0
7747,263305.89346650033,2010-10-11 15:38:09,1410.7120583045437,2,23,0.550297200679779,3.884623527526856,23.06667885934942,22.806844719289323,91.7448461961694,83.5167023327022,3.237724376958795e-05,0.0907677188515663,0,0,0
7748,263335.9086316623,2010-10-11 15:38:39,1440.7272234415004,2,23,0.5501165986061096,3.886242389678955,23.07126523614788,22.806844719289323,91.76266612845362,83.5167023327022,0.0,0.0907677188515663,0,0,0
7749,263365.9239526778,2010-10-11 15:39:09,1470.7425444569544,2,23,0.5501165986061096,3.887861251831055,23.075851651311723,22.806844719289323,91.78049353628268,83.5167023327022,6.47544875391759e-05,0.0907677188515663,0,0,0
7750,263395.9390534143,2010-10-11 15:39:39,1500.7576452284925,2,23,0.5501165986061096,3.889318227767944,23.08043800724048,22.806844719289323,91.79832746937466,83.5167023327022,6.47544875391759e-05,0.0907677188515663,0,0,0
7751,263425.9540935045,2010-10-11 15:40:09,1530.7726853087695,2,23,0.5499359965324402,3.890451431274414,23.085024391210645,22.806844719289323,91.8161677776731,83.5167023327022,3.237724376958795e-05,0.0907677188515663,0,0,0
7752,263455.9692260553,2010-10-11 15:40:39,1560.787817834449,2,23,0.5501165986061096,3.8917465209960938,23.089610730917244,22.806844719289323,91.8340138928652,83.5167023327022,0.0,0.0907677188515663,0,0,0
7753,263485.9844073726,2010-10-11 15:41:09,1590.8029991767944,2,23,0.5499359965324402,3.893041610717773,23.094197141337425,22.806844719289323,91.85186594241875,83.5167023327022,6.47544875391759e-05,0.0907677188515663,0,0,0
7754,263516.00153105584,2010-10-11 15:41:39,1620.820122870076,2,23,0.5501165986061096,3.894174814224243,23.098783837752528,22.806844719289323,91.8697246309916,83.5167023327022,3.237724376958795e-05,0.0907677188515663,0,0,0
7755,263546.0148552145,2010-10-11 15:42:09,1650.833447023736,2,23,0.5501165986061096,3.895146131515503,23.10337003486241,22.806844719289323,91.88758641188986,83.5167023327022,3.237724376958795e-05,0.0907677188515663,0,0,0
7756,263576.02984423254,2010-10-11 15:42:39,1680.8484360166876,2,23,0.5499359965324402,3.896441221237183,23.10795633894629,22.806844719289323,91.90545360116448,83.5167023327022,6.47544875391759e-05,0.0907677188515663,0,0,0
7757,263606.04514321807,2010-10-11 15:43:09,1710.863734997224,2,23,0.5501165986061096,3.8974125385284415,23.112542752995527,22.806844719289323,91.9233264853014,83.5167023327022,3.237724376958795e-05,0.0907677188515663,0,0,0
7758,263636.06016367447,2010-10-11 15:43:39,1740.8787554736418,2,23,0.5499359965324402,3.898545742034912,23.11712902318035,22.806844719289323,91.94120389898316,83.5167023327022,3.237724376958795e-05,0.0907677188515663,0,0,0
7759,263666.0754197631,2010-10-11 15:44:09,1770.8940115622784,2,23,0.5501165986061096,3.899678945541382,23.12171538749591,22.806844719289323,91.9590868765639,83.5167023327022,3.237724376958795e-05,0.0907677188515663,0,0,0
7760,263696.0904638182,2010-10-11 15:44:39,1800.9090556876367,2,23,0.5501165986061096,3.900812149047852,23.126301724117656,22.806844719289323,91.97697482188906,83.5167023327022,3.237724376958795e-05,0.0907677188515663,0,0,0
7761,263726.1056211257,2010-10-11 15:45:09,1830.9242129299173,2,23,0.5501165986061096,3.901945352554321,23.130888091168917,22.806844719289323,91.99486816622738,83.5167023327022,3.237724376958795e-05,0.0907677188515663,0,0,0
7762,263756.120885099,2010-10-11 15:45:39,1860.9394768781424,2,23,0.5501165986061096,3.903078556060791,23.13547442070202,22.806844719289323,92.0127664798764,83.5167023327022,0.0,0.0907677188515663,0,0,0
7763,263786.1359118711,2010-10-11 15:46:09,1890.9545037805765,2,23,0.550297200679779,3.904373645782471,23.140060693757817,22.806844719289323,92.03066983811544,83.5167023327022,3.237724376958795e-05,0.0907677188515663,0,0,0
7764,263816.1513451614,2010-10-11 15:46:39,1920.9699369756163,2,23,0.5501165986061096,3.9053449630737305,23.14464713286652,22.806844719289323,92.04857914098017,83.5167023327022,3.237724376958795e-05,0.0907677188515663,0,0,0
7765,263846.16624151845,2010-10-11 15:47:09,1950.9848333226653,2,23,0.5501165986061096,3.9064781665802,23.149233410228337,22.806844719289323,92.06649299163576,83.5167023327022,0.0,0.0907677188515663,0,0,0
7766,263876.1840216327,2010-10-11 15:47:39,1981.0026135622627,2,23,0.5501165986061096,3.90777325630188,23.15382015950814,22.806844719289323,92.08441409682425,83.5167023327022,0.0,0.0907677188515663,0,0,0
7767,263906.19652690546,2010-10-11 15:48:09,2011.015118679632,2,23,0.5501165986061096,3.9089064598083496,23.15840614515814,22.806844719289323,92.10233756158674,83.5167023327022,3.237724376958795e-05,0.0907677188515663,0,0,0
7768,263936.2118000166,2010-10-11 15:48:39,2041.0303918157565,2,23,0.5501165986061096,3.9100396633148193,23.162992484792188,22.806844719289323,92.12026785996989,83.5167023327022,0.0,0.0907677188515663,0,0,0
7769,263966.22686047264,2010-10-11 15:49:09,2071.045452246753,2,23,0.5499359965324402,3.911334753036499,23.167578845702515,22.806844719289323,92.13820367329208,83.5167023327022,3.237724376958795e-05,0.0907677188515663,0,0,0
7770,263996.2419825723,2010-10-11 15:49:39,2101.0605743514607,2,23,0.5499359965324402,3.9126298427581783,23.172165204927264,22.806844719289323,92.15614507671243,83.5167023327022,3.237724376958795e-05,0.0907677188515663,0,0,0
7771,264026.2571579698,2010-10-11 15:50:09,2131.07574976904,2,23,0.5501165986061096,3.913762807846069,23.17675155321044,22.806844719289323,92.17409206377376,83.5167023327022,6.470680091297254e-05,0.0907677188515663,0,0,0
7772,264056.2572103211,2010-10-11 15:50:39,2161.075802235572,2,23,0.5499359965324402,3.914896011352539,23.18133558685239,22.806844719289323,92.19203573946092,83.5167023327022,0.0,0.0907677188515663,0,0,0
7773,264086.2587481195,2010-10-11 15:51:09,2191.0773400139574,2,23,0.5501165986061096,3.916029214859009,23.185919850729125,22.806844719289323,92.20998588538396,83.5167023327022,-3.237724376958795e-05,0.0907677188515663,0,0,0
7774,264116.27134377754,2010-10-11 15:51:39,2221.0899355566958,2,23,0.5501165986061096,3.9174861907958975,23.1905058821732,22.806844719289323,92.22794884801267,83.5167023327022,3.237724376958795e-05,0.0907677188515663,0,0,0
7775,264146.2866635499,2010-10-11 15:52:09,2251.105255349101,2,23,0.5501165986061096,3.918781280517578,23.19509225538966,22.806844719289323,92.24591901592127,83.5167023327022,6.47544875391759e-05,0.0907677188515663,0,0,0
7776,264176.3035386486,2010-10-11 15:52:39,2281.1221304678584,2,23,0.5501165986061096,3.920076370239258,23.19967885948178,22.806844719289323,92.26389601401112,83.5167023327022,0.0,0.0907677188515663,0,0,0
7777,264206.31694511743,2010-10-11 15:53:09,2311.1355370118604,2,23,0.5501165986061096,3.9213714599609375,23.204264926461644,22.806844719289323,92.2818768738138,83.5167023327022,3.237724376958795e-05,0.0907677188515663,0,0,0
7778,264236.33207981853,2010-10-11 15:53:39,2341.150671597674,2,23,0.5501165986061096,3.922828435897827,23.208851221172477,22.806844719289323,92.29986468380211,83.5167023327022,6.47544875391759e-05,0.0907677188515663,0,0,0
7779,264266.3471266256,2010-10-11 15:54:09,2371.165718404716,2,23,0.5499359965324402,3.924123525619507,23.213437574158604,22.806844719289323,92.31785882358268,83.5167023327022,3.237724376958795e-05,0.0907677188515663,0,0,0
7780,264296.362642637,2010-10-11 15:54:39,2401.181234466285,2,23,0.5501165986061096,3.9254186153411865,23.21802390476528,22.806844719289323,92.33585906399654,83.5167023327022,3.237724376958795e-05,0.0907677188515663,0,0,0
7781,264326.37755313935,2010-10-11 15:55:09,2431.196144908464,2,23,0.5501165986061096,3.926713705062866,23.22261025854844,22.806844719289323,92.35386553830452,83.5167023327022,3.237724376958795e-05,0.0907677188515663,0,0,0
7782,264356.3926624371,2010-10-11 15:55:39,2461.21125424134,2,23,0.5499359965324402,3.928170680999756,23.227196620534368,22.806844719289323,92.37187836137706,83.5167023327022,3.237724376958795e-05,0.0907677188515663,0,0,0
7783,264386.4077394043,2010-10-11 15:56:09,2491.226331173463,2,23,0.5501165986061096,3.929465770721436,23.23178292417495,22.806844719289323,92.38989722371235,83.5167023327022,3.237724376958795e-05,0.0907677188515663,0,0,0
7784,264416.4229489219,2010-10-11 15:56:39,2521.241540846417,2,23,0.5501165986061096,3.931084632873535,23.236369264876288,22.806844719289323,92.40792268750552,83.5167023327022,3.237724376958795e-05,0.0907677188515663,0,0,0
7785,264446.438038265,2010-10-11 15:57:09,2551.25663004411,2,23,0.5501165986061096,3.932217836380005,23.24095563286483,22.806844719289323,92.42595469172647,83.5167023327022,0.0,0.0907677188515663,0,0,0
7786,264476.4533345187,2010-10-11 15:57:39,2581.27192633795,2,23,0.550297200679779,3.933836698532105,23.24554200894733,22.806844719289323,92.4439932769301,83.5167023327022,3.237724376958795e-05,0.0907677188515663,0,0,0
7787,264506.46833683486,2010-10-11 15:58:09,2611.2869286039822,2,23,0.550297200679779,3.935293674468994,23.2501283847928,22.806844719289323,92.462038411731,83.5167023327022,6.47544875391759e-05,0.0907677188515663,0,0,0
7788,264536.4836012743,2010-10-11 15:58:39,2641.302193083531,2,23,0.5499359965324402,3.936750650405884,23.2547148081014,22.806844719289323,92.48009028405082,83.5167023327022,6.47544875391759e-05,0.0907677188515663,0,0,0
7789,264566.4987743861,2010-10-11 15:59:09,2671.317366195364,2,23,0.5501165986061096,3.938045740127564,23.25930115515936,22.806844719289323,92.4981485661888,83.5167023327022,0.0,0.0907677188515663,0,0,0
7790,264596.5137904716,2010-10-11 15:59:39,2701.3323822758257,2,23,0.5499359965324402,3.939664602279663,23.263887531210266,22.806844719289323,92.51621370424596,83.5167023327022,3.237724376958795e-05,0.0907677188515663,0,0,0
7791,264626.528945734,2010-10-11 16:00:09,2731.347537558222,2,23,0.5501165986061096,3.9411215782165527,23.26847395022914,22.806844719289323,92.53428590209244,83.5167023327022,3.237724376958795e-05,0.0907677188515663,0,0,0
7792,264656.5442122135,2010-10-11 16:00:39,2761.3628040427684,2,23,0.5501165986061096,3.9425785541534415,23.27306040282916,22.806844719289323,92.5523650074231,83.5167023327022,0.0,0.0907677188515663,0,0,0
7793,264686.5592540331,2010-10-11 16:01:09,2791.377845837317,2,23,0.550297200679779,3.944197416305542,23.277646744608283,22.806844719289323,92.57045067620008,83.5167023327022,6.47544875391759e-05,0.0907677188515663,0,0,0
7794,264716.5743723734,2010-10-11 16:01:40,2821.392964177643,2,23,0.550297200679779,3.9458162784576416,23.2822331130599,22.806844719289323,92.58854341338152,83.5167023327022,9.713172767078504e-05,0.0907677188515663,0,0,0
7795,264746.5895372297,2010-10-11 16:02:10,2851.4081290038253,2,23,0.5501165986061096,3.9472732543945312,23.28681948176965,22.806844719289323,92.60664308127906,83.5167023327022,6.47544875391759e-05,0.0907677188515663,0,0,0
7796,264776.6067014991,2010-10-11 16:02:40,2881.425293318347,2,23,0.5501165986061096,3.948730230331421,23.291406118472185,22.806844719289323,92.62475088167696,83.5167023327022,6.47544875391759e-05,0.0907677188515663,0,0,0
7797,264806.61989612994,2010-10-11 16:03:10,2911.438487909096,2,23,0.5501165986061096,3.950187206268311,23.295992097784808,22.806844719289323,92.64286310301917,83.5167023327022,3.237724376958795e-05,0.0907677188515663,0,0,0
7798,264836.6350353874,2010-10-11 16:03:40,2941.4536272567784,2,23,0.5501165986061096,3.95180606842041,23.300578388405743,22.806844719289323,92.6609837991969,83.5167023327022,6.47544875391759e-05,0.0907677188515663,0,0,0
7799,264866.6502089554,2010-10-11 16:04:10,2971.4688007295103,2,23,0.550297200679779,3.95358681678772,23.305164723068987,22.806844719289323,92.6791118699464,83.5167023327022,3.237724376958795e-05,0.0907677188515663,0,0,0
7800,264896.66556878755,2010-10-11 16:04:40,3001.4841607120825,2,23,0.5501165986061096,3.95504379272461,23.30975105167051,22.806844719289323,92.6972471864164,83.5167023327022,6.47544875391759e-05,0.0907677188515663,0,0,0
7801,264926.6805020516,2010-10-11 16:05:10,3031.4990938658657,2,23,0.5501165986061096,3.956662654876709,23.31433733597515,22.806844719289323,92.71538971285962,83.5167023327022,3.237724376958795e-05,0.0907677188515663,0,0,0
7802,264956.6957804659,2010-10-11 16:05:40,3061.514372245057,2,23,0.5501165986061096,3.9582815170288086,23.318923710135625,22.806844719289323,92.73353989088902,83.5167023327022,6.47544875391759e-05,0.0907677188515663,0,0,0
7803,264986.7108422804,2010-10-11 16:06:10,3091.5294340745395,2,23,0.550297200679779,3.959900379180908,23.323509972615376,22.806844719289323,92.75169714012831,83.5167023327022,6.47544875391759e-05,0.0907677188515663,0,0,0
7804,265016.7259597335,2010-10-11 16:06:40,3121.544551512616,2,23,0.5499359965324402,3.961519241333008,23.328096284362427,22.806844719289323,92.76986211589676,83.5167023327022,6.47544875391759e-05,0.0907677188515663,0,0,0
7805,265046.74111473013,2010-10-11 16:07:10,3151.5597065343622,2,23,0.5501165986061096,3.9631381034851074,23.33268260236959,22.806844719289323,92.78803468222966,83.5167023327022,3.237724376958795e-05,0.0907677188515663,0,0,0
7806,265076.75626796746,2010-10-11 16:07:40,3181.574859776674,2,23,0.5501165986061096,3.964756965637207,23.337268885927365,22.806844719289323,92.80621473890832,83.5167023327022,0.0,0.0907677188515663,0,0,0
7807,265106.771560938,2010-10-11 16:08:10,3211.5901528174068,2,23,0.5499359965324402,3.966375827789306,23.341855230548315,22.806844719289323,92.82440278257508,83.5167023327022,3.237724376958795e-05,0.0907677188515663,0,0,0
7808,265136.78756421886,2010-10-11 16:08:40,3241.6061560431385,2,23,0.5499359965324402,3.968318462371826,23.346441785098666,22.806844719289323,92.842599419105,83.5167023327022,3.237724376958795e-05,0.0907677188515663,0,0,0
7809,265166.8018639139,2010-10-11 16:09:10,3271.6204557281226,2,23,0.5499359965324402,3.969937324523926,23.351027927442505,22.806844719289323,92.86080229683598,83.5167023327022,6.47544875391759e-05,0.0907677188515663,0,0,0
7810,265196.81690238015,2010-10-11 16:09:40,3301.635494189364,2,23,0.5501165986061096,3.9717180728912354,23.35561420576948,22.806844719289323,92.87901365675472,83.5167023327022,3.237724376958795e-05,0.0907677188515663,0,0,0
7811,265226.83762032137,2010-10-11 16:10:10,3331.656212130618,2,23,0.5504778623580933,3.973498821258545,23.36020158695856,22.806844719289323,92.8972374564262,83.5167023327022,6.47544875391759e-05,0.0907677188515663,0,0,0
7812,265256.8472839469,2010-10-11 16:10:40,3361.665875761128,2,23,0.550297200679779,3.9752795696258554,23.36478791530812,22.806844719289323,92.91546519112,83.5167023327022,3.237724376958795e-05,0.0907677188515663,0,0,0
7813,265286.86224059924,2010-10-11 16:11:10,3391.680832398439,2,23,0.5499359965324402,3.977060317993164,23.369374267913777,22.806844719289323,92.93370103519386,83.5167023327022,6.47544875391759e-05,0.0907677188515663,0,0,0
7814,265316.87760355923,2010-10-11 16:11:40,3421.696195338382,2,23,0.5499359965324402,3.9788410663604736,23.37396069313355,22.806844719289323,92.95194482955216,83.5167023327022,3.237724376958795e-05,0.0907677188515663,0,0,0
7815,265346.8926836693,2010-10-11 16:12:10,3451.7112754384007,2,23,0.5501165986061096,3.980783700942993,23.378546920664945,22.806844719289323,92.97019656884616,83.5167023327022,9.713172767078504e-05,0.0907677188515663,0,0,0
7816,265376.9097957185,2010-10-11 16:12:40,3481.7283874976865,2,23,0.550297200679779,3.982564449310303,23.38313345259203,22.806844719289323,92.98845792039,83.5167023327022,9.713172767078504e-05,0.0907677188515663,0,0,0
7817,265406.92284179415,2010-10-11 16:13:10,3511.741433623416,2,23,0.5501165986061096,3.984345197677612,23.38771998299127,22.806844719289323,93.00672780555097,83.5167023327022,6.47544875391759e-05,0.0907677188515663,0,0,0
7818,265436.9379936831,2010-10-11 16:13:40,3541.756585452204,2,23,0.5501165986061096,3.986125946044922,23.392306403084017,22.806844719289323,93.02500591293854,83.5167023327022,3.237724376958795e-05,0.0907677188515663,0,0,0
7819,265466.95324797224,2010-10-11 16:14:10,3571.7718397614053,2,23,0.5499359965324402,3.9880685806274414,23.396892863676825,22.806844719289323,93.0432930139082,83.5167023327022,6.47544875391759e-05,0.0907677188515663,0,0,0
7820,265496.9683866733,2010-10-11 16:14:40,3601.7869784524505,2,23,0.5499359965324402,3.990011215209961,23.40147929206701,22.806844719289323,93.0615888292358,83.5167023327022,6.47544875391759e-05,0.0907677188515663,0,0,0
7821,265526.98366927303,2010-10-11 16:15:10,3631.8022610621856,2,23,0.5501165986061096,3.9921157360076895,23.4060658435843,22.806844719289323,93.07989421866831,83.5167023327022,9.713172767078504e-05,0.0907677188515663,0,0,0
7822,265556.99869882205,2010-10-11 16:15:40,3661.817290596178,2,23,0.5501165986061096,3.994058132171631,23.4106523747149,22.806844719289323,93.09820871343884,83.5167023327022,6.470680091297254e-05,0.0907677188515663,0,0,0
7823,265587.0140138275,2010-10-11 16:16:10,3691.832605611678,2,23,0.5501165986061096,3.99616265296936,23.415238849783343,22.806844719289323,93.11653223754546,83.5167023327022,6.47544875391759e-05,0.0907677188515663,0,0,0
7824,265617.02902175765,2010-10-11 16:16:40,3721.847613581928,2,23,0.5501165986061096,3.99826717376709,23.419825394303743,22.806844719289323,93.1348653892795,83.5167023327022,6.47544875391759e-05,0.0907677188515663,0,0,0
7825,265647.04415790737,2010-10-11 16:17:10,3751.862749711589,2,23,0.550297200679779,4.000371932983398,23.424411892474,22.806844719289323,93.15320755881602,83.5167023327022,9.71794142969884e-05,0.0907677188515663,0,0,0
7826,265677.05933096405,2010-10-11 16:17:40,3781.877922763272,2,23,0.5501165986061096,4.002152442932129,23.42899834575069,22.806844719289323,93.17155909087016,83.5167023327022,3.23295607813634e-05,0.0907677188515663,0,0,0
7827,265707.0744837202,2010-10-11 16:18:10,3811.893075494309,2,23,0.550297200679779,4.004418849945068,23.43358485906105,22.806844719289323,93.18992054892746,83.5167023327022,3.23295607813634e-05,0.0907677188515663,0,0,0
7828,265737.08963025577,2010-10-11 16:18:40,3841.9082220299047,2,23,0.5501165986061096,4.006685256958008,23.438171303479823,22.806844719289323,93.20829148140052,83.5167023327022,9.70840483205393e-05,0.0907677188515663,0,0,0
7829,265767.10477266606,2010-10-11 16:19:10,3871.923364435207,2,23,0.5501165986061096,4.008627891540527,23.44275774025479,22.806844719289323,93.2266723542954,83.5167023327022,3.23295607813634e-05,0.0907677188515663,0,0,0
7830,265797.12020434736,2010-10-11 16:19:40,3901.9387961565753,2,23,0.550297200679779,4.011056423187256,23.447344335983168,22.806844719289323,93.2450637147627,83.5167023327022,9.71794142969884e-05,0.0907677188515663,0,0,0
7831,265827.13511443866,2010-10-11 16:20:10,3931.953706272941,2,23,0.5499359965324402,4.012999057769775,23.45193078420219,22.806844719289323,93.26346453866776,83.5167023327022,0.0,0.0907677188515663,0,0,0
7832,265857.1529168585,2010-10-11 16:20:40,3961.971508788056,2,23,0.5499359965324402,4.015103340148926,23.456517669836195,22.806844719289323,93.28187722993088,83.5167023327022,3.23295607813634e-05,0.0907677188515663,0,0,0
7833,265887.1653924824,2010-10-11 16:21:10,3991.983984256531,2,23,0.5501165986061096,4.017531871795654,23.461103811515667,22.806844719289323,93.30029714622388,83.5167023327022,6.47544875391759e-05,0.0907677188515663,0,0,0
7834,265917.1805439402,2010-10-11 16:21:40,4021.999135744471,2,23,0.5501165986061096,4.019798278808594,23.465690378255736,22.806844719289323,93.3187289411112,83.5167023327022,9.71794142969884e-05,0.0907677188515663,0,0,0
7835,265947.1958739581,2010-10-11 16:22:10,4052.014465742312,2,23,0.5499359965324402,4.022064685821533,23.470276870631245,22.806844719289323,93.33717077861168,83.5167023327022,6.47544875391759e-05,0.0907677188515663,0,0,0
7836,265977.2127906806,2010-10-11 16:22:40,4082.0313824948335,2,23,0.5499359965324402,4.024168968200684,23.47486361955439,22.806844719289323,93.35562407377456,83.5167023327022,0.0,0.0907677188515663,0,0,0
7837,266007.22857898066,2010-10-11 16:23:10,4112.0471708951545,2,23,0.5501165986061096,4.026435375213623,23.479450289162813,22.806844719289323,93.3740874837262,83.5167023327022,3.23295607813634e-05,0.0907677188515663,0,0,0
7838,266037.2411833103,2010-10-11 16:23:40,4142.059775089454,2,23,0.5501165986061096,4.028863906860352,23.484036315308447,22.806844719289323,93.39255888172438,83.5167023327022,3.24249267578125e-05,0.0907677188515663,0,0,0
7839,266067.25633036724,2010-10-11 16:24:10,4172.074922136325,2,23,0.5501165986061096,4.031130313873291,23.488622815412256,22.806844719289323,93.4110427937238,83.5167023327022,6.47544875391759e-05,0.0907677188515663,0,0,0
7840,266097.2714556749,2010-10-11 16:24:40,4202.090047449027,2,23,0.5501165986061096,4.033558368682861,23.493209264766268,22.806844719289323,93.42953725432852,83.5167023327022,9.70840483205393e-05,0.0907677188515663,0,0,0
7841,266127.2867416881,2010-10-11 16:25:10,4232.105333502344,2,23,0.550297200679779,4.036148548126221,23.49779570518181,22.806844719289323,93.448042465537,83.5167023327022,0.0001295089750783,0.0907677188515663,0,0,0
7842,266157.3017762597,2010-10-11 16:25:40,4262.120368038804,2,23,0.5501165986061096,4.038252830505371,23.502382237938185,22.806844719289323,93.46655901042058,83.5167023327022,3.23295607813634e-05,0.0907677188515663,0,0,0
7843,266187.3169316172,2010-10-11 16:26:10,4292.135523426463,2,23,0.5499359965324402,4.0406813621521,23.50696876434949,22.806844719289323,93.48508646816325,83.5167023327022,6.47544875391759e-05,0.0907677188515663,0,0,0
7844,266217.3320692055,2010-10-11 16:26:40,4322.150661024784,2,23,0.5499359965324402,4.043271541595459,23.51155522504749,22.806844719289323,93.50362476173132,83.5167023327022,9.71794142969884e-05,0.0907677188515663,0,0,0
7845,266247.34735910845,2010-10-11 16:27:10,4352.165950912659,2,23,0.5501165986061096,4.045699596405029,23.516141816161745,22.806844719289323,93.52217486774822,83.5167023327022,6.47544875391759e-05,0.0907677188515663,0,0,0
7846,266277.36237377033,2010-10-11 16:27:40,4382.180965549523,2,23,0.5501165986061096,4.048128128051758,23.52072826444643,22.806844719289323,93.54073582362317,83.5167023327022,6.47544875391759e-05,0.0907677188515663,0,0,0
7847,266307.37755433575,2010-10-11 16:28:10,4412.196146104908,2,23,0.5499359965324402,4.050718307495117,23.525314790172693,22.806844719289323,93.5593086426874,83.5167023327022,9.71794142969884e-05,0.0907677188515663,0,0,0
7848,266337.3927008263,2010-10-11 16:28:40,4442.211292635491,2,23,0.5501165986061096,4.053308486938477,23.52990141003165,22.806844719289323,93.57789338568294,83.5167023327022,9.71794142969884e-05,0.0907677188515663,0,0,0
7849,266367.40782381315,2010-10-11 16:29:10,4472.22641558731,2,23,0.5501165986061096,4.055736541748047,23.534487920483144,22.806844719289323,93.59648933047508,83.5167023327022,9.70840483205393e-05,0.0907677188515663,0,0,0
7850,266397.4229868499,2010-10-11 16:29:40,4502.241578629045,2,23,0.5501165986061096,4.058326721191406,23.539074442125685,22.806844719289323,93.61509717943122,83.5167023327022,3.23295607813634e-05,0.0907677188515663,0,0,0
7851,266427.43815138034,2010-10-11 16:30:10,4532.256743154478,2,23,0.550297200679779,4.060755252838135,23.543661064307287,22.806844719289323,93.6337174687968,83.5167023327022,0.0,0.0907677188515663,0,0,0
7852,266457.45331277297,2010-10-11 16:30:40,4562.2719046072525,2,23,0.5501165986061096,4.063507080078125,23.548247595925385,22.806844719289323,93.65234910464324,83.5167023327022,3.23295607813634e-05,0.0907677188515663,0,0,0
7853,266487.4685638992,2010-10-11 16:31:10,4592.287155718483,2,23,0.5501165986061096,4.066097259521484,23.552834079206576,22.806844719289323,93.67099285626844,83.5167023327022,3.23295607813634e-05,0.0907677188515663,0,0,0
7854,266517.48358549847,2010-10-11 16:31:40,4622.302177277599,2,23,0.5501165986061096,4.068849563598633,23.557420625971243,22.806844719289323,93.6896491500868,83.5167023327022,6.47544875391759e-05,0.0907677188515663,0,0,0
7855,266547.4987554875,2010-10-11 16:32:10,4652.317347296724,2,23,0.550297200679779,4.071601390838623,23.562007202434465,22.806844719289323,93.70831797801009,83.5167023327022,9.70840483205393e-05,0.0907677188515663,0,0,0
7856,266577.51580746204,2010-10-11 16:32:40,4682.334399271261,2,23,0.5501165986061096,4.074515342712402,23.56659401970123,22.806844719289323,93.72700028723344,83.5167023327022,9.70840483205393e-05,0.0907677188515663,0,0,0
7857,266607.5290537817,2010-10-11 16:33:10,4712.347645555848,2,23,0.5499359965324402,4.077267646789551,23.571180243436796,22.806844719289323,93.74569283552508,83.5167023327022,0.0001295089750783,0.0907677188515663,0,0,0
7858,266637.5442020967,2010-10-11 16:33:41,4742.362793870879,2,23,0.5501165986061096,4.07985782623291,23.575766781048987,22.806844719289323,93.76439943880972,83.5167023327022,6.47544875391759e-05,0.0907677188515663,0,0,0
7859,266667.5593831433,2010-10-11 16:34:11,4772.377974952574,2,23,0.550297200679779,4.08293342590332,23.580353377898323,22.806844719289323,93.7831190598952,83.5167023327022,0.0001295089750783,0.0907677188515663,0,0,0
7860,266697.57450561394,2010-10-11 16:34:41,4802.393097513418,2,23,0.5501165986061096,4.085685729980469,23.5849398627924,22.806844719289323,93.80185123376292,83.5167023327022,9.71794142969884e-05,0.0907677188515663,0,0,0
7861,266727.5897802388,2010-10-11 16:35:11,4832.408372027978,2,23,0.5499359965324402,4.088437557220459,23.589526401604225,22.806844719289323,93.820596730454,83.5167023327022,6.47544875391759e-05,0.0907677188515663,0,0,0
7862,266757.60483145685,2010-10-11 16:35:41,4862.423423266064,2,23,0.5504778623580933,4.091513633728027,23.594112886476232,22.806844719289323,93.83935524490458,83.5167023327022,9.71794142969884e-05,0.0907677188515663,0,0,0
7863,266787.62015287834,2010-10-11 16:36:11,4892.438744657454,2,23,0.550297200679779,4.094265460968018,23.59869944797508,22.806844719289323,93.85812726762714,83.5167023327022,6.47544875391759e-05,0.0907677188515663,0,0,0
7864,266817.63535708265,2010-10-11 16:36:41,4922.453948946991,2,23,0.5499359965324402,4.097179412841797,23.603286023744307,22.806844719289323,93.87691281293576,83.5167023327022,6.47544875391759e-05,0.0907677188515663,0,0,0
7865,266847.6504259998,2010-10-11 16:37:11,4952.469017819026,2,23,0.5501165986061096,4.100255489349365,23.60787256520981,22.806844719289323,93.89571189887904,83.5167023327022,6.47544875391759e-05,0.0907677188515663,0,0,0
7866,266877.6654471228,2010-10-11 16:37:41,4982.484038901956,2,23,0.550297200679779,4.103331089019775,23.61245906798404,22.806844719289323,93.91452449458336,83.5167023327022,9.70840483205393e-05,0.0907677188515663,0,0,0
7867,266907.6807467199,2010-10-11 16:38:11,5012.499338534116,2,23,0.5501165986061096,4.106245040893555,23.617045624161488,22.806844719289323,93.93335117848328,83.5167023327022,9.70840483205393e-05,0.0907677188515663,0,0,0
7868,266937.6958704286,2010-10-11 16:38:41,5042.514462247833,2,23,0.5501165986061096,4.109321117401123,23.62163219133184,22.806844719289323,93.95219191119668,83.5167023327022,6.47544875391759e-05,0.0907677188515663,0,0,0
7869,266967.71088963683,2010-10-11 16:39:11,5072.529481405966,2,23,0.550297200679779,4.112396717071533,23.626218724607483,22.806844719289323,93.9710466178116,83.5167023327022,6.47544875391759e-05,0.0907677188515663,0,0,0
7870,266997.72604272375,2010-10-11 16:39:41,5102.544634522965,2,23,0.5501165986061096,4.115472316741943,23.63080527462352,22.806844719289323,93.98991555231164,83.5167023327022,9.70840483205393e-05,0.0907677188515663,0,0,0
7871,267027.74138382927,2010-10-11 16:40:11,5132.559975648539,2,23,0.5501165986061096,4.118710041046143,23.635391832831885,22.806844719289323,94.0087989326318,83.5167023327022,9.70840483205393e-05,0.0907677188515663,0,0,0
7872,267057.7563399152,2010-10-11 16:40:41,5162.5749316943775,2,23,0.5499359965324402,4.121786117553711,23.63997831202989,22.806844719289323,94.02769639775885,83.5167023327022,9.71794142969884e-05,0.0907677188515663,0,0,0
7873,267087.77164077543,2010-10-11 16:41:11,5192.590232564623,2,23,0.5501165986061096,4.12502384185791,23.6445649543201,22.806844719289323,94.046609016715,83.5167023327022,6.47544875391759e-05,0.0907677188515663,0,0,0
7874,267117.78665655514,2010-10-11 16:41:41,5222.605248324286,2,23,0.5499359965324402,4.12809944152832,23.64915149550996,22.806844719289323,94.0655359025275,83.5167023327022,6.47544875391759e-05,0.0907677188515663,0,0,0
7875,267147.8018419225,2010-10-11 16:42:11,5252.620433721737,2,23,0.5499359965324402,4.131499290466309,23.65373811840938,22.806844719289323,94.08447799602988,83.5167023327022,6.47544875391759e-05,0.0907677188515663,0,0,0
7876,267177.8189426636,2010-10-11 16:42:41,5282.63753447284,2,23,0.5501165986061096,4.134737014770508,23.658325001191564,22.806844719289323,94.10343619014009,83.5167023327022,6.47544875391759e-05,0.0907677188515663,0,0,0
7877,267207.8321169086,2010-10-11 16:43:11,5312.650708712869,2,23,0.5501165986061096,4.137974739074707,23.662911266623784,22.806844719289323,94.1224068934239,83.5167023327022,0.0,0.0907677188515663,0,0,0
7878,267237.847390556,2010-10-11 16:43:41,5342.66598234523,2,23,0.5499359965324402,4.141212463378906,23.6674978454337,22.806844719289323,94.141394031316,83.5167023327022,6.47544875391759e-05,0.0907677188515663,0,0,0
7879,267267.86244825524,2010-10-11 16:44:11,5372.681040054444,2,23,0.5499359965324402,4.144773960113525,23.67208442594253,22.806844719289323,94.16039647102916,83.5167023327022,9.71794142969884e-05,0.0907677188515663,0,0,0
7880,267297.8776106854,2010-10-11 16:44:41,5402.696202484654,2,23,0.5499359965324402,4.148011684417725,23.67667091191985,22.806844719289323,94.1794142525133,83.5167023327022,9.71794142969884e-05,0.0907677188515663,0,0,0
7881,267327.89275707066,2010-10-11 16:45:11,5432.7113488799005,2,23,0.5501165986061096,4.151411056518555,23.68125741499193,22.806844719289323,94.19844755701853,83.5167023327022,6.47544875391759e-05,0.0907677188515663,0,0,0
7882,267357.90800527966,2010-10-11 16:45:41,5462.726597093911,2,23,0.5501165986061096,4.154972553253174,23.685843934087146,22.806844719289323,94.21749644062592,83.5167023327022,9.70840483205393e-05,0.0907677188515663,0,0,0
7883,267387.9230547183,2010-10-11 16:46:11,5492.741646527499,2,23,0.5501165986061096,4.158534049987793,23.69043036693673,22.806844719289323,94.23656067571387,83.5167023327022,0.0001295089750783,0.0907677188515663,0,0,0
7884,267417.93820010097,2010-10-11 16:46:41,5522.756791880148,2,23,0.550297200679779,4.161933898925781,23.69501687194261,22.806844719289323,94.25564100528332,83.5167023327022,0.0001295089750783,0.0907677188515663,0,0,0
7885,267447.95347661054,2010-10-11 16:47:11,5552.772068535041,2,23,0.5501165986061096,4.165333271026611,23.69960341889131,22.806844719289323,94.27473749416026,83.5167023327022,0.0001295089750783,0.0907677188515663,0,0,0
7886,267477.9685026107,2010-10-11 16:47:41,5582.787094414926,2,23,0.5501165986061096,4.168894767761231,23.704189875854404,22.806844719289323,94.29384980185966,83.5167023327022,6.47544875391759e-05,0.0907677188515663,0,0,0
7887,267507.9836907901,2010-10-11 16:48:11,5612.8022825893,2,23,0.550297200679779,4.172618389129639,23.708776393328627,22.806844719289323,94.31297868988015,83.5167023327022,0.0001295089750783,0.0907677188515663,0,0,0
7888,267537.9988210902,2010-10-11 16:48:41,5642.8174128894325,2,23,0.5501165986061096,4.176017761230469,23.71336288595509,22.806844719289323,94.3321238667911,83.5167023327022,6.47544875391759e-05,0.0907677188515663,0,0,0
7889,267568.0139603477,2010-10-11 16:49:11,5672.83255214689,2,23,0.5501165986061096,4.179579257965088,23.717949381434952,22.806844719289323,94.35128556266014,83.5167023327022,9.70840483205393e-05,0.0907677188515663,0,0,0
7890,267598.0291102617,2010-10-11 16:49:41,5702.847702035843,2,23,0.5501165986061096,4.183140754699707,23.72253589496896,22.806844719289323,94.37046397750332,83.5167023327022,3.23295607813634e-05,0.0907677188515663,0,0,0
7891,267628.04441036505,2010-10-11 16:50:11,5732.863002149203,2,23,0.5499359965324402,4.186864376068115,23.727122437135293,22.806844719289323,94.38965920975308,83.5167023327022,6.47544875391759e-05,0.0907677188515663,0,0,0
7892,267658.05943718227,2010-10-11 16:50:41,5762.878028956399,2,23,0.5501165986061096,4.190749645233154,23.73170888309225,22.806844719289323,94.40887090542384,83.5167023327022,0.0001295089750783,0.0907677188515663,0,0,0
7893,267688.07458544214,2010-10-11 16:51:11,5792.893177241355,2,23,0.5499359965324402,4.194311141967773,23.736295336802577,22.806844719289323,94.42809969858452,83.5167023327022,9.71794142969884e-05,0.0907677188515663,0,0,0
7894,267718.0900236748,2010-10-11 16:51:41,5822.908615488988,2,23,0.550297200679779,4.198034286499023,23.740881885969767,22.806844719289323,94.44734592836024,83.5167023327022,9.71794142969884e-05,0.0907677188515663,0,0,0
7895,267732.51151879795,2010-10-11 16:51:55,5837.33011061723,2,23,0.550297200679779,4.200138568878174,23.74308558993851,22.806844719289323,94.45659927940828,83.5167023327022,0.0001295089750783,0.0907677188515663,0,0,0
7896,267762.5161960033,2010-10-11 16:52:26,30.01510284169777,3,23,0.0,4.115796089172363,23.74308558993851,22.806844719289323,94.45659927940828,83.5167023327022,-0.0003885269106831,0.0907677188515663,0,0,0
7897,267792.5311843546,2010-10-11 16:52:56,60.03009115295043,3,23,0.0,4.105273723602295,23.74308558993851,22.806844719289323,94.45659927940828,83.5167023327022,-0.0001942634553415,0.0907677188515663,0,0,0
7898,267822.54634205805,2010-10-11 16:53:26,90.04524884134304,3,23,0.0,4.0989603996276855,23.74308558993851,22.806844719289323,94.45659927940828,83.5167023327022,-9.70840483205393e-05,0.0907677188515663,0,0,0
7899,267852.5147768136,2010-10-11 16:53:56,120.01368364192297,3,23,0.0,4.094751358032227,23.74308558993851,22.806844719289323,94.45659927940828,83.5167023327022,-9.70840483205393e-05,0.0907677188515663,0,0,0
7900,267852.5198397128,2010-10-11 16:53:56,0.013643258197353,4,23,0.9985694289207458,4.199814796447754,23.74308937431084,22.806844719289323,94.4566151730712,83.5167023327022,0.0,0.0907677188515663,0,0,0
7901,267853.4728343236,2010-10-11 16:53:57,0.966637863984083,4,23,0.947998821735382,4.199653148651123,23.74334541476219,22.806844719289323,94.45769047154091,83.5167023327022,-3.23295607813634e-05,0.0907677188515663,0,0,0
7902,267855.64489924273,2010-10-11 16:53:59,3.138702863290046,4,23,0.8976088762283325,4.199814796447754,23.74390105527497,22.806844719289323,94.46002402285136,83.5167023327022,0.0,0.0907677188515663,0,0,0
7903,267858.8790001724,2010-10-11 16:54:02,6.372803712714767,4,23,0.8473994731903076,4.199653148651123,23.744683719550498,22.806844719289323,94.46331102840568,83.5167023327022,0.0,0.0907677188515663,0,0,0
7904,267863.2384240179,2010-10-11 16:54:07,10.732227543261669,4,23,0.7973707318305969,4.199814796447754,23.745678405267302,22.806844719289323,94.46748848134864,83.5167023327022,-3.24249267578125e-05,0.0907677188515663,0,0,0
7905,267868.86335001927,2010-10-11 16:54:12,16.357153544603474,4,23,0.7473419308662415,4.199653148651123,23.74688405124448,22.806844719289323,94.47255192154232,83.5167023327022,-3.23295607813634e-05,0.0907677188515663,0,0,0
7906,267876.2224549481,2010-10-11 16:54:20,23.716258463401093,4,23,0.6973131895065308,4.199814796447754,23.748358629557167,22.806844719289323,94.47874484298134,83.5167023327022,0.0,0.0907677188515663,0,0,0
7907,267885.69106175465,2010-10-11 16:54:29,33.18486526998057,4,23,0.6472843885421753,4.199814796447754,23.75012437051703,22.806844719289323,94.48616055580152,83.5167023327022,3.23295607813634e-05,0.0907677188515663,0,0,0
7908,267899.0501725693,2010-10-11 16:54:42,46.5439760846263,4,23,0.5970750451087952,4.199653148651123,23.752429085098807,22.806844719289323,94.49583987678668,83.5167023327022,-3.23295607813634e-05,0.0907677188515663,0,0,0
7909,267918.90927503817,2010-10-11 16:55:02,66.40307856850922,4,23,0.5470462441444397,4.199814796447754,23.755575360061066,22.806844719289323,94.5090535736606,83.5167023327022,3.23295607813634e-05,0.0907677188515663,0,0,0
7910,267952.0337453603,2010-10-11 16:55:35,99.52754893079675,4,23,0.4970174729824066,4.199653148651123,23.76035851204709,22.806844719289323,94.52914178945146,83.5167023327022,-3.23295607813634e-05,0.0907677188515663,0,0,0
7911,268012.4234404971,2010-10-11 16:56:36,159.9172440073722,4,23,0.4469887316226959,4.199814796447754,23.76824000302817,22.806844719289323,94.56224238036316,83.5167023327022,3.23295607813634e-05,0.0907677188515663,0,0,0
7912,268107.4219506146,2010-10-11 16:58:11,254.9157541299084,4,23,0.3969599604606628,4.199653148651123,23.77934333401264,22.806844719289323,94.60887408532676,83.5167023327022,0.0,0.0907677188515663,0,0,0
7913,268229.0293877506,2010-10-11 17:00:12,376.5231912609118,4,23,0.3469311892986297,4.199653148651123,23.79189045237211,22.806844719289323,94.6615694564944,83.5167023327022,-6.47544875391759e-05,0.0907677188515663,0,0,0
7914,268375.4958472543,2010-10-11 17:02:39,522.9896507696104,4,23,0.2969024181365967,4.199653148651123,23.80496520773102,22.806844719289323,94.71648081658806,83.5167023327022,-3.23295607813634e-05,0.0907677188515663,0,0,0
7915,268550.97747005767,2010-10-11 17:05:34,698.4712735679694,4,23,0.2466930299997329,4.199814796447754,23.8181900546575,22.806844719289323,94.77202252407298,83.5167023327022,0.0,0.0907677188515663,0,0,0
7916,268770.1771509134,2010-10-11 17:09:13,917.6709544437676,4,23,0.1966642588376999,4.199653148651123,23.83166010931408,22.806844719289323,94.82859401867246,83.5167023327022,-6.47544875391759e-05,0.0907677188515663,0,0,0
7917,269059.1101012982,2010-10-11 17:14:02,1206.603904813535,4,23,0.1466354876756668,4.199814796447754,23.845373716909386,22.806844719289323,94.886188382364,83.5167023327022,3.23295607813634e-05,0.0907677188515663,0,0,0
7918,269479.431589286,2010-10-11 17:21:03,1626.9253928012895,4,23,0.0964261144399643,4.199653148651123,23.8593962290245,22.806844719289323,94.94508006529944,83.5167023327022,-3.23295607813634e-05,0.0907677188515663,0,0,0
7919,270193.7015786148,2010-10-11 17:32:57,2341.195382130078,4,23,0.0496483072638511,4.199653148651123,23.873411054025077,22.806844719289323,95.00393947533468,83.5167023327022,-3.23295607813634e-05,0.0907677188515663,0,0,0
7920,270223.71394303336,2010-10-11 17:33:27,30.015157608192727,5,23,0.0,4.191882610321045,23.873411054025077,22.806844719289323,95.00393947533468,83.5167023327022,-6.47544875391759e-05,0.0907677188515663,0,0,0
7921,270253.7134551231,2010-10-11 17:33:57,60.01466970796447,5,23,0.0,4.190911293029785,23.873411054025077,22.806844719289323,95.00393947533468,83.5167023327022,0.0,0.0907677188515663,0,0,0
7922,270253.9147313113,2010-10-11 17:33:57,0.187498168126716,6,23,-1.9243103452026844e-05,4.190587520599365,23.873411054025077,22.80684472029156,95.00393947533468,83.51670233690214,0.0,0.0931989923119545,0,0,0
7923,270258.7428936725,2010-10-11 17:34:02,5.015660539344212,6,23,0.0005225847125984,4.190587520599365,23.873412026557308,22.80684472045846,95.00394355101774,83.51670233760157,-9.71794142969884e-05,0.0931989923119545,0,0,0
7924,270288.7717842417,2010-10-11 17:34:32,30.015158099417008,7,23,-1.099568486213684,4.015427112579346,23.87341202659871,22.81601225703652,95.00394355119124,83.55371058110748,-0.0009065627818927,0.0931989923119545,0,0,0
7925,270318.7869604162,2010-10-11 17:35:02,60.03033424882014,7,23,-1.099568486213684,3.989201784133911,23.87341202659871,22.825179738866662,95.00394355119124,83.59039280000457,-0.0005827903514727,0.0931989923119545,0,0,0
7926,270348.80223688565,2010-10-11 17:35:32,90.0456107433141,7,23,-1.099568486213684,3.9709086418151855,23.87341202659871,22.834347127782635,95.00394355119124,83.62687450870673,-0.0004209041653666,0.0931989923119545,0,0,0
7927,270378.8173470656,2010-10-11 17:36:02,120.06072090826368,7,23,-1.099568486213684,3.956824541091919,23.87341202659871,22.84351446781693,95.00394355119124,83.6632103081943,-0.0003561496851034,0.0931989923119545,0,0,0
7928,270408.8324946939,2010-10-11 17:36:32,150.07586854159598,7,23,-1.0997490882873535,3.944844961166382,23.87341202659871,22.85268179292057,95.00394355119124,83.6994286660879,-0.0003237724304199,0.0931989923119545,0,0,0
7929,270438.8475344835,2010-10-11 17:37:02,180.09090831611093,7,23,-1.099568486213684,3.934484243392944,23.87341202659871,22.861849079661685,95.00394355119124,83.73554541299674,-0.0003237724304199,0.0931989923119545,0,0,0
7930,270468.86268508923,2010-10-11 17:37:32,210.10605892686388,7,23,-1.0997490882873535,3.9247710704803462,23.87341202659871,22.87101640295067,95.00394355119124,83.77157026035783,-0.0002913951757363,0.0931989923119545,0,0,0
7931,270498.87783003086,2010-10-11 17:38:02,240.1212038684876,7,23,-1.099568486213684,3.915543556213379,23.87341202659871,22.880183774145348,95.00394355119124,83.80750847041789,-0.0002590179501567,0.0931989923119545,0,0,0
7932,270528.8929879047,2010-10-11 17:38:33,270.13636176740494,7,23,-1.099568486213684,3.90680193901062,23.87341202659871,22.88935106666666,95.00394355119124,83.84336371215642,-0.0002590179501567,0.0931989923119545,0,0,0
7933,270558.9081513675,2010-10-11 17:39:03,300.1515252552516,7,23,-1.099568486213684,3.898221969604492,23.87341202659871,22.89851841447989,95.00394355119124,83.87913973954838,-0.0002590179501567,0.0931989923119545,0,0,0
7934,270588.92328175786,2010-10-11 17:39:33,330.16665559548414,7,23,-1.0993878841400146,3.890127658843994,23.87341202659871,22.90768577628018,95.00394355119124,83.91483868282461,-0.0001942634553415,0.0931989923119545,0,0,0
7935,270618.9385530795,2010-10-11 17:40:03,360.18192691708566,7,23,-1.099929690361023,3.881547689437866,23.87341202659871,22.916853166448725,95.00394355119124,83.95046196303511,-0.0002590179501567,0.0931989923119545,0,0,0
7936,270648.95358099445,2010-10-11 17:40:33,390.1969548320429,7,23,-1.099568486213684,3.873777151107788,23.87341202659871,22.92602053706636,95.00394355119124,83.98601062024498,-0.0001942634553415,0.0931989923119545,0,0,0
7937,270678.96887393,2010-10-11 17:41:03,420.21224779257534,7,23,-1.0993878841400146,3.8658447265625,23.87341202659871,22.935187939105123,95.00394355119124,84.0214861374648,-0.0001942634553415,0.0931989923119545,0,0,0
7938,270708.9841057581,2010-10-11 17:41:33,450.2274795956846,7,23,-1.099568486213684,3.858074188232422,23.87341202659871,22.944355336410897,95.00394355119124,84.05688953880033,-0.0001942634553415,0.0931989923119545,0,0,0
7939,270738.9990489067,2010-10-11 17:42:03,480.2424227694408,7,23,-1.099568486213684,3.850303649902344,23.87341202659871,22.953522692782105,95.00394355119124,84.09222179153274,-0.0001942634553415,0.0931989923119545,0,0,0
7940,270769.01420253003,2010-10-11 17:42:33,510.25757638768926,7,23,-1.099568486213684,3.842694997787476,23.87341202659871,22.962690046538643,95.00394355119124,84.12748388008258,-0.0001942634553415,0.0931989923119545,0,0,0
7941,270799.029361286,2010-10-11 17:43:03,540.2727351337179,7,23,-1.099568486213684,3.835086345672608,23.87341202659871,22.97185748678433,95.00394355119124,84.162677046929,-0.0002266406954731,0.0931989923119545,0,0,0
7942,270829.0464553054,2010-10-11 17:43:33,570.2898291730929,7,23,-1.099568486213684,3.8278017044067374,23.87341202659871,22.981025384328703,95.00394355119124,84.19780392615581,-0.0001942634553415,0.0931989923119545,0,0,0
7943,270859.05964386114,2010-10-11 17:44:03,600.303017708751,7,23,-1.099568486213684,3.8206787109375,23.87341202659871,22.99019222183341,95.00394355119124,84.23285934004856,-0.0001942634553415,0.0931989923119545,0,0,0
7944,270889.0748149078,2010-10-11 17:44:33,630.3181887604491,7,23,-1.099568486213684,3.813393831253052,23.87341202659871,22.999359648866115,95.00394355119124,84.26785128833257,-0.0001942634553415,0.0931989923119545,0,0,0
7945,270919.08997889183,2010-10-11 17:45:03,660.333352749545,7,23,-1.099568486213684,3.806432723999024,23.87341202659871,23.008526963658653,95.00394355119124,84.30277742683526,-0.0001942634553415,0.0931989923119545,0,0,0
7946,270949.10508886137,2010-10-11 17:45:33,690.348462693945,7,23,-1.099568486213684,3.799471616744995,23.87341202659871,23.01769429708336,95.00394355119124,84.33764023148068,-0.0001942634553415,0.0931989923119545,0,0,0
7947,270979.12025892053,2010-10-11 17:46:03,720.3636327782318,7,23,-1.099568486213684,3.7929961681365967,23.87341202659871,23.02686169325202,95.00394355119124,84.37244119348611,-0.0001295089750783,0.0931989923119545,0,0,0
7948,271009.13553729974,2010-10-11 17:46:33,750.3789111774731,7,23,-1.099568486213684,3.786035060882568,23.87341202659871,23.036029073085825,95.00394355119124,84.40718075255971,-0.0002590179501567,0.0931989923119545,0,0,0
7949,271039.1505511196,2010-10-11 17:47:03,780.393924957201,7,23,-1.0992072820663452,3.77988338470459,23.87341202659871,23.04519599252257,95.00394355119124,84.44185866761623,-0.0001295089750783,0.0931989923119545,0,0,0
7950,271069.1658110578,2010-10-11 17:47:33,810.4091849004442,7,23,-1.0993878841400146,3.773246049880981,23.87341202659871,23.05436274158263,95.00394355119124,84.47647720085787,-0.0001618862152099,0.0931989923119545,0,0,0
7951,271099.180841469,2010-10-11 17:48:03,840.4242153015979,7,23,-1.0992072820663452,3.767256259918213,23.87341202659871,23.063529373383336,95.00394355119124,84.51103751339866,-0.0001618862152099,0.0931989923119545,0,0,0
7952,271129.1959955083,2010-10-11 17:48:33,870.4393693459083,7,23,-1.099568486213684,3.760942697525024,23.87341202659871,23.07269610790837,95.00394355119124,84.54554148986304,-0.0001618862152099,0.0931989923119545,0,0,0
7953,271159.2111586753,2010-10-11 17:49:03,900.4545325029304,7,23,-1.099568486213684,3.754952907562256,23.87341202659871,23.08186331777249,95.00394355119124,84.57999137448894,-0.0001942634553415,0.0931989923119545,0,0,0
7954,271189.2263205642,2010-10-11 17:49:33,930.4696944218668,7,23,-1.099568486213684,3.7489633560180655,23.87341202659871,23.09103069658347,95.00394355119124,84.614387337721,-0.0001295089750783,0.0931989923119545,0,0,0
7955,271219.2414441877,2010-10-11 17:50:03,960.4848180503716,7,23,-1.0993878841400146,3.7432973384857178,23.87341202659871,23.10019810949943,95.00394355119124,84.6487296808933,-0.0001618862152099,0.0931989923119545,0,0,0
7956,271249.2565936957,2010-10-11 17:50:33,990.4999675283012,7,23,-1.0997490882873535,3.737469434738159,23.87341202659871,23.10936556358416,95.00394355119124,84.683019946238,-0.0001942634553415,0.0931989923119545,0,0,0
7957,271279.2717558452,2010-10-11 17:51:03,1020.5151296878372,7,23,-1.099568486213684,3.731965303421021,23.87341202659871,23.118533003484448,95.00394355119124,84.71725866031291,-0.0001942634553415,0.0931989923119545,0,0,0
7958,271309.28687740857,2010-10-11 17:51:33,1050.5302512912954,7,23,-1.099568486213684,3.726461172103882,23.87341202659871,23.12770038644159,95.00394355119124,84.75144598836218,-0.0001295089750783,0.0931989923119545,0,0,0
7959,271339.3022012661,2010-10-11 17:52:03,1080.5455751087325,7,23,-1.099568486213684,3.721118927001953,23.87341202659871,23.13686791350866,95.00394355119124,84.78558333193807,-0.0001295089750783,0.0931989923119545,0,0,0
7960,271369.3172403188,2010-10-11 17:52:33,1110.560614196536,7,23,-1.0993878841400146,3.715776681900024,23.87341202659871,23.146035349334472,95.00394355119124,84.81967144918819,-0.0001618862152099,0.0931989923119545,0,0,0
7961,271399.3325318759,2010-10-11 17:53:03,1140.5759057435455,7,23,-1.099568486213684,3.710434436798096,23.87341202659871,23.155202862108265,95.00394355119124,84.85371162179605,-0.0001295089750783,0.0931989923119545,0,0,0
7962,271429.3494542323,2010-10-11 17:53:33,1170.592828079984,7,23,-1.0993878841400146,3.705415964126587,23.87341202659871,23.164370821855744,95.00394355119124,84.88770594448184,-9.713172767078504e-05,0.0931989923119545,0,0,0
7963,271459.3626759256,2010-10-11 17:54:03,1200.6060497833062,7,23,-1.0997490882873535,3.700397491455078,23.87341202659871,23.17353770020889,95.00394355119124,84.92164933681006,-0.0001295089750783,0.0931989923119545,0,0,0
7964,271489.37782796496,2010-10-11 17:54:33,1230.621201797557,7,23,-1.099568486213684,3.6955409049987793,23.87341202659871,23.182705156342443,95.00394355119124,84.95554867921942,-6.47544875391759e-05,0.0931989923119545,0,0,0
7965,271519.39299865573,2010-10-11 17:55:03,1260.636372513418,7,23,-1.099568486213684,3.6905224323272714,23.87341202659871,23.191872682458182,95.00394355119124,84.98940307354074,-9.713172767078504e-05,0.0931989923119545,0,0,0
7966,271549.4081222341,2010-10-11 17:55:33,1290.651496096811,7,23,-1.099568486213684,3.6855039596557617,23.87341202659871,23.20104014854457,95.00394355119124,85.0232122296756,-0.0001295089750783,0.0931989923119545,0,0,0
7967,271579.4233950896,2010-10-11 17:56:03,1320.6667689371973,7,23,-1.099568486213684,3.680809259414673,23.87341202659871,23.21020773077932,95.00394355119124,85.05697772557396,-0.0001295089750783,0.0931989923119545,0,0,0
7968,271609.4387205411,2010-10-11 17:56:33,1350.6820944087574,7,23,-1.099568486213684,3.676114559173584,23.87341202659871,23.2193753036135,95.00394355119124,85.0906996422671,-0.0001295089750783,0.0931989923119545,0,0,0
7969,271639.4536167127,2010-10-11 17:57:03,1380.6969905803694,7,23,-1.099568486213684,3.671420097351074,23.87341202659871,23.228542725924346,95.00394355119124,85.12437832973123,-0.0001295089750783,0.0931989923119545,0,0,0
7970,271669.4712935345,2010-10-11 17:57:33,1410.7146674874302,7,23,-1.0993878841400146,3.6668872833251953,23.87341202659871,23.23771099670345,95.00394355119124,85.15801783978164,-9.713172767078504e-05,0.0931989923119545,0,0,0
7971,271699.4838943103,2010-10-11 17:58:03,1440.727268193035,7,23,-1.099568486213684,3.662354469299317,23.87341202659871,23.246877674707363,95.00394355119124,85.19160991355876,-9.713172767078504e-05,0.0931989923119545,0,0,0
7972,271729.4990367607,2010-10-11 17:58:33,1470.7424106233998,7,23,-1.099568486213684,3.657983541488648,23.87341202659871,23.25604518964832,95.00394355119124,85.22516399030376,-9.713172767078504e-05,0.0931989923119545,0,0,0
7973,271759.5142008651,2010-10-11 17:59:03,1500.7575746977082,7,23,-1.0997490882873535,3.6536126136779785,23.87341202659871,23.265212698702427,95.00394355119124,85.25867802427948,-9.713172767078504e-05,0.0931989923119545,0,0,0
7974,271789.5293331201,2010-10-11 17:59:33,1530.7727069577254,7,23,-1.0993878841400146,3.64940357208252,23.87341202659871,23.274380178744625,95.00394355119124,85.29215208782686,-9.713172767078504e-05,0.0931989923119545,0,0,0
7975,271819.5468421588,2010-10-11 18:00:03,1560.7902161317438,7,23,-1.099568486213684,3.6448707580566406,23.87341202659871,23.28354833677114,95.00394355119124,85.32558910507389,-9.713172767078504e-05,0.0931989923119545,0,0,0
7976,271849.55963344435,2010-10-11 18:00:33,1590.8030072769825,7,23,-1.0997490882873535,3.6406617164611816,23.87341202659871,23.292714972561942,95.00394355119124,85.35898227800689,-0.0001295089750783,0.0931989923119545,0,0,0
7977,271879.5748105812,2010-10-11 18:01:03,1620.818184413847,7,23,-1.099568486213684,3.636776447296143,23.87341202659871,23.30188243181894,95.00394355119124,85.39234060153196,-9.713172767078504e-05,0.0931989923119545,0,0,0
7978,271909.5899584151,2010-10-11 18:01:33,1650.833332247679,7,23,-1.099568486213684,3.6327292919158936,23.87341202659871,23.311049895606786,95.00394355119124,85.42566162375005,-6.47544875391759e-05,0.0931989923119545,0,0,0
7979,271939.6050817278,2010-10-11 18:02:03,1680.8484555603966,7,23,-1.099568486213684,3.628682136535645,23.87341202659871,23.320217382896463,95.00394355119124,85.45894575315249,-9.713172767078504e-05,0.0931989923119545,0,0,0
7980,271969.6202366142,2010-10-11 18:02:33,1710.8636104468058,7,23,-1.099568486213684,3.6247968673706055,23.87341202659871,23.32938479124589,95.00394355119124,85.49219325457288,-9.713172767078504e-05,0.0931989923119545,0,0,0
7981,271999.6354144127,2010-10-11 18:03:03,1740.8787882703816,7,23,-1.099568486213684,3.621073484420776,23.87341202659871,23.338552283993604,95.00394355119124,85.5254060064698,-6.47544875391759e-05,0.0931989923119545,0,0,0
7982,272029.652471926,2010-10-11 18:03:33,1770.8958457937476,7,23,-1.0993878841400146,3.617188215255737,23.87341202659871,23.34772036177316,95.00394355119124,85.55858571469494,-6.47544875391759e-05,0.0931989923119545,0,0,0
7983,272059.66580650565,2010-10-11 18:04:03,1800.909180373392,7,23,-1.099568486213684,3.613464832305908,23.87341202659871,23.3568872440812,95.00394355119124,85.5917273468009,-0.0001295089750783,0.0931989923119545,0,0,0
7984,272089.68084902706,2010-10-11 18:04:33,1830.9242229498905,7,23,-1.099568486213684,3.610065221786499,23.87341202659871,23.366054651781468,95.00394355119124,85.6248379677527,-6.47544875391759e-05,0.0931989923119545,0,0,0
7985,272119.69600425434,2010-10-11 18:05:03,1860.9393780869243,7,23,-1.0993878841400146,3.60666561126709,23.87341202659871,23.375222204739664,95.00394355119124,85.65791692032646,-6.47544875391759e-05,0.0931989923119545,0,0,0
7986,272149.7111368752,2010-10-11 18:05:33,1890.954510732904,7,23,-1.099568486213684,3.603104114532471,23.87341202659871,23.38438966963167,95.00394355119124,85.69096426223588,-6.47544875391759e-05,0.0931989923119545,0,0,0
7987,272179.7262815412,2010-10-11 18:06:03,1920.96965539884,7,23,-1.099568486213684,3.5998663902282715,23.87341202659871,23.393557188209066,95.00394355119124,85.72398135678814,-9.713172767078504e-05,0.0931989923119545,0,0,0
7988,272209.7414378411,2010-10-11 18:06:33,1950.9848117338595,7,23,-1.099568486213684,3.5966286659240723,23.87341202659871,23.40272471549689,95.00394355119124,85.75696875783105,-9.713172767078504e-05,0.0931989923119545,0,0,0
7989,272239.7565691237,2010-10-11 18:07:03,1980.9999430114285,7,23,-1.099568486213684,3.593552827835083,23.87341202659871,23.411892218242485,95.00394355119124,85.78992693899635,-9.713172767078504e-05,0.0931989923119545,0,0,0
7990,272269.77168533875,2010-10-11 18:07:33,2011.0150591713195,7,23,-1.099568486213684,3.590477228164673,23.87341202659871,23.421059764856057,95.00394355119124,85.82285648527893,-6.47544875391759e-05,0.0931989923119545,0,0,0
7991,272299.7869605951,2010-10-11 18:08:03,2041.0303344578024,7,23,-1.0993878841400146,3.5875632762908936,23.87341202659871,23.43022729942316,95.00394355119124,85.85575751402884,-3.237724376958795e-05,0.0931989923119545,0,0,0
7992,272329.8021149452,2010-10-11 18:08:33,2071.0454887928377,7,23,-1.099568486213684,3.5843255519866943,23.87341202659871,23.43939485468433,95.00394355119124,85.88863079401068,-6.47544875391759e-05,0.0931989923119545,0,0,0
7993,272359.81718892,2010-10-11 18:09:03,2101.060562777616,7,23,-1.099568486213684,3.581573486328125,23.87341202659871,23.44856225723817,95.00394355119124,85.92147639514963,-6.47544875391759e-05,0.0931989923119545,0,0,0
7994,272389.83234439284,2010-10-11 18:09:33,2131.075718345723,7,23,-1.099568486213684,3.578497648239136,23.87341202659871,23.45772971464678,95.00394355119124,85.95429469554904,0.0,0.0931989923119545,0,0,0
7995,272419.8474532946,2010-10-11 18:10:03,2161.0908271272247,7,23,-1.099568486213684,3.5754218101501465,23.87341202659871,23.466897169932466,95.00394355119124,85.98708597626332,-9.713172767078504e-05,0.0931989923119545,0,0,0
7996,272449.86261890776,2010-10-11 18:10:34,2191.1059927503934,7,23,-1.099568486213684,3.572507858276367,23.87341202659871,23.476064632256808,95.00394355119124,86.01985000463569,-6.47544875391759e-05,0.0931989923119545,0,0,0
7997,272479.8777652379,2010-10-11 18:11:04,2221.121139115565,7,23,-1.099568486213684,3.569432020187378,23.87341202659871,23.48523210842636,95.00394355119124,86.05258682298613,-9.713172767078504e-05,0.0931989923119545,0,0,0
7998,272509.8929057685,2010-10-11 18:11:34,2251.1362797213824,7,23,-1.099568486213684,3.566518068313598,23.87341202659871,23.49439954845437,95.00394355119124,86.085296566556,-9.713172767078504e-05,0.0931989923119545,0,0,0
7999,272539.9081750951,2010-10-11 18:12:04,2281.151548957787,7,23,-1.0993878841400146,3.5637660026550293,23.87341202659871,23.50356704066543,95.00394355119124,86.11797960074792,-6.47544875391759e-05,0.0931989923119545,0,0,0
8000,272569.9232021629,2010-10-11 18:12:34,2311.166576005583,7,23,-1.099568486213684,3.56069016456604,23.87341202659871,23.51273440055232,95.00394355119124,86.1506358465732,-6.47544875391759e-05,0.0931989923119545,0,0,0
8001,272599.9384996497,2010-10-11 18:13:04,2341.1818735124466,7,23,-1.0993878841400146,3.5577762126922607,23.87341202659871,23.52190189842146,95.00394355119124,86.18326544895734,-6.47544875391759e-05,0.0931989923119545,0,0,0
8002,272629.9558622034,2010-10-11 18:13:34,2371.199236191354,7,23,-1.099568486213684,3.554862260818481,23.87341202659871,23.531070010801077,95.00394355119124,86.21587032366915,-6.47544875391759e-05,0.0931989923119545,0,0,0
8003,272659.96871095215,2010-10-11 18:14:04,2401.212084849933,7,23,-1.099568486213684,3.551948308944702,23.87341202659871,23.54023673185449,95.00394355119124,86.24844262403658,-6.47544875391759e-05,0.0931989923119545,0,0,0
8004,272689.983821082,2010-10-11 18:14:34,2431.227194949721,7,23,-1.0993878841400146,3.548548698425293,23.87341202659871,23.549404208759476,95.00394355119124,86.28098959652667,-9.713172767078504e-05,0.0931989923119545,0,0,0
8005,272719.9989865248,2010-10-11 18:15:04,2461.24236035234,7,23,-1.099568486213684,3.545472860336304,23.87341202659871,23.55857173430335,95.00394355119124,86.31350785882434,-9.713172767078504e-05,0.0931989923119545,0,0,0
8006,272750.0141153863,2010-10-11 18:15:34,2491.257489223912,7,23,-1.0993878841400146,3.5425589084625244,23.87341202659871,23.567739224494236,95.00394355119124,86.34599660951065,0.0,0.0931989923119545,0,0,0
8007,272780.0292751148,2010-10-11 18:16:04,2521.272649072689,7,23,-1.099568486213684,3.5389974117279053,23.87341202659871,23.57690669656171,95.00394355119124,86.3784555467124,-9.713172767078504e-05,0.0931989923119545,0,0,0
8008,272810.04441020184,2010-10-11 18:16:34,2551.287784059502,7,23,-1.0997490882873535,3.535597801208496,23.87341202659871,23.58607413449522,95.00394355119124,86.41088362652336,-6.47544875391759e-05,0.0931989923119545,0,0,0
8009,272840.059579033,2010-10-11 18:17:04,2581.302952920741,7,23,-1.0993878841400146,3.532198190689087,23.87341202659871,23.59524162851861,95.00394355119124,86.4432805774614,-9.713172767078504e-05,0.0931989923119545,0,0,0
8010,272870.07473682164,2010-10-11 18:17:34,2611.318110684321,7,23,-1.0993878841400146,3.5287985801696777,23.87341202659871,23.6044090419983,95.00394355119124,86.47564579238116,-9.713172767078504e-05,0.0931989923119545,0,0,0
8011,272900.08988245,2010-10-11 18:18:04,2641.3332563126564,7,23,-1.0997490882873535,3.5250751972198486,23.87341202659871,23.613576554587983,95.00394355119124,86.50797866709796,-9.713172767078504e-05,0.0931989923119545,0,0,0
8012,272930.1051469145,2010-10-11 18:18:34,2671.348520777168,7,23,-1.099568486213684,3.5213518142700195,23.87341202659871,23.622744052664203,95.00394355119124,86.54027764311908,-6.47544875391759e-05,0.0931989923119545,0,0,0
8013,272960.1201816214,2010-10-11 18:19:04,2701.363555453978,7,23,-1.0993878841400146,3.5176284313201904,23.87341202659871,23.631911462624235,95.00394355119124,86.57254159065461,-9.713172767078504e-05,0.0931989923119545,0,0,0
8014,272990.13531914447,2010-10-11 18:19:34,2731.3786930272367,7,23,-1.099568486213684,3.5135812759399414,23.87341202659871,23.64107893056848,95.00394355119124,86.60476989456339,-6.47544875391759e-05,0.0931989923119545,0,0,0
8015,273020.1505842406,2010-10-11 18:20:04,2761.393958103273,7,23,-1.0993878841400146,3.509210586547852,23.87341202659871,23.65024646861643,95.00394355119124,86.63696107650851,-9.713172767078504e-05,0.0931989923119545,0,0,0
8016,273050.16561130347,2010-10-11 18:20:34,2791.4089851661065,7,23,-1.099568486213684,3.5046777725219727,23.87341202659871,23.65941395712014,95.00394355119124,86.66911209833358,-0.0001618862152099,0.0931989923119545,0,0,0
8017,273080.18079999404,2010-10-11 18:21:04,2821.424173851753,7,23,-1.0993878841400146,3.500306844711304,23.87341202659871,23.668581474199748,95.00394355119124,86.70122157175007,-0.0001295089750783,0.0931989923119545,0,0,0
8018,273110.1959188908,2010-10-11 18:21:34,2851.4392927183903,7,23,-1.099568486213684,3.495288372039795,23.87341202659871,23.677748967549693,95.00394355119124,86.73328662865687,-9.713172767078504e-05,0.0931989923119545,0,0,0
8019,273140.2110616019,2010-10-11 18:22:04,2881.4544354645423,7,23,-1.099568486213684,3.4896223545074463,23.87341202659871,23.68691645877276,95.00394355119124,86.76530376857968,-0.0001618862152099,0.0931989923119545,0,0,0
8020,273170.2262192451,2010-10-11 18:22:34,2911.4695930727357,7,23,-1.099568486213684,3.483794450759888,23.87341202659871,23.6960839693884,95.00394355119124,86.79726867915379,-0.0001618862152099,0.0931989923119545,0,0,0
8021,273200.2415119701,2010-10-11 18:23:04,2941.484885812718,7,23,-1.099568486213684,3.4769952297210693,23.87341202659871,23.705251352177847,95.00394355119124,86.82917450917887,-0.0002266406954731,0.0931989923119545,0,0,0
8022,273230.2585316141,2010-10-11 18:23:34,2971.5019054767267,7,23,-1.099568486213684,3.469872236251831,23.87341202659871,23.714419278637106,95.00394355119124,86.86101869071918,-0.0001295089750783,0.0931989923119545,0,0,0
8023,273260.2717934424,2010-10-11 18:24:04,3001.5151672749776,7,23,-1.0993878841400146,3.461292266845703,23.87341202659871,23.72358608268746,95.00394355119124,86.89278806137285,-0.0002590179501567,0.0931989923119545,0,0,0
8024,273290.28684508643,2010-10-11 18:24:34,3031.5302189692,7,23,-1.099568486213684,3.4517409801483154,23.87341202659871,23.732753530124235,95.00394355119124,86.9244771496341,-0.0002913951757363,0.0931989923119545,0,0,0
8025,273320.3020110956,2010-10-11 18:25:04,3061.545385048505,7,23,-1.0993878841400146,3.440570831298828,23.87341202659871,23.74192105204231,95.00394355119124,86.95607101579837,-0.0003237724304199,0.0931989923119545,0,0,0
8026,273350.31711773673,2010-10-11 18:25:34,3091.560491569373,7,23,-1.099568486213684,3.4269726276397705,23.87341202659871,23.75108851253628,95.00394355119124,86.98755169867232,-0.0004209041653666,0.0931989923119545,0,0,0
8027,273380.3322712999,2010-10-11 18:26:04,3121.575645132484,7,23,-1.099568486213684,3.4099745750427246,23.87341202659871,23.760255988028444,95.00394355119124,87.01889322088846,-0.0005180359003134,0.0931989923119545,0,0,0
8028,273410.34756156866,2010-10-11 18:26:34,3151.5909354363957,7,23,-1.099568486213684,3.3884437084198,23.87341202659871,23.769423465806625,95.00394355119124,87.05005980369995,-0.0006475448608398,0.0931989923119545,0,0,0
8029,273440.3625834436,2010-10-11 18:27:04,3181.6059572762115,7,23,-1.099568486213684,3.359466075897217,23.87341202659871,23.778590977037208,95.00394355119124,87.08099822062195,-0.0009065627818927,0.0931989923119545,0,0,0
8030,273470.37771923246,2010-10-11 18:27:34,3211.6210931151486,7,23,-1.099929690361023,3.318832874298096,23.87341202659871,23.78775845153094,95.00394355119124,87.11162103645184,-0.0012627125252038,0.0931989923119545,0,0,0
8031,273500.39289564244,2010-10-11 18:28:04,3241.636269510164,7,23,-1.0993878841400146,3.2612016201019287,23.87341202659871,23.79692594316237,95.00394355119124,87.14179803153814,-0.0017807483673095,0.0931989923119545,0,0,0
8032,273530.4083027725,2010-10-11 18:28:34,3271.6516766252043,7,23,-1.0993878841400146,3.177182912826538,23.87341202659871,23.806093467669093,95.00394355119124,87.17133334887284,-0.0025901794433593,0.0931989923119545,0,0,0
8033,273560.4233141864,2010-10-11 18:29:04,3301.666688023998,7,23,-1.0993878841400146,3.049131155014038,23.87341202659871,23.815260924388348,95.00394355119124,87.1999154053279,-0.0040795328095555,0.0931989923119545,0,0,0
8034,273586.422901994,2010-10-11 18:29:30,3327.6662758316884,7,23,-1.099568486213684,2.8488786220550537,23.87341202659871,23.82320197296228,95.00394355119124,87.22342858027402,-0.0082885269075632,0.0931989923119545,0,0,0
8035,273597.8757064868,2010-10-11 18:29:42,3339.119080344474,7,23,-1.0993878841400146,2.699943780899048,23.87341202659871,23.82669997915022,95.00394355119124,87.23314713874514,-0.0114291189238429,0.0931989923119545,0,0,0
8036,273657.8945612963,2010-10-11 18:30:42,60.01469265014344,8,23,0.0,3.345867872238159,23.87341202659871,23.82669997915022,95.00394355119124,87.23314713874514,0.0012303352123126,0.0931989923119545,0,0,0
8037,273658.0714639009,2010-10-11 18:30:42,0.187433306471514,9,23,-1.9243103452026844e-05,3.346191644668579,23.87341203029858,23.82669997915022,95.00394356357111,87.23314713874514,6.47544875391759e-05,0.0931989923119545,0,0,0
8038,273662.8996442018,2010-10-11 18:30:47,5.015613497100466,9,23,0.0008838032954372,3.353800058364868,23.873412913164056,23.82669997931721,95.00394652171522,87.23314713930391,0.001068401383236,0.0931989923119545,0,0,0
