Data_Point,Test_Time(s),Date_Time,Step_Time(s),Step_Index,Cycle_Index,Current(A),Voltage(V),Charge_Capacity(Ah),Discharge_Capacity(Ah),Charge_Energy(Wh),Discharge_Energy(Wh),dV/dt(V/s),Internal_Resistance(Ohm),Is_FC_Data,AC_Impedance(Ohm),ACI_Phase_Angle(Deg)
12778,436475.3697254003,2010-10-13 15:44:37,30.015187612973875,1,38,0.0,3.408355712890625,37.97194980029983,37.91718053174619,151.23524028459698,138.61099481142475,0.0007122993702068,0.0915781408548355,0,0,0
12779,436505.3848408734,2010-10-13 15:45:07,60.03030305607823,1,38,0.0,3.43215274810791,37.97194980029983,37.91718053174619,151.23524028459698,138.61099481142475,0.0005503654247149,0.0915781408548355,0,0,0
12780,436535.399968512,2010-10-13 15:45:37,90.04543068956477,1,38,0.0,3.449798345565796,37.97194980029983,37.91718053174619,151.23524028459698,138.61099481142475,0.0004209041653666,0.0915781408548355,0,0,0
12781,436565.3682906368,2010-10-13 15:46:07,120.01375294464664,1,38,0.0,3.4640443325042725,37.97194980029983,37.91718053174619,151.23524028459698,138.61099481142475,0.0003561496851034,0.0915781408548355,0,0,0
12782,436595.3877464835,2010-10-13 15:46:37,30.0152790709152,2,38,0.5501165986061096,3.617188215255737,37.97653613686084,37.91718053174619,151.25167535338858,138.61099481142475,0.0015217304462566,0.0915781408548355,0,0,0
12783,436625.40265869006,2010-10-13 15:47:07,60.0301912724791,2,38,0.5501165986061096,3.6618688106536874,37.98112247581609,37.91718053174619,151.26837402074946,138.61099481142475,0.0009713172912597,0.0915781408548355,0,0,0
12784,436655.41797484347,2010-10-13 15:47:37,90.0455074308276,2,38,0.5501165986061096,3.69392204284668,37.985708806675824,37.91718053174619,151.28524576573534,138.61099481142475,0.0007122993702068,0.0915781408548355,0,0,0
12785,436685.43298469833,2010-10-13 15:48:07,120.06051728076127,2,38,0.5499359965324402,3.7191762924194336,37.99029511527582,37.91718053174619,151.3022473922351,138.61099481142475,0.0006151676061563,0.0915781408548355,0,0,0
12786,436715.44821938366,2010-10-13 15:48:37,150.0757520612912,2,38,0.550297200679779,3.739412069320679,37.99488143227869,37.91718053174619,151.31935258522637,138.61099481142475,0.0004856586456298,0.0915781408548355,0,0,0
12787,436745.46324060194,2010-10-13 15:49:07,180.0907731843209,2,38,0.550297200679779,3.755924224853516,37.99946768475957,37.91718053174619,151.3365416679353,138.61099481142475,0.0003885269106831,0.0915781408548355,0,0,0
12788,436775.4783996888,2010-10-13 15:49:37,210.10593227119892,2,38,0.5501165986061096,3.767580032348633,38.00405395809848,37.91718053174619,151.35379570151426,138.61099481142475,0.0002266406954731,0.0915781408548355,0,0,0
12789,436805.4935350766,2010-10-13 15:50:07,240.1210676539992,2,38,0.5501165986061096,3.774541139602661,38.00864020863865,37.91718053174619,151.37109226713252,138.61099481142475,0.0001295089750783,0.0915781408548355,0,0,0
12790,436835.50869178254,2010-10-13 15:50:37,270.13622435994324,2,38,0.5501165986061096,3.77923583984375,38.01322648389781,37.91718053174619,151.38841501238443,138.61099481142475,9.713172767078504e-05,0.0915781408548355,0,0,0
12791,436865.52406562463,2010-10-13 15:51:07,300.1515982120824,2,38,0.5501165986061096,3.782959222793579,38.01781276872108,37.91718053174619,151.40575664312647,138.61099481142475,6.47544875391759e-05,0.0915781408548355,0,0,0
12792,436895.5389963875,2010-10-13 15:51:37,330.1665289648817,2,38,0.5497553944587708,3.786358833312988,38.02239901204956,37.91718053174619,151.42311482126624,138.61099481142475,3.237724376958795e-05,0.0915781408548355,0,0,0
12793,436925.5541227528,2010-10-13 15:52:07,360.1816553352201,2,38,0.5501165986061096,3.7900822162628174,38.02698530541248,37.91718053174619,151.4404893500268,138.61099481142475,0.0001295089750783,0.0915781408548355,0,0,0
12794,436955.5692648474,2010-10-13 15:52:37,390.1967974247355,2,38,0.5499359965324402,3.793643712997437,38.03157164100632,37.91718053174619,151.45787997292746,138.61099481142475,9.713172767078504e-05,0.0915781408548355,0,0,0
12795,436985.5844173879,2010-10-13 15:53:07,420.2119499602856,2,38,0.5501165986061096,3.7970433235168457,38.03615798211349,37.91718053174619,151.4752864460001,138.61099481142475,0.0001295089750783,0.0915781408548355,0,0,0
12796,437015.5995850161,2010-10-13 15:53:37,450.22711767867605,2,38,0.5499359965324402,3.800604820251465,38.040744249207016,37.91718053174619,151.49270837569952,138.61099481142475,0.0001295089750783,0.0915781408548355,0,0,0
12797,437045.6149191041,2010-10-13 15:54:07,480.2424518168358,2,38,0.5501165986061096,3.803680658340454,38.0453305689353,37.91718053174619,151.5101460134968,138.61099481142475,6.47544875391759e-05,0.0915781408548355,0,0,0
12798,437075.62986789184,2010-10-13 15:54:37,510.257400474259,2,38,0.5501165986061096,3.8070802688598633,38.04991691329031,37.91718053174619,151.5275988854166,138.61099481142475,6.47544875391759e-05,0.0915781408548355,0,0,0
12799,437105.6451258903,2010-10-13 15:55:07,540.2726584726548,2,38,0.5499359965324402,3.810156106948853,38.05450327097065,37.91718053174619,151.54506677437698,138.61099481142475,3.237724376958795e-05,0.0915781408548355,0,0,0
12800,437135.6601538403,2010-10-13 15:55:37,570.2876864377371,2,38,0.5501165986061096,3.8135557174682617,38.05908958558228,37.91718053174619,151.5625492389279,138.61099481142475,9.713172767078504e-05,0.0915781408548355,0,0,0
12801,437165.6754146708,2010-10-13 15:56:07,600.302947263179,2,38,0.5501165986061096,3.816793441772461,38.0636759089961,37.91718053174619,151.5800466852901,138.61099481142475,9.713172767078504e-05,0.0915781408548355,0,0,0
12802,437195.6904386809,2010-10-13 15:56:37,630.317971258367,2,38,0.550297200679779,3.81970739364624,38.06826216311998,37.91718053174619,151.59755833500716,138.61099481142475,3.237724376958795e-05,0.0915781408548355,0,0,0
12803,437225.7055929358,2010-10-13 15:57:07,660.3331255132022,2,38,0.5501165986061096,3.8231070041656494,38.07284842934946,37.91718053174619,151.61508441298992,138.61099481142475,9.713172767078504e-05,0.0915781408548355,0,0,0
12804,437255.7207486341,2010-10-13 15:57:37,690.3482812517351,2,38,0.5501165986061096,3.826182842254639,38.077434688911296,37.91718053174619,151.632624803317,138.61099481142475,9.713172767078504e-05,0.0915781408548355,0,0,0
12805,437285.7359029493,2010-10-13 15:58:07,720.3634355316327,2,38,0.5501165986061096,3.829258680343628,38.08202097277496,37.91718053174619,151.65017985664204,138.61099481142475,6.47544875391759e-05,0.0915781408548355,0,0,0
12806,437315.7511483562,2010-10-13 15:58:37,750.3786809336348,2,38,0.550297200679779,3.832658290863037,38.08660724961943,37.91718053174619,151.66774966847538,138.61099481142475,0.0001295089750783,0.0915781408548355,0,0,0
12807,437345.7661726973,2010-10-13 15:59:07,780.393705269672,2,38,0.5497553944587708,3.835895776748657,38.09119305228277,37.91718053174619,151.68533250987534,138.61099481142475,9.713172767078504e-05,0.0915781408548355,0,0,0
12808,437375.78133752354,2010-10-13 15:59:37,810.4088700958542,2,38,0.5497553944587708,3.839133501052856,38.09577823539684,37.91718053174619,151.70292829620038,138.61099481142475,9.713172767078504e-05,0.0915781408548355,0,0,0
12809,437405.7964861392,2010-10-13 16:00:07,840.4240187366976,2,38,0.5497553944587708,3.8425331115722656,38.10036342174212,37.91718053174619,151.72053968099965,138.61099481142475,6.47544875391759e-05,0.0915781408548355,0,0,0
12810,437435.81174779177,2010-10-13 16:00:37,870.4392803791758,2,38,0.5501165986061096,3.8460946083068848,38.10494859259146,37.91718053174619,151.73816649943845,138.61099481142475,9.713172767078504e-05,0.0915781408548355,0,0,0
12811,437465.8267906289,2010-10-13 16:01:07,900.4543232113112,2,38,0.5499359965324402,3.849332332611084,38.109534213129926,37.91718053174619,151.75581053659351,138.61099481142475,0.0001295089750783,0.0915781408548355,0,0,0
12812,437495.8420721258,2010-10-13 16:01:37,930.469604708273,2,38,0.5501165986061096,3.852731943130493,38.11412049162428,37.91718053174619,151.77347242680904,138.61099481142475,9.713172767078504e-05,0.0915781408548355,0,0,0
12813,437525.8571869826,2010-10-13 16:02:07,960.484719650128,2,38,0.550297200679779,3.8558077812194815,38.118706717316925,37.91718053174619,151.79114907426526,138.61099481142475,6.47544875391759e-05,0.0915781408548355,0,0,0
12814,437555.87244624906,2010-10-13 16:02:37,990.4999788364848,2,38,0.5499359965324402,3.8590455055236816,38.123293029219006,37.91718053174619,151.80884088103485,138.61099481142475,6.47544875391759e-05,0.0915781408548355,0,0,0
12815,437585.8873571023,2010-10-13 16:03:07,1020.5148896846756,2,38,0.550297200679779,3.862445116043091,38.127879212706425,37.91718053174619,151.82654665414825,138.61099481142475,9.713172767078504e-05,0.0915781408548355,0,0,0
12816,437615.9025164298,2010-10-13 16:03:37,1050.5300490071409,2,38,0.5501165986061096,3.86519718170166,38.13246546980525,37.91718053174619,151.84426685862337,138.61099481142475,9.713172767078504e-05,0.0915781408548355,0,0,0
12817,437645.9176841932,2010-10-13 16:04:07,1080.5452168608688,2,38,0.550297200679779,3.868596792221069,38.13705173463156,37.91718053174619,151.86200093419998,138.61099481142475,0.0001295089750783,0.0915781408548355,0,0,0
12818,437675.9328270046,2010-10-13 16:04:37,1110.560359586971,2,38,0.5501165986061096,3.8710250854492183,38.14163797772378,37.91718053174619,151.8797483336758,138.61099481142475,3.237724376958795e-05,0.0915781408548355,0,0,0
12819,437705.9479684676,2010-10-13 16:05:08,1140.5755010599494,2,38,0.5501165986061096,3.873939037322998,38.14622424297574,37.91718053174619,151.89750883558568,138.61099481142475,0.0001295089750783,0.0915781408548355,0,0,0
12820,437735.9656723719,2010-10-13 16:05:38,1170.5932050745705,2,38,0.5501165986061096,3.876529216766357,38.15081090762794,37.91718053174619,151.91528311771447,138.61099481142475,6.47544875391759e-05,0.0915781408548355,0,0,0
12821,437765.97824939847,2010-10-13 16:06:08,1200.6057819908851,2,38,0.5501165986061096,3.879119396209717,38.155396762982505,37.91718053174619,151.933066121265,138.61099481142475,9.713172767078504e-05,0.0915781408548355,0,0,0
12822,437795.9936053911,2010-10-13 16:06:38,1230.6211379734875,2,38,0.5501165986061096,3.881547689437866,38.15998307993174,37.91718053174619,151.95086199193454,138.61099481142475,9.713172767078504e-05,0.0915781408548355,0,0,0
12823,437826.00853872526,2010-10-13 16:07:08,1260.6360713277709,2,38,0.5501165986061096,3.8834903240203857,38.16456927044322,37.91718053174619,151.96866789746045,138.61099481142475,3.237724376958795e-05,0.0915781408548355,0,0,0
12824,437856.0237107895,2010-10-13 16:07:38,1290.65124336693,2,38,0.5501165986061096,3.8855948448181152,38.16915557078288,37.91718053174619,151.98648406458196,138.61099481142475,0.0,0.0915781408548355,0,0,0
12825,437886.038829571,2010-10-13 16:08:08,1320.666362153367,2,38,0.5501165986061096,3.8876993656158447,38.17374184535008,37.91718053174619,152.00430936343,138.61099481142475,6.47544875391759e-05,0.0915781408548355,0,0,0
12826,437916.05399967526,2010-10-13 16:08:38,1350.6815323479286,2,38,0.5499359965324402,3.889318227767944,38.17832811232,37.91718053174619,152.02214326021974,138.61099481142475,3.237724376958795e-05,0.0915781408548355,0,0,0
12827,437946.069124196,2010-10-13 16:09:08,1380.6966567834447,2,38,0.5501165986061096,3.891098976135254,38.18291444583456,37.91718053174619,152.03998538294093,138.61099481142475,3.237724376958795e-05,0.0915781408548355,0,0,0
12828,437976.0842904006,2010-10-13 16:09:38,1410.7118230933247,2,38,0.5501165986061096,3.8927178382873535,38.187500737757226,37.91718053174619,152.0578347906896,138.61099481142475,6.47544875391759e-05,0.0915781408548355,0,0,0
12829,438006.0998172891,2010-10-13 16:10:08,1440.7273498916531,2,38,0.5501165986061096,3.894174814224243,38.19208710636408,37.91718053174619,152.07569143897112,138.61099481142475,6.47544875391759e-05,0.0915781408548355,0,0,0
12830,438036.1145789705,2010-10-13 16:10:38,1470.7421115580369,2,38,0.5499359965324402,3.895308017730713,38.19667335480283,37.91718053174619,152.09355376421786,138.61099481142475,3.237724376958795e-05,0.0915781408548355,0,0,0
12831,438066.12972041353,2010-10-13 16:11:08,1500.757252990916,2,38,0.5501165986061096,3.896926879882813,38.201259528594655,37.91718053174619,152.1114218868004,138.61099481142475,6.47544875391759e-05,0.0915781408548355,0,0,0
12832,438096.144875746,2010-10-13 16:11:38,1530.772408323437,2,38,0.5501165986061096,3.898060083389282,38.205845788965625,37.91718053174619,152.12929615363754,138.61099481142475,6.47544875391759e-05,0.0915781408548355,0,0,0
12833,438126.1600243869,2010-10-13 16:12:08,1560.7875569642804,2,38,0.5499359965324402,3.899193286895752,38.21043193651023,37.91718053174619,152.14717564067553,138.61099481142475,6.47544875391759e-05,0.0915781408548355,0,0,0
12834,438156.17515115824,2010-10-13 16:12:38,1590.8026837606806,2,38,0.5501165986061096,3.9003264904022217,38.21501816579452,37.91718053174619,152.16506101317242,138.61099481142475,3.237724376958795e-05,0.0915781408548355,0,0,0
12835,438186.1904432767,2010-10-13 16:13:08,1620.8179758640763,2,38,0.5499359965324402,3.9014596939086914,38.21960438416323,37.91718053174619,152.18295178563403,138.61099481142475,0.0,0.0915781408548355,0,0,0
12836,438216.2054562344,2010-10-13 16:13:38,1650.8329888167432,2,38,0.5501165986061096,3.902754783630371,38.22419057366005,37.91718053174619,152.2008479337586,138.61099481142475,6.47544875391759e-05,0.0915781408548355,0,0,0
12837,438246.2205993614,2010-10-13 16:14:08,1680.848131998982,2,38,0.5497553944587708,3.903887987136841,38.2287767726287,37.91718053174619,152.2187495156757,138.61099481142475,0.0,0.0915781408548355,0,0,0
12838,438276.23572849366,2010-10-13 16:14:38,1710.863261071054,2,38,0.550297200679779,3.905183076858521,38.23336306046518,37.91718053174619,152.23665684758652,138.61099481142475,6.47544875391759e-05,0.0915781408548355,0,0,0
12839,438306.2508727135,2010-10-13 16:15:08,1740.8784054011537,2,38,0.5499359965324402,3.90615439414978,38.23794923648846,37.91718053174619,152.25456889055926,138.61099481142475,0.0,0.0915781408548355,0,0,0
12840,438336.26601855736,2010-10-13 16:15:38,1770.8935511397638,2,38,0.5499359965324402,3.90744948387146,38.24253536957665,37.91718053174619,152.27248632702225,138.61099481142475,3.237724376958795e-05,0.0915781408548355,0,0,0
12841,438366.281200005,2010-10-13 16:16:08,1800.9087325773469,2,38,0.5499359965324402,3.9085826873779297,38.247121613080296,37.91718053174619,152.29040973489094,138.61099481142475,-3.237724376958795e-05,0.0915781408548355,0,0,0
12842,438396.29634862574,2010-10-13 16:16:38,1830.9238812031524,2,38,0.5501165986061096,3.90987777709961,38.25170788525504,37.91718053174619,152.30833882090073,138.61099481142475,3.237724376958795e-05,0.0915781408548355,0,0,0
12843,438426.31148992834,2010-10-13 16:17:08,1860.9390225057064,2,38,0.5501165986061096,3.911010980606079,38.25629412367771,37.91718053174619,152.32627323821782,138.61099481142475,0.0,0.0915781408548355,0,0,0
12844,438456.3266629248,2010-10-13 16:17:38,1890.9541954972392,2,38,0.5501165986061096,3.912306070327759,38.26088028775754,37.91718053174619,152.34421298975377,138.61099481142475,0.0,0.0915781408548355,0,0,0
12845,438486.34179761086,2010-10-13 16:18:08,1920.9693301833029,2,38,0.5499359965324402,3.9136011600494394,38.26546644269269,37.91718053174619,152.36215829845625,138.61099481142475,3.237724376958795e-05,0.0915781408548355,0,0,0
12846,438516.3570630027,2010-10-13 16:18:38,1950.9845956854008,2,38,0.5499359965324402,3.914734125137329,38.27005258566545,37.91718053174619,152.38010923275644,138.61099481142475,0.0,0.0915781408548355,0,0,0
12847,438546.3720942861,2010-10-13 16:19:08,1980.999626868503,2,38,0.5499359965324402,3.915867328643799,38.27463886711186,37.91718053174619,152.3980664086084,138.61099481142475,6.47544875391759e-05,0.0915781408548355,0,0,0
12848,438576.3872631874,2010-10-13 16:19:38,2011.0147957848792,2,38,0.5501165986061096,3.917324304580689,38.27922508087138,37.91718053174619,152.41602909222976,138.61099481142475,3.237724376958795e-05,0.0915781408548355,0,0,0
12849,438606.40238850017,2010-10-13 16:20:08,2041.0299211777813,2,38,0.5499359965324402,3.918457508087158,38.28381124560916,37.91718053174619,152.4339973526858,138.61099481142475,0.0,0.0915781408548355,0,0,0
12850,438636.41753234906,2010-10-13 16:20:38,2071.045064931445,2,38,0.5501165986061096,3.920076370239258,38.28839749011284,37.91718053174619,152.4519718367124,138.61099481142475,3.237724376958795e-05,0.0915781408548355,0,0,0
12851,438666.43271876907,2010-10-13 16:21:08,2101.0602513614704,2,38,0.5501165986061096,3.921209573745728,38.29298371570616,37.91718053174619,152.46995215341883,138.61099481142475,6.47544875391759e-05,0.0915781408548355,0,0,0
12852,438696.44782915455,2010-10-13 16:21:38,2131.075361731932,2,38,0.5501165986061096,3.9225046634674072,38.297569916148575,37.91718053174619,152.4879383636905,138.61099481142475,6.47544875391759e-05,0.0915781408548355,0,0,0
12853,438726.4629503169,2010-10-13 16:22:08,2161.0904828942903,2,38,0.5499359965324402,3.923637866973877,38.30215607651603,37.91718053174619,152.50593050077478,138.61099481142475,3.237724376958795e-05,0.0915781408548355,0,0,0
12854,438756.4783388155,2010-10-13 16:22:38,2191.105871508221,2,38,0.550297200679779,3.925256729125977,38.306742334272975,37.91718053174619,152.5239291935536,138.61099481142475,6.47544875391759e-05,0.0915781408548355,0,0,0
12855,438786.49347139633,2010-10-13 16:23:08,2221.121004003825,2,38,0.5501165986061096,3.926551818847656,38.31132857401829,37.91718053174619,152.54193396478337,138.61099481142475,6.47544875391759e-05,0.0915781408548355,0,0,0
12856,438816.50853798765,2010-10-13 16:23:38,2251.136070665351,2,38,0.5499359965324402,3.927846908569336,38.315914739862045,37.91718053174619,152.5599446967165,138.61099481142475,3.237724376958795e-05,0.0915781408548355,0,0,0
12857,438846.52357598784,2010-10-13 16:24:08,2281.151108575218,2,38,0.5501165986061096,3.9293038845062256,38.32050099169193,37.91718053174619,152.5779620389411,138.61099481142475,3.237724376958795e-05,0.0915781408548355,0,0,0
12858,438876.5386833759,2010-10-13 16:24:38,2311.16621594821,2,38,0.5501165986061096,3.930598974227905,38.325087132268095,37.91718053174619,152.59598529677834,138.61099481142475,0.0,0.0915781408548355,0,0,0
12859,438906.5538332798,2010-10-13 16:25:08,2341.181365862225,2,38,0.5501165986061096,3.932055950164795,38.32967341837088,37.91718053174619,152.61401550375672,138.61099481142475,3.237724376958795e-05,0.0915781408548355,0,0,0
12860,438936.5689978053,2010-10-13 16:25:38,2371.1965303776333,2,38,0.550297200679779,3.933512926101685,38.33425961846144,37.91718053174619,152.63205185067673,138.61099481142475,6.47544875391759e-05,0.0915781408548355,0,0,0
12861,438966.58418910747,2010-10-13 16:26:08,2401.2117217449645,2,38,0.550297200679779,3.934969902038574,38.338846187903904,37.91718053174619,152.65009614331146,138.61099481142475,3.237724376958795e-05,0.0915781408548355,0,0,0
12862,438996.599271057,2010-10-13 16:26:38,2431.226803634443,2,38,0.550297200679779,3.936264991760254,38.34343320284338,37.91718053174619,152.66814882424595,138.61099481142475,0.0,0.0915781408548355,0,0,0
12863,439026.6144443393,2010-10-13 16:27:08,2461.2419769317376,2,38,0.5501165986061096,3.937721967697144,38.34801988445452,37.91718053174619,152.68620661579783,138.61099481142475,3.237724376958795e-05,0.0915781408548355,0,0,0
12864,439056.6296524334,2010-10-13 16:27:38,2491.257185156081,2,38,0.5501165986061096,3.939178943634033,38.35260605593794,37.91718053174619,152.70426905974972,138.61099481142475,6.47544875391759e-05,0.0915781408548355,0,0,0
12865,439086.6448560311,2010-10-13 16:28:08,2521.2723886135445,2,38,0.5499359965324402,3.940474033355713,38.35719218050869,37.91718053174619,152.72233798385804,138.61099481142475,0.0,0.0915781408548355,0,0,0
12866,439116.6598812242,2010-10-13 16:28:38,2551.287413806718,2,38,0.550297200679779,3.9422547817230233,38.36177834006836,37.91718053174619,152.7404137704216,138.61099481142475,3.237724376958795e-05,0.0915781408548355,0,0,0
12867,439146.67502661207,2010-10-13 16:29:08,2581.302559194454,2,38,0.5501165986061096,3.943549871444702,38.36636447110799,37.91718053174619,152.75849631885723,138.61099481142475,3.237724376958795e-05,0.0915781408548355,0,0,0
12868,439176.6901912176,2010-10-13 16:29:38,2611.3177238000862,2,38,0.5499359965324402,3.9451687335968018,38.370950631537504,37.91718053174619,152.7765858610976,138.61099481142475,3.237724376958795e-05,0.0915781408548355,0,0,0
12869,439206.7054496773,2010-10-13 16:30:08,2641.3329822546198,2,38,0.5499359965324402,3.9466257095336914,38.37553687537413,37.91718053174619,152.7946827580557,138.61099481142475,3.237724376958795e-05,0.0915781408548355,0,0,0
12870,439236.7207144675,2010-10-13 16:30:38,2671.3482470499557,2,38,0.5501165986061096,3.948244571685791,38.38012305699147,37.91718053174619,152.81278632639388,138.61099481142475,6.47544875391759e-05,0.0915781408548355,0,0,0
12871,439266.7356148246,2010-10-13 16:31:08,2701.363147427049,2,38,0.5501165986061096,3.94986343383789,38.38470915241986,37.91718053174619,152.830896747609,138.61099481142475,6.47544875391759e-05,0.0915781408548355,0,0,0
12872,439296.7507678614,2010-10-13 16:31:38,2731.3783004437983,2,38,0.550297200679779,3.9514822959899902,38.38929531659968,37.91718053174619,152.8490146909142,138.61099481142475,3.237724376958795e-05,0.0915781408548355,0,0,0
12873,439326.7659202416,2010-10-13 16:32:08,2761.3934528740865,2,38,0.5499359965324402,3.95293927192688,38.39388142283223,37.91718053174619,152.8671396287281,138.61099481142475,6.47544875391759e-05,0.0915781408548355,0,0,0
12874,439356.7810631982,2010-10-13 16:32:38,2791.408595795675,2,38,0.5501165986061096,3.9543962478637695,38.398467560575774,37.91718053174619,152.88527198177528,138.61099481142475,0.0,0.0915781408548355,0,0,0
12875,439386.7962193528,2010-10-13 16:33:08,2821.4237519301955,2,38,0.5501165986061096,3.956015110015869,38.40305377432343,37.91718053174619,152.9034119765479,138.61099481142475,3.237724376958795e-05,0.0915781408548355,0,0,0
12876,439416.81135669554,2010-10-13 16:33:38,2851.4388892778925,2,38,0.5501165986061096,3.9577958583831783,38.4076400720447,37.91718053174619,152.92155962712468,138.61099481142475,3.237724376958795e-05,0.0915781408548355,0,0,0
12877,439446.8264970056,2010-10-13 16:34:08,2881.4540295829606,2,38,0.5501165986061096,3.9594147205352783,38.41222625042485,37.91718053174619,152.9397142771627,138.61099481142475,6.47544875391759e-05,0.0915781408548355,0,0,0
12878,439476.84176414175,2010-10-13 16:34:38,2911.469296734168,2,38,0.5499359965324402,3.960871696472168,38.416812471411696,37.91718053174619,152.95787656621735,138.61099481142475,3.237724376958795e-05,0.0915781408548355,0,0,0
12879,439506.8567783475,2010-10-13 16:35:08,2941.484310949983,2,38,0.5501165986061096,3.9626524448394775,38.42139873468352,37.91718053174619,152.97604655702028,138.61099481142475,6.47544875391759e-05,0.0915781408548355,0,0,0
12880,439536.8719385121,2010-10-13 16:35:38,2971.499471089485,2,38,0.550297200679779,3.964271306991577,38.42598495335056,37.91718053174619,152.99422393415463,138.61099481142475,3.237724376958795e-05,0.0915781408548355,0,0,0
12881,439566.8870877544,2010-10-13 16:36:08,3001.514620346865,2,38,0.550297200679779,3.966052055358887,38.43057114438359,37.91718053174619,153.0124088376499,138.61099481142475,6.47544875391759e-05,0.0915781408548355,0,0,0
12882,439596.9022387912,2010-10-13 16:36:38,3031.529771373654,2,38,0.5501165986061096,3.967509031295776,38.4351573842842,37.91718053174619,153.0306015422376,138.61099481142475,3.237724376958795e-05,0.0915781408548355,0,0,0
12883,439626.9173758131,2010-10-13 16:37:09,3061.544908390528,2,38,0.5499359965324402,3.969289779663086,38.43974363997143,37.91718053174619,153.04880199121803,138.61099481142475,0.0,0.0915781408548355,0,0,0
12884,439656.93587979645,2010-10-13 16:37:39,3091.563412519279,2,38,0.5499359965324402,3.971070528030396,38.44433040179758,37.91718053174619,153.06701230322267,138.61099481142475,6.47544875391759e-05,0.0915781408548355,0,0,0
12885,439686.9476638117,2010-10-13 16:38:09,3121.5751963991024,2,38,0.5499359965324402,3.972689390182495,38.44891608899202,37.91718053174619,153.0852262198101,138.61099481142475,3.237724376958795e-05,0.0915781408548355,0,0,0
12886,439716.96301138325,2010-10-13 16:38:39,3151.5905440459296,2,38,0.5501165986061096,3.9744701385498047,38.45350233566749,37.91718053174619,153.10345017259152,138.61099481142475,3.237724376958795e-05,0.0915781408548355,0,0,0
12887,439746.9779556748,2010-10-13 16:39:09,3181.6054882773224,2,38,0.5499359965324402,3.976250886917114,38.45808856140228,37.91718053174619,153.12168194606107,138.61099481142475,3.237724376958795e-05,0.0915781408548355,0,0,0
12888,439776.99311091215,2010-10-13 16:39:39,3211.620643494556,2,38,0.5501165986061096,3.977707862854004,38.46267489797606,37.91718053174619,153.13992220255608,138.61099481142475,0.0,0.0915781408548355,0,0,0
12889,439807.0086387782,2010-10-13 16:40:09,3241.6361713655574,2,38,0.5499359965324402,3.979650497436523,38.46726111269822,37.91718053174619,153.15816974824784,138.61099481142475,3.237724376958795e-05,0.0915781408548355,0,0,0
12890,439837.023389041,2010-10-13 16:40:39,3271.650921618495,2,38,0.5499359965324402,3.981431245803833,38.47184710825665,37.91718053174619,153.1764250173406,138.61099481142475,6.47544875391759e-05,0.0915781408548355,0,0,0
12891,439867.0385288549,2010-10-13 16:41:09,3301.6660614473763,2,38,0.5501165986061096,3.983373880386353,38.47643322901751,37.91718053174619,153.1946890875172,138.61099481142475,6.47544875391759e-05,0.0915781408548355,0,0,0
12892,439897.053696428,2010-10-13 16:41:39,3331.6812290204048,2,38,0.5501165986061096,3.985316514968872,38.4810193257685,37.91718053174619,153.21296139180538,138.61099481142475,6.47544875391759e-05,0.0915781408548355,0,0,0
12893,439927.0688237457,2010-10-13 16:42:09,3361.696356328079,2,38,0.5499359965324402,3.9870972633361816,38.48560545237587,37.91718053174619,153.2312422722643,138.61099481142475,3.237724376958795e-05,0.0915781408548355,0,0,0
12894,439957.0839735544,2010-10-13 16:42:39,3391.711506136833,2,38,0.5499359965324402,3.988878011703491,38.490191681860274,37.91718053174619,153.24953206643576,138.61099481142475,3.237724376958795e-05,0.0915781408548355,0,0,0
12895,439987.0992347808,2010-10-13 16:43:09,3421.726767478562,2,38,0.5497553944587708,3.9908206462860103,38.49477710686438,37.91718053174619,153.26782722532522,138.61099481142475,6.47544875391759e-05,0.0915781408548355,0,0,0
12896,440017.1142867006,2010-10-13 16:43:39,3451.7418192730343,2,38,0.5499359965324402,3.9927632808685294,38.4993621830787,37.91718053174619,153.28612976276972,138.61099481142475,6.47544875391759e-05,0.0915781408548355,0,0,0
12897,440047.1294313716,2010-10-13 16:44:09,3481.7569639640333,2,38,0.5499359965324402,3.9945437908172607,38.50394799413702,37.91718053174619,153.30444408473826,138.61099481142475,0.0,0.0915781408548355,0,0,0
12898,440077.1445728396,2010-10-13 16:44:39,3511.772105421974,2,38,0.5499359965324402,3.9966483116149902,38.50853411906802,37.91718053174619,153.3227686184012,138.61099481142475,6.47544875391759e-05,0.0915781408548355,0,0,0
12899,440107.1597260317,2010-10-13 16:45:09,3541.7872586141616,2,38,0.5501165986061096,3.9984290599823,38.51312030790688,37.91718053174619,153.3411025013944,138.61099481142475,0.0,0.0915781408548355,0,0,0
12900,440137.17488995066,2010-10-13 16:45:39,3571.802422553132,2,38,0.5501165986061096,4.000695705413818,38.51770641639773,37.91718053174619,153.35944516712087,138.61099481142475,6.47544875391759e-05,0.0915781408548355,0,0,0
12901,440167.1901464103,2010-10-13 16:46:09,3601.817678992643,2,38,0.5499359965324402,4.002638339996338,38.52229263052697,37.91718053174619,153.37779760921404,138.61099481142475,3.24249267578125e-05,0.0915781408548355,0,0,0
12902,440197.20527958754,2010-10-13 16:46:39,3631.8328121799714,2,38,0.5501165986061096,4.004742622375488,38.5268788274156,37.91718053174619,153.39615937860734,138.61099481142475,3.23295607813634e-05,0.0915781408548355,0,0,0
12903,440227.22031742224,2010-10-13 16:47:09,3661.847850014652,2,38,0.5499359965324402,4.006847381591797,38.531465004415935,37.91718053174619,153.41453062627716,138.61099481142475,6.47544875391759e-05,0.0915781408548355,0,0,0
12904,440257.2354677322,2010-10-13 16:47:39,3691.863000319643,2,38,0.550297200679779,4.008951663970947,38.5360511696776,37.91718053174619,153.43291147909449,138.61099481142475,9.70840483205393e-05,0.0915781408548355,0,0,0
12905,440287.2506034558,2010-10-13 16:48:09,3721.878136048305,2,38,0.5499359965324402,4.011056423187256,38.54063736766883,37.91718053174619,153.4513020781177,138.61099481142475,6.47544875391759e-05,0.0915781408548355,0,0,0
12906,440317.2657407384,2010-10-13 16:48:39,3751.8932733208144,2,38,0.5499359965324402,4.013160705566406,38.54522351983175,37.91718053174619,153.46970234438274,138.61099481142475,6.47544875391759e-05,0.0915781408548355,0,0,0
12907,440347.28100998985,2010-10-13 16:49:09,3781.908542582282,2,38,0.550297200679779,4.015427112579346,38.54980968152747,37.91718053174619,153.48811246511062,138.61099481142475,6.47544875391759e-05,0.0915781408548355,0,0,0
12908,440377.2960523609,2010-10-13 16:49:39,3811.923584953268,2,38,0.5499359965324402,4.017531871795654,38.5543958961759,37.91718053174619,153.50653284316138,138.61099481142475,3.24249267578125e-05,0.0915781408548355,0,0,0
12909,440407.3113032114,2010-10-13 16:50:09,3841.938835793824,2,38,0.5499359965324402,4.019798278808594,38.55898211206323,37.91718053174619,153.52496320091544,138.61099481142475,6.47544875391759e-05,0.0915781408548355,0,0,0
12910,440437.32659127977,2010-10-13 16:50:39,3871.9541239674254,2,38,0.5499359965324402,4.022064685821533,38.56356825427779,37.91718053174619,153.54340347621297,138.61099481142475,6.47544875391759e-05,0.0915781408548355,0,0,0
12911,440467.3414719176,2010-10-13 16:51:09,3901.9690045100874,2,38,0.5501165986061096,4.024168968200684,38.568154373380885,37.91718053174619,153.56185388621358,138.61099481142475,3.23295607813634e-05,0.0915781408548355,0,0,0
12912,440497.3566361021,2010-10-13 16:51:39,3931.9841686896575,2,38,0.5499359965324402,4.026435375213623,38.57274050176338,37.91718053174619,153.58031451357195,138.61099481142475,6.47544875391759e-05,0.0915781408548355,0,0,0
12913,440527.3717822468,2010-10-13 16:52:09,3961.9993148292665,2,38,0.5501165986061096,4.028540134429932,38.5773266426912,37.91718053174619,153.5987855090844,138.61099481142475,3.24249267578125e-05,0.0915781408548355,0,0,0
12914,440557.3869130332,2010-10-13 16:52:39,3992.014445625636,2,38,0.5499359965324402,4.030968189239502,38.58191280621375,37.91718053174619,153.61726685448417,138.61099481142475,6.47544875391759e-05,0.0915781408548355,0,0,0
12915,440587.4020636189,2010-10-13 16:53:09,4022.0295962013015,2,38,0.5499359965324402,4.033396720886231,38.58649889180151,37.91718053174619,153.63575844014488,138.61099481142475,9.71794142969884e-05,0.0915781408548355,0,0,0
12916,440617.417232826,2010-10-13 16:53:39,4052.0447653983774,2,38,0.5501165986061096,4.035662651062012,38.59108501796419,37.91718053174619,153.6542608700276,138.61099481142475,9.70840483205393e-05,0.0915781408548355,0,0,0
12917,440647.4323962687,2010-10-13 16:54:09,4082.0599288511366,2,38,0.5501165986061096,4.037929058074951,38.59567116482766,37.91718053174619,153.6727741541859,138.61099481142475,6.47544875391759e-05,0.0915781408548355,0,0,0
12918,440677.4475076668,2010-10-13 16:54:39,4112.075040244147,2,38,0.5499359965324402,4.04035758972168,38.60025735452282,37.91718053174619,153.69129847266686,138.61099481142475,9.71794142969884e-05,0.0915781408548355,0,0,0
12919,440707.4630034127,2010-10-13 16:55:09,4142.0905360151455,2,38,0.5501165986061096,4.04278564453125,38.60484353757224,37.91718053174619,153.70983365275436,138.61099481142475,6.47544875391759e-05,0.0915781408548355,0,0,0
12920,440737.4778113243,2010-10-13 16:55:39,4172.1053439117495,2,38,0.5499359965324402,4.0452141761779785,38.60942965954836,37.91718053174619,153.7283795932155,138.61099481142475,6.47544875391759e-05,0.0915781408548355,0,0,0
12921,440767.4930739342,2010-10-13 16:56:09,4202.120606526652,2,38,0.5499359965324402,4.047318458557129,38.61401585073311,37.91718053174619,153.74693680113657,138.61099481142475,0.0,0.0915781408548355,0,0,0
12922,440797.5080918693,2010-10-13 16:56:39,4232.135624441685,2,38,0.5501165986061096,4.049908638000488,38.61860201145499,37.91718053174619,153.7655051655295,138.61099481142475,6.47544875391759e-05,0.0915781408548355,0,0,0
12923,440827.52323246514,2010-10-13 16:57:09,4262.150765047502,2,38,0.5499359965324402,4.052498817443848,38.62318821325891,37.91718053174619,153.7840849243112,138.61099481142475,9.70840483205393e-05,0.0915781408548355,0,0,0
12924,440857.5384110656,2010-10-13 16:57:39,4292.165943637991,2,38,0.5501165986061096,4.055088996887207,38.62777446055405,37.91718053174619,153.8026764214762,138.61099481142475,9.70840483205393e-05,0.0915781408548355,0,0,0
12925,440887.55352956126,2010-10-13 16:58:09,4322.181062143727,2,38,0.5501165986061096,4.057517528533936,38.63236070827308,37.91718053174619,153.82127956296242,138.61099481142475,3.24249267578125e-05,0.0915781408548355,0,0,0
12926,440917.5686848688,2010-10-13 16:58:39,4352.196217461211,2,38,0.5501165986061096,4.060269355773926,38.63694692134322,37.91718053174619,153.83989435909302,138.61099481142475,3.23295607813634e-05,0.0915781408548355,0,0,0
12927,440947.5839429022,2010-10-13 16:59:09,4382.211475484669,2,38,0.5501165986061096,4.062859535217285,38.64153309764763,37.91718053174619,153.85852044381855,138.61099481142475,9.70840483205393e-05,0.0915781408548355,0,0,0
12928,440977.5989746468,2010-10-13 16:59:39,4412.226507229171,2,38,0.5499359965324402,4.065288066864014,38.64611924530367,37.91718053174619,153.8771584465726,138.61099481142475,3.24249267578125e-05,0.0915781408548355,0,0,0
12929,441007.6142473367,2010-10-13 17:00:09,4442.241779934221,2,38,0.550297200679779,4.068039894104004,38.650705393451545,37.91718053174619,153.89580857152782,138.61099481142475,9.70840483205393e-05,0.0915781408548355,0,0,0
12930,441037.6292605952,2010-10-13 17:00:39,4472.2567931726,2,38,0.5501165986061096,4.070630073547363,38.65529149365902,37.91718053174619,153.9144707556506,138.61099481142475,3.23295607813634e-05,0.0915781408548355,0,0,0
12931,441067.64443644887,2010-10-13 17:01:09,4502.271969031278,2,38,0.5499359965324402,4.073382377624512,38.65987758936865,37.91718053174619,153.93314518390588,138.61099481142475,9.71794142969884e-05,0.0915781408548355,0,0,0
12932,441097.6596259616,2010-10-13 17:01:39,4532.287158694361,2,38,0.5501165986061096,4.076134204864502,38.66446367667102,37.91718053174619,153.9518320935759,138.61099481142475,9.70840483205393e-05,0.0915781408548355,0,0,0
12933,441127.6747040617,2010-10-13 17:02:09,4562.302236669083,2,38,0.5501165986061096,4.07888650894165,38.66904979771129,37.91718053174619,153.97053177503338,138.61099481142475,6.47544875391759e-05,0.0915781408548355,0,0,0
12934,441157.6900959988,2010-10-13 17:02:39,4592.317628581233,2,38,0.5501165986061096,4.08147668838501,38.67363602678565,37.91718053174619,153.98924474292565,138.61099481142475,6.47544875391759e-05,0.0915781408548355,0,0,0
12935,441187.70499414526,2010-10-13 17:03:09,4622.332526727768,2,38,0.5501165986061096,4.08455228805542,38.67822210932994,37.91718053174619,154.0079700606535,138.61099481142475,9.70840483205393e-05,0.0915781408548355,0,0,0
12936,441217.720281126,2010-10-13 17:03:39,4652.347813708397,2,38,0.550297200679779,4.087466239929199,38.68280832435289,37.91718053174619,154.02670914516776,138.61099481142475,6.47544875391759e-05,0.0915781408548355,0,0,0
12937,441247.7353077076,2010-10-13 17:04:09,4682.362840325118,2,38,0.5499359965324402,4.090218544006348,38.68739442655367,37.91718053174619,154.0454609892918,138.61099481142475,6.47544875391759e-05,0.0915781408548355,0,0,0
12938,441277.7504540879,2010-10-13 17:04:39,4712.377986665228,2,38,0.5499359965324402,4.093132495880127,38.69198057705293,37.91718053174619,154.0642264245706,138.61099481142475,6.47544875391759e-05,0.0915781408548355,0,0,0
12939,441307.7656162023,2010-10-13 17:05:09,4742.3931488748885,2,38,0.5499359965324402,4.096208095550537,38.69656674900604,37.91718053174619,154.08300544832545,138.61099481142475,9.70840483205393e-05,0.0915781408548355,0,0,0
12940,441337.78074112895,2010-10-13 17:05:39,4772.408273701379,2,38,0.5499359965324402,4.099122047424316,38.70115286309115,37.91718053174619,154.1017978544892,138.61099481142475,9.70840483205393e-05,0.0915781408548355,0,0,0
12941,441367.79587551433,2010-10-13 17:06:09,4802.423408136818,2,38,0.5501165986061096,4.102198123931885,38.705738984712525,37.91718053174619,154.12060402739087,138.61099481142475,9.71794142969884e-05,0.0915781408548355,0,0,0
12942,441397.8112571809,2010-10-13 17:06:39,4832.438789863582,2,38,0.5499359965324402,4.105273723602295,38.71032516643255,37.91718053174619,154.13942423330334,138.61099481142475,9.70840483205393e-05,0.0915781408548355,0,0,0
12943,441427.8262043346,2010-10-13 17:07:09,4862.453736947084,2,38,0.550297200679779,4.108349800109863,38.7149113162406,37.91718053174619,154.1582583010957,138.61099481142475,9.71794142969884e-05,0.0915781408548355,0,0,0
12944,441457.8413292914,2010-10-13 17:07:39,4892.4688618938735,2,38,0.5501165986061096,4.111425399780273,38.719497482679394,37.91718053174619,154.17710645165752,138.61099481142475,0.0001295089750783,0.0915781408548355,0,0,0
12945,441487.85650029295,2010-10-13 17:08:09,4922.484032885422,2,38,0.5501165986061096,4.114501476287842,38.7240836717959,37.91718053174619,154.19596882655222,138.61099481142475,0.0001295089750783,0.0915781408548355,0,0,0
12946,441517.87160255824,2010-10-13 17:08:39,4952.499135140658,2,38,0.5501165986061096,4.117577075958252,38.72866982215657,37.91718053174619,154.21484545579202,138.61099481142475,0.0001295089750783,0.0915781408548355,0,0,0
12947,441547.8868742608,2010-10-13 17:09:10,4982.51440684321,2,38,0.5501165986061096,4.120814800262451,38.733255985706016,37.91718053174619,154.23373662610734,138.61099481142475,0.0001295089750783,0.0915781408548355,0,0,0
12948,441577.9044988775,2010-10-13 17:09:40,5012.532031595283,2,38,0.5499359965324402,4.12405252456665,38.737842482114175,37.91718053174619,154.25264375193964,138.61099481142475,9.71794142969884e-05,0.0915781408548355,0,0,0
12949,441607.917034541,2010-10-13 17:10:10,5042.544567148509,2,38,0.5497553944587708,4.1271281242370605,38.74242821194711,37.91718053174619,154.27156239774664,138.61099481142475,0.0001295089750783,0.0915781408548355,0,0,0
12950,441637.9323797418,2010-10-13 17:10:40,5072.559912324177,2,38,0.5497553944587708,4.13036584854126,38.74701429208323,37.91718053174619,154.29049723932144,138.61099481142475,9.70840483205393e-05,0.0915781408548355,0,0,0
12951,441667.9473097778,2010-10-13 17:11:10,5102.574842365202,2,38,0.5499359965324402,4.133603572845459,38.751600435674725,37.91718053174619,154.30944726581455,138.61099481142475,9.70840483205393e-05,0.0915781408548355,0,0,0
12952,441697.9625001275,2010-10-13 17:11:40,5132.590032725022,2,38,0.5501165986061096,4.136841297149658,38.75618655535386,37.91718053174619,154.32841225695194,138.61099481142475,9.70840483205393e-05,0.0915781408548355,0,0,0
12953,441727.977598072,2010-10-13 17:12:10,5162.605130664502,2,38,0.5501165986061096,4.140402793884277,38.76077268755894,37.91718053174619,154.34739245271817,138.61099481142475,0.0001295089750783,0.0915781408548355,0,0,0
12954,441757.9927442017,2010-10-13 17:12:40,5192.620276779049,2,38,0.5499359965324402,4.143478870391846,38.76535890604999,37.91718053174619,154.36638834730542,138.61099481142475,6.47544875391759e-05,0.0915781408548355,0,0,0
12955,441788.0080319942,2010-10-13 17:13:10,5222.635564571702,2,38,0.5501165986061096,4.147202014923096,38.76994507157506,37.91718053174619,154.38539963454787,138.61099481142475,0.0001295089750783,0.0915781408548355,0,0,0
12956,441818.0230558391,2010-10-13 17:13:40,5252.650588451603,2,38,0.5501165986061096,4.150439739227295,38.774531142224205,37.91718053174619,154.4044260882613,138.61099481142475,9.70840483205393e-05,0.0915781408548355,0,0,0
12957,441848.03818540747,2010-10-13 17:14:10,5282.665717989836,2,38,0.5501165986061096,4.153839588165283,38.77911728109926,37.91718053174619,154.4234684926573,138.61099481142475,6.47544875391759e-05,0.0915781408548355,0,0,0
12958,441878.053329928,2010-10-13 17:14:40,5312.680862505398,2,38,0.5499359965324402,4.157238960266113,38.78370339730935,37.91718053174619,154.4425263289775,138.61099481142475,9.70840483205393e-05,0.0915781408548355,0,0,0
12959,441908.0684953757,2010-10-13 17:15:10,5342.696027983205,2,38,0.5499359965324402,4.160638809204102,38.78828950601592,37.91718053174619,154.461599889168,138.61099481142475,6.47544875391759e-05,0.0915781408548355,0,0,0
12960,441938.0836308688,2010-10-13 17:15:40,5372.711163476279,2,38,0.5501165986061096,4.164200305938721,38.79287563452469,37.91718053174619,154.48068953510517,138.61099481142475,9.71794142969884e-05,0.0915781408548355,0,0,0
12961,441968.098770828,2010-10-13 17:16:10,5402.726303410423,2,38,0.550297200679779,4.167923450469971,38.79746176082705,37.91718053174619,154.49979508873844,138.61099481142475,0.0001295089750783,0.0915781408548355,0,0,0
12962,441998.113910717,2010-10-13 17:16:40,5432.7414432944415,2,38,0.5501165986061096,4.17116117477417,38.802047894508256,37.91718053174619,154.51891673619662,138.61099481142475,6.47544875391759e-05,0.0915781408548355,0,0,0
12963,442028.1290614531,2010-10-13 17:17:10,5462.756594035519,2,38,0.5501165986061096,4.174722671508789,38.80663398118078,37.91718053174619,154.53805436760297,138.61099481142475,9.70840483205393e-05,0.0915781408548355,0,0,0
12964,442058.1441966354,2010-10-13 17:17:40,5492.771729207795,2,38,0.5499359965324402,4.178284168243408,38.81122008443455,37.91718053174619,154.5572083924563,138.61099481142475,0.0001295089750783,0.0915781408548355,0,0,0
12965,442088.1594695911,2010-10-13 17:18:10,5522.787002178506,2,38,0.5497553944587708,4.181845664978027,38.8158061818526,37.91718053174619,154.57637887008755,138.61099481142475,9.70840483205393e-05,0.0915781408548355,0,0,0
12966,442118.1745318417,2010-10-13 17:18:40,5552.802064429038,2,38,0.5501165986061096,4.185569286346436,38.82039230685511,37.91718053174619,154.59556599786157,138.61099481142475,0.0001295089750783,0.0915781408548355,0,0,0
12967,442148.1896637758,2010-10-13 17:19:10,5582.817196383294,2,38,0.5501165986061096,4.1892924308776855,38.8249784140982,37.91718053174619,154.61476976326787,138.61099481142475,9.70840483205393e-05,0.0915781408548355,0,0,0
12968,442178.2048164266,2010-10-13 17:19:40,5612.832349004057,2,38,0.5501165986061096,4.193016052246094,38.82956451724317,37.91718053174619,154.63399031340956,138.61099481142475,0.0001295089750783,0.0915781408548355,0,0,0
12969,442208.2200755228,2010-10-13 17:20:10,5642.847608110213,2,38,0.5499359965324402,4.196577072143555,38.83415066444437,37.91718053174619,154.65322802089705,138.61099481142475,9.70840483205393e-05,0.0915781408548355,0,0,0
12970,442234.9539196682,2010-10-13 17:20:37,5669.58145227066,2,38,0.5501165986061096,4.200138568878174,38.83823537428886,37.91718053174619,154.67037678371184,138.61099481142475,0.0001295089750783,0.0915781408548355,0,0,0
12971,442264.96987740486,2010-10-13 17:21:07,30.015161277337363,3,38,0.0,4.112558841705322,38.83823537428886,37.91718053174619,154.67037678371184,138.61099481142475,-0.0004531860467977,0.0915781408548355,0,0,0
12972,442294.9850131886,2010-10-13 17:21:37,60.03029709121194,3,38,0.0,4.101874351501465,38.83823537428886,37.91718053174619,154.67037678371184,138.61099481142475,-0.0001942634553415,0.0915781408548355,0,0,0
12973,442325.00014480704,2010-10-13 17:22:07,90.0454286845677,3,38,0.0,4.095075130462647,38.83823537428886,37.91718053174619,154.67037678371184,138.61099481142475,-0.0001295089750783,0.0915781408548355,0,0,0
12974,442354.9684154435,2010-10-13 17:22:37,120.01369932601251,3,38,0.0,4.090866088867188,38.83823537428886,37.91718053174619,154.67037678371184,138.61099481142475,-6.47544875391759e-05,0.0915781408548355,0,0,0
12975,442354.97116658185,2010-10-13 17:22:37,0.015638245319103,4,38,0.9958603382110596,4.199653148651123,38.83823972105792,37.91718053174619,154.6703950386342,138.61099481142475,0.0,0.0915781408548355,0,0,0
12976,442356.033772944,2010-10-13 17:22:38,1.078244607329036,4,38,0.9451091289520264,4.199814796447754,38.838524642065096,37.91718053174619,154.6715916300097,138.61099481142475,3.23295607813634e-05,0.0915781408548355,0,0,0
12977,442358.26797445153,2010-10-13 17:22:40,3.312446134982572,4,38,0.8948997259140015,4.199653148651123,38.8390945295054,37.91718053174619,154.67398500180315,138.61099481142475,0.0,0.0915781408548355,0,0,0
12978,442361.62988494185,2010-10-13 17:22:44,6.674356735633425,4,38,0.8443291187286377,4.199653148651123,38.839905630984674,37.91718053174619,154.67739142344112,138.61099481142475,0.0,0.0915781408548355,0,0,0
12979,442366.1428484355,2010-10-13 17:22:48,11.187320088913909,4,38,0.794300377368927,4.199814796447754,38.84093154678466,37.91718053174619,154.6817000142858,138.61099481142475,0.0,0.0915781408548355,0,0,0
12980,442372.0021501783,2010-10-13 17:22:54,17.046621836731546,4,38,0.7442715764045715,4.199814796447754,38.84218180402537,37.91718053174619,154.68695077905127,138.61099481142475,0.0,0.0915781408548355,0,0,0
12981,442379.548883976,2010-10-13 17:23:01,24.593355634427343,4,38,0.6940622329711914,4.199814796447754,38.8436869268008,37.91718053174619,154.6932719279178,138.61099481142475,0.0,0.0915781408548355,0,0,0
12982,442389.5332311462,2010-10-13 17:23:11,34.577702894907304,4,38,0.6440334320068359,4.199814796447754,38.84553918038248,37.91718053174619,154.7010509724564,138.61099481142475,0.0,0.0915781408548355,0,0,0
12983,442403.361026888,2010-10-13 17:23:25,48.40549857143959,4,38,0.5940046906471252,4.199814796447754,38.84791130774952,37.91718053174619,154.7110133552839,138.61099481142475,0.0,0.0915781408548355,0,0,0
12984,442424.2513302917,2010-10-13 17:23:46,69.2958019753077,4,38,0.5439758896827698,4.199653148651123,38.85120303331803,37.91718053174619,154.72483785088673,138.61099481142475,0.0,0.0915781408548355,0,0,0
12985,442459.9694841364,2010-10-13 17:24:22,105.01395579482713,4,38,0.4937665164470672,4.199653148651123,38.85632999497482,37.91718053174619,154.74636990256687,138.61099481142475,-3.23295607813634e-05,0.0915781408548355,0,0,0
12986,442526.0152952645,2010-10-13 17:25:28,171.0597669229464,4,38,0.4435571432113647,4.199653148651123,38.86489320367158,37.91718053174619,154.78233342345132,138.61099481142475,-3.23295607813634e-05,0.0915781408548355,0,0,0
12987,442628.513655015,2010-10-13 17:27:10,273.5581266633764,4,38,0.3935283720493316,4.199814796447754,38.87678591749822,37.91718053174619,154.83228008964042,138.61099481142475,0.0,0.0915781408548355,0,0,0
12988,442757.8242067628,2010-10-13 17:29:20,402.8686785114438,4,38,0.3434996008872986,4.199814796447754,38.89000879517522,37.91718053174619,154.88781318649418,138.61099481142475,3.23295607813634e-05,0.0915781408548355,0,0,0
12989,442914.00909847487,2010-10-13 17:31:56,559.0535701282428,4,38,0.293290227651596,4.199653148651123,38.90380915450689,37.91718053174619,154.94577149681652,138.61099481142475,0.0,0.0915781408548355,0,0,0
12990,443101.2406052294,2010-10-13 17:35:03,746.2850768978067,4,38,0.243261456489563,4.199814796447754,38.91773706749134,37.91718053174619,155.00426548270312,138.61099481142475,0.0,0.0915781408548355,0,0,0
12991,443334.6898862883,2010-10-13 17:38:57,979.7343579918412,4,38,0.1932326853275299,4.199814796447754,38.931844483780985,37.91718053174619,155.06351330436888,138.61099481142475,0.0,0.0915781408548355,0,0,0
12992,443642.6849276341,2010-10-13 17:44:05,1287.72939929748,4,38,0.1432039141654968,4.199814796447754,38.9461458175167,37.91718053174619,155.1235755491409,138.61099481142475,3.23295607813634e-05,0.0915781408548355,0,0,0
12993,444094.4902896983,2010-10-13 17:51:36,1739.534761356766,4,38,0.0931751430034637,4.199814796447754,38.960781890946,37.91718053174619,155.18504366322355,138.61099481142475,0.0,0.0915781408548355,0,0,0
12994,444805.6195934022,2010-10-13 18:03:28,2450.664065170887,4,38,0.0498289167881011,4.199814796447754,38.974485354942814,37.91718053174619,155.2425951839936,138.61099481142475,0.0,0.0915781408548355,0,0,0
12995,444835.6452811838,2010-10-13 18:03:58,30.01513851560813,5,38,0.0,4.191558837890625,38.974485354942814,37.91718053174619,155.2425951839936,138.61099481142475,-3.24249267578125e-05,0.0915781408548355,0,0,0
12996,444865.6449146661,2010-10-13 18:04:28,60.01477200792745,5,38,0.0,4.190263748168945,38.974485354942814,37.91718053174619,155.2425951839936,138.61099481142475,0.0,0.0915781408548355,0,0,0
12997,444865.8284367419,2010-10-13 18:04:28,0.187541090101484,6,38,-1.9243103452026844e-05,4.190425872802734,38.974485354942814,37.91718053274866,155.2425951839936,138.61099481562553,0.0,0.0949056595563888,0,0,0
12998,444870.656434964,2010-10-13 18:04:33,5.015539191909065,6,38,0.0007031940040178,4.190263748168945,38.97448628151727,37.91718053283152,155.24259906672904,138.61099481597276,-3.24249267578125e-05,0.0949056595563888,0,0,0
12999,444900.6678757151,2010-10-13 18:05:03,30.015243361917392,7,38,-1.099568486213684,4.007656574249268,38.97448628151727,37.92634626479276,155.24259906672904,138.64793389350976,-0.0010360718006268,0.0949056595563888,0,0,0
13000,444930.6830399748,2010-10-13 18:05:33,60.03040761667541,7,38,-1.0993878841400146,3.979650497436523,38.97448628151727,37.93551347519183,155.24259906672904,138.68453515196313,-0.0005827903514727,0.0949056595563888,0,0,0
13001,444960.6980367672,2010-10-13 18:06:03,90.04540441407816,7,38,-1.0993878841400146,3.960062265396118,38.97448628151727,37.944680513513646,155.24259906672904,138.7209211679776,-0.0004209041653666,0.0949056595563888,0,0,0
13002,444990.71320076624,2010-10-13 18:06:33,120.06056840818655,7,38,-1.099568486213684,3.945006847381592,38.97448628151727,37.9538476629852,155.24259906672904,138.75715159148984,-0.0003561496851034,0.0949056595563888,0,0,0
13003,445020.7283517229,2010-10-13 18:07:03,150.075719369814,7,38,-1.0993878841400146,3.9327034950256343,38.97448628151727,37.96301478828304,155.24259906672904,138.7932580143393,-0.0002590179501567,0.0949056595563888,0,0,0
13004,445050.7435170603,2010-10-13 18:07:33,180.09088469724543,7,38,-1.0993878841400146,3.921857118606568,38.97448628151727,37.97218193397459,155.24259906672904,138.82925878819822,-0.0002913951757363,0.0949056595563888,0,0,0
13005,445080.7586167041,2010-10-13 18:08:03,210.10598433094788,7,38,-1.099568486213684,3.911820411682129,38.97448628151727,37.981349077162,155.24259906672904,138.8651644195374,-0.0002590179501567,0.0949056595563888,0,0,0
13006,445110.77377085865,2010-10-13 18:08:33,240.12113849555817,7,38,-1.099568486213684,3.902431011199951,38.97448628151727,37.99051617071148,155.24259906672904,138.900981440379,-0.0002590179501567,0.0949056595563888,0,0,0
13007,445140.78904289205,2010-10-13 18:09:03,270.13641052893365,7,38,-1.0993878841400146,3.893689155578613,38.97448628151727,37.99968331914034,155.24259906672904,138.9367149875741,-0.0001942634553415,0.0949056595563888,0,0,0
13008,445170.8043255018,2010-10-13 18:09:33,300.1516931587186,7,38,-1.0993878841400146,3.8849472999572754,38.97448628151727,38.00885048625821,155.24259906672904,138.97236846814195,-0.0002590179501567,0.0949056595563888,0,0,0
13009,445200.8194107496,2010-10-13 18:10:03,330.16677839152965,7,38,-1.0993878841400146,3.876529216766357,38.97448628151727,38.01801756810918,155.24259906672904,139.0079432654787,-0.0001942634553415,0.0949056595563888,0,0,0
13010,445230.8343566903,2010-10-13 18:10:33,360.1817243321817,7,38,-1.099568486213684,3.8682730197906494,38.97448628151727,38.02718462058955,155.24259906672904,139.0434414008265,-0.0002266406954731,0.0949056595563888,0,0,0
13011,445260.84948797285,2010-10-13 18:11:03,390.196855604738,7,38,-1.0993878841400146,3.860016822814941,38.97448628151727,38.0363517463315,155.24259906672904,139.07886433688032,-0.0001942634553415,0.0949056595563888,0,0,0
13012,445290.8646151702,2010-10-13 18:11:33,420.2119828272001,7,38,-1.099568486213684,3.852084398269653,38.97448628151727,38.04551892600246,155.24259906672904,139.11421377885162,-0.0002266406954731,0.0949056595563888,0,0,0
13013,445320.87987828144,2010-10-13 18:12:03,450.2272459182887,7,38,-1.099568486213684,3.844313859939575,38.97448628151727,38.054686158765655,155.24259906672904,139.14949144684027,-0.0001942634553415,0.0949056595563888,0,0,0
13014,445350.8949233592,2010-10-13 18:12:33,480.2422910060458,7,38,-1.099568486213684,3.836543321609497,38.97448628151727,38.063853275914816,155.24259906672904,139.18469712650295,-0.0001942634553415,0.0949056595563888,0,0,0
13015,445380.9100412634,2010-10-13 18:13:03,510.2574089002591,7,38,-1.0993878841400146,3.829096794128418,38.97448628151727,38.07302042173633,155.24259906672904,139.2198328821242,-0.0001942634553415,0.0949056595563888,0,0,0
13016,445410.92518450576,2010-10-13 18:13:33,540.2725521677103,7,38,-1.099568486213684,3.8218119144439697,38.97448628151727,38.08218762300535,155.24259906672904,139.25490025696575,-0.0001295089750783,0.0949056595563888,0,0,0
13017,445440.9403509058,2010-10-13 18:14:03,570.2877185678151,7,38,-1.0993878841400146,3.8145270347595215,38.97448628151727,38.09135482977608,155.24259906672904,139.28990041686862,-0.0001618862152099,0.0949056595563888,0,0,0
13018,445470.9554812712,2010-10-13 18:14:33,600.3028489280978,7,38,-1.099568486213684,3.8070802688598633,38.97448628151727,38.10052192895911,155.24259906672904,139.32483365285668,-0.0002266406954731,0.0949056595563888,0,0,0
13019,445500.9706201578,2010-10-13 18:15:03,630.3179878146302,7,38,-1.0993878841400146,3.800281047821045,38.97448628151727,38.10968905350245,155.24259906672904,139.35970206974312,-0.0001618862152099,0.0949056595563888,0,0,0
13020,445530.9857560969,2010-10-13 18:15:33,660.3331237538172,7,38,-1.0993878841400146,3.7933199405670166,38.97448628151727,38.11885623252291,155.24259906672904,139.39450680832948,-0.0001618862152099,0.0949056595563888,0,0,0
13021,445561.00091700326,2010-10-13 18:16:03,690.3482846351677,7,38,-1.0993878841400146,3.786358833312988,38.97448628151727,38.128023399611855,155.24259906672904,139.42924801874267,-0.0001618862152099,0.0949056595563888,0,0,0
13022,445591.0161214131,2010-10-13 18:16:33,720.3634891703168,7,38,-1.0993878841400146,3.77955961227417,38.97448628151727,38.13719060276768,155.24259906672904,139.46392774165818,-0.0001942634553415,0.0949056595563888,0,0,0
13023,445621.03118647065,2010-10-13 18:17:03,750.3785541075449,7,38,-1.099568486213684,3.773246049880981,38.97448628151727,38.14635779887944,155.24259906672904,139.49854711903558,-0.0001942634553415,0.0949056595563888,0,0,0
13024,445651.0464513061,2010-10-13 18:17:33,780.3938189680433,7,38,-1.099568486213684,3.766770601272583,38.97448628151727,38.15552503856889,155.24259906672904,139.5331077878921,-0.0001618862152099,0.0949056595563888,0,0,0
13025,445681.0614678126,2010-10-13 18:18:03,810.4088354695549,7,38,-1.0992072820663452,3.760618925094605,38.97448628151727,38.16469218698021,155.24259906672904,139.56760943079152,-0.0001295089750783,0.0949056595563888,0,0,0
13026,445711.0766348944,2010-10-13 18:18:33,840.4240025613836,7,38,-1.0997490882873535,3.754143476486206,38.97448628151727,38.173859362397096,155.24259906672904,139.6020533754758,-0.0001942634553415,0.0949056595563888,0,0,0
13027,445741.0917749689,2010-10-13 18:19:03,870.4391426559271,7,38,-1.0997490882873535,3.747992038726807,38.97448628151727,38.18302656093943,155.24259906672904,139.63644081797543,-0.0001942634553415,0.0949056595563888,0,0,0
13028,445771.10691513866,2010-10-13 18:19:33,900.4542827805454,7,38,-1.0993878841400146,3.742164134979248,38.97448628151727,38.19219384134825,155.24259906672904,139.67077358621597,-0.0001295089750783,0.0949056595563888,0,0,0
13029,445801.1220818044,2010-10-13 18:20:03,930.4694494513247,7,38,-1.099568486213684,3.7363362312316895,38.97448628151727,38.20136104364582,155.24259906672904,139.70505192072926,-0.0001295089750783,0.0949056595563888,0,0,0
13030,445831.1372336031,2010-10-13 18:20:33,960.4846012500384,7,38,-1.099568486213684,3.730508327484131,38.97448628151727,38.210528306618585,155.24259906672904,139.73927704342574,-0.0001618862152099,0.0949056595563888,0,0,0
13031,445861.1523322193,2010-10-13 18:21:03,990.4996998812423,7,38,-1.0993878841400146,3.725004196166992,38.97448628151727,38.219695497485766,155.24259906672904,139.77344949069433,-9.713172767078504e-05,0.0949056595563888,0,0,0
13032,445891.16754763154,2010-10-13 18:21:33,1020.5149152684382,7,38,-1.0993878841400146,3.7195000648498535,38.97448628151727,38.228862365736525,155.24259906672904,139.807569942942,-9.713172767078504e-05,0.0949056595563888,0,0,0
13033,445921.1825668348,2010-10-13 18:22:03,1050.5299344967457,7,38,-1.0993878841400146,3.713834047317505,38.97448628151727,38.238028716325054,155.24259906672904,139.84163863276234,-0.0001942634553415,0.0949056595563888,0,0,0
13034,445951.1977414955,2010-10-13 18:22:33,1080.5451091273635,7,38,-1.0992072820663452,3.708815574645996,38.97448628151727,38.24719530545006,155.24259906672904,139.87565940502236,-0.0001295089750783,0.0949056595563888,0,0,0
13035,445981.2129102064,2010-10-13 18:23:03,1110.5602778482526,7,38,-1.099568486213684,3.7034733295440674,38.97448628151727,38.25636178587085,155.24259906672904,139.90963163978896,-0.0001295089750783,0.0949056595563888,0,0,0
13036,446011.22802671214,2010-10-13 18:23:33,1140.5753943439804,7,38,-1.0993878841400146,3.6981310844421382,38.97448628151727,38.265528209201925,155.24259906672904,139.94355563531332,-0.0001942634553415,0.0949056595563888,0,0,0
13037,446041.2431812327,2010-10-13 18:24:04,1170.5905488594651,7,38,-1.0993878841400146,3.69327449798584,38.97448628151727,38.27469462923472,155.24259906672904,139.9774324184038,-0.0001295089750783,0.0949056595563888,0,0,0
13038,446071.2609062596,2010-10-13 18:24:34,1200.6082740017428,7,38,-1.0993878841400146,3.688256025314331,38.97448628151727,38.28386200108867,155.24259906672904,140.0112659769902,-9.713172767078504e-05,0.0949056595563888,0,0,0
13039,446101.2734534669,2010-10-13 18:25:04,1230.620821183951,7,38,-1.0993878841400146,3.6832375526428223,38.97448628151727,38.29302823780505,155.24259906672904,140.04504939158224,-0.0001295089750783,0.0949056595563888,0,0,0
13040,446131.28878096346,2010-10-13 18:25:34,1260.6361486805577,7,38,-1.099568486213684,3.6782190799713135,38.97448628151727,38.3021953944611,155.24259906672904,140.0787910720422,-0.0001618862152099,0.0949056595563888,0,0,0
13041,446161.30385433167,2010-10-13 18:26:04,1290.6512219685987,7,38,-1.099568486213684,3.6735243797302246,38.97448628151727,38.31136251366054,155.24259906672904,140.11248827516175,-0.0001618862152099,0.0949056595563888,0,0,0
13042,446191.3190365011,2010-10-13 18:26:34,1320.6664041480306,7,38,-1.0997490882873535,3.668668031692505,38.97448628151727,38.32052963614124,155.24259906672904,140.14614229134597,-0.0001618862152099,0.0949056595563888,0,0,0
13043,446221.33401720336,2010-10-13 18:27:04,1350.6813848553318,7,38,-1.0992072820663452,3.664297103881836,38.97448628151727,38.329696671668565,155.24259906672904,140.17975302220674,-9.713172767078504e-05,0.0949056595563888,0,0,0
13044,446251.3492820989,2010-10-13 18:27:34,1380.6966498261047,7,38,-1.0993878841400146,3.659602403640747,38.97448628151727,38.33886373939623,155.24259906672904,140.21332141082414,-9.713172767078504e-05,0.0949056595563888,0,0,0
13045,446281.3644229403,2010-10-13 18:28:04,1410.71179058731,7,38,-1.0993878841400146,3.655069589614868,38.97448628151727,38.34803088176716,155.24259906672904,140.24684777246242,-9.713172767078504e-05,0.0949056595563888,0,0,0
13046,446311.3794566347,2010-10-13 18:28:34,1440.7268242766588,7,38,-1.099568486213684,3.650536775588989,38.97448628151727,38.35719795999631,155.24259906672904,140.28033285345407,-0.0001295089750783,0.0949056595563888,0,0,0
13047,446341.3947131896,2010-10-13 18:29:04,1470.7420808264444,7,38,-1.0993878841400146,3.6460039615631104,38.97448628151727,38.366365111964335,155.24259906672904,140.3137771630204,-6.47544875391759e-05,0.0949056595563888,0,0,0
13048,446371.409730864,2010-10-13 18:29:34,1500.757098490854,7,38,-1.099568486213684,3.6416330337524414,38.97448628151727,38.37553205784359,155.24259906672904,140.3471802784204,-0.0001295089750783,0.0949056595563888,0,0,0
13049,446401.4248845123,2010-10-13 18:30:04,1530.7722521391777,7,38,-1.0993878841400146,3.637585878372192,38.97448628151727,38.38469912430431,155.24259906672904,140.38054432144617,-6.47544875391759e-05,0.0949056595563888,0,0,0
13050,446431.44002390007,2010-10-13 18:30:34,1560.7873915570349,7,38,-1.099568486213684,3.633214950561523,38.97448628151727,38.39386617468809,155.24259906672904,140.41386939312855,-0.0001295089750783,0.0949056595563888,0,0,0
13051,446461.45515863126,2010-10-13 18:31:04,1590.8025262681606,7,38,-1.099568486213684,3.629005908966065,38.97448628151727,38.403033237410405,155.24259906672904,140.44715642124788,-9.713172767078504e-05,0.0949056595563888,0,0,0
13052,446491.4703010466,2010-10-13 18:31:34,1620.817668683488,7,38,-1.099568486213684,3.6251206398010254,38.97448628151727,38.41220035962561,155.24259906672904,140.4804060037778,-6.47544875391759e-05,0.0949056595563888,0,0,0
13053,446521.4854442889,2010-10-13 18:32:04,1650.8328119459268,7,38,-1.099568486213684,3.6209115982055664,38.97448628151727,38.42136745409394,155.24259906672904,140.51361902399094,-0.0001295089750783,0.0949056595563888,0,0,0
13054,446551.500600599,2010-10-13 18:32:34,1680.847968235834,7,38,-1.099568486213684,3.617188215255737,38.97448628151727,38.43053452989049,155.24259906672904,140.54679599701515,-9.713172767078504e-05,0.0949056595563888,0,0,0
13055,446581.51573241287,2010-10-13 18:33:04,1710.8631000647767,7,38,-1.0993878841400146,3.613302946090698,38.97448628151727,38.43970161821865,155.24259906672904,140.57993815922643,-0.0001295089750783,0.0949056595563888,0,0,0
13056,446611.5309042565,2010-10-13 18:33:34,1740.878271913461,7,38,-1.0993878841400146,3.609741449356079,38.97448628151727,38.448868714262034,155.24259906672904,140.61304665388914,-0.0001295089750783,0.0949056595563888,0,0,0
13057,446641.54602599033,2010-10-13 18:34:04,1770.893393627194,7,38,-1.0993878841400146,3.60617995262146,38.97448628151727,38.45803588565165,155.24259906672904,140.6461218800975,-9.713172767078504e-05,0.0949056595563888,0,0,0
13058,446671.5611736186,2010-10-13 18:34:34,1800.9085412505012,7,38,-1.0992072820663452,3.602618455886841,38.97448628151727,38.467202915830406,155.24259906672904,140.67916353907913,-6.47544875391759e-05,0.0949056595563888,0,0,0
13059,446701.5763121944,2010-10-13 18:35:04,1830.923679831272,7,38,-1.099568486213684,3.599218845367432,38.97448628151727,38.47637001944642,155.24259906672904,140.71217350777243,-6.47544875391759e-05,0.0949056595563888,0,0,0
13060,446731.5914442288,2010-10-13 18:35:34,1860.9388118607144,7,38,-1.099568486213684,3.5958192348480225,38.97448628151727,38.48553711189821,155.24259906672904,140.74515267183585,-9.713172767078504e-05,0.0949056595563888,0,0,0
13061,446761.6065977368,2010-10-13 18:36:04,1890.953965368688,7,38,-1.0993878841400146,3.592743396759033,38.97448628151727,38.49470416366578,155.24259906672904,140.77810093102286,-3.237724376958795e-05,0.0949056595563888,0,0,0
13062,446791.6217456058,2010-10-13 18:36:34,1920.96911326267,7,38,-1.0993878841400146,3.589344024658203,38.97448628151727,38.50387123918968,155.24259906672904,140.8110192160896,-6.47544875391759e-05,0.0949056595563888,0,0,0
13063,446821.6368995548,2010-10-13 18:37:04,1950.984267191693,7,38,-1.0993878841400146,3.586106300354004,38.97448628151727,38.51303846310002,155.24259906672904,140.84390845034662,-6.47544875391759e-05,0.0949056595563888,0,0,0
13064,446851.6521833174,2010-10-13 18:37:34,1980.99955181645,7,38,-1.099568486213684,3.583030462265014,38.97448628151727,38.522205575054,155.24259906672904,140.876768145455,-6.47544875391759e-05,0.0949056595563888,0,0,0
13065,446881.6671242706,2010-10-13 18:38:04,2011.0144919025108,7,38,-1.099568486213684,3.5799546241760254,38.97448628151727,38.53137318793726,155.24259906672904,140.909601179538,-6.47544875391759e-05,0.0949056595563888,0,0,0
13066,446911.6822806558,2010-10-13 18:38:34,2041.0296482876552,7,38,-1.099568486213684,3.576878786087036,38.97448628151727,38.540541113981305,155.24259906672904,140.9424070938766,-6.47544875391759e-05,0.0949056595563888,0,0,0
13067,446941.6974321438,2010-10-13 18:39:04,2071.044799780607,7,38,-1.099568486213684,3.573641061782837,38.97448628151727,38.54970890047476,155.24259906672904,140.97518389842125,-0.0001295089750783,0.0949056595563888,0,0,0
13068,446971.71257509536,2010-10-13 18:39:34,2101.059942727259,7,38,-1.099568486213684,3.570565223693848,38.97448628151727,38.55887682433204,155.24259906672904,141.00793338588292,-9.713172767078504e-05,0.0949056595563888,0,0,0
13069,447001.7277311648,2010-10-13 18:40:04,2131.075098826691,7,38,-1.0993878841400146,3.5678131580352783,38.97448628151727,38.56804473876266,155.24259906672904,141.0406552629416,-6.47544875391759e-05,0.0949056595563888,0,0,0
13070,447031.7430268572,2010-10-13 18:40:34,2161.09039459422,7,38,-1.0993878841400146,3.564899206161499,38.97448628151727,38.5772127411609,155.24259906672904,141.0733500368929,-6.47544875391759e-05,0.0949056595563888,0,0,0
13071,447061.7580049228,2010-10-13 18:41:04,2191.1053725897623,7,38,-1.099568486213684,3.5616614818573,38.97448628151727,38.58638029896879,155.24259906672904,141.1060162628298,-0.0001295089750783,0.0949056595563888,0,0,0
13072,447091.7734760824,2010-10-13 18:41:34,2221.120843729372,7,38,-1.099568486213684,3.5587475299835205,38.97448628151727,38.59554745910534,155.24259906672904,141.13865443628762,-9.713172767078504e-05,0.0949056595563888,0,0,0
13073,447121.7886586429,2010-10-13 18:42:04,2251.1360262997778,7,38,-1.099568486213684,3.5556716918945312,38.97448628151727,38.60471462149792,155.24259906672904,141.17126476643662,-9.713172767078504e-05,0.0949056595563888,0,0,0
13074,447151.8035808142,2010-10-13 18:42:34,2281.1509484611647,7,38,-1.0993878841400146,3.552919626235962,38.97448628151727,38.61388168310399,155.24259906672904,141.2038469007488,-3.237724376958795e-05,0.0949056595563888,0,0,0
13075,447181.81857953646,2010-10-13 18:43:04,2311.165947183365,7,38,-1.099568486213684,3.5496819019317627,38.97448628151727,38.623048757764245,155.24259906672904,141.23640102323296,-6.47544875391759e-05,0.0949056595563888,0,0,0
13076,447211.83372750063,2010-10-13 18:43:34,2341.181095132484,7,38,-1.0993878841400146,3.546606063842773,38.97448628151727,38.63221589092666,155.24259906672904,141.2689275810218,-9.713172767078504e-05,0.0949056595563888,0,0,0
13077,447241.84888645215,2010-10-13 18:44:04,2371.196254089037,7,38,-1.099568486213684,3.543530225753784,38.97448628151727,38.64138307130107,155.24259906672904,141.30142571779774,-9.713172767078504e-05,0.0949056595563888,0,0,0
13078,447271.86402090767,2010-10-13 18:44:34,2401.2113885445265,7,38,-1.099568486213684,3.540130615234375,38.97448628151727,38.65055014452304,155.24259906672904,141.3338948061596,-0.0001295089750783,0.0949056595563888,0,0,0
13079,447301.8791556288,2010-10-13 18:45:04,2431.2265232757027,7,38,-1.0993878841400146,3.537216663360596,38.97448628151727,38.65971720725744,155.24259906672904,141.3663342488698,-6.47544875391759e-05,0.0949056595563888,0,0,0
13080,447331.8943014075,2010-10-13 18:45:34,2461.241669039375,7,38,-1.099568486213684,3.5338170528411865,38.97448628151727,38.66888431592032,155.24259906672904,141.3987445446675,-0.0001295089750783,0.0949056595563888,0,0,0
13081,447361.9095661377,2010-10-13 18:46:04,2491.256933784586,7,38,-1.099568486213684,3.5304174423217773,38.97448628151727,38.67805150409258,155.24259906672904,141.43112544326524,-0.0001295089750783,0.0949056595563888,0,0,0
13082,447391.92461760633,2010-10-13 18:46:34,2521.271985348484,7,38,-1.099568486213684,3.527179718017578,38.97448628151727,38.68721865900123,155.24259906672904,141.4634759457113,-0.0001295089750783,0.0949056595563888,0,0,0
13083,447421.9397335808,2010-10-13 18:47:04,2551.2871012427127,7,38,-1.0993878841400146,3.523780107498169,38.97448628151727,38.69638576106434,155.24259906672904,141.49579527403893,-0.0001295089750783,0.0949056595563888,0,0,0
13084,447451.9548920261,2010-10-13 18:47:34,2581.3022596579167,7,38,-1.0993878841400146,3.52038049697876,38.97448628151727,38.705552862084296,155.24259906672904,141.52808183071124,-6.47544875391759e-05,0.0949056595563888,0,0,0
13085,447481.9700232284,2010-10-13 18:48:04,2611.317390875335,7,38,-1.099568486213684,3.5163333415985107,38.97448628151727,38.7147199242118,155.24259906672904,141.56033482342002,-0.0001295089750783,0.0949056595563888,0,0,0
13086,447511.9851728116,2010-10-13 18:48:34,2641.33254044349,7,38,-1.099568486213684,3.5126099586486816,38.97448628151727,38.723887087142,155.24259906672904,141.59255344208918,-9.713172767078504e-05,0.0949056595563888,0,0,0
13087,447542.0004342737,2010-10-13 18:49:04,2671.347801920556,7,38,-1.099568486213684,3.508563041687012,38.97448628151727,38.7330541902056,155.24259906672904,141.6247356388321,-9.713172767078504e-05,0.0949056595563888,0,0,0
13088,447572.01557508,2010-10-13 18:49:34,2701.362942711836,7,38,-1.099568486213684,3.5041921138763428,38.97448628151727,38.74222139234002,155.24259906672904,141.65687966608849,-0.0001295089750783,0.0949056595563888,0,0,0
13089,447602.0305991904,2010-10-13 18:50:04,2731.3779669075234,7,38,-1.0993878841400146,3.499821186065674,38.97448628151727,38.75138844005409,155.24259906672904,141.6889832502362,-0.0001618862152099,0.0949056595563888,0,0,0
13090,447632.045754979,2010-10-13 18:50:34,2761.393122610969,7,38,-1.0993878841400146,3.495126485824585,38.97448628151727,38.76055559397752,155.24259906672904,141.72104486114884,-0.0001295089750783,0.0949056595563888,0,0,0
13091,447662.06092085794,2010-10-13 18:51:04,2791.408288494787,7,38,-1.099568486213684,3.489946126937866,38.97448628151727,38.76972279459528,155.24259906672904,141.75306145203498,-0.0001295089750783,0.0949056595563888,0,0,0
13092,447692.0760285517,2010-10-13 18:51:34,2821.423396208628,7,38,-1.099568486213684,3.4844419956207275,38.97448628151727,38.77888991133415,155.24259906672904,141.78502952351934,-0.0001942634553415,0.0949056595563888,0,0,0
13093,447722.09118617495,2010-10-13 18:52:04,2851.438553831857,7,38,-1.099568486213684,3.478290319442749,38.97448628151727,38.78805699283267,155.24259906672904,141.81694399936652,-0.0001618862152099,0.0949056595563888,0,0,0
13094,447752.1063298333,2010-10-13 18:52:34,2881.453697470233,7,38,-1.0993878841400146,3.4716529846191406,38.97448628151727,38.797224075172345,155.24259906672904,141.84879940710852,-0.0001618862152099,0.0949056595563888,0,0,0
13095,447782.121471171,2010-10-13 18:53:04,2911.4688388028626,7,38,-1.0993878841400146,3.4640443325042725,38.97448628151727,38.80639116771944,155.24259906672904,141.8805890958416,-0.0001618862152099,0.0949056595563888,0,0,0
13096,447812.1367438109,2010-10-13 18:53:34,2941.484111447762,7,38,-1.099568486213684,3.4553024768829346,38.97448628151727,38.81555828399989,155.24259906672904,141.9123038071096,-0.0001942634553415,0.0949056595563888,0,0,0
13097,447842.1517558763,2010-10-13 18:54:04,2971.49912353828,7,38,-1.099568486213684,3.444779872894287,38.97448628151727,38.8247253640096,155.24259906672904,141.94393157237164,-0.0003237724304199,0.0949056595563888,0,0,0
13098,447872.1669233591,2010-10-13 18:54:34,3001.5142910010336,7,38,-1.0993878841400146,3.43296217918396,38.97448628151727,38.833892413461285,155.24259906672904,141.9754582100465,-0.0003561496851034,0.0949056595563888,0,0,0
13099,447902.1820450077,2010-10-13 18:55:04,3031.529412644591,7,38,-1.0993878841400146,3.4185545444488525,38.97448628151727,38.84305952742969,155.24259906672904,142.00686598005674,-0.0004532813909463,0.0949056595563888,0,0,0
13100,447932.19718594936,2010-10-13 18:55:34,3061.544553586245,7,38,-1.099568486213684,3.4012327194213867,38.97448628151727,38.85222662765205,155.24259906672904,142.03812772694795,-0.0004856586456298,0.0949056595563888,0,0,0
13101,447962.21244954166,2010-10-13 18:56:05,3091.5598171886086,7,38,-1.0993878841400146,3.378730535507202,38.97448628151727,38.861393753590775,155.24259906672904,142.0692078870033,-0.0006475448608398,0.0949056595563888,0,0,0
13102,447992.23007212335,2010-10-13 18:56:35,3121.577439870523,7,38,-1.099568486213684,3.3491055965423584,38.97448628151727,38.87056160203591,155.24259906672904,142.10005461943018,-0.0009065151098184,0.0949056595563888,0,0,0
13103,448022.2428033041,2010-10-13 18:57:05,3151.590170981138,7,38,-1.0993878841400146,3.308634042739868,38.97448628151727,38.87972791175008,155.24259906672904,142.1305780833479,-0.0011979580158367,0.0949056595563888,0,0,0
13104,448052.2579790877,2010-10-13 18:57:35,3181.6053467245288,7,38,-1.099568486213684,3.251002788543701,38.97448628151727,38.88889494649237,155.24259906672904,142.16065928862383,-0.0017807483673095,0.0949056595563888,0,0,0
13105,448082.2730568719,2010-10-13 18:58:05,3211.620424518801,7,38,-1.0993878841400146,3.1674697399139404,38.97448628151727,38.89806203372384,155.24259906672904,142.19010429158058,-0.0025901794433593,0.0949056595563888,0,0,0
13106,448112.2882075428,2010-10-13 18:58:35,3241.635575174666,7,38,-1.099568486213684,3.036827802658081,38.97448628151727,38.907229187642926,155.24259906672904,142.21859134478188,-0.0043061734177172,0.0949056595563888,0,0,0
13107,448137.41281136114,2010-10-13 18:59:00,3266.760179103304,7,38,-1.099568486213684,2.8365752696990967,38.97448628151727,38.91490261712863,155.24259906672904,142.24121547112753,-0.0084180356934666,0.0949056595563888,0,0,0
13108,448148.19372460415,2010-10-13 18:59:10,3277.541092241047,7,38,-1.099568486213684,2.699781894683838,38.97448628151727,38.91819527344751,155.24259906672904,142.25033967612364,-0.0109110828489065,0.0949056595563888,0,0,0
13109,448208.2103069757,2010-10-13 19:00:11,60.014620500323886,8,38,0.0,3.370636224746704,38.97448628151727,38.91819527344751,155.24259906672904,142.25033967612364,0.0013274669181555,0.0949056595563888,0,0,0
13110,448208.40072804136,2010-10-13 19:00:11,0.187496980165952,9,38,-1.9243103452026844e-05,3.370636224746704,38.97448628151727,38.91819527444974,155.24259906672904,142.2503396795018,0.0,0.0907677188515663,0,0,0
13111,448213.228761361,2010-10-13 19:00:16,5.015530324809525,9,38,0.0007031940040178,3.378568649291992,38.974487226407724,38.91819527470016,155.24260225607472,142.25033968034614,0.0011008263099938,0.0907677188515663,0,0,0
