Data_Point,Test_Time(s),Date_Time,Step_Time(s),Step_Index,Cycle_Index,Current(A),Voltage(V),Charge_Capacity(Ah),Discharge_Capacity(Ah),Charge_Energy(Wh),Discharge_Energy(Wh),dV/dt(V/s),Internal_Resistance(Ohm),Is_FC_Data,AC_Impedance(Ohm),ACI_Phase_Angle(Deg)
16138,553761.1564049508,2010-10-15 00:19:35,30.01538812771831,1,48,0.0,3.370959997177124,47.99598218478332,47.94664463211228,191.2823128080875,175.15896545077948,0.0007770538213662,0.0908498615026474,0,0,0
16139,553791.1713205157,2010-10-15 00:20:05,60.03030359742744,1,48,0.0,3.396052360534668,47.99598218478332,47.94664463211228,191.2823128080875,175.15896545077948,0.0005827903514727,0.0908498615026474,0,0,0
16140,553821.1865824037,2010-10-15 00:20:35,90.04556546045528,1,48,0.0,3.4149930477142334,47.99598218478332,47.94664463211228,191.2823128080875,175.15896545077948,0.0004856586456298,0.0908498615026474,0,0,0
16141,553851.1548466843,2010-10-15 00:21:05,120.01382976109689,1,48,0.0,3.4302103519439697,47.99598218478332,47.94664463211228,191.2823128080875,175.15896545077948,0.0003561496851034,0.0908498615026474,0,0,0
16142,553881.1791740773,2010-10-15 00:21:35,30.01525501596286,2,48,0.5501165986061096,3.5843255519866943,48.000568722700486,47.94664463211228,191.29858705612384,175.15896545077948,0.0016188621520996,0.0908498615026474,0,0,0
16143,553911.1944947169,2010-10-15 00:22:05,60.03057562540485,2,48,0.5501165986061096,3.633700609207153,48.00515522379754,47.94664463211228,191.31514707667023,175.15896545077948,0.0011332035064697,0.0908498615026474,0,0,0
16144,553941.2095518096,2010-10-15 00:22:35,90.04563274815695,2,48,0.5501165986061096,3.669153690338135,48.00974174341864,47.94664463211228,191.3318980462331,175.15896545077948,0.0008418083307333,0.0908498615026474,0,0,0
16145,553971.2247308712,2010-10-15 00:23:05,120.06081180981832,2,48,0.5501165986061096,3.696835994720459,48.01432823056727,47.94664463211228,191.34879241435,175.15896545077948,0.0006475448608398,0.0908498615026474,0,0,0
16146,554001.2399108402,2010-10-15 00:23:35,150.0759917436534,2,48,0.550297200679779,3.7195000648498535,48.01891475697797,47.94664463211228,191.3658017411815,175.15896545077948,0.0005180359003134,0.0908498615026474,0,0,0
16147,554031.2579024065,2010-10-15 00:24:05,180.093983455304,2,48,0.5501165986061096,3.737955093383789,48.02350167112269,47.94664463211228,191.38290673866965,175.15896545077948,0.0004209041653666,0.0908498615026474,0,0,0
16148,554061.2702926525,2010-10-15 00:24:35,210.1063735860915,2,48,0.5501165986061096,3.7528486251831055,48.02808760905458,47.94664463211228,191.40008501478707,175.15896545077948,0.0003561496851034,0.0908498615026474,0,0,0
16149,554091.2854402658,2010-10-15 00:25:05,240.12152119937383,2,48,0.5499359965324402,3.762885332107544,48.032673961972016,47.94664463211228,191.41732222186167,175.15896545077948,0.0001942634553415,0.0908498615026474,0,0,0
16150,554121.3006803646,2010-10-15 00:25:35,270.1367612781085,2,48,0.5499359965324402,3.768713235855103,48.03726038805611,47.94664463211228,191.4345951561904,175.15896545077948,9.713172767078504e-05,0.0908498615026474,0,0,0
16151,554151.3161373289,2010-10-15 00:26:05,300.15221824740127,2,48,0.5499359965324402,3.772760391235352,48.04184686019111,47.94664463211228,191.45189030652,175.15896545077948,6.47544875391759e-05,0.0908498615026474,0,0,0
16152,554181.331040969,2010-10-15 00:26:35,330.1671218926401,2,48,0.550297200679779,3.7764837741851807,48.04643321438719,47.94664463211228,191.4692023418054,175.15896545077948,6.47544875391759e-05,0.0908498615026474,0,0,0
16153,554211.346223374,2010-10-15 00:27:05,360.1823042876091,2,48,0.5501165986061096,3.77988338470459,48.05101968866207,47.94664463211228,191.4865309646808,175.15896545077948,6.47544875391759e-05,0.0908498615026474,0,0,0
16154,554241.3614297538,2010-10-15 00:27:35,390.1975106874055,2,48,0.5501165986061096,3.783282995223999,48.0556061603606,47.94664463211228,191.50387537748136,175.15896545077948,6.47544875391759e-05,0.0908498615026474,0,0,0
16155,554271.3767275363,2010-10-15 00:28:05,420.21280844990594,2,48,0.5501165986061096,3.786682605743408,48.06019259081338,47.94664463211228,191.5212351780548,175.15896545077948,6.47544875391759e-05,0.0908498615026474,0,0,0
16156,554301.3917790051,2010-10-15 00:28:36,450.2278599185663,2,48,0.5499359965324402,3.789920330047608,48.06477901621215,47.94664463211228,191.5386101790872,175.15896545077948,9.713172767078504e-05,0.0908498615026474,0,0,0
16157,554331.4069639063,2010-10-15 00:29:06,480.24304486990656,2,48,0.5501165986061096,3.793158054351807,48.06936550954328,47.94664463211228,191.5560003818946,175.15896545077948,9.713172767078504e-05,0.0908498615026474,0,0,0
16158,554361.4221484165,2010-10-15 00:29:36,510.25822932501,2,48,0.5501165986061096,3.796395778656006,48.073952011144144,47.94664463211228,191.57340528663732,175.15896545077948,0.0001295089750783,0.0908498615026474,0,0,0
16159,554391.4373423201,2010-10-15 00:30:06,540.2734232336747,2,48,0.550297200679779,3.799633502960205,48.07853848681869,47.94664463211228,191.590824489947,175.15896545077948,9.713172767078504e-05,0.0908498615026474,0,0,0
16160,554421.4525165597,2010-10-15 00:30:36,570.2885974733181,2,48,0.5499359965324402,3.8023855686187744,48.083124972999954,47.94664463211228,191.60825803212427,175.15896545077948,6.47544875391759e-05,0.0908498615026474,0,0,0
16161,554451.4677213756,2010-10-15 00:31:06,600.3038023443042,2,48,0.5499359965324402,3.805785179138184,48.087711395888974,47.94664463211228,191.62570539587924,175.15896545077948,9.713172767078504e-05,0.0908498615026474,0,0,0
16162,554481.482885124,2010-10-15 00:31:36,630.3189660426756,2,48,0.5501165986061096,3.808699131011963,48.09229791994144,47.94664463211228,191.64316725233795,175.15896545077948,9.713172767078504e-05,0.0908498615026474,0,0,0
16163,554511.4982863646,2010-10-15 00:32:06,660.3343673833245,2,48,0.5501165986061096,3.811936855316162,48.09688450620904,47.94664463211228,191.66064332231664,175.15896545077948,9.713172767078504e-05,0.0908498615026474,0,0,0
16164,554541.5132592273,2010-10-15 00:32:36,690.3493401408125,2,48,0.5499359965324402,3.814850807189941,48.101470931252166,47.94664463211228,191.67813301946467,175.15896545077948,6.47544875391759e-05,0.0908498615026474,0,0,0
16165,554571.5284565795,2010-10-15 00:33:06,720.364537578272,2,48,0.5499359965324402,3.81792664527893,48.10605742902121,47.94664463211228,191.69563741430008,175.15896545077948,6.47544875391759e-05,0.0908498615026474,0,0,0
16166,554601.5436534656,2010-10-15 00:33:36,750.3797343891699,2,48,0.5501165986061096,3.82116436958313,48.1106439002494,47.94664463211228,191.7131562014405,175.15896545077948,6.47544875391759e-05,0.0908498615026474,0,0,0
16167,554631.5588413893,2010-10-15 00:34:06,780.3949222978808,2,48,0.5499359965324402,3.824563980102539,48.11523039270214,47.94664463211228,191.73069000764812,175.15896545077948,6.47544875391759e-05,0.0908498615026474,0,0,0
16168,554661.5742372915,2010-10-15 00:34:36,810.4103183303001,2,48,0.5501165986061096,3.827963590621948,48.11981685626085,47.94664463211228,191.7482390002253,175.15896545077948,9.713172767078504e-05,0.0908498615026474,0,0,0
16169,554691.5893323286,2010-10-15 00:35:06,840.4254132522593,2,48,0.5501165986061096,3.831363201141357,48.12440324135565,47.94664463211228,191.76580328068604,175.15896545077948,9.713172767078504e-05,0.0908498615026474,0,0,0
16170,554721.6044940772,2010-10-15 00:35:36,870.4405750258336,2,48,0.5501165986061096,3.834762573242188,48.12898966916064,47.94664463211228,191.7833835152432,175.15896545077948,6.47544875391759e-05,0.0908498615026474,0,0,0
16171,554751.6195728539,2010-10-15 00:36:06,900.4556537875164,2,48,0.5501165986061096,3.8381621837615967,48.133576026991626,47.94664463211228,191.8009792811044,175.15896545077948,6.47544875391759e-05,0.0908498615026474,0,0,0
16172,554781.634846386,2010-10-15 00:36:36,930.4709273396776,2,48,0.5501165986061096,3.841561794281006,48.13816246033384,47.94664463211228,191.81859106026417,175.15896545077948,6.47544875391759e-05,0.0908498615026474,0,0,0
16173,554811.6499463456,2010-10-15 00:37:06,960.486027259092,2,48,0.5499359965324402,3.844961404800415,48.14274892409338,47.94664463211228,191.8362184485372,175.15896545077948,9.713172767078504e-05,0.0908498615026474,0,0,0
16174,554841.6651012821,2010-10-15 00:37:36,990.501182215676,2,48,0.5501165986061096,3.848361015319824,48.1473353144796,47.94664463211228,191.85386078438017,175.15896545077948,9.713172767078504e-05,0.0908498615026474,0,0,0
16175,554871.6803231504,2010-10-15 00:38:06,1020.5164040840248,2,48,0.5501165986061096,3.851598739624024,48.15192184754701,47.94664463211228,191.8715186132549,175.15896545077948,9.713172767078504e-05,0.0908498615026474,0,0,0
16176,554901.6954714905,2010-10-15 00:38:36,1050.531552429131,2,48,0.550297200679779,3.8546745777130127,48.15650833324419,47.94664463211228,191.8891908412553,175.15896545077948,0.0001295089750783,0.0908498615026474,0,0,0
16177,554931.7106641761,2010-10-15 00:39:06,1080.546745109735,2,48,0.550297200679779,3.857912302017212,48.16109481349802,47.94664463211228,191.90687744484447,175.15896545077948,0.0001295089750783,0.0908498615026474,0,0,0
16178,554961.7258470323,2010-10-15 00:39:36,1110.5619279708658,2,48,0.5501165986061096,3.860988140106201,48.16568123903541,47.94664463211228,191.92457778427163,175.15896545077948,0.0001295089750783,0.0908498615026474,0,0,0
16179,554991.7410389058,2010-10-15 00:40:06,1140.577119819396,2,48,0.5499359965324402,3.8637402057647705,48.1702676825257,47.94664463211228,191.94229180106973,175.15896545077948,9.713172767078504e-05,0.0908498615026474,0,0,0
16180,555021.756207331,2010-10-15 00:40:36,1170.5922882545733,2,48,0.5501165986061096,3.86633038520813,48.1748540984256,47.94664463211228,191.9600186638287,175.15896545077948,6.47544875391759e-05,0.0908498615026474,0,0,0
16181,555051.7714083374,2010-10-15 00:41:06,1200.6074892759648,2,48,0.5501165986061096,3.869082450866699,48.17944061926115,47.94664463211228,191.97775844448427,175.15896545077948,3.237724376958795e-05,0.0908498615026474,0,0,0
16182,555081.7866039051,2010-10-15 00:41:36,1230.6226848638144,2,48,0.5499359965324402,3.8715107440948486,48.18402709150107,47.94664463211228,191.99550986415343,175.15896545077948,0.0,0.0908498615026474,0,0,0
16183,555111.8020362682,2010-10-15 00:42:06,1260.638117221768,2,48,0.5501165986061096,3.873939037322998,48.18861359729969,47.94664463211228,192.0132726814932,175.15896545077948,6.47544875391759e-05,0.0908498615026474,0,0,0
16184,555141.8169717076,2010-10-15 00:42:36,1290.6530526211482,2,48,0.550297200679779,3.8762054443359375,48.193199993239794,47.94664463211228,192.03104556804269,175.15896545077948,3.237724376958795e-05,0.0908498615026474,0,0,0
16185,555171.8322571645,2010-10-15 00:43:06,1320.668338198279,2,48,0.5501165986061096,3.878309965133667,48.19778644655632,47.94664463211228,192.0488286574156,175.15896545077948,3.237724376958795e-05,0.0908498615026474,0,0,0
16186,555201.8473197708,2010-10-15 00:43:36,1350.683400704448,2,48,0.5501165986061096,3.880414485931397,48.202372923453,47.94664463211228,192.06662116048577,175.15896545077948,6.47544875391759e-05,0.0908498615026474,0,0,0
16187,555231.8626416384,2010-10-15 00:44:06,1380.6987225519756,2,48,0.5499359965324402,3.882033348083496,48.20695939824561,47.94664463211228,192.08442228303,175.15896545077948,3.237724376958795e-05,0.0908498615026474,0,0,0
16188,555261.8776961246,2010-10-15 00:44:36,1410.7137770331442,2,48,0.5499359965324402,3.8838140964508057,48.211545748341024,47.94664463211228,192.10223095669528,175.15896545077948,3.237724376958795e-05,0.0908498615026474,0,0,0
16189,555291.8928934218,2010-10-15 00:45:06,1440.7289743352662,2,48,0.550297200679779,3.885432958602905,48.216132247124506,47.94664463211228,192.120047617944,175.15896545077948,6.47544875391759e-05,0.0908498615026474,0,0,0
16190,555321.90818347,2010-10-15 00:45:36,1470.7442644086032,2,48,0.550297200679779,3.886889934539795,48.22071870117984,47.94664463211228,192.1378711168526,175.15896545077948,0.0,0.0908498615026474,0,0,0
16191,555351.9232524573,2010-10-15 00:46:06,1500.7593333708628,2,48,0.5499359965324402,3.8881850242614746,48.22530518346149,47.94664463211228,192.1557012569297,175.15896545077948,0.0,0.0908498615026474,0,0,0
16192,555381.9387004242,2010-10-15 00:46:36,1530.7747813377189,2,48,0.5499359965324402,3.8894801139831534,48.22989174638306,47.94664463211228,192.17353802082928,175.15896545077948,0.0,0.0908498615026474,0,0,0
16193,555411.9536409063,2010-10-15 00:47:06,1560.789721839816,2,48,0.550297200679779,3.891098976135254,48.23447818947029,47.94664463211228,192.1913802577733,175.15896545077948,6.47544875391759e-05,0.0908498615026474,0,0,0
16194,555441.9688071309,2010-10-15 00:47:36,1590.804888044434,2,48,0.5499359965324402,3.8920702934265137,48.23906462976594,47.94664463211228,192.2092283721553,175.15896545077948,0.0,0.0908498615026474,0,0,0
16195,555471.9842042511,2010-10-15 00:48:06,1620.8202852898764,2,48,0.5501165986061096,3.8935272693634033,48.24365113699365,47.94664463211228,192.2270824727222,175.15896545077948,6.47544875391759e-05,0.0908498615026474,0,0,0
16196,555501.9991896099,2010-10-15 00:48:36,1650.8352705635584,2,48,0.5501165986061096,3.894498586654663,48.24823758923942,47.94664463211228,192.24494209610452,175.15896545077948,0.0,0.0908498615026474,0,0,0
16197,555532.0143645613,2010-10-15 00:49:06,1680.850445494926,2,48,0.5501165986061096,3.895793676376343,48.25282411007202,47.94664463211228,192.26280710536744,175.15896545077948,3.237724376958795e-05,0.0908498615026474,0,0,0
16198,555562.0295477432,2010-10-15 00:49:36,1710.8656286768562,2,48,0.5501165986061096,3.896926879882813,48.2574105711278,47.94664463211228,192.28067760298336,175.15896545077948,3.237724376958795e-05,0.0908498615026474,0,0,0
16199,555592.0447685439,2010-10-15 00:50:06,1740.8808494625066,2,48,0.5501165986061096,3.898383855819702,48.26199709084342,47.94664463211228,192.29855390223364,175.15896545077948,9.713172767078504e-05,0.0908498615026474,0,0,0
16200,555622.0599279917,2010-10-15 00:50:36,1770.8960089152963,2,48,0.550297200679779,3.899355173110962,48.26658351756649,47.94664463211228,192.3164354482153,175.15896545077948,3.237724376958795e-05,0.0908498615026474,0,0,0
16201,555652.0751002164,2010-10-15 00:51:06,1800.911181154955,2,48,0.5501165986061096,3.9006502628326416,48.2711699598749,47.94664463211228,192.3343226255416,175.15896545077948,6.47544875391759e-05,0.0908498615026474,0,0,0
16202,555682.0902886764,2010-10-15 00:51:36,1830.926369589978,2,48,0.5501165986061096,3.901945352554321,48.27575638414849,47.94664463211228,192.35221536577828,175.15896545077948,6.47544875391759e-05,0.0908498615026474,0,0,0
16203,555712.1055071262,2010-10-15 00:52:06,1860.9415881851687,2,48,0.5499359965324402,3.902916669845581,48.28034287908001,47.94664463211228,192.3701140405312,175.15896545077948,3.237724376958795e-05,0.0908498615026474,0,0,0
16204,555742.1207861319,2010-10-15 00:52:36,1890.9568670555848,2,48,0.5501165986061096,3.904373645782471,48.284929371934005,47.94664463211228,192.38801843135545,175.15896545077948,6.47544875391759e-05,0.0908498615026474,0,0,0
16205,555772.1359584419,2010-10-15 00:53:06,1920.972039380456,2,48,0.550297200679779,3.905506849288941,48.28951584373939,47.94664463211228,192.40592839631609,175.15896545077948,-3.237724376958795e-05,0.0908498615026474,0,0,0
16206,555802.1510319253,2010-10-15 00:53:36,1950.9871128689963,2,48,0.5501165986061096,3.90664005279541,48.29410228400723,47.94664463211228,192.4238439457098,175.15896545077948,0.0,0.0908498615026474,0,0,0
16207,555832.1663644245,2010-10-15 00:54:06,1981.002445368071,2,48,0.5501165986061096,3.9080970287323,48.29868871862172,47.94664463211228,192.44176526898897,175.15896545077948,3.237724376958795e-05,0.0908498615026474,0,0,0
16208,555862.1814025999,2010-10-15 00:54:36,2011.0174835385883,2,48,0.5499359965324402,3.9095540046691895,48.30327518870307,47.94664463211228,192.4596926128127,175.15896545077948,6.47544875391759e-05,0.0908498615026474,0,0,0
16209,555892.1965847694,2010-10-15 00:55:06,2041.0326658032327,2,48,0.5501165986061096,3.910525321960449,48.30786169570814,47.94664463211228,192.47762600895683,175.15896545077948,0.0,0.0908498615026474,0,0,0
16210,555922.2118038607,2010-10-15 00:55:36,2071.0478848244857,2,48,0.550297200679779,3.912144184112549,48.3124481321708,47.94664463211228,192.49556503270983,175.15896545077948,3.237724376958795e-05,0.0908498615026474,0,0,0
16211,555952.2297830413,2010-10-15 00:56:06,2101.0658640901165,2,48,0.5501165986061096,3.9132773876190186,48.31703504625269,47.94664463211228,192.51351195057703,175.15896545077948,3.237724376958795e-05,0.0908498615026474,0,0,0
16212,555982.2423343537,2010-10-15 00:56:36,2131.0784154627686,2,48,0.5501165986061096,3.914572238922119,48.32162113659096,47.94664463211228,192.53146166411577,175.15896545077948,0.0,0.0908498615026474,0,0,0
16213,556012.2573304143,2010-10-15 00:57:06,2161.093411367948,2,48,0.5499359965324402,3.915867328643799,48.32620765703498,47.94664463211228,192.5494190836244,175.15896545077948,3.237724376958795e-05,0.0908498615026474,0,0,0
16214,556042.2725207992,2010-10-15 00:57:36,2191.10860183303,2,48,0.5501165986061096,3.917324304580689,48.33079407331259,47.94664463211228,192.56738221187803,175.15896545077948,6.47544875391759e-05,0.0908498615026474,0,0,0
16215,556072.2878454938,2010-10-15 00:58:06,2221.1239264474534,2,48,0.5501165986061096,3.918619394302368,48.33538057077656,47.94664463211228,192.5853518565284,175.15896545077948,0.0,0.0908498615026474,0,0,0
16216,556102.302897163,2010-10-15 00:58:36,2251.138978131652,2,48,0.5501165986061096,3.920076370239258,48.33996702295583,47.94664463211228,192.60332758280967,175.15896545077948,3.237724376958795e-05,0.0908498615026474,0,0,0
16217,556132.3181208308,2010-10-15 00:59:06,2281.154201784447,2,48,0.5501165986061096,3.9213714599609375,48.34455347275597,47.94664463211228,192.62130953115184,175.15896545077948,3.237724376958795e-05,0.0908498615026474,0,0,0
16218,556162.3332587098,2010-10-15 00:59:36,2311.1693396634687,2,48,0.5501165986061096,3.922828435897827,48.349139821696845,47.94664463211228,192.6392974718302,175.15896545077948,3.237724376958795e-05,0.0908498615026474,0,0,0
16219,556192.3485127384,2010-10-15 01:00:06,2341.1845937070084,2,48,0.5499359965324402,3.924123525619507,48.35372559394575,47.94664463211228,192.65728939070448,175.15896545077948,3.237724376958795e-05,0.0908498615026474,0,0,0
16220,556222.3635673147,2010-10-15 01:00:37,2371.1996482784016,2,48,0.5499359965324402,3.9254186153411865,48.3583111541228,47.94664463211228,192.6752869231808,175.15896545077948,-3.237724376958795e-05,0.0908498615026474,0,0,0
16221,556252.3787691933,2010-10-15 01:01:07,2401.2148501669544,2,48,0.5499359965324402,3.926875591278076,48.36289695321042,47.94664463211228,192.69329181396483,175.15896545077948,0.0,0.0908498615026474,0,0,0
16222,556282.394077878,2010-10-15 01:01:37,2431.2301588516766,2,48,0.5501165986061096,3.928494453430176,48.36748246772893,47.94664463211228,192.71130215183024,175.15896545077948,6.47544875391759e-05,0.0908498615026474,0,0,0
16223,556312.4091548251,2010-10-15 01:02:07,2461.2452357336747,2,48,0.5499359965324402,3.9299514293670654,48.37206801461042,47.94664463211228,192.72931918390697,175.15896545077948,6.47544875391759e-05,0.0908498615026474,0,0,0
16224,556342.424343591,2010-10-15 01:02:37,2491.2604245245843,2,48,0.5499359965324402,3.931246519088745,48.37665361963119,47.94664463211228,192.74734316018296,175.15896545077948,3.237724376958795e-05,0.0908498615026474,0,0,0
16225,556372.439643143,2010-10-15 01:03:07,2521.2757240765445,2,48,0.5501165986061096,3.9327034950256343,48.381239795992,47.94664463211228,192.7653761412177,175.15896545077948,3.237724376958795e-05,0.0908498615026474,0,0,0
16226,556402.4548265805,2010-10-15 01:03:37,2551.290907529149,2,48,0.5501165986061096,3.9343223571777344,48.38582640107296,47.94664463211228,192.7834177065737,175.15896545077948,3.237724376958795e-05,0.0908498615026474,0,0,0
16227,556432.4698987157,2010-10-15 01:04:07,2581.3059796292296,2,48,0.550297200679779,3.935779333114624,48.390412928246086,47.94664463211228,192.80146580073963,175.15896545077948,3.237724376958795e-05,0.0908498615026474,0,0,0
16228,556462.4850848049,2010-10-15 01:04:37,2611.321165743469,2,48,0.5497553944587708,3.9369125366210938,48.39499948644722,47.94664463211228,192.81952075579537,175.15896545077948,-3.237724376958795e-05,0.0908498615026474,0,0,0
16229,556492.5002687938,2010-10-15 01:05:07,2641.3363496973225,2,48,0.550297200679779,3.938855171203613,48.399586047148496,47.94664463211228,192.8375827396779,175.15896545077948,6.47544875391759e-05,0.0908498615026474,0,0,0
16230,556522.5156412675,2010-10-15 01:05:37,2671.351722191076,2,48,0.5501165986061096,3.940312147140503,48.40417260496553,47.94664463211228,192.85565166388852,175.15896545077948,3.237724376958795e-05,0.0908498615026474,0,0,0
16231,556552.530686255,2010-10-15 01:06:07,2701.366767178584,2,48,0.5499359965324402,3.9417691230773926,48.40875916284596,47.94664463211228,192.87372764262787,175.15896545077948,3.237724376958795e-05,0.0908498615026474,0,0,0
16232,556582.5458299385,2010-10-15 01:06:37,2731.3819108520465,2,48,0.5501165986061096,3.943549871444702,48.41334571029148,47.94664463211228,192.89181062579243,175.15896545077948,6.47544875391759e-05,0.0908498615026474,0,0,0
16233,556612.5610956561,2010-10-15 01:07:07,2761.3971766799564,2,48,0.5499359965324402,3.944844961166382,48.417932322458654,47.94664463211228,192.90990098082585,175.15896545077948,3.237724376958795e-05,0.0908498615026474,0,0,0
16234,556642.5762096056,2010-10-15 01:07:37,2791.4122906393627,2,48,0.550297200679779,3.9466257095336914,48.422518865979285,47.94664463211228,192.92799826979012,175.15896545077948,6.47544875391759e-05,0.0908498615026474,0,0,0
16235,556672.5913973488,2010-10-15 01:08:07,2821.4274782573493,2,48,0.5501165986061096,3.948082685470581,48.4271053682506,47.94664463211228,192.94610249186653,175.15896545077948,6.47544875391759e-05,0.0908498615026474,0,0,0
16236,556702.6066215329,2010-10-15 01:08:37,2851.442702466532,2,48,0.5501165986061096,3.949539661407471,48.43169193837078,47.94664463211228,192.96421433139653,175.15896545077948,3.237724376958795e-05,0.0908498615026474,0,0,0
16237,556732.6217604695,2010-10-15 01:09:07,2881.457841373114,2,48,0.5501165986061096,3.9511585235595694,48.43627852842029,47.94664463211228,192.9823336272669,175.15896545077948,0.0,0.0908498615026474,0,0,0
16238,556762.636976383,2010-10-15 01:09:37,2911.473057316697,2,48,0.550297200679779,3.95293927192688,48.44086509533333,47.94664463211228,193.00046019146515,175.15896545077948,6.47544875391759e-05,0.0908498615026474,0,0,0
16239,556792.6521383772,2010-10-15 01:10:07,2941.488219285758,2,48,0.5499359965324402,3.9543962478637695,48.445451620194014,47.94664463211228,193.01859411273583,175.15896545077948,0.0,0.0908498615026474,0,0,0
16240,556822.6673147823,2010-10-15 01:10:37,2971.5033956907987,2,48,0.5501165986061096,3.956176996231079,48.45003818169662,47.94664463211228,193.0367357321988,175.15896545077948,3.237724376958795e-05,0.0908498615026474,0,0,0
16241,556852.6824976736,2010-10-15 01:11:07,3001.518578587017,2,48,0.550297200679779,3.9579577445983887,48.45462475001869,47.94664463211228,193.05488488726948,175.15896545077948,6.47544875391759e-05,0.0908498615026474,0,0,0
16242,556882.6976905395,2010-10-15 01:11:37,3031.5337714430584,2,48,0.550297200679779,3.959576606750488,48.45921125474835,47.94664463211228,193.0730414585923,175.15896545077948,6.47544875391759e-05,0.0908498615026474,0,0,0
16243,556912.7128891549,2010-10-15 01:12:07,3061.548970093541,2,48,0.5501165986061096,3.961033582687378,48.46379784115384,47.94664463211228,193.091206072098,175.15896545077948,0.0,0.0908498615026474,0,0,0
16244,556942.7280626477,2010-10-15 01:12:37,3091.564143551236,2,48,0.5501165986061096,3.962814331054688,48.46838443334106,47.94664463211228,193.1093784608405,175.15896545077948,0.0,0.0908498615026474,0,0,0
16245,556972.7432748871,2010-10-15 01:13:07,3121.579355850736,2,48,0.5499359965324402,3.964433193206787,48.47297096071536,47.94664463211228,193.12755835151967,175.15896545077948,3.237724376958795e-05,0.0908498615026474,0,0,0
16246,557002.7584323699,2010-10-15 01:13:37,3151.594513303541,2,48,0.5501165986061096,3.9665377140045166,48.47755751697057,47.94664463211228,193.14574625803849,175.15896545077948,9.713172767078504e-05,0.0908498615026474,0,0,0
16247,557032.7737552952,2010-10-15 01:14:07,3181.609836258829,2,48,0.550297200679779,3.968318462371826,48.48214420038907,47.94664463211228,193.1639426080309,175.15896545077948,9.713172767078504e-05,0.0908498615026474,0,0,0
16248,557062.7887991148,2010-10-15 01:14:37,3211.624880068401,2,48,0.5501165986061096,3.969775438308716,48.48673075613314,47.94664463211228,193.18214649277868,175.15896545077948,6.47544875391759e-05,0.0908498615026474,0,0,0
16249,557092.8039757053,2010-10-15 01:15:07,3241.640056673941,2,48,0.5501165986061096,3.9715561866760254,48.49131736860672,47.94664463211228,193.20035867893216,175.15896545077948,3.237724376958795e-05,0.0908498615026474,0,0,0
16250,557122.8191715437,2010-10-15 01:15:37,3271.6552524622907,2,48,0.550297200679779,3.973498821258545,48.49590409298466,47.94664463211228,193.21857951426043,175.15896545077948,6.47544875391759e-05,0.0908498615026474,0,0,0
16251,557152.834354856,2010-10-15 01:16:07,3301.6704358246707,2,48,0.550297200679779,3.975117683410645,48.50049069325404,47.94664463211228,193.2368080912794,175.15896545077948,0.0,0.0908498615026474,0,0,0
16252,557182.8495382234,2010-10-15 01:16:37,3331.6856191920638,2,48,0.550297200679779,3.977060317993164,48.505077346376986,47.94664463211228,193.255045240089,175.15896545077948,3.237724376958795e-05,0.0908498615026474,0,0,0
16253,557212.8647088842,2010-10-15 01:17:07,3361.7007898026623,2,48,0.5501165986061096,3.9788410663604736,48.50966406058352,47.94664463211228,193.2732906908524,175.15896545077948,3.237724376958795e-05,0.0908498615026474,0,0,0
16254,557242.8800231377,2010-10-15 01:17:37,3391.716104061276,2,48,0.5499359965324402,3.980783700942993,48.51425070095687,47.94664463211228,193.29154486877908,175.15896545077948,6.47544875391759e-05,0.0908498615026474,0,0,0
16255,557272.8950924709,2010-10-15 01:18:07,3421.7311733794227,2,48,0.550297200679779,3.982888221740722,48.51883726146768,47.94664463211228,193.30980730738048,175.15896545077948,9.713172767078504e-05,0.0908498615026474,0,0,0
16256,557302.9105447886,2010-10-15 01:18:37,3451.746625707148,2,48,0.5501165986061096,3.984345197677612,48.52342394739797,47.94664463211228,193.32807883320973,175.15896545077948,3.237724376958795e-05,0.0908498615026474,0,0,0
16257,557332.9254661581,2010-10-15 01:19:07,3481.7615471066347,2,48,0.5501165986061096,3.986449718475342,48.528010517514765,47.94664463211228,193.3463586912766,175.15896545077948,3.237724376958795e-05,0.0908498615026474,0,0,0
16258,557362.9406558813,2010-10-15 01:19:37,3511.776736819844,2,48,0.5501165986061096,3.988392353057861,48.53259721328694,47.94664463211228,193.3646479647594,175.15896545077948,3.237724376958795e-05,0.0908498615026474,0,0,0
16259,557392.9560473923,2010-10-15 01:20:07,3541.79212832097,2,48,0.5501165986061096,3.990334987640381,48.53718385172319,47.94664463211228,193.3829459635969,175.15896545077948,3.237724376958795e-05,0.0908498615026474,0,0,0
16260,557422.9711437529,2010-10-15 01:20:37,3571.807224696552,2,48,0.5501165986061096,3.992277622222901,48.54177044666681,47.94664463211228,193.40125290441063,175.15896545077948,3.237724376958795e-05,0.0908498615026474,0,0,0
16261,557452.9862053468,2010-10-15 01:21:07,3601.8222862503467,2,48,0.5501165986061096,3.994381904602051,48.5463570589367,47.94664463211228,193.4195691314443,175.15896545077948,6.47544875391759e-05,0.0908498615026474,0,0,0
16262,557483.0016379103,2010-10-15 01:21:37,3631.8377189742127,2,48,0.5499359965324402,3.99648642539978,48.55094366845825,47.94664463211228,193.4378946712027,175.15896545077948,6.47544875391759e-05,0.0908498615026474,0,0,0
16263,557513.0165935,2010-10-15 01:22:07,3661.852674468675,2,48,0.5501165986061096,3.9984290599823,48.55553028666112,47.94664463211228,193.4562297449405,175.15896545077948,3.237724376958795e-05,0.0908498615026474,0,0,0
16264,557543.0317692233,2010-10-15 01:22:37,3691.86785013688,2,48,0.5501165986061096,4.000695705413818,48.56011690163049,47.94664463211228,193.4745742177618,175.15896545077948,9.71794142969884e-05,0.0908498615026474,0,0,0
16265,557573.0469514629,2010-10-15 01:23:07,3721.883032401524,2,48,0.550297200679779,4.002638339996338,48.56470351517225,47.94664463211228,193.49292837263872,175.15896545077948,3.24249267578125e-05,0.0908498615026474,0,0,0
16266,557603.0621601134,2010-10-15 01:23:37,3751.8982410469166,2,48,0.5501165986061096,4.004904747009277,48.56929012599136,47.94664463211228,193.5112922753856,175.15896545077948,6.47544875391759e-05,0.0908498615026474,0,0,0
16267,557633.0773375611,2010-10-15 01:24:07,3781.913418504581,2,48,0.5501165986061096,4.007009029388428,48.57387682714298,47.94664463211228,193.52966640332264,175.15896545077948,6.47544875391759e-05,0.0908498615026474,0,0,0
16268,557663.0926374688,2010-10-15 01:24:37,3811.9287183923775,2,48,0.5501165986061096,4.008951663970947,48.57846339868189,47.94664463211228,193.5480499010076,175.15896545077948,0.0,0.0908498615026474,0,0,0
16269,557693.107715213,2010-10-15 01:25:07,3841.943796121488,2,48,0.5501165986061096,4.011380195617676,48.58304998484291,47.94664463211228,193.56644346356683,175.15896545077948,6.47544875391759e-05,0.0908498615026474,0,0,0
16270,557723.122895648,2010-10-15 01:25:37,3871.9589765916594,2,48,0.5499359965324402,4.013484477996826,48.58763656202039,47.94664463211228,193.5848471060052,175.15896545077948,0.0,0.0908498615026474,0,0,0
16271,557753.138208824,2010-10-15 01:26:07,3901.9742897375,2,48,0.5501165986061096,4.015750885009766,48.592223238509824,47.94664463211228,193.60326126291312,175.15896545077948,3.23295607813634e-05,0.0908498615026474,0,0,0
16272,557783.1532587138,2010-10-15 01:26:37,3931.989339627225,2,48,0.5501165986061096,4.018017292022705,48.59680989624864,47.94664463211228,193.62168558048927,175.15896545077948,3.23295607813634e-05,0.0908498615026474,0,0,0
16273,557813.1684722713,2010-10-15 01:27:07,3962.004553184861,2,48,0.5501165986061096,4.0202836990356445,48.60139652468764,47.94664463211228,193.64012001344844,175.15896545077948,6.47544875391759e-05,0.0908498615026474,0,0,0
16274,557843.1837087411,2010-10-15 01:27:37,3992.019789749837,2,48,0.5501165986061096,4.022550106048584,48.60598315115436,47.94664463211228,193.6585649389528,175.15896545077948,6.47544875391759e-05,0.0908498615026474,0,0,0
16275,557873.20162116,2010-10-15 01:28:07,4022.037702133779,2,48,0.5501165986061096,4.0249786376953125,48.61057012656813,47.94664463211228,193.6770218058823,175.15896545077948,6.47544875391759e-05,0.0908498615026474,0,0,0
16276,557903.2141811993,2010-10-15 01:28:37,4052.0502622482186,2,48,0.5501165986061096,4.027406692504883,48.6151563443756,47.94664463211228,193.69548627926488,175.15896545077948,9.70840483205393e-05,0.0908498615026474,0,0,0
16277,557933.2292030792,2010-10-15 01:29:07,4082.065284012848,2,48,0.5501165986061096,4.029511451721191,48.61974293275884,47.94664463211228,193.7139629612525,175.15896545077948,6.47544875391759e-05,0.0908498615026474,0,0,0
16278,557963.2443285724,2010-10-15 01:29:37,4112.0804094859495,2,48,0.5499359965324402,4.031777858734131,48.62432950130539,47.94664463211228,193.73245030260068,175.15896545077948,0.0,0.0908498615026474,0,0,0
16279,557993.2598285889,2010-10-15 01:30:07,4142.095909602779,2,48,0.5501165986061096,4.034367561340332,48.62891610808518,47.94664463211228,193.7509487378856,175.15896545077948,6.46591215627268e-05,0.0908498615026474,0,0,0
16280,558023.2747779682,2010-10-15 01:30:37,4172.110858901801,2,48,0.5501165986061096,4.0367960929870605,48.63350265549407,47.94664463211228,193.7694580153836,175.15896545077948,6.47544875391759e-05,0.0908498615026474,0,0,0
16281,558053.2901136703,2010-10-15 01:31:07,4202.126194623909,2,48,0.5501165986061096,4.039224147796631,48.638089280451375,47.94664463211228,193.7879787831206,175.15896545077948,3.23295607813634e-05,0.0908498615026474,0,0,0
16282,558083.3051526679,2010-10-15 01:31:37,4232.14123360645,2,48,0.5504778623580933,4.04181432723999,48.64267589760608,47.94664463211228,193.80651064234416,175.15896545077948,6.47544875391759e-05,0.0908498615026474,0,0,0
16283,558113.3204843599,2010-10-15 01:32:07,4262.156565273451,2,48,0.550297200679779,4.044242858886719,48.647262536706045,47.94664463211228,193.825053920322,175.15896545077948,6.47544875391759e-05,0.0908498615026474,0,0,0
16284,558143.3355121496,2010-10-15 01:32:38,4292.171593083146,2,48,0.5499359965324402,4.046509265899658,48.65184916407235,47.94664463211228,193.84360855641367,175.15896545077948,6.47544875391759e-05,0.0908498615026474,0,0,0
16285,558173.3506924242,2010-10-15 01:33:08,4322.18677335783,2,48,0.5499359965324402,4.049261093139648,48.65643577341126,47.94664463211228,193.86217464445875,175.15896545077948,9.70840483205393e-05,0.0908498615026474,0,0,0
16286,558203.3658801524,2010-10-15 01:33:38,4352.201961086092,2,48,0.5501165986061096,4.051851272583008,48.6610224139948,47.94664463211228,193.8807524741691,175.15896545077948,9.70840483205393e-05,0.0908498615026474,0,0,0
16287,558233.3810871538,2010-10-15 01:34:08,4382.217168082374,2,48,0.5501165986061096,4.054279804229736,48.665609006560416,47.94664463211228,193.89934191409017,175.15896545077948,9.71794142969884e-05,0.0908498615026474,0,0,0
16288,558263.3962654736,2010-10-15 01:34:38,4412.232346527499,2,48,0.5501165986061096,4.056869983673096,48.67019561336026,47.94664463211228,193.91794338673265,175.15896545077948,6.47544875391759e-05,0.0908498615026474,0,0,0
16289,558293.411445237,2010-10-15 01:35:08,4442.2475261706095,2,48,0.5501165986061096,4.059460163116455,48.6747822677736,47.94664463211228,193.9365571771435,175.15896545077948,3.24249267578125e-05,0.0908498615026474,0,0,0
16290,558323.4267545934,2010-10-15 01:35:38,4472.262835521993,2,48,0.5501165986061096,4.062050342559815,48.67936889147466,47.94664463211228,193.9551827082612,175.15896545077948,6.47544875391759e-05,0.0908498615026474,0,0,0
16291,558353.4420932027,2010-10-15 01:36:08,4502.278174146334,2,48,0.550297200679779,4.064964294433594,48.68395544964473,47.94664463211228,193.9738202004244,175.15896545077948,9.71794142969884e-05,0.0908498615026474,0,0,0
16292,558383.4570076499,2010-10-15 01:36:38,4532.293088583469,2,48,0.5501165986061096,4.067716121673584,48.68854202809597,47.94664463211228,193.99247011863787,175.15896545077948,0.0001295089750783,0.0908498615026474,0,0,0
16293,558413.4723401992,2010-10-15 01:37:08,4562.308421142695,2,48,0.5501165986061096,4.0701446533203125,48.693128681264575,47.94664463211228,194.01113282444297,175.15896545077948,3.24249267578125e-05,0.0908498615026474,0,0,0
16294,558443.4874170811,2010-10-15 01:37:38,4592.32349803973,2,48,0.5501165986061096,4.073058605194092,48.69771529339646,47.94664463211228,194.02980789086715,175.15896545077948,9.71794142969884e-05,0.0908498615026474,0,0,0
16295,558473.5025997517,2010-10-15 01:38:08,4622.338680755498,2,48,0.550297200679779,4.075972557067871,48.70230187338302,47.94664463211228,194.04849551882265,175.15896545077948,0.0001295089750783,0.0908498615026474,0,0,0
16296,558503.5177532596,2010-10-15 01:38:38,4652.353834168235,2,48,0.5501165986061096,4.078562736511231,48.706888440876654,47.94664463211228,194.0671958727332,175.15896545077948,6.47544875391759e-05,0.0908498615026474,0,0,0
16297,558533.5329457549,2010-10-15 01:39:08,4682.369026688439,2,48,0.550297200679779,4.081314563751221,48.71147507825566,47.94664463211228,194.0859094655656,175.15896545077948,6.47544875391759e-05,0.0908498615026474,0,0,0
16298,558563.5481309517,2010-10-15 01:39:38,4712.384211860329,2,48,0.5501165986061096,4.084228515625,48.7160616609759,47.94664463211228,194.10463580596604,175.15896545077948,6.47544875391759e-05,0.0908498615026474,0,0,0
16299,558593.5633479782,2010-10-15 01:40:08,4742.399428891623,2,48,0.5501165986061096,4.087142467498779,48.72064823750498,47.94664463211228,194.12337534735707,175.15896545077948,6.47544875391759e-05,0.0908498615026474,0,0,0
16300,558623.5786512493,2010-10-15 01:40:38,4772.414732192927,2,48,0.5499359965324402,4.089894771575928,48.72523489164354,47.94664463211228,194.14212850501468,175.15896545077948,3.24249267578125e-05,0.0908498615026474,0,0,0
16301,558653.5937176752,2010-10-15 01:41:08,4802.429798603828,2,48,0.5499359965324402,4.092970371246338,48.72982148199598,47.94664463211228,194.1608947316936,175.15896545077948,9.70840483205393e-05,0.0908498615026474,0,0,0
16302,558683.6088959349,2010-10-15 01:41:38,4832.444976848454,2,48,0.5501165986061096,4.095884323120117,48.73440808095203,47.94664463211228,194.17967448508148,175.15896545077948,6.47544875391759e-05,0.0908498615026474,0,0,0
16303,558713.6240935478,2010-10-15 01:42:08,4862.460174486413,2,48,0.5501165986061096,4.0989603996276855,48.73899469981493,47.94664463211228,194.1984679954417,175.15896545077948,6.47544875391759e-05,0.0908498615026474,0,0,0
16304,558743.6393205138,2010-10-15 01:42:38,4892.475401457478,2,48,0.550297200679779,4.102035999298096,48.74358129478284,47.94664463211228,194.21727516273668,175.15896545077948,6.47544875391759e-05,0.0908498615026474,0,0,0
16305,558773.6544427539,2010-10-15 01:43:08,4922.490523692511,2,48,0.5501165986061096,4.104949951171875,48.74816792039806,47.94664463211228,194.2360962435758,175.15896545077948,3.23295607813634e-05,0.0908498615026474,0,0,0
16306,558803.669651249,2010-10-15 01:43:38,4952.505732162466,2,48,0.5499359965324402,4.107863903045654,48.75275447617141,47.94664463211228,194.25493109475045,175.15896545077948,6.47544875391759e-05,0.0908498615026474,0,0,0
16307,558833.6848219697,2010-10-15 01:44:08,4982.520902908403,2,48,0.5499359965324402,4.1111016273498535,48.75734107430264,47.94664463211228,194.27378031894904,175.15896545077948,6.47544875391759e-05,0.0908498615026474,0,0,0
16308,558863.7001407947,2010-10-15 01:44:38,5012.536221748435,2,48,0.5501165986061096,4.114177703857422,48.76192769940457,47.94664463211228,194.29264391377504,175.15896545077948,6.47544875391759e-05,0.0908498615026474,0,0,0
16309,558893.7152090704,2010-10-15 01:45:08,5042.551290008945,2,48,0.5501165986061096,4.117577075958252,48.766514332050015,47.94664463211228,194.3115219243641,175.15896545077948,0.0001295089750783,0.0908498615026474,0,0,0
16310,558923.7303804228,2010-10-15 01:45:38,5072.566461356381,2,48,0.550297200679779,4.120652675628662,48.77110092173065,47.94664463211228,194.33041422503828,175.15896545077948,9.70840483205393e-05,0.0908498615026474,0,0,0
16311,558953.7456988166,2010-10-15 01:46:08,5102.581779835513,2,48,0.550297200679779,4.123890399932861,48.77568756923496,47.94664463211228,194.34932134296864,175.15896545077948,0.0001295089750783,0.0908498615026474,0,0,0
16312,558983.7607490573,2010-10-15 01:46:38,5132.596830086138,2,48,0.5501165986061096,4.1271281242370605,48.78027412777557,47.94664463211228,194.36824275156167,175.15896545077948,9.70840483205393e-05,0.0908498615026474,0,0,0
16313,559013.775933793,2010-10-15 01:47:08,5162.612014736729,2,48,0.5497553944587708,4.130204200744629,48.78486072253859,47.94664463211228,194.3871791030419,175.15896545077948,6.47544875391759e-05,0.0908498615026474,0,0,0
16314,559043.7911244186,2010-10-15 01:47:38,5192.627205357197,2,48,0.5499359965324402,4.133603572845459,48.789447326367295,47.94664463211228,194.40613044336263,175.15896545077948,9.70840483205393e-05,0.0908498615026474,0,0,0
16315,559073.8063476452,2010-10-15 01:48:08,5222.642428608995,2,48,0.5499359965324402,4.137003421783447,48.79403392488776,47.94664463211228,194.42509684387625,175.15896545077948,9.71794142969884e-05,0.0908498615026474,0,0,0
16316,559103.8215200504,2010-10-15 01:48:38,5252.657600983991,2,48,0.5501165986061096,4.140241146087647,48.79862058786637,47.94664463211228,194.4440787859996,175.15896545077948,0.0001295089750783,0.0908498615026474,0,0,0
16317,559133.8366848766,2010-10-15 01:49:08,5282.672765815186,2,48,0.5501165986061096,4.143478870391846,48.80320715378589,47.94664463211228,194.46307575912977,175.15896545077948,6.47544875391759e-05,0.0908498615026474,0,0,0
16318,559163.8518653668,2010-10-15 01:49:38,5312.687946275332,2,48,0.5501165986061096,4.146878242492676,48.807793754587216,47.94664463211228,194.48208849039324,175.15896545077948,6.47544875391759e-05,0.0908498615026474,0,0,0
16319,559193.8670702478,2010-10-15 01:50:08,5342.703151191431,2,48,0.5501165986061096,4.150278091430664,48.81238035729268,47.94664463211228,194.50111693543928,175.15896545077948,3.24249267578125e-05,0.0908498615026474,0,0,0
16320,559223.8825225956,2010-10-15 01:50:38,5372.718603554244,2,48,0.5501165986061096,4.153839588165283,48.81696697769448,47.94664463211228,194.52016110051463,175.15896545077948,9.71794142969884e-05,0.0908498615026474,0,0,0
16321,559253.8975649466,2010-10-15 01:51:08,5402.733645870091,2,48,0.5499359965324402,4.157238960266113,48.8215535986028,47.94664463211228,194.5392209831614,175.15896545077948,9.70840483205393e-05,0.0908498615026474,0,0,0
16322,559283.9127795969,2010-10-15 01:51:38,5432.748860510425,2,48,0.5499359965324402,4.160800457000732,48.82614021520048,47.94664463211228,194.5582967914485,175.15896545077948,9.70840483205393e-05,0.0908498615026474,0,0,0
16323,559313.9280139513,2010-10-15 01:52:08,5462.764094869906,2,48,0.5501165986061096,4.164200305938721,48.83072679332577,47.94664463211228,194.5773884948929,175.15896545077948,6.47544875391759e-05,0.0908498615026474,0,0,0
16324,559343.9429956061,2010-10-15 01:52:38,5492.779076629831,2,48,0.5501165986061096,4.16776180267334,48.83531337663495,47.94664463211228,194.596496271258,175.15896545077948,9.71794142969884e-05,0.0908498615026474,0,0,0
16325,559373.958186427,2010-10-15 01:53:08,5522.794267340526,2,48,0.5501165986061096,4.171323299407959,48.839899919122765,47.94664463211228,194.6156202292308,175.15896545077948,0.0001295089750783,0.0908498615026474,0,0,0
16326,559403.973497247,2010-10-15 01:53:38,5552.809578200669,2,48,0.5499359965324402,4.174884796142578,48.84448655230934,47.94664463211228,194.63476097313105,175.15896545077948,6.47544875391759e-05,0.0908498615026474,0,0,0
16327,559433.9885767756,2010-10-15 01:54:08,5582.824657709214,2,48,0.5501165986061096,4.178607940673828,48.84907314340107,47.94664463211228,194.653917999806,175.15896545077948,9.70840483205393e-05,0.0908498615026474,0,0,0
16328,559464.0037499877,2010-10-15 01:54:38,5612.839830891221,2,48,0.5501165986061096,4.182169437408447,48.85365978010734,47.94664463211228,194.67309183927927,175.15896545077948,6.47544875391759e-05,0.0908498615026474,0,0,0
16329,559494.0189515303,2010-10-15 01:55:08,5642.855032469,2,48,0.550297200679779,4.185730934143066,48.85824638905622,47.94664463211228,194.69228220542828,175.15896545077948,0.0001295089750783,0.0908498615026474,0,0,0
16330,559524.0341219405,2010-10-15 01:55:38,5672.870202849024,2,48,0.5501165986061096,4.189454555511475,48.86283293135778,47.94664463211228,194.711489081696,175.15896545077948,0.0001295089750783,0.0908498615026474,0,0,0
16331,559554.0493206211,2010-10-15 01:56:08,5702.885401534593,2,48,0.550297200679779,4.193339824676514,48.86741949139035,47.94664463211228,194.73071289198276,175.15896545077948,0.0001295089750783,0.0908498615026474,0,0,0
16332,559584.0646209951,2010-10-15 01:56:38,5732.900701923641,2,48,0.5501165986061096,4.196900844573975,48.87200612817848,47.94664463211228,194.7499541010928,175.15896545077948,0.0001295089750783,0.0908498615026474,0,0,0
16333,559607.9704011448,2010-10-15 01:57:02,5756.806482053349,2,48,0.550297200679779,4.200138568878174,48.87565913702985,47.94664463211228,194.76529094410907,175.15896545077948,0.0001618385285837,0.0908498615026474,0,0,0
16334,559637.9694621932,2010-10-15 01:57:32,30.01519374325241,3,48,0.0,4.117091178894043,48.87565913702985,47.94664463211228,194.76529094410907,175.15896545077948,-0.0003561973571777,0.0908498615026474,0,0,0
16335,559667.9849641748,2010-10-15 01:58:02,60.03069576482926,3,48,0.0,4.106568813323975,48.87565913702985,47.94664463211228,194.76529094410907,175.15896545077948,-0.0002266883820993,0.0908498615026474,0,0,0
16336,559697.9999483057,2010-10-15 01:58:32,90.04567986558808,3,48,0.0,4.100579261779785,48.87565913702985,47.94664463211228,194.76529094410907,175.15896545077948,-0.0001618385285837,0.0908498615026474,0,0,0
16337,559727.9681486869,2010-10-15 01:59:02,120.01388023188562,3,48,0.0,4.096693992614746,48.87565913702985,47.94664463211228,194.76529094410907,175.15896545077948,-6.47544875391759e-05,0.0908498615026474,0,0,0
16338,559727.9693964409,2010-10-15 01:59:02,0.01564435053518,4,48,0.9947766661643982,4.199653148651123,48.87566347568448,47.94664463211228,194.7653091649537,175.15896545077948,0.0,0.0908498615026474,0,0,0
16339,559729.0006094911,2010-10-15 01:59:04,1.04685741077763,4,48,0.9445672631263732,4.199653148651123,48.87593978044439,47.94664463211228,194.7664695536255,175.15896545077948,0.0,0.0908498615026474,0,0,0
16340,559731.1412154848,2010-10-15 01:59:06,3.187463429624603,4,48,0.8945385217666626,4.199653148651123,48.87648538734205,47.94664463211228,194.76876091901195,175.15896545077948,0.0,0.0908498615026474,0,0,0
16341,559734.3442807391,2010-10-15 01:59:09,6.390528683796538,4,48,0.8445097208023071,4.199491024017334,48.8772578833923,47.94664463211228,194.7720051548504,175.15896545077948,-3.24249267578125e-05,0.0908498615026474,0,0,0
16342,559738.6879639942,2010-10-15 01:59:13,10.73421190891144,4,48,0.7941197752952576,4.199653148651123,48.87824550711531,47.94664463211228,194.77615286999645,175.15896545077948,0.0,0.0908498615026474,0,0,0
16343,559744.3910441197,2010-10-15 01:59:19,16.437292179740275,4,48,0.7440909743309021,4.199814796447754,48.87946282725667,47.94664463211228,194.78126525419503,175.15896545077948,3.23295607813634e-05,0.0908498615026474,0,0,0
16344,559751.7502818445,2010-10-15 01:59:26,23.796529784231467,4,48,0.6940622329711914,4.199814796447754,48.88093069104649,47.94664463211228,194.78742986073416,175.15896545077948,3.23295607813634e-05,0.0908498615026474,0,0,0
16345,559761.4845199662,2010-10-15 01:59:36,33.53076791079305,4,48,0.6438528299331665,4.199653148651123,48.88273617319603,47.94664463211228,194.79501235873096,175.15896545077948,-3.23295607813634e-05,0.0908498615026474,0,0,0
16346,559774.8906228595,2010-10-15 01:59:49,46.93687082922052,4,48,0.5936434268951416,4.199653148651123,48.885035713251085,47.94664463211228,194.8046697534744,175.15896545077948,0.0,0.0908498615026474,0,0,0
16347,559795.265261874,2010-10-15 02:00:10,67.31150981368951,4,48,0.5436146855354309,4.199653148651123,48.8882444987527,47.94664463211228,194.81814574114708,175.15896545077948,-3.23295607813634e-05,0.0908498615026474,0,0,0
16348,559829.2179034487,2010-10-15 02:00:44,101.2641513684105,4,48,0.4935859143733978,4.199653148651123,48.89311440254414,47.94664463211228,194.8385979150508,175.15896545077948,0.0,0.0908498615026474,0,0,0
16349,559889.8890202799,2010-10-15 02:01:44,161.93526820460224,4,48,0.4433765411376953,4.199653148651123,48.90097570063433,47.94664463211228,194.871613119606,175.15896545077948,-3.23295607813634e-05,0.0908498615026474,0,0,0
16350,559984.075156171,2010-10-15 02:03:19,256.1214041206546,4,48,0.3933477699756622,4.199653148651123,48.9118951004265,47.94664463211228,194.9174714384988,175.15896545077948,0.0,0.0908498615026474,0,0,0
16351,560104.2295474746,2010-10-15 02:05:19,376.2757953942904,4,48,0.3433189988136291,4.199653148651123,48.924170237203526,47.94664463211228,194.9690233986576,175.15896545077948,0.0,0.0908498615026474,0,0,0
16352,560247.4305756236,2010-10-15 02:07:42,519.4768235382801,4,48,0.293290227651596,4.199653148651123,48.93680965215573,47.94664463211228,195.02210521345864,175.15896545077948,0.0,0.0908498615026474,0,0,0
16353,560419.209436911,2010-10-15 02:10:34,691.2556848607298,4,48,0.243261456489563,4.199653148651123,48.94958545160682,47.94664463211228,195.07575978232435,175.15896545077948,-3.23295607813634e-05,0.0908498615026474,0,0,0
16354,560631.2687234721,2010-10-15 02:14:06,903.3149713917765,4,48,0.1932326853275299,4.199653148651123,48.96241574220375,47.94664463211228,195.12964356501428,175.15896545077948,0.0,0.0908498615026474,0,0,0
16355,560913.7021019489,2010-10-15 02:18:48,1185.7483499286684,4,48,0.1432039141654968,4.199814796447754,48.975531454589024,47.94664463211228,195.18472565385764,175.15896545077948,0.0,0.0908498615026474,0,0,0
16356,561332.6178671779,2010-10-15 02:25:47,1604.6641150926157,4,48,0.0928139239549636,4.199653148651123,48.98908943223691,47.94664463211228,195.241665192855,175.15896545077948,-3.23295607813634e-05,0.0908498615026474,0,0,0
16357,561992.123993615,2010-10-15 02:36:47,2264.170241564746,4,48,0.0498289167881011,4.199653148651123,49.001807681159626,47.94664463211228,195.29507814312572,175.15896545077948,0.0,0.0908498615026474,0,0,0
16358,562022.1576378039,2010-10-15 02:37:17,30.01514917718005,5,48,0.0,4.191882610321045,49.001807681159626,47.94664463211228,195.29507814312572,175.15896545077948,-3.24249267578125e-05,0.0908498615026474,0,0,0
16359,562052.1572080586,2010-10-15 02:37:47,60.01471943189179,5,48,0.0,4.190911293029785,49.001807681159626,47.94664463211228,195.29507814312572,175.15896545077948,-3.24249267578125e-05,0.0908498615026474,0,0,0
16360,562052.3643002048,2010-10-15 02:37:47,0.187694367114963,6,48,-1.9243103452026844e-05,4.190911293029785,49.001807681159626,47.946644633115554,195.29507814312572,175.15896545498413,0.0,0.0931989923119545,0,0,0
16361,562057.1921433855,2010-10-15 02:37:52,5.015537472624079,6,48,0.0003419754502829,4.190587520599365,49.00180866701649,47.9466446331975,195.2950822747555,175.15896545532758,-6.47544875391759e-05,0.0931989923119545,0,0,0
16362,562087.1955335496,2010-10-15 02:38:22,30.01530492033993,7,48,-1.099568486213684,4.018988609313965,49.00180866701649,47.95581287052861,195.2950822747555,175.1960050512582,-0.0008418083307333,0.0931989923119545,0,0,0
16363,562117.2105907376,2010-10-15 02:38:52,60.030362093216944,7,48,-1.0997490882873535,3.9927632808685294,49.00180866701649,47.96498098156005,195.2950822747555,175.23272177808514,-0.0005827426793985,0.0931989923119545,0,0,0
16364,562147.2260385441,2010-10-15 02:39:22,90.04580990969802,7,48,-1.099568486213684,3.974632024765015,49.00180866701649,47.97414914497912,195.2950822747555,175.2692407029957,-0.0004532813909463,0.0931989923119545,0,0,0
16365,562177.2409611514,2010-10-15 02:39:52,120.06073247208428,7,48,-1.099568486213684,3.960709810256958,49.00180866701649,47.98331711679692,195.2950822747555,175.3056139366592,-0.0003237724304199,0.0931989923119545,0,0,0
16366,562207.2561523584,2010-10-15 02:40:22,150.0759237191153,7,48,-1.099568486213684,3.949054002761841,49.00180866701649,47.99248517951236,195.2950822747555,175.3418706106521,-0.0002913951757363,0.0931989923119545,0,0,0
16367,562237.2715486315,2010-10-15 02:40:52,180.09132009238408,7,48,-1.099568486213684,3.938531398773194,49.00180866701649,48.00165337398649,195.2950822747555,175.37802697676926,-0.0002590179501567,0.0931989923119545,0,0,0
16368,562267.2865331082,2010-10-15 02:41:22,210.10630443875507,7,48,-1.0993878841400146,3.9289801120758057,49.00180866701649,48.01082141521467,195.2950822747555,175.4140910406051,-0.0001942634553415,0.0931989923119545,0,0,0
16369,562297.3017396634,2010-10-15 02:41:52,240.12151098892625,7,48,-1.0993878841400146,3.919914484024048,49.00180866701649,48.01998949238919,195.2950822747555,175.45006969876908,-0.0002266406954731,0.0931989923119545,0,0,0
16370,562327.3169069907,2010-10-15 02:42:22,270.1366783213548,7,48,-1.099568486213684,3.911010980606079,49.00180866701649,48.02915759156949,195.2950822747555,175.48596674162354,-0.0002590179501567,0.0931989923119545,0,0,0
16371,562357.3320881426,2010-10-15 02:42:52,300.1518594732256,7,48,-1.099929690361023,3.902269124984741,49.00180866701649,48.038325787559685,195.2950822747555,175.5217846875131,-0.0002913951757363,0.0931989923119545,0,0,0
16372,562387.3472784974,2010-10-15 02:43:22,330.1670498581079,7,48,-1.0997490882873535,3.894174814224243,49.00180866701649,48.047494745612646,195.2950822747555,175.55752806270374,-0.0001942634553415,0.0931989923119545,0,0,0
16373,562417.3624688223,2010-10-15 02:43:52,360.18224017782785,7,48,-1.099929690361023,3.885918617248535,49.00180866701649,48.056663598034646,195.2950822747555,175.59319626745452,-0.0002590179501567,0.0931989923119545,0,0,0
16374,562447.37766236,2010-10-15 02:44:22,390.1974337105556,7,48,-1.0997490882873535,3.877986192703247,49.00180866701649,48.0658325070089,195.2950822747555,175.62879077042842,-0.0002266406954731,0.0931989923119545,0,0,0
16375,562477.3928445142,2010-10-15 02:44:52,420.21261584487496,7,48,-1.099568486213684,3.870053768157959,49.00180866701649,48.07500134530841,195.2950822747555,175.6643114382541,-0.0002266406954731,0.0931989923119545,0,0,0
16376,562507.4080564379,2010-10-15 02:45:22,450.2278277935007,7,48,-1.099568486213684,3.862445116043091,49.00180866701649,48.08416951227593,195.2950822747555,175.69975765089492,-0.0001618862152099,0.0931989923119545,0,0,0
16377,562537.4232321462,2010-10-15 02:45:52,480.243003496792,7,48,-1.099568486213684,3.854836463928223,49.00180866701649,48.093337599712406,195.2950822747555,175.73513327346424,-0.0001618862152099,0.0931989923119545,0,0,0
16378,562567.4384212579,2010-10-15 02:46:22,510.2581925884512,7,48,-1.0997490882873535,3.8472278118133545,49.00180866701649,48.10250573312892,195.2950822747555,175.77043946303937,-0.0001942634553415,0.0931989923119545,0,0,0
16379,562597.453739311,2010-10-15 02:46:52,540.2735106565593,7,48,-1.0997490882873535,3.839781045913696,49.00180866701649,48.11167394875235,195.2950822747555,175.805677379108,-0.0001942634553415,0.0931989923119545,0,0,0
16380,562627.4689252698,2010-10-15 02:47:22,570.2886966605232,7,48,-1.0997490882873535,3.832496404647827,49.00180866701649,48.1208421456305,195.2950822747555,175.8408478268859,-0.0002265930233988,0.0931989923119545,0,0,0
16381,562657.4843502394,2010-10-15 02:47:52,600.3041216150251,7,48,-1.0997490882873535,3.825373411178589,49.00180866701649,48.130010439245,195.2950822747555,175.87595253944545,-0.0001942634553415,0.0931989923119545,0,0,0
16382,562687.4991884866,2010-10-15 02:48:22,630.3189598422222,7,48,-1.0997490882873535,3.8180885314941406,49.00180866701649,48.139178598456425,195.2950822747555,175.91099105954402,-0.0001942634553415,0.0931989923119545,0,0,0
16383,562717.5153249044,2010-10-15 02:48:52,660.3350963501342,7,48,-1.0997490882873535,3.811289310455322,49.00180866701649,48.14834708547589,195.2950822747555,175.9459659404314,-0.0001618862152099,0.0931989923119545,0,0,0
16384,562747.5296018627,2010-10-15 02:49:22,690.3493732232641,7,48,-1.0993878841400146,3.804490089416504,49.00180866701649,48.15751497718987,195.2950822747555,175.9808751062744,-0.0001295089750783,0.0931989923119545,0,0,0
16385,562777.544753516,2010-10-15 02:49:52,720.3645248365157,7,48,-1.099568486213684,3.7976908683776855,49.00180866701649,48.1666830770064,195.2950822747555,176.0157231645627,-0.0001942634553415,0.0931989923119545,0,0,0
16386,562807.5599516301,2010-10-15 02:50:22,750.3797229556742,7,48,-1.099568486213684,3.791053533554077,49.00180866701649,48.17585129615198,195.2950822747555,176.05051107701135,-0.0001942634553415,0.0931989923119545,0,0,0
16387,562837.5752848409,2010-10-15 02:50:52,780.3950561965978,7,48,-1.0997490882873535,3.784578084945679,49.00180866701649,48.185019583803374,195.2950822747555,176.08524038469565,-0.0001942634553415,0.0931989923119545,0,0,0
16388,562867.5903502594,2010-10-15 02:51:22,810.41012170525,7,48,-1.099568486213684,3.77858829498291,49.00180866701649,48.19418772703988,195.2950822747555,176.1199108553053,-0.0001618862152099,0.0931989923119545,0,0,0
16389,562897.6055122635,2010-10-15 02:51:52,840.4252835941113,7,48,-1.099568486213684,3.7722747325897217,49.00180866701649,48.20335599459353,195.2950822747555,176.15452431250233,-0.0001618862152099,0.0931989923119545,0,0,0
16390,562927.6207694248,2010-10-15 02:52:22,870.4405408105586,7,48,-1.0997490882873535,3.766123056411743,49.00180866701649,48.21252424585219,195.2950822747555,176.18908133423926,-0.0001942634553415,0.0931989923119545,0,0,0
16391,562957.6359035445,2010-10-15 02:52:52,900.4556748650483,7,48,-1.0993878841400146,3.7604570388793945,49.00180866701649,48.22169245363317,195.2950822747555,176.22358358254732,-0.0001295089750783,0.0931989923119545,0,0,0
16392,562987.6510766163,2010-10-15 02:53:23,930.4708479417934,7,48,-1.099568486213684,3.754467248916626,49.00180866701649,48.23086065748128,195.2950822747555,176.25803184956413,-0.0001295089750783,0.0931989923119545,0,0,0
16393,563017.6662880987,2010-10-15 02:53:53,960.4860594593448,7,48,-1.099568486213684,3.748801469802856,49.00180866701649,48.240028912602526,195.2950822747555,176.29242697356585,-0.0001618862152099,0.0931989923119545,0,0,0
16394,563047.681621941,2010-10-15 02:54:23,990.50139330678,7,48,-1.0997490882873535,3.743135452270508,49.00180866701649,48.249197201879376,195.2950822747555,176.32677035814348,-0.0001618862152099,0.0931989923119545,0,0,0
16395,563077.6966580465,2010-10-15 02:54:53,1020.5164294021253,7,48,-1.0997490882873535,3.737469434738159,49.00180866701649,48.25836540402913,195.2950822747555,176.3610627216704,-0.0001942634553415,0.0931989923119545,0,0,0
16396,563107.7118348776,2010-10-15 02:55:23,1050.5316062081647,7,48,-1.099568486213684,3.7321271896362314,49.00180866701649,48.267533646909065,195.2950822747555,176.39530537796762,-0.0001942634553415,0.0931989923119545,0,0,0
16397,563137.7270464452,2010-10-15 02:55:53,1080.5468177908788,7,48,-1.0997490882873535,3.726946830749512,49.00180866701649,48.276701873214925,195.2950822747555,176.42949878969893,-0.0001618862152099,0.0931989923119545,0,0,0
16398,563167.7422826694,2010-10-15 02:56:23,1110.5620541152566,7,48,-1.0993878841400146,3.721928358078003,49.00180866701649,48.2858700717781,195.2950822747555,176.4636443549759,-6.47544875391759e-05,0.0931989923119545,0,0,0
16399,563197.7576118603,2010-10-15 02:56:53,1140.5773831807735,7,48,-1.099568486213684,3.716586112976074,49.00180866701649,48.29503842902084,195.2950822747555,176.49774277630726,-9.713172767078504e-05,0.0931989923119545,0,0,0
16400,563227.7726008432,2010-10-15 02:57:23,1170.5923721687127,7,48,-1.0997490882873535,3.711405754089356,49.00180866701649,48.30420666449128,195.2950822747555,176.53179370292384,-0.0001618862152099,0.0931989923119545,0,0,0
16401,563257.7878263055,2010-10-15 02:57:53,1200.6075976811435,7,48,-1.0997490882873535,3.706387281417847,49.00180866701649,48.31337496958819,195.2950822747555,176.56579884911375,-0.0001618862152099,0.0931989923119545,0,0,0
16402,563287.8029818987,2010-10-15 02:58:23,1230.6227532542644,7,48,-1.0997490882873535,3.701368808746338,49.00180866701649,48.32254317339739,195.2950822747555,176.5997583957579,-0.0001942634553415,0.0931989923119545,0,0,0
16403,563317.8181851305,2010-10-15 02:58:53,1260.637956481153,7,48,-1.0997490882873535,3.696674108505249,49.00180866701649,48.33171141592536,195.2950822747555,176.6336732957367,-0.0001618862152099,0.0931989923119545,0,0,0
16404,563347.8333897208,2010-10-15 02:59:23,1290.653161076452,7,48,-1.099568486213684,3.69197940826416,49.00180866701649,48.34087973901425,195.2950822747555,176.66754430801006,-0.0001295089750783,0.0931989923119545,0,0,0
16405,563377.8485378554,2010-10-15 02:59:53,1320.6683091709338,7,48,-1.0997490882873535,3.6872847080230713,49.00180866701649,48.35004801070349,195.2950822747555,176.7013717938641,-9.713172767078504e-05,0.0931989923119545,0,0,0
16406,563407.8638628909,2010-10-15 03:00:23,1350.6836342214442,7,48,-1.099568486213684,3.6825900077819824,49.00180866701649,48.35921630681122,195.2950822747555,176.73515686181085,-0.0001618862152099,0.0931989923119545,0,0,0
16407,563437.878930169,2010-10-15 03:00:53,1380.698701494494,7,48,-1.099568486213684,3.678057193756104,49.00180866701649,48.36838457691573,195.2950822747555,176.76889924806048,-9.713172767078504e-05,0.0931989923119545,0,0,0
16408,563467.8941488244,2010-10-15 03:01:23,1410.7139201849225,7,48,-1.099568486213684,3.6736862659454346,49.00180866701649,48.3775528289125,195.2950822747555,176.80259998493327,-9.713172767078504e-05,0.0931989923119545,0,0,0
16409,563497.9093049688,2010-10-15 03:01:53,1440.7290762893674,7,48,-1.099568486213684,3.669153690338135,49.00180866701649,48.38672106120953,195.2950822747555,176.8362598184252,-0.0001295089750783,0.0931989923119545,0,0,0
16410,563527.9246142951,2010-10-15 03:02:23,1470.7443856658133,7,48,-1.0993878841400146,3.664944648742676,49.00180866701649,48.39588938417928,195.2950822747555,176.8698795036871,-6.47544875391759e-05,0.0931989923119545,0,0,0
16411,563557.9397046958,2010-10-15 03:02:53,1500.7594760765292,7,48,-1.0997490882873535,3.660411834716797,49.00180866701649,48.405057617029634,195.2950822747555,176.903458874825,-0.0001295089750783,0.0931989923119545,0,0,0
16412,563587.9549907893,2010-10-15 03:03:23,1530.774762144884,7,48,-1.099568486213684,3.656202793121338,49.00180866701649,48.41422591867072,195.2950822747555,176.9369989550917,-9.713172767078504e-05,0.0931989923119545,0,0,0
16413,563617.9700596313,2010-10-15 03:03:53,1560.789831067044,7,48,-1.0997490882873535,3.651993751525879,49.00180866701649,48.42339414311407,195.2950822747555,176.97050015649958,-6.47544875391759e-05,0.0931989923119545,0,0,0
16414,563647.9852581865,2010-10-15 03:04:23,1590.8050295420894,7,48,-1.099568486213684,3.64794659614563,49.00180866701649,48.43256241132795,195.2950822747555,177.00396366885627,-9.713172767078504e-05,0.0931989923119545,0,0,0
16415,563678.0004502354,2010-10-15 03:04:53,1620.8202215810943,7,48,-1.0993878841400146,3.643899440765381,49.00180866701649,48.441730620422646,195.2950822747555,177.03738917961962,-9.713172767078504e-05,0.0931989923119545,0,0,0
16416,563708.0156264951,2010-10-15 03:05:23,1650.8353978257348,7,48,-1.099568486213684,3.639852285385132,49.00180866701649,48.450898849017854,195.2950822747555,177.070778315846,-9.713172767078504e-05,0.0931989923119545,0,0,0
16417,563738.0309911845,2010-10-15 03:05:53,1680.8507625400998,7,48,-1.099568486213684,3.6359670162200928,49.00180866701649,48.460067195430064,195.2950822747555,177.1041319475948,-9.713172767078504e-05,0.0931989923119545,0,0,0
16418,563768.0460271044,2010-10-15 03:06:23,1710.865798460008,7,48,-1.0993878841400146,3.632243633270264,49.00180866701649,48.469235393638215,195.2950822747555,177.13744997924485,-9.713172767078504e-05,0.0931989923119545,0,0,0
16419,563798.0613412828,2010-10-15 03:06:53,1740.881112638422,7,48,-1.099568486213684,3.6285202503204346,49.00180866701649,48.4784037708449,195.2950822747555,177.17073436289272,-6.47544875391759e-05,0.0931989923119545,0,0,0
16420,563828.0763936988,2010-10-15 03:07:23,1770.8961650243684,7,48,-1.099568486213684,3.624958753585816,49.00180866701649,48.48757201474616,195.2950822747555,177.2039849288703,-6.47544875391759e-05,0.0931989923119545,0,0,0
16421,563858.0916027201,2010-10-15 03:07:53,1800.9113740657483,7,48,-1.099568486213684,3.6212353706359854,49.00180866701649,48.49674031187313,195.2950822747555,177.23720299835,-0.0001295089750783,0.0931989923119545,0,0,0
16422,563888.1067680175,2010-10-15 03:08:23,1830.9265393430555,7,48,-1.099568486213684,3.617835760116577,49.00180866701649,48.50590861304309,195.2950822747555,177.27038909431573,-0.0001295089750783,0.0931989923119545,0,0,0
16423,563918.121967104,2010-10-15 03:08:53,1860.941738424612,7,48,-1.099568486213684,3.614436149597168,49.00180866701649,48.515076925922,195.2950822747555,177.30354397219077,-0.0001295089750783,0.0931989923119545,0,0,0
16424,563948.1372694179,2010-10-15 03:09:23,1890.9570407484807,7,48,-1.099568486213684,3.6113603115081783,49.00180866701649,48.52424525223761,195.2950822747555,177.33666864046444,-6.47544875391759e-05,0.0931989923119545,0,0,0
16425,563978.1523552673,2010-10-15 03:09:53,1920.9721266178783,7,48,-1.099568486213684,3.6079607009887695,49.00180866701649,48.53341350594834,195.2950822747555,177.3697632338321,-9.713172767078504e-05,0.0931989923119545,0,0,0
16426,564008.1675396973,2010-10-15 03:10:23,1950.987311052932,7,48,-1.099568486213684,3.60488486289978,49.00180866701649,48.54258181260134,195.2950822747555,177.40282865696855,-6.47544875391759e-05,0.0931989923119545,0,0,0
16427,564038.1827710442,2010-10-15 03:10:53,1981.0025424049168,7,48,-1.0997490882873535,3.601970911026001,49.00180866701649,48.55175009183573,195.2950822747555,177.43586555737616,-3.237724376958795e-05,0.0931989923119545,0,0,0
16428,564068.1981210369,2010-10-15 03:11:23,2011.0178923775409,7,48,-1.099568486213684,3.598895072937012,49.00180866701649,48.56091843579541,195.2950822747555,177.4688747752832,-6.47544875391759e-05,0.0931989923119545,0,0,0
16429,564098.2132441341,2010-10-15 03:11:53,2041.0330154697087,7,48,-1.0997490882873535,3.5958192348480225,49.00180866701649,48.570086733598544,195.2950822747555,177.5018562056673,-9.713172767078504e-05,0.0931989923119545,0,0,0
16430,564128.2284137021,2010-10-15 03:12:23,2071.048185032697,7,48,-1.099568486213684,3.592743396759033,49.00180866701649,48.5792550221292,195.2950822747555,177.5348102742162,-9.713172767078504e-05,0.0931989923119545,0,0,0
16431,564158.243687169,2010-10-15 03:12:53,2101.063458519696,7,48,-1.099568486213684,3.589991569519043,49.00180866701649,48.58842338634127,195.2950822747555,177.56773782583977,-6.47544875391759e-05,0.0931989923119545,0,0,0
16432,564188.2586937158,2010-10-15 03:13:23,2131.078465166646,7,48,-1.0993878841400146,3.587077617645264,49.00180866701649,48.597591703589885,195.2950822747555,177.60063837785984,-6.47544875391759e-05,0.0931989923119545,0,0,0
16433,564218.2738548126,2010-10-15 03:13:53,2161.0936261281963,7,48,-1.099568486213684,3.5840017795562744,49.00180866701649,48.606759975886014,195.2950822747555,177.63351219736285,-9.713172767078504e-05,0.0931989923119545,0,0,0
16434,564248.2890507263,2010-10-15 03:14:23,2191.1088220568954,7,48,-1.099568486213684,3.581249713897705,49.00180866701649,48.61592824553752,195.2950822747555,177.6663596157435,-9.713172767078504e-05,0.0931989923119545,0,0,0
16435,564278.3042488304,2010-10-15 03:14:53,2221.124020145979,7,48,-1.099568486213684,3.578497648239136,49.00180866701649,48.62509652753391,195.2950822747555,177.69918076599623,-6.47544875391759e-05,0.0931989923119545,0,0,0
16436,564308.3195644424,2010-10-15 03:15:23,2251.1393358030787,7,48,-1.0997490882873535,3.5754218101501465,49.00180866701649,48.634264846641855,195.2950822747555,177.73197548565625,-0.0001295089750783,0.0931989923119545,0,0,0
16437,564338.3346461765,2010-10-15 03:15:53,2281.154417532158,7,48,-1.099568486213684,3.572831630706787,49.00180866701649,48.64343309630196,195.2950822747555,177.7647434534977,-3.237724376958795e-05,0.0931989923119545,0,0,0
16438,564368.3499317486,2010-10-15 03:16:23,2311.169703109288,7,48,-1.099568486213684,3.569593906402588,49.00180866701649,48.652601450552766,195.2950822747555,177.7974850421623,-9.713172767078504e-05,0.0931989923119545,0,0,0
16439,564398.3649962248,2010-10-15 03:16:53,2341.1847675452664,7,48,-1.0997490882873535,3.5666799545288086,49.00180866701649,48.66176976180252,195.2950822747555,177.83019942325623,-9.713172767078504e-05,0.0931989923119545,0,0,0
16440,564428.3801683491,2010-10-15 03:17:23,2371.1999396696383,7,48,-1.099568486213684,3.5634422302246094,49.00180866701649,48.67093809186565,195.2950822747555,177.86288640143763,-0.0001295089750783,0.0931989923119545,0,0,0
16441,564458.3953608943,2010-10-15 03:17:53,2401.21513224498,7,48,-1.0997490882873535,3.56085205078125,49.00180866701649,48.68010635482942,195.2950822747555,177.89554623967095,-6.47544875391759e-05,0.0931989923119545,0,0,0
16442,564488.410547585,2010-10-15 03:18:23,2431.230318935655,7,48,-1.1001102924346924,3.5577762126922607,49.00180866701649,48.68927469755253,195.2950822747555,177.92817859953072,-6.47544875391759e-05,0.0931989923119545,0,0,0
16443,564518.4258715628,2010-10-15 03:18:53,2461.245642913492,7,48,-1.0997490882873535,3.554538488388061,49.00180866701649,48.69844303327535,195.2950822747555,177.9607824388334,-9.713172767078504e-05,0.0931989923119545,0,0,0
16444,564548.4409251168,2010-10-15 03:19:23,2491.260696472362,7,48,-1.0997490882873535,3.5511388778686523,49.00180866701649,48.7076112237125,195.2950822747555,177.99335705559093,-0.0001295089750783,0.0931989923119545,0,0,0
16445,564578.4562019871,2010-10-15 03:19:53,2521.2759733177304,7,48,-1.099568486213684,3.548063039779663,49.00180866701649,48.71677960057244,195.2950822747555,178.0259026953729,-9.713172767078504e-05,0.0931989923119545,0,0,0
16446,564608.4713336106,2010-10-15 03:20:23,2551.2911049612107,7,48,-1.0997490882873535,3.544825315475464,49.00180866701649,48.72594792174637,195.2950822747555,178.05841786713194,-6.47544875391759e-05,0.0931989923119545,0,0,0
16447,564638.4892733928,2010-10-15 03:20:53,2581.3090447735126,7,48,-1.0997490882873535,3.5414257049560547,49.00180866701649,48.73511705956028,195.2950822747555,178.09090469489252,-6.47544875391759e-05,0.0931989923119545,0,0,0
16448,564668.5018077831,2010-10-15 03:21:23,2611.321579128752,7,48,-1.099568486213684,3.5378642082214355,49.00180866701649,48.74428456372655,195.2950822747555,178.12335329159862,-6.47544875391759e-05,0.0931989923119545,0,0,0
16449,564698.51686657,2010-10-15 03:21:53,2641.336637930689,7,48,-1.099568486213684,3.5341408252716064,49.00180866701649,48.75345281712393,195.2950822747555,178.15577121271926,-6.47544875391759e-05,0.0931989923119545,0,0,0
16450,564728.5321778161,2010-10-15 03:22:23,2671.35194914672,7,48,-1.0997490882873535,3.5302555561065674,49.00180866701649,48.76262112948423,195.2950822747555,178.18815480493765,-9.713172767078504e-05,0.0931989923119545,0,0,0
16451,564758.5474053937,2010-10-15 03:22:53,2701.367176759385,7,48,-1.0997490882873535,3.5260465145111084,49.00180866701649,48.771789424774624,195.2950822747555,178.2205023069708,-0.0001295089750783,0.0931989923119545,0,0,0
16452,564788.5624368927,2010-10-15 03:23:23,2731.382208223187,7,48,-1.0997490882873535,3.5218374729156494,49.00180866701649,48.78095764191171,195.2950822747555,178.25281180494963,-0.0001295089750783,0.0931989923119545,0,0,0
16453,564818.5776752721,2010-10-15 03:23:53,2761.397446652812,7,48,-1.099568486213684,3.5174665451049805,49.00180866701649,48.79012591207332,195.2950822747555,178.28508198616322,-0.0001295089750783,0.0931989923119545,0,0,0
16454,564848.59282873,2010-10-15 03:24:23,2791.412600080585,7,48,-1.099568486213684,3.5129337310791016,49.00180866701649,48.79929495677624,195.2950822747555,178.31731280244492,-9.713172767078504e-05,0.0931989923119545,0,0,0
16455,564878.6080209896,2010-10-15 03:24:53,2821.4277923702152,7,48,-1.0993878841400146,3.507753610610962,49.00180866701649,48.80846400967461,195.2950822747555,178.34949901520946,-0.0001295089750783,0.0931989923119545,0,0,0
16456,564908.6232199258,2010-10-15 03:25:24,2851.442991251273,7,48,-1.099568486213684,3.502411365509033,49.00180866701649,48.817632404232334,195.2950822747555,178.38163484943283,-9.713172767078504e-05,0.0931989923119545,0,0,0
16457,564938.6384117643,2010-10-15 03:25:54,2881.4581831198525,7,48,-1.0997490882873535,3.4964215755462646,49.00180866701649,48.82680062862427,195.2950822747555,178.4137180537836,-0.0001295089750783,0.0931989923119545,0,0,0
16458,564968.6536052017,2010-10-15 03:26:24,2911.4733765222554,7,48,-1.0997490882873535,3.4896223545074463,49.00180866701649,48.835968940171725,195.2950822747555,178.4457436786807,-0.0001942634553415,0.0931989923119545,0,0,0
16459,564998.6688130702,2010-10-15 03:26:54,2941.488584395725,7,48,-1.0997490882873535,3.482175588607788,49.00180866701649,48.84513719918347,195.2950822747555,178.47770417809704,-0.0001942634553415,0.0931989923119545,0,0,0
16460,565028.6840241015,2010-10-15 03:27:24,2971.503795477189,7,48,-1.0997490882873535,3.47343373298645,49.00180866701649,48.85430548073136,195.2950822747555,178.50959035516294,-0.0002590179501567,0.0931989923119545,0,0,0
16461,565058.6991763313,2010-10-15 03:27:54,3001.5189476869277,7,48,-1.099568486213684,3.4635586738586426,49.00180866701649,48.86347374796378,195.2950822747555,178.54139122729714,-0.0002590179501567,0.0931989923119545,0,0,0
16462,565088.7143631523,2010-10-15 03:28:24,3031.534134507928,7,48,-1.099568486213684,3.4517409801483154,49.00180866701649,48.8726420978617,195.2950822747555,178.5730930702856,-0.0003237724304199,0.0931989923119545,0,0,0
16463,565118.7295341488,2010-10-15 03:28:54,3061.549305504488,7,48,-1.099568486213684,3.437494993209839,49.00180866701649,48.88181037042124,195.2950822747555,178.60467602375965,-0.0003885269106831,0.0931989923119545,0,0,0
16464,565148.7447311552,2010-10-15 03:29:24,3091.564502530923,7,48,-1.0997490882873535,3.4195258617401123,49.00180866701649,48.89097843317188,195.2950822747555,178.63611251065132,-0.0005504131549969,0.0931989923119545,0,0,0
16465,565178.7599219362,2010-10-15 03:29:54,3121.579693261668,7,48,-1.099929690361023,3.396376132965088,49.00180866701649,48.90014640471189,195.2950822747555,178.66736206332897,-0.0007446765666827,0.0931989923119545,0,0,0
16466,565208.7751489022,2010-10-15 03:30:24,3151.594920262809,7,48,-1.0997490882873535,3.364322662353516,49.00180866701649,48.90931477139047,195.2950822747555,178.69836255110295,-0.0009389400365762,0.0931989923119545,0,0,0
16467,565238.7903672317,2010-10-15 03:30:54,3181.6101385773,7,48,-1.099568486213684,3.318832874298096,49.00180866701649,48.91848315028405,195.2950822747555,178.7290114892381,-0.0013922214275225,0.0931989923119545,0,0,0
16468,565268.8055308398,2010-10-15 03:31:24,3211.625302165397,7,48,-1.0997490882873535,3.2527835369110107,49.00180866701649,48.92765145743137,195.2950822747555,178.75915493922565,-0.0020397664047777,0.0931989923119545,0,0,0
16469,565298.8207139516,2010-10-15 03:31:54,3241.6404852871774,7,48,-1.0997490882873535,3.154680728912353,49.00180866701649,48.936819803640745,195.2950822747555,178.78855901641995,-0.0031082152854651,0.0931989923119545,0,0,0
16470,565328.8360318443,2010-10-15 03:32:24,3271.655803199898,7,48,-1.0997490882873535,2.991661787033081,49.00180866701649,48.94598819676661,195.2950822747555,178.81681417555487,-0.0058279037475585,0.0931989923119545,0,0,0
16471,565346.9137871228,2010-10-15 03:32:42,3289.7335584784387,7,48,-1.0997490882873535,2.7914090156555176,49.00180866701649,48.95151016152294,195.2950822747555,178.83284146134702,-0.0112025262787938,0.0931989923119545,0,0,0
16472,565352.8355699076,2010-10-15 03:32:48,3295.655341238163,7,48,-1.099568486213684,2.699620008468628,49.00180866701649,48.95331900490227,195.2950822747555,178.83780880185807,-0.0125623224303126,0.0931989923119545,0,0,0
16473,565412.8550461265,2010-10-15 03:33:48,60.01474676501434,8,48,0.0,3.3241751194000244,49.00180866701649,48.95331900490227,195.2950822747555,178.83780880185807,0.0013598442310467,0.0931989923119545,0,0,0
16474,565413.0481527683,2010-10-15 03:33:48,0.187497020265893,9,48,-1.9243103452026844e-05,3.3243370056152344,49.00180866701649,48.9533190059045,195.2950822747555,178.83780880518984,0.0,0.0907677188515663,0,0,0
16475,565417.8761910351,2010-10-15 03:33:53,5.015535322264721,9,48,0.0007031940040178,3.3324313163757324,49.0018095469484,48.95331900607136,195.29508520399315,178.83780880574452,0.0011332035064697,0.0907677188515663,0,0,0
