Data_Point,Test_Time(s),Date_Time,Step_Time(s),Step_Index,Cycle_Index,Current(A),Voltage(V),Charge_Capacity(Ah),Discharge_Capacity(Ah),Charge_Energy(Wh),Discharge_Energy(Wh),dV/dt(V/s),Internal_Resistance(Ohm),Is_FC_Data,AC_Impedance(Ohm),ACI_Phase_Angle(Deg)
12443,424717.5876148439,2010-10-13 12:28:38,30.01512810466085,1,37,0.0,3.408841371536255,36.96801739834998,36.91368495716268,147.22235947111082,134.95914902942462,0.0007770538213662,0.0915781408548355,0,0,0
12444,424747.60275854747,2010-10-13 12:29:08,60.03027178814892,1,37,0.0,3.43231463432312,36.96801739834998,36.91368495716268,147.22235947111082,134.95914902942462,0.0005503654247149,0.0915781408548355,0,0,0
12445,424777.6180553927,2010-10-13 12:29:38,90.04556863336315,1,37,0.0,3.450122117996216,36.96801739834998,36.91368495716268,147.22235947111082,134.95914902942462,0.0004209041653666,0.0915781408548355,0,0,0
12446,424807.5861787821,2010-10-13 12:30:08,120.0136920228107,1,37,0.0,3.4642062187194824,36.96801739834998,36.91368495716268,147.22235947111082,134.95914902942462,0.0003885269106831,0.0915781408548355,0,0,0
12447,424837.5899552553,2010-10-13 12:30:38,30.01513776373423,2,37,0.550297200679779,3.6170263290405273,36.972603654585214,36.91368495716268,147.2387942570139,134.95914902942462,0.0014893531333655,0.0915781408548355,0,0,0
12448,424867.60510981095,2010-10-13 12:31:08,60.03029231931892,2,37,0.550297200679779,3.6621925830841056,36.977189850596766,36.91368495716268,147.25549225443237,134.95914902942462,0.0010360718006268,0.0915781408548355,0,0,0
12449,424897.62046976347,2010-10-13 12:31:38,90.0456522668034,2,37,0.5499359965324402,3.6940839290618896,36.9817760164826,36.91368495716268,147.27236368707815,134.95914902942462,0.0007770538213662,0.0915781408548355,0,0,0
12450,424927.63552075095,2010-10-13 12:32:08,120.06070325426448,2,37,0.5501165986061096,3.719014406204224,36.98636216862545,36.91368495716268,147.28936484795975,134.95914902942462,0.0005827903514727,0.0915781408548355,0,0,0
12451,424957.6505442799,2010-10-13 12:32:38,150.07572679331565,2,37,0.5499359965324402,3.7392501831054688,36.99094837868843,36.91368495716268,147.3064696313953,134.95914902942462,0.0004209041653666,0.0915781408548355,0,0,0
12452,424987.6657313014,2010-10-13 12:33:08,180.09091390002774,2,37,0.5501165986061096,3.755600452423096,36.995534580406776,36.91368495716268,147.32365803477305,134.95914902942462,0.0003885269106831,0.0915781408548355,0,0,0
12453,425017.6808335216,2010-10-13 12:33:38,210.10601605501404,2,37,0.5499359965324402,3.767418146133423,37.00012071078536,36.91368495716268,147.34091084563755,134.95914902942462,0.0002590179501567,0.0915781408548355,0,0,0
12454,425047.69596889935,2010-10-13 12:34:08,240.12115141776428,2,37,0.5501165986061096,3.774541139602661,37.00470686830763,36.91368495716268,147.35820665053183,134.95914902942462,0.0001295089750783,0.0915781408548355,0,0,0
12455,425077.7111084174,2010-10-13 12:34:38,270.1362909308585,2,37,0.5501165986061096,3.77939772605896,37.00929299218576,36.91368495716268,147.37552860803197,134.95914902942462,0.0001942634553415,0.0915781408548355,0,0,0
12456,425107.7263155591,2010-10-13 12:35:08,300.15149809255377,2,37,0.550297200679779,3.783282995223999,37.01387909731988,36.91368495716268,147.39286959890802,134.95914902942462,0.0001295089750783,0.0915781408548355,0,0,0
12457,425137.7413980952,2010-10-13 12:35:38,330.1665805985687,2,37,0.5501165986061096,3.786682605743408,37.01846517439553,36.91368495716268,147.41022734006052,134.95914902942462,0.0001295089750783,0.0915781408548355,0,0,0
12458,425167.7567500478,2010-10-13 12:36:08,360.1819326513773,2,37,0.5501165986061096,3.7902441024780273,37.023051287633294,36.91368495716268,147.42760163237477,134.95914902942462,9.713172767078504e-05,0.0915781408548355,0,0,0
12459,425197.7719274353,2010-10-13 12:36:38,390.19710994362873,2,37,0.5499359965324402,3.793643712997437,37.02763743484034,36.91368495716268,147.44499230677891,134.95914902942462,6.47544875391759e-05,0.0915781408548355,0,0,0
12460,425227.78685069433,2010-10-13 12:37:08,420.21203320275146,2,37,0.5501165986061096,3.797205209732056,37.03222343089935,36.91368495716268,147.46239842939232,134.95914902942462,9.713172767078504e-05,0.0915781408548355,0,0,0
12461,425257.8019809394,2010-10-13 12:37:38,450.2271634527592,2,37,0.5501165986061096,3.800766706466675,37.03680951630287,36.91368495716268,147.4798206775581,134.95914902942462,0.0001618862152099,0.0915781408548355,0,0,0
12462,425287.81711944495,2010-10-13 12:38:08,480.24230197839233,2,37,0.550297200679779,3.804166316986084,37.04139567847877,36.91368495716268,147.49725866325682,134.95914902942462,0.0001295089750783,0.0915781408548355,0,0,0
12463,425317.8322586623,2010-10-13 12:38:38,510.257441160662,2,37,0.5499359965324402,3.807404041290283,37.04598187507854,36.91368495716268,147.51471197345612,134.95914902942462,0.0001618862152099,0.0915781408548355,0,0,0
12464,425347.8475623597,2010-10-13 12:39:08,540.2727449080786,2,37,0.5499359965324402,3.810479879379273,37.05056809309985,36.91368495716268,147.53218031265249,134.95914902942462,9.713172767078504e-05,0.0915781408548355,0,0,0
12465,425377.8625504453,2010-10-13 12:39:38,570.2877329486566,2,37,0.5499359965324402,3.813717603683472,37.05515429978769,36.91368495716268,147.54966335449132,134.95914902942462,6.47544875391759e-05,0.0915781408548355,0,0,0
12466,425407.8777169808,2010-10-13 12:40:08,600.3028994991363,2,37,0.5499359965324402,3.816793441772461,37.05974038331121,36.91368495716268,147.56716074113726,134.95914902942462,6.47544875391759e-05,0.0915781408548355,0,0,0
12467,425437.8928504287,2010-10-13 12:40:38,630.3180329521268,2,37,0.5501165986061096,3.82003116607666,37.06432648566663,36.91368495716268,147.58467264684683,134.95914902942462,6.47544875391759e-05,0.0915781408548355,0,0,0
12468,425467.9079952952,2010-10-13 12:41:08,660.3331778285882,2,37,0.5501165986061096,3.8232688903808594,37.06891264303517,36.91368495716268,147.60219918977913,134.95914902942462,6.47544875391759e-05,0.0915781408548355,0,0,0
12469,425497.9231255051,2010-10-13 12:41:38,690.348308008421,2,37,0.5501165986061096,3.8263447284698486,37.07349871715681,36.91368495716268,147.6197398034258,134.95914902942462,9.713172767078504e-05,0.0915781408548355,0,0,0
12470,425527.9382659454,2010-10-13 12:42:08,720.3634484839138,2,37,0.5501165986061096,3.829744338989258,37.07808486872904,36.91368495716268,147.63729540337022,134.95914902942462,0.0001618862152099,0.0915781408548355,0,0,0
12471,425557.953428135,2010-10-13 12:42:38,750.3786107386871,2,37,0.5501165986061096,3.832658290863037,37.08267099034477,36.91368495716268,147.65486578452737,134.95914902942462,6.47544875391759e-05,0.0915781408548355,0,0,0
12472,425587.9685682948,2010-10-13 12:43:08,780.3937508282181,2,37,0.5499359965324402,3.836057662963867,37.08725712435832,36.91368495716268,147.67245119566323,134.95914902942462,3.237724376958795e-05,0.0915781408548355,0,0,0
12473,425617.9837145948,2010-10-13 12:43:38,810.4088970981524,2,37,0.5501165986061096,3.839457273483277,37.09184323258577,36.91368495716268,147.6900518429984,134.95914902942462,9.713172767078504e-05,0.0915781408548355,0,0,0
12474,425647.9989616359,2010-10-13 12:44:08,840.4241441693144,2,37,0.5499359965324402,3.842694997787476,37.09642936931786,36.91368495716268,147.70766811704613,134.95914902942462,3.237724376958795e-05,0.0915781408548355,0,0,0
12475,425678.0141108832,2010-10-13 12:44:38,870.4392934016316,2,37,0.5499359965324402,3.846256494522095,37.10101550458286,36.91368495716268,147.72529992999966,134.95914902942462,6.47544875391759e-05,0.0915781408548355,0,0,0
12476,425708.02915437706,2010-10-13 12:45:08,900.4543369104538,2,37,0.5501165986061096,3.849817991256714,37.10560160540536,36.91368495716268,147.74294714895626,134.95914902942462,0.0001295089750783,0.0915781408548355,0,0,0
12477,425738.0443999645,2010-10-13 12:45:38,930.4695824728556,2,37,0.5499359965324402,3.852893829345703,37.11018778568212,36.91368495716268,147.76060995681246,134.95914902942462,3.237724376958795e-05,0.0915781408548355,0,0,0
12478,425768.0594192579,2010-10-13 12:46:08,960.4846017663252,2,37,0.5501165986061096,3.856293439865112,37.11477389041169,36.91368495716268,147.77828736097248,134.95914902942462,9.713172767078504e-05,0.0915781408548355,0,0,0
12479,425798.0745745905,2010-10-13 12:46:38,990.499757093834,2,37,0.5499359965324402,3.8593692779541016,37.11936009832953,36.91368495716268,147.79598004510788,134.95914902942462,9.713172767078504e-05,0.0915781408548355,0,0,0
12480,425828.0898552704,2010-10-13 12:47:08,1020.5150377837842,2,37,0.5501165986061096,3.862607002258301,37.123946273048205,36.91368495716268,147.81368716810965,134.95914902942462,9.713172767078504e-05,0.0915781408548355,0,0,0
12481,425858.1048450704,2010-10-13 12:47:38,1050.5300275787347,2,37,0.5499359965324402,3.86552095413208,37.12853244970084,36.91368495716268,147.831408426056,134.95914902942462,6.47544875391759e-05,0.0915781408548355,0,0,0
12482,425888.12023895246,2010-10-13 12:48:08,1080.5454215610443,2,37,0.5501165986061096,3.868596792221069,37.1331187059344,36.91368495716268,147.84914384879656,134.95914902942462,9.713172767078504e-05,0.0915781408548355,0,0,0
12483,425918.1351325927,2010-10-13 12:48:38,1110.560315091073,2,37,0.5497553944587708,3.871348857879639,37.13770477149469,36.91368495716268,147.86689191489052,134.95914902942462,6.47544875391759e-05,0.0915781408548355,0,0,0
12484,425948.1502944515,2010-10-13 12:49:08,1140.5754769799346,2,37,0.5499359965324402,3.874100923538208,37.14229093651424,36.91368495716268,147.88465334501683,134.95914902942462,3.237724376958795e-05,0.0915781408548355,0,0,0
12485,425978.1654221451,2010-10-13 12:49:38,1170.590604653521,2,37,0.5499359965324402,3.876691102981568,37.14687701095572,36.91368495716268,147.90242664463096,134.95914902942462,3.237724376958795e-05,0.0915781408548355,0,0,0
12486,426008.1805714076,2010-10-13 12:50:08,1200.605753920926,2,37,0.550297200679779,3.879281282424927,37.15146303736976,36.91368495716268,147.92021163610113,134.95914902942462,9.713172767078504e-05,0.0915781408548355,0,0,0
12487,426038.1957488953,2010-10-13 12:50:39,1230.6209314086648,2,37,0.5501165986061096,3.881709575653076,37.15604918744896,36.91368495716268,147.93800827361164,134.95914902942462,9.713172767078504e-05,0.0915781408548355,0,0,0
12488,426068.2122218117,2010-10-13 12:51:09,1260.6374044453098,2,37,0.5499359965324402,3.8838140964508057,37.16063556237755,36.91368495716268,147.95581640246016,134.95914902942462,3.237724376958795e-05,0.0915781408548355,0,0,0
12489,426098.21372429706,2010-10-13 12:51:39,1290.6389069006602,2,37,0.5501165986061096,3.885918617248535,37.16521964198051,36.91368495716268,147.97362543153176,134.95914902942462,3.237724376958795e-05,0.0915781408548355,0,0,0
12490,426128.225598507,2010-10-13 12:52:09,1320.6507810454518,2,37,0.5501165986061096,3.887861251831055,37.169805343208246,36.91368495716268,147.9914499982552,134.95914902942462,3.237724376958795e-05,0.0915781408548355,0,0,0
12491,426158.240932164,2010-10-13 12:52:39,1350.6661148477745,2,37,0.5501165986061096,3.889803886413574,37.17439157807985,36.91368495716268,148.0092852142384,134.95914902942462,6.47544875391759e-05,0.0915781408548355,0,0,0
12492,426188.255871007,2010-10-13 12:53:09,1380.6810535203122,2,37,0.5501165986061096,3.891584634780884,37.17897774801125,36.91368495716268,148.0271281051857,134.95914902942462,9.713172767078504e-05,0.0915781408548355,0,0,0
12493,426218.2710208859,2010-10-13 12:53:39,1410.6962034192911,2,37,0.5501165986061096,3.893041610717773,37.18356392407193,36.91368495716268,148.0449784380159,134.95914902942462,6.47544875391759e-05,0.0915781408548355,0,0,0
12494,426248.286137161,2010-10-13 12:54:09,1440.7113196944692,2,37,0.5501165986061096,3.894336700439453,37.18815014517198,36.91368495716268,148.06283585977067,134.95914902942462,3.237724376958795e-05,0.0915781408548355,0,0,0
12495,426278.30140841246,2010-10-13 12:54:39,1470.726590945896,2,37,0.5499359965324402,3.895631790161133,37.192736467160906,36.91368495716268,148.08069961183253,134.95914902942462,3.237724376958795e-05,0.0915781408548355,0,0,0
12496,426308.3164299214,2010-10-13 12:55:09,1500.7416124298252,2,37,0.5499359965324402,3.896926879882813,37.19732258323544,36.91368495716268,148.0985686632858,134.95914902942462,3.237724376958795e-05,0.0915781408548355,0,0,0
12497,426338.3316132688,2010-10-13 12:55:39,1530.7567957972176,2,37,0.5499359965324402,3.898221969604492,37.20190877860504,36.91368495716268,148.1164437890354,134.95914902942462,3.237724376958795e-05,0.0915781408548355,0,0,0
12498,426368.3467247019,2010-10-13 12:56:09,1560.7719072152904,2,37,0.5499359965324402,3.899517059326172,37.20649495540403,36.91368495716268,148.13432453464708,134.95914902942462,6.47544875391759e-05,0.0915781408548355,0,0,0
12499,426398.3618804956,2010-10-13 12:56:39,1590.787063023998,2,37,0.5499359965324402,3.900488376617432,37.21108121783907,36.91368495716268,148.15221106872178,134.95914902942462,3.237724376958795e-05,0.0915781408548355,0,0,0
12500,426428.3771266295,2010-10-13 12:57:09,1620.8023091377745,2,37,0.5501165986061096,3.901945352554321,37.215667378529226,36.91368495716268,148.17010262543647,134.95914902942462,9.713172767078504e-05,0.0915781408548355,0,0,0
12501,426458.392161602,2010-10-13 12:57:39,1650.817344130371,2,37,0.5501165986061096,3.902916669845581,37.22025353659624,36.91368495716268,148.1879995388967,134.95914902942462,3.237724376958795e-05,0.0915781408548355,0,0,0
12502,426488.4072971451,2010-10-13 12:58:09,1680.832479653521,2,37,0.5499359965324402,3.904049873352051,37.22483966090569,36.91368495716268,148.20590163807668,134.95914902942462,3.237724376958795e-05,0.0915781408548355,0,0,0
12503,426518.42245266313,2010-10-13 12:58:39,1710.8476351915544,2,37,0.5501165986061096,3.9053449630737305,37.229425827837005,36.91368495716268,148.22380926238645,134.95914902942462,3.237724376958795e-05,0.0915781408548355,0,0,0
12504,426548.4376137701,2010-10-13 12:59:09,1740.862796278417,2,37,0.5499359965324402,3.9064781665802,37.234012031310975,36.91368495716268,148.24172225873858,134.95914902942462,3.237724376958795e-05,0.0915781408548355,0,0,0
12505,426578.4527429273,2010-10-13 12:59:39,1770.8779254557514,2,37,0.5499359965324402,3.90761137008667,37.23859823821719,36.91368495716268,148.259640759702,134.95914902942462,3.237724376958795e-05,0.0915781408548355,0,0,0
12506,426608.46789171855,2010-10-13 13:00:09,1800.8930742269192,2,37,0.5501165986061096,3.9089064598083496,37.24318440668004,36.91368495716268,148.27756449701462,134.95914902942462,3.237724376958795e-05,0.0915781408548355,0,0,0
12507,426638.483016114,2010-10-13 13:00:39,1830.908198617323,2,37,0.5499359965324402,3.9100396633148193,37.24777057530057,36.91368495716268,148.29549379592612,134.95914902942462,6.47544875391759e-05,0.0915781408548355,0,0,0
12508,426668.49829103454,2010-10-13 13:01:09,1860.92347354792,2,37,0.5501165986061096,3.911172866821289,37.252356824439566,36.91368495716268,148.3134288464424,134.95914902942462,3.237724376958795e-05,0.0915781408548355,0,0,0
12509,426698.5133173104,2010-10-13 13:01:39,1890.938499828804,2,37,0.5501165986061096,3.9124679565429688,37.25694294117968,36.91368495716268,148.33136900276972,134.95914902942462,3.237724376958795e-05,0.0915781408548355,0,0,0
12510,426728.5284749538,2010-10-13 13:02:09,1920.953657467072,2,37,0.5501165986061096,3.913762807846069,37.26152913801141,36.91368495716268,148.34931506555995,134.95914902942462,3.23295607813634e-05,0.0915781408548355,0,0,0
12511,426758.5437226965,2010-10-13 13:02:39,1950.9689052048952,2,37,0.5501165986061096,3.915057897567749,37.266115294856974,36.91368495716268,148.36726664893558,134.95914902942462,6.47544875391759e-05,0.0915781408548355,0,0,0
12512,426788.55873820046,2010-10-13 13:03:09,1980.9839207139328,2,37,0.5501165986061096,3.916029214859009,37.27070145623564,36.91368495716268,148.3852237875635,134.95914902942462,3.237724376958795e-05,0.0915781408548355,0,0,0
12513,426818.573909563,2010-10-13 13:03:39,2010.9990920914431,2,37,0.5501165986061096,3.9174861907958975,37.27528756194878,36.91368495716268,148.403186462767,134.95914902942462,3.237724376958795e-05,0.0915781408548355,0,0,0
12514,426848.5892028644,2010-10-13 13:04:09,2041.0143853978373,2,37,0.5499359965324402,3.918457508087158,37.27987376911193,36.91368495716268,148.42115525333847,134.95914902942462,3.237724376958795e-05,0.0915781408548355,0,0,0
12515,426878.6043033653,2010-10-13 13:04:39,2071.029485883664,2,37,0.5499359965324402,3.919752597808838,37.28445990577107,36.91368495716268,148.43912950545428,134.95914902942462,3.237724376958795e-05,0.0915781408548355,0,0,0
12516,426908.61932048335,2010-10-13 13:05:09,2101.044503001712,2,37,0.5501165986061096,3.9210476875305176,37.28904606752175,36.91368495716268,148.45710966014448,134.95914902942462,3.237724376958795e-05,0.0915781408548355,0,0,0
12517,426938.6344894248,2010-10-13 13:05:39,2131.059671958188,2,37,0.5501165986061096,3.9225046634674072,37.29363223176936,36.91368495716268,148.47509574956717,134.95914902942462,3.237724376958795e-05,0.0915781408548355,0,0,0
12518,426968.64963359945,2010-10-13 13:06:09,2161.074816127888,2,37,0.5501165986061096,3.923799753189087,37.29821841341791,36.91368495716268,148.49308783898925,134.95914902942462,9.713172767078504e-05,0.0915781408548355,0,0,0
12519,426998.664761263,2010-10-13 13:06:39,2191.089943766387,2,37,0.5499359965324402,3.925256729125977,37.3028045752022,36.91368495716268,148.5110859878948,134.95914902942462,3.237724376958795e-05,0.0915781408548355,0,0,0
12520,427028.679919172,2010-10-13 13:07:09,2221.1051017054046,2,37,0.5499359965324402,3.9263899326324463,37.3073908500884,36.91368495716268,148.52909065453923,134.95914902942462,3.237724376958795e-05,0.0915781408548355,0,0,0
12521,427058.69506526645,2010-10-13 13:07:39,2251.120247794889,2,37,0.5499359965324402,3.927846908569336,37.31197700491758,36.91368495716268,148.54710106786135,134.95914902942462,6.47544875391759e-05,0.0915781408548355,0,0,0
12522,427088.71018689,2010-10-13 13:08:09,2281.135369423409,2,37,0.5499359965324402,3.929141998291016,37.31656316069625,36.91368495716268,148.56511773330283,134.95914902942462,3.237724376958795e-05,0.0915781408548355,0,0,0
12523,427118.7256958338,2010-10-13 13:08:39,2311.150878437413,2,37,0.5499359965324402,3.930598974227905,37.32114937827409,36.91368495716268,148.58314107839132,134.95914902942462,3.237724376958795e-05,0.0915781408548355,0,0,0
12524,427148.7407081749,2010-10-13 13:09:09,2341.165890688331,2,37,0.5499359965324402,3.932055950164795,37.3257355752013,36.91368495716268,148.60117066630158,134.95914902942462,3.237724376958795e-05,0.0915781408548355,0,0,0
12525,427178.7556448375,2010-10-13 13:09:39,2371.180827340834,2,37,0.5499359965324402,3.9333510398864746,37.330321737218725,36.91368495716268,148.61920665415514,134.95914902942462,0.0,0.0915781408548355,0,0,0
12526,427208.77077237074,2010-10-13 13:10:09,2401.1959548790837,2,37,0.5501165986061096,3.934969902038574,37.33490790810625,36.91368495716268,148.6372490800821,134.95914902942462,6.47544875391759e-05,0.0915781408548355,0,0,0
12527,427238.786063196,2010-10-13 13:10:39,2431.211245714319,2,37,0.5501165986061096,3.936264991760254,37.339494125340586,36.91368495716268,148.65529831660183,134.95914902942462,3.237724376958795e-05,0.0915781408548355,0,0,0
12528,427268.8010620585,2010-10-13 13:11:09,2461.226244566843,2,37,0.5499359965324402,3.937721967697144,37.34408031193394,36.91368495716268,148.67335383325164,134.95914902942462,6.47544875391759e-05,0.0915781408548355,0,0,0
12529,427298.8163659664,2010-10-13 13:11:39,2491.2415484796725,2,37,0.5499359965324402,3.9390170574188232,37.34866651475846,36.91368495716268,148.6914162091214,134.95914902942462,3.237724376958795e-05,0.0915781408548355,0,0,0
12530,427328.8313634153,2010-10-13 13:12:09,2521.256545933712,2,37,0.5501165986061096,3.940797805786133,37.3532526821705,36.91368495716268,148.70948512505944,134.95914902942462,6.47544875391759e-05,0.0915781408548355,0,0,0
12531,427358.8465093895,2010-10-13 13:12:39,2551.271691897884,2,37,0.5501165986061096,3.942092895507813,37.35783896055258,36.91368495716268,148.7275611464962,134.95914902942462,3.237724376958795e-05,0.0915781408548355,0,0,0
12532,427388.86177379393,2010-10-13 13:13:09,2581.2869563122704,2,37,0.5501165986061096,3.943549871444702,37.362425233015024,36.91368495716268,148.74564382938902,134.95914902942462,6.47544875391759e-05,0.0915781408548355,0,0,0
12533,427418.87680914736,2010-10-13 13:13:39,2611.3019916607545,2,37,0.5501165986061096,3.945006847381592,37.3670113663184,36.91368495716268,148.76373268342704,134.95914902942462,6.47544875391759e-05,0.0915781408548355,0,0,0
12534,427448.8920925641,2010-10-13 13:14:09,2641.3172750775007,2,37,0.5501165986061096,3.9464638233184814,37.37159760631088,36.91368495716268,148.7818287740548,134.95914902942462,6.47544875391759e-05,0.0915781408548355,0,0,0
12535,427478.9070921385,2010-10-13 13:14:39,2671.3322746418,2,37,0.550297200679779,3.948082685470581,37.37618373057202,36.91368495716268,148.7999311221817,134.95914902942462,6.47544875391759e-05,0.0915781408548355,0,0,0
12536,427508.9224019309,2010-10-13 13:15:09,2701.3475844392947,2,37,0.5501165986061096,3.9493777751922607,37.38076994876248,36.91368495716268,148.818040836006,134.95914902942462,3.237724376958795e-05,0.0915781408548355,0,0,0
12537,427538.93742693367,2010-10-13 13:15:39,2731.3626094921187,2,37,0.5501165986061096,3.95099663734436,37.38535606846101,36.91368495716268,148.83615714483992,134.95914902942462,3.237724376958795e-05,0.0915781408548355,0,0,0
12538,427568.9526569373,2010-10-13 13:16:09,2761.377839470681,2,37,0.5499359965324402,3.95245361328125,37.38994229896775,36.91368495716268,148.8542809458659,134.95914902942462,3.237724376958795e-05,0.0915781408548355,0,0,0
12539,427598.9678017335,2010-10-13 13:16:39,2791.392984261929,2,37,0.550297200679779,3.9540724754333496,37.39452848200286,36.91368495716268,148.8724117336194,134.95914902942462,3.237724376958795e-05,0.0915781408548355,0,0,0
12540,427628.9828280896,2010-10-13 13:17:09,2821.4080106180018,2,37,0.5499359965324402,3.9555294513702393,37.399114696970365,36.91368495716268,148.89054990396104,134.95914902942462,0.0,0.0915781408548355,0,0,0
12541,427658.9979997728,2010-10-13 13:17:39,2851.4231822862366,2,37,0.5499359965324402,3.957310199737549,37.40370090412471,36.91368495716268,148.90869534106164,134.95914902942462,3.237724376958795e-05,0.0915781408548355,0,0,0
12542,427689.0131237373,2010-10-13 13:18:09,2881.4383062405536,2,37,0.5501165986061096,3.958929061889648,37.4082870618232,36.91368495716268,148.92684790888595,134.95914902942462,3.237724376958795e-05,0.0915781408548355,0,0,0
12543,427719.0283897657,2010-10-13 13:18:39,2911.4535722990377,2,37,0.5499359965324402,3.960547924041748,37.41287330099406,36.91368495716268,148.94500823427072,134.95914902942462,3.237724376958795e-05,0.0915781408548355,0,0,0
12544,427749.0434360464,2010-10-13 13:19:09,2941.4686185547057,2,37,0.5501165986061096,3.9623286724090576,37.417459546952784,36.91368495716268,148.9631760597973,134.95914902942462,6.47544875391759e-05,0.0915781408548355,0,0,0
12545,427779.05870068126,2010-10-13 13:19:39,2971.4838832147043,2,37,0.550297200679779,3.963947534561157,37.42204579683295,36.91368495716268,148.9813512970816,134.95914902942462,6.47544875391759e-05,0.0915781408548355,0,0,0
12546,427809.0737113132,2010-10-13 13:20:09,3001.498893816512,2,37,0.5501165986061096,3.965566396713257,37.42663201999704,36.91368495716268,148.99953394339485,134.95914902942462,9.713172767078504e-05,0.0915781408548355,0,0,0
12547,427839.0889830959,2010-10-13 13:20:39,3031.5141657095373,2,37,0.5501165986061096,3.9670233726501465,37.43121827495752,36.91368495716268,149.01772431143962,134.95914902942462,3.237724376958795e-05,0.0915781408548355,0,0,0
12548,427869.1040356974,2010-10-13 13:21:09,3061.5292183260585,2,37,0.5501165986061096,3.968642234802246,37.435804488425084,36.91368495716268,149.03592207172323,134.95914902942462,0.0,0.0915781408548355,0,0,0
12549,427899.11917876935,2010-10-13 13:21:39,3091.5443612727104,2,37,0.5499359965324402,3.970422983169556,37.44039065324168,36.91368495716268,149.05412738907603,134.95914902942462,3.237724376958795e-05,0.0915781408548355,0,0,0
12550,427929.1343165181,2010-10-13 13:22:09,3121.559499121657,2,37,0.5499359965324402,3.972203731536865,37.44497690407861,36.91368495716268,149.07234100194165,134.95914902942462,6.47544875391759e-05,0.0915781408548355,0,0,0
12551,427959.14944652247,2010-10-13 13:22:39,3151.5746290308152,2,37,0.5499359965324402,3.973822593688965,37.44956317167775,36.91368495716268,149.09056248307482,134.95914902942462,3.237724376958795e-05,0.0915781408548355,0,0,0
12552,427989.16471330775,2010-10-13 13:23:10,3181.589895826136,2,37,0.5499359965324402,3.9756033420562735,37.45414948007612,36.91368495716268,149.10879200641193,134.95914902942462,6.47544875391759e-05,0.0915781408548355,0,0,0
12553,428019.182321258,2010-10-13 13:23:40,3211.6075038916224,2,37,0.5501165986061096,3.977384090423584,37.45873611871678,36.91368495716268,149.12703078789494,134.95914902942462,6.47544875391759e-05,0.0915781408548355,0,0,0
12554,428049.1950168701,2010-10-13 13:24:10,3241.620199388476,2,37,0.5499359965324402,3.9791648387908936,37.4633219759482,36.91368495716268,149.1452739853035,134.95914902942462,6.47544875391759e-05,0.0915781408548355,0,0,0
12555,428079.2102430191,2010-10-13 13:24:40,3271.635425622706,2,37,0.5501165986061096,3.981107473373413,37.46790817423328,36.91368495716268,149.16352714799905,134.95914902942462,9.713172767078504e-05,0.0915781408548355,0,0,0
12556,428109.22530437744,2010-10-13 13:25:10,3301.650486885777,2,37,0.5499359965324402,3.982564449310303,37.47249429936467,36.91368495716268,149.18178824139412,134.95914902942462,0.0,0.0915781408548355,0,0,0
12557,428139.24034900905,2010-10-13 13:25:40,3331.665531517397,2,37,0.5501165986061096,3.9845070838928223,37.47708038520467,36.91368495716268,149.20005744910395,134.95914902942462,3.237724376958795e-05,0.0915781408548355,0,0,0
12558,428169.2555984261,2010-10-13 13:26:10,3361.680780944431,2,37,0.5499359965324402,3.986449718475342,37.4816665597336,36.91368495716268,149.2183354742188,134.95914902942462,9.713172767078504e-05,0.0915781408548355,0,0,0
12559,428199.2706139802,2010-10-13 13:26:40,3391.6957964985813,2,37,0.5499359965324402,3.9882304668426514,37.48625268218616,36.91368495716268,149.23662184719024,134.95914902942462,3.237724376958795e-05,0.0915781408548355,0,0,0
12560,428229.2857694079,2010-10-13 13:27:10,3421.7109519163146,2,37,0.5504778623580933,3.990334987640381,37.49083882365496,36.91368495716268,149.25491690510134,134.95914902942462,9.713172767078504e-05,0.0915781408548355,0,0,0
12561,428259.30092950736,2010-10-13 13:27:40,3451.7261120357666,2,37,0.5501165986061096,3.9921157360076895,37.49542492299205,36.91368495716268,149.27322053045833,134.95914902942462,6.47544875391759e-05,0.0915781408548355,0,0,0
12562,428289.31608966686,2010-10-13 13:28:10,3481.741272170255,2,37,0.5501165986061096,3.994058132171631,37.50001115842808,36.91368495716268,149.29153366926045,134.95914902942462,3.23295607813634e-05,0.0915781408548355,0,0,0
12563,428319.33120992704,2010-10-13 13:28:40,3511.756392430365,2,37,0.550297200679779,3.9960007667541504,37.504597268285686,36.91368495716268,149.30985532498875,134.95914902942462,3.237724376958795e-05,0.0915781408548355,0,0,0
12564,428349.3463551243,2010-10-13 13:29:10,3541.7715376326382,2,37,0.5501165986061096,3.99810528755188,37.509183471702464,36.91368495716268,149.32818655373367,134.95914902942462,6.47544875391759e-05,0.0915781408548355,0,0,0
12565,428379.361510958,2010-10-13 13:29:40,3571.7866934664085,2,37,0.5499359965324402,4.0000481605529785,37.51376960090594,36.91368495716268,149.34652652900834,134.95914902942462,6.480216688942164e-05,0.0915781408548355,0,0,0
12566,428409.3766489273,2010-10-13 13:30:10,3601.801831455705,2,37,0.5499359965324402,4.001828670501709,37.51835573875407,36.91368495716268,149.3648758936134,134.95914902942462,0.0,0.0915781408548355,0,0,0
12567,428439.3917949466,2010-10-13 13:30:40,3631.8169774750154,2,37,0.5499359965324402,4.004095077514648,37.52294186132515,36.91368495716268,149.38323453386576,134.95914902942462,3.23295607813634e-05,0.0915781408548355,0,0,0
12568,428469.40694029926,2010-10-13 13:31:10,3661.832122817638,2,37,0.5501165986061096,4.006199836730957,37.52752795332528,36.91368495716268,149.40160260953812,134.95914902942462,6.47544875391759e-05,0.0915781408548355,0,0,0
12569,428499.42212126567,2010-10-13 13:31:40,3691.847303774021,2,37,0.5501165986061096,4.0084662437438965,37.5321140986171,36.91368495716268,149.4199804991496,134.95914902942462,6.47544875391759e-05,0.0915781408548355,0,0,0
12570,428529.43725846295,2010-10-13 13:32:10,3721.862441081618,2,37,0.5501165986061096,4.010570526123047,37.53670022350563,36.91368495716268,149.43836783599494,134.95914902942462,9.70840483205393e-05,0.0915781408548355,0,0,0
12571,428559.45237874816,2010-10-13 13:32:40,3751.8775612815775,2,37,0.5501165986061096,4.012513160705566,37.54128636168098,36.91368495716268,149.45676504434164,134.95914902942462,3.23295607813634e-05,0.0915781408548355,0,0,0
12572,428589.4675231835,2010-10-13 13:33:10,3781.8927056868665,2,37,0.5501165986061096,4.014617919921875,37.545872484726026,36.91368495716268,149.4751720391731,134.95914902942462,3.24249267578125e-05,0.0915781408548355,0,0,0
12573,428619.4827042501,2010-10-13 13:33:40,3811.907886753524,2,37,0.5501165986061096,4.016884326934815,37.55045861254848,36.91368495716268,149.49358904983947,134.95914902942462,3.24249267578125e-05,0.0915781408548355,0,0,0
12574,428649.4979597073,2010-10-13 13:34:10,3841.923142235649,2,37,0.5501165986061096,4.019150733947754,37.55504485406458,36.91368495716268,149.51201663613108,134.95914902942462,6.47544875391759e-05,0.0915781408548355,0,0,0
12575,428679.5129794167,2010-10-13 13:34:40,3871.9381619200926,2,37,0.5501165986061096,4.021255016326904,37.559630969421946,36.91368495716268,149.5304536037239,134.95914902942462,6.47544875391759e-05,0.0915781408548355,0,0,0
12576,428709.52812578686,2010-10-13 13:35:10,3901.9533082952894,2,37,0.5499359965324402,4.023521423339844,37.56421712639701,36.91368495716268,149.54890110009802,134.95914902942462,6.47544875391759e-05,0.0915781408548355,0,0,0
12577,428739.5432751546,2010-10-13 13:35:40,3931.9684576829945,2,37,0.5501165986061096,4.025949954986572,37.56880331800723,36.91368495716268,149.5673590800751,134.95914902942462,9.71794142969884e-05,0.0915781408548355,0,0,0
12578,428769.55855669663,2010-10-13 13:36:10,3961.983739215044,2,37,0.5499359965324402,4.028054237365723,37.57338950299543,36.91368495716268,149.58582749567827,134.95914902942462,6.47544875391759e-05,0.0915781408548355,0,0,0
12579,428799.5736780244,2010-10-13 13:36:40,3991.9988605378016,2,37,0.5501165986061096,4.030320644378662,37.57797570808592,36.91368495716268,149.60430654086815,134.95914902942462,3.23295607813634e-05,0.0915781408548355,0,0,0
12580,428829.5888233721,2010-10-13 13:37:10,4022.0140058904494,2,37,0.5501165986061096,4.032749176025391,37.58256188848407,36.91368495716268,149.62279607997942,134.95914902942462,6.47544875391759e-05,0.0915781408548355,0,0,0
12581,428859.603864149,2010-10-13 13:37:40,4052.029046672476,2,37,0.5501165986061096,4.035015106201172,37.58714802596349,36.91368495716268,149.64129606646924,134.95914902942462,6.47544875391759e-05,0.0915781408548355,0,0,0
12582,428889.6190091559,2010-10-13 13:38:10,4082.0441916742498,2,37,0.5501165986061096,4.0374436378479,37.59173418361531,36.91368495716268,149.6598069009601,134.95914902942462,6.47544875391759e-05,0.0915781408548355,0,0,0
12583,428919.63416493445,2010-10-13 13:38:40,4112.05934744787,2,37,0.5499359965324402,4.03971004486084,37.59632041755729,36.91368495716268,149.6783288469459,134.95914902942462,3.24249267578125e-05,0.0915781408548355,0,0,0
12584,428949.64932262286,2010-10-13 13:39:10,4142.074505131251,2,37,0.5499359965324402,4.042300224304199,37.6009066413079,36.91368495716268,149.69686158227847,134.95914902942462,9.71794142969884e-05,0.0915781408548355,0,0,0
12585,428979.6644507376,2010-10-13 13:39:40,4172.089633245936,2,37,0.5501165986061096,4.044566631317139,37.60549286453706,36.91368495716268,149.71540549024465,134.95914902942462,3.24249267578125e-05,0.0915781408548355,0,0,0
12586,429009.679573554,2010-10-13 13:40:10,4202.104756057405,2,37,0.5499359965324402,4.047156810760498,37.610079072079486,36.91368495716268,149.73396049305617,134.95914902942462,9.71794142969884e-05,0.0915781408548355,0,0,0
12587,429039.6949165092,2010-10-13 13:40:40,4232.120099107777,2,37,0.550297200679779,4.049746990203857,37.61466527623323,36.91368495716268,149.75252675394242,134.95914902942462,6.47544875391759e-05,0.0915781408548355,0,0,0
12588,429069.7101078214,2010-10-13 13:41:10,4262.135290334757,2,37,0.5501165986061096,4.052013397216797,37.61925144445189,36.91368495716268,149.7711042134787,134.95914902942462,9.71794142969884e-05,0.0915781408548355,0,0,0
12589,429099.7250330053,2010-10-13 13:41:40,4292.150215538727,2,37,0.5501165986061096,4.054603576660156,37.62383762164544,36.91368495716268,149.7896932267744,134.95914902942462,9.71794142969884e-05,0.0915781408548355,0,0,0
12590,429129.7401867037,2010-10-13 13:42:10,4322.165369222138,2,37,0.550297200679779,4.057031631469727,37.62842387847397,36.91368495716268,149.80829417742638,134.95914902942462,6.47544875391759e-05,0.0915781408548355,0,0,0
12591,429159.7553085578,2010-10-13 13:42:40,4352.180491086246,2,37,0.5501165986061096,4.059621810913086,37.63301009696491,36.91368495716268,149.8269067531864,134.95914902942462,6.47544875391759e-05,0.0915781408548355,0,0,0
12592,429189.7704518102,2010-10-13 13:43:10,4382.195634338659,2,37,0.5501165986061096,4.062050342559815,37.63759640378664,36.91368495716268,149.845531225784,134.95914902942462,0.0,0.0915781408548355,0,0,0
12593,429219.7856165613,2010-10-13 13:43:40,4412.21079905958,2,37,0.5499359965324402,4.064802169799805,37.64218257751225,36.91368495716268,149.8641671219557,134.95914902942462,6.47544875391759e-05,0.0915781408548355,0,0,0
12594,429249.8007450068,2010-10-13 13:44:10,4442.225927510102,2,37,0.5501165986061096,4.067554473876953,37.64676875547359,36.91368495716268,149.88281509941686,134.95914902942462,9.71794142969884e-05,0.0915781408548355,0,0,0
12595,429279.8158666604,2010-10-13 13:44:40,4472.24104917371,2,37,0.5499359965324402,4.069982528686523,37.65135486951035,36.91368495716268,149.90147498611125,134.95914902942462,3.23295607813634e-05,0.0915781408548355,0,0,0
12596,429309.8310180832,2010-10-13 13:45:10,4502.256200591474,2,37,0.550297200679779,4.072896480560303,37.655940974883805,36.91368495716268,149.92014702503073,134.95914902942462,6.47544875391759e-05,0.0915781408548355,0,0,0
12597,429339.84618522506,2010-10-13 13:45:40,4532.271367738441,2,37,0.5499359965324402,4.075486660003662,37.66052703772458,36.91368495716268,149.93883132667304,134.95914902942462,9.70840483205393e-05,0.0915781408548355,0,0,0
12598,429369.86142568977,2010-10-13 13:46:10,4562.286608223187,2,37,0.5501165986061096,4.0782389640808105,37.66511316963755,36.91368495716268,149.9575284899759,134.95914902942462,3.24249267578125e-05,0.0915781408548355,0,0,0
12599,429399.8764490083,2010-10-13 13:46:40,4592.301631511614,2,37,0.550297200679779,4.081314563751221,37.66969930245272,36.91368495716268,149.97623833359253,134.95914902942462,0.0001295089750783,0.0915781408548355,0,0,0
12600,429429.8917243248,2010-10-13 13:47:10,4622.31690684321,2,37,0.5501165986061096,4.08390474319458,37.67428542692524,36.91368495716268,149.99496080355493,134.95914902942462,9.70840483205393e-05,0.0915781408548355,0,0,0
12601,429459.90677397896,2010-10-13 13:47:40,4652.33195648231,2,37,0.5501165986061096,4.0866570472717285,37.678871620391504,36.91368495716268,150.01369651317893,134.95914902942462,9.71794142969884e-05,0.0915781408548355,0,0,0
12602,429489.9218356681,2010-10-13 13:48:10,4682.347018201518,2,37,0.5501165986061096,4.089570999145508,37.68345783577654,36.91368495716268,150.03244531034738,134.95914902942462,9.71794142969884e-05,0.0915781408548355,0,0,0
12603,429519.9371550795,2010-10-13 13:48:40,4712.362337582899,2,37,0.5501165986061096,4.092484951019287,37.688044992593575,36.91368495716268,150.0512111990338,134.95914902942462,6.47544875391759e-05,0.0915781408548355,0,0,0
12604,429549.9521359122,2010-10-13 13:49:10,4742.377318445588,2,37,0.5501165986061096,4.095398902893066,37.69263197769457,36.91368495716268,150.06998963893494,134.95914902942462,0.0001295089750783,0.0915781408548355,0,0,0
12605,429579.96731983096,2010-10-13 13:49:40,4772.392502359342,2,37,0.550297200679779,4.098150730133057,37.69721895751477,36.91368495716268,150.08878153970932,134.95914902942462,3.23295607813634e-05,0.0915781408548355,0,0,0
12606,429609.9824529982,2010-10-13 13:50:10,4802.40763550657,2,37,0.550297200679779,4.101226806640625,37.70180607008352,36.91368495716268,150.1075875721088,134.95914902942462,0.0001295089750783,0.0915781408548355,0,0,0
12607,429639.9975988772,2010-10-13 13:50:40,4832.42278140558,2,37,0.5504778623580933,4.104464530944824,37.70639319250693,36.91368495716268,150.12640707251506,134.95914902942462,0.0001619339018361,0.0915781408548355,0,0,0
12608,429670.0127569416,2010-10-13 13:51:10,4862.43793944986,2,37,0.550297200679779,4.107054710388184,37.71098025618963,36.91368495716268,150.14524002850732,134.95914902942462,6.47544875391759e-05,0.0915781408548355,0,0,0
12609,429700.0280395564,2010-10-13 13:51:40,4892.453222064607,2,37,0.5499359965324402,4.109968662261963,37.71556667574312,36.91368495716268,150.1640841451644,134.95914902942462,3.24249267578125e-05,0.0915781408548355,0,0,0
12610,429730.0430436117,2010-10-13 13:52:10,4922.4682261201,2,37,0.5501165986061096,4.113368034362793,37.72015304916823,36.91368495716268,150.1829420879343,134.95914902942462,9.70840483205393e-05,0.0915781408548355,0,0,0
12611,429760.0583345923,2010-10-13 13:52:40,4952.483517105709,2,37,0.5501165986061096,4.116281986236572,37.72473934435492,36.91368495716268,150.20181387259723,134.95914902942462,6.47544875391759e-05,0.0915781408548355,0,0,0
12612,429790.0733380263,2010-10-13 13:53:10,4982.49852053464,2,37,0.5499359965324402,4.119357585906982,37.7293257645316,36.91368495716268,150.22070057153016,134.95914902942462,3.23295607813634e-05,0.0915781408548355,0,0,0
12613,429820.0884974741,2010-10-13 13:53:40,5012.513679987431,2,37,0.5499359965324402,4.122757434844971,37.73391214773451,36.91368495716268,150.2396015492635,134.95914902942462,9.71794142969884e-05,0.0915781408548355,0,0,0
12614,429850.1036647764,2010-10-13 13:54:10,5042.5288473098335,2,37,0.550297200679779,4.12599515914917,37.73849851641848,36.91368495716268,150.25851676698298,134.95914902942462,0.0001295089750783,0.0915781408548355,0,0,0
12615,429880.1187833423,2010-10-13 13:54:40,5072.543965860684,2,37,0.5501165986061096,4.128909111022949,37.74308494762676,36.91368495716268,150.27744674355034,134.95914902942462,6.47544875391759e-05,0.0915781408548355,0,0,0
12616,429910.1339333215,2010-10-13 13:55:11,5102.5591158549005,2,37,0.5501165986061096,4.132470607757568,37.7476713260672,36.91368495716268,150.29639122829994,134.95914902942462,0.0001295089750783,0.0915781408548355,0,0,0
12617,429940.1516769899,2010-10-13 13:55:41,5132.5768595033005,2,37,0.5499359965324402,4.135384559631348,37.752258101862445,36.91368495716268,150.31535229091057,134.95914902942462,6.47544875391759e-05,0.0915781408548355,0,0,0
12618,429970.16424994136,2010-10-13 13:56:11,5162.589432484809,2,37,0.5501165986061096,4.138783931732178,37.75684404256302,36.91368495716268,150.33432491435343,134.95914902942462,9.70840483205393e-05,0.0915781408548355,0,0,0
12619,430000.1795728365,2010-10-13 13:56:41,5192.604755435084,2,37,0.5499359965324402,4.142021656036377,37.761430465266415,36.91368495716268,150.35331457066545,134.95914902942462,9.70840483205393e-05,0.0915781408548355,0,0,0
12620,430030.1945160002,2010-10-13 13:57:11,5222.619698508591,2,37,0.5501165986061096,4.145421504974365,37.76601679438088,36.91368495716268,150.3723191154053,134.95914902942462,6.47544875391759e-05,0.0915781408548355,0,0,0
12621,430060.2097534273,2010-10-13 13:57:41,5252.634935935717,2,37,0.5501165986061096,4.148820877075195,37.77060312598426,36.91368495716268,150.39133934985182,134.95914902942462,9.70840483205393e-05,0.0915781408548355,0,0,0
12622,430090.2248278883,2010-10-13 13:58:11,5282.650010527005,2,37,0.5499359965324402,4.152220726013184,37.775189473866455,36.91368495716268,150.41037506984506,134.95914902942462,9.71794142969884e-05,0.0915781408548355,0,0,0
12623,430120.2399717322,2010-10-13 13:58:41,5312.665154245581,2,37,0.5499359965324402,4.155620098114014,37.77977582300171,36.91368495716268,150.42942635784706,134.95914902942462,9.70840483205393e-05,0.0915781408548355,0,0,0
12624,430150.2551061476,2010-10-13 13:59:11,5342.680288655958,2,37,0.5499359965324402,4.159019947052002,37.78436219486717,36.91368495716268,150.44849354218732,134.95914902942462,9.71794142969884e-05,0.0915781408548355,0,0,0
12625,430180.27028315415,2010-10-13 13:59:41,5372.69546566751,2,37,0.5499359965324402,4.162419319152832,37.78894848630631,36.91368495716268,150.46757618370552,134.95914902942462,9.70840483205393e-05,0.0915781408548355,0,0,0
12626,430210.2854434038,2010-10-13 14:00:11,5402.710625912273,2,37,0.550297200679779,4.16614294052124,37.79353486138269,36.91368495716268,150.4866750385154,134.95914902942462,0.0001295089750783,0.0915781408548355,0,0,0
12627,430240.3005565764,2010-10-13 14:00:41,5432.725739079707,2,37,0.5501165986061096,4.16954231262207,37.79812119598231,36.91368495716268,150.5057896539942,134.95914902942462,9.70840483205393e-05,0.0915781408548355,0,0,0
12628,430270.31620509806,2010-10-13 14:01:11,5462.741387741757,2,37,0.5499359965324402,4.1731038093566895,37.80270762537356,36.91368495716268,150.52492074871577,134.95914902942462,0.0001295089750783,0.0915781408548355,0,0,0
12629,430300.33085306105,2010-10-13 14:01:41,5492.756035564406,2,37,0.550297200679779,4.176503658294678,37.80729389620468,36.91368495716268,150.54406743920245,134.95914902942462,6.47544875391759e-05,0.0915781408548355,0,0,0
12630,430330.3461203325,2010-10-13 14:02:11,5522.771302845939,2,37,0.550297200679779,4.180226802825928,37.81188023235799,36.91368495716268,150.5632307427951,134.95914902942462,9.70840483205393e-05,0.0915781408548355,0,0,0
12631,430360.361128759,2010-10-13 14:02:41,5552.786311267313,2,37,0.5501165986061096,4.183626651763916,37.816466551961184,36.91368495716268,150.5824105050265,134.95914902942462,6.47544875391759e-05,0.0915781408548355,0,0,0
12632,430390.3764235992,2010-10-13 14:03:11,5582.801606117555,2,37,0.5499359965324402,4.187349796295166,37.82105298488257,36.91368495716268,150.60160737117195,134.95914902942462,0.0001295089750783,0.0915781408548355,0,0,0
12633,430420.3914394942,2010-10-13 14:03:41,5612.816621997516,2,37,0.5501165986061096,4.191073417663574,37.82563930520144,36.91368495716268,150.6208205275384,134.95914902942462,9.71794142969884e-05,0.0915781408548355,0,0,0
12634,430450.4065775988,2010-10-13 14:04:11,5642.831760102101,2,37,0.5501165986061096,4.194634914398193,37.8302256596529,36.91368495716268,150.64005058982704,134.95914902942462,6.47544875391759e-05,0.0915781408548355,0,0,0
12635,430480.4217329012,2010-10-13 14:04:41,5672.846915429609,2,37,0.5499359965324402,4.198358058929443,37.8348120000008,36.91368495716268,150.65929730849615,134.95914902942462,9.71794142969884e-05,0.0915781408548355,0,0,0
12636,430492.6247832775,2010-10-13 14:04:53,5685.049965795906,2,37,0.5501165986061096,4.200138568878174,37.83667663307649,36.91368495716268,150.66712714336464,134.95914902942462,0.0001295089750783,0.0915781408548355,0,0,0
12637,430522.6254832007,2010-10-13 14:05:23,30.01515266587495,3,37,0.0,4.113206386566162,37.83667663307649,36.91368495716268,150.66712714336464,134.95914902942462,-0.0004531860467977,0.0915781408548355,0,0,0
12638,430552.6406440219,2010-10-13 14:05:53,60.03031349208798,3,37,0.0,4.102198123931885,37.83667663307649,36.91368495716268,150.66712714336464,134.95914902942462,-0.0002590179501567,0.0915781408548355,0,0,0
12639,430582.6557746579,2010-10-13 14:06:23,90.0454441380826,3,37,0.0,4.095722675323486,37.83667663307649,36.91368495716268,150.66712714336464,134.95914902942462,-0.0001295089750783,0.0915781408548355,0,0,0
12640,430612.62406292825,2010-10-13 14:06:53,120.0137323984392,3,37,0.0,4.091351509094238,37.83667663307649,36.91368495716268,150.66712714336464,134.95914902942462,-9.71794142969884e-05,0.0915781408548355,0,0,0
12641,430612.6275097586,2010-10-13 14:06:53,0.01587986250347,4,37,0.9994724988937378,4.199814796447754,37.83668106891425,36.91368495716268,150.6671457730617,134.95914902942462,0.0,0.0915781408548355,0,0,0
12642,430613.6116034127,2010-10-13 14:06:54,0.999973511675252,4,37,0.9487212896347046,4.199653148651123,37.83694581516867,36.91368495716268,150.66825763273815,134.95914902942462,-3.23295607813634e-05,0.0915781408548355,0,0,0
12643,430615.83033815736,2010-10-13 14:06:57,3.218708256346587,4,37,0.8983312845230103,4.199491024017334,37.83751398566412,36.91368495716268,150.67064378437118,134.95914902942462,-6.47544875391759e-05,0.0915781408548355,0,0,0
12644,430619.1272735147,2010-10-13 14:07:00,6.515643608686264,4,37,0.8479413390159607,4.199814796447754,37.83831246800876,36.91368495716268,150.67399719540836,134.95914902942462,0.0,0.0915781408548355,0,0,0
12645,430623.5338441447,2010-10-13 14:07:04,10.92221426362627,4,37,0.7977319359779358,4.199814796447754,37.83931871353098,36.91368495716268,150.67822319239076,134.95914902942462,-3.24249267578125e-05,0.0915781408548355,0,0,0
12646,430629.3613545185,2010-10-13 14:07:10,16.749724622520745,4,37,0.7475225329399109,4.199814796447754,37.84056812345297,36.91368495716268,150.68347040249284,134.95914902942462,0.0,0.0915781408548355,0,0,0
12647,430636.8144930029,2010-10-13 14:07:17,24.202863106897187,4,37,0.6969519853591919,4.199653148651123,37.842061690034285,36.91368495716268,150.68974301545217,134.95914902942462,0.0,0.0915781408548355,0,0,0
12648,430646.70486828126,2010-10-13 14:07:27,34.09323838528332,4,37,0.6469231843948364,4.199653148651123,37.84390526655507,36.91368495716268,150.69748560188177,134.95914902942462,-3.23295607813634e-05,0.0915781408548355,0,0,0
12649,430660.3453987904,2010-10-13 14:07:41,47.73376888437336,4,37,0.5968944430351257,4.199653148651123,37.84625664354499,36.91368495716268,150.70736082928934,134.95914902942462,-3.23295607813634e-05,0.0915781408548355,0,0,0
12650,430681.0168198221,2010-10-13 14:08:02,68.40518991100897,4,37,0.5468656420707703,4.199653148651123,37.849529707059865,36.91368495716268,150.7211069209159,134.95914902942462,-3.23295607813634e-05,0.0915781408548355,0,0,0
12651,430716.2350081587,2010-10-13 14:08:37,103.62337824770968,4,37,0.4968368709087372,4.199653148651123,37.8546114652953,36.91368495716268,150.74244905966302,134.95914902942462,-3.23295607813634e-05,0.0915781408548355,0,0,0
12652,430780.8461341351,2010-10-13 14:09:42,168.23450431922635,4,37,0.4468080997467041,4.199814796447754,37.863038787330986,36.91368495716268,150.77784174349398,134.95914902942462,6.47544875391759e-05,0.0915781408548355,0,0,0
12653,430881.1698905749,2010-10-13 14:11:22,268.5582606688979,4,37,0.396779328584671,4.199653148651123,37.87476455638196,36.91368495716268,150.82708713207623,134.95914902942462,-3.23295607813634e-05,0.0915781408548355,0,0,0
12654,431009.2928578669,2010-10-13 14:13:30,396.6812279658533,4,37,0.3465699553489685,4.199653148651123,37.88797854909259,36.91368495716268,150.882582768717,134.95914902942462,-6.47544875391759e-05,0.0915781408548355,0,0,0
12655,431162.4779308075,2010-10-13 14:16:03,549.8663009064901,4,37,0.2965411841869354,4.199653148651123,37.90164356417739,36.91368495716268,150.9399725218093,134.95914902942462,0.0,0.0915781408548355,0,0,0
12656,431345.24075657903,2010-10-13 14:19:06,732.6291266780281,4,37,0.2465124130249023,4.199653148651123,37.91539311770361,36.91368495716268,150.9977166735758,134.95914902942462,3.24249267578125e-05,0.0915781408548355,0,0,0
12657,431572.2058019626,2010-10-13 14:22:53,959.5941720815724,4,37,0.1964836567640304,4.199653148651123,37.92932101346047,36.91368495716268,151.05621015287338,134.95914902942462,0.0,0.0915781408548355,0,0,0
12658,431867.1229619941,2010-10-13 14:27:48,1254.5113320830378,4,37,0.1464548856019973,4.199814796447754,37.94329542692644,36.91368495716268,151.1148993406698,134.95914902942462,0.0,0.0915781408548355,0,0,0
12659,432295.7568178201,2010-10-13 14:34:56,1683.145187924134,4,37,0.0962455049157142,4.199653148651123,37.95756477732131,36.91368495716268,151.1748272753574,134.95914902942462,-3.23295607813634e-05,0.0915781408548355,0,0,0
12660,433029.5890861775,2010-10-13 14:47:10,2416.977456271399,4,37,0.0498289167881011,4.199653148651123,37.971947908722754,36.91368495716268,151.2352330890739,134.95914902942462,-3.23295607813634e-05,0.0915781408548355,0,0,0
12661,433059.61455854593,2010-10-13 14:47:40,30.01535574200315,5,37,0.0,4.191720962524414,37.971947908722754,36.91368495716268,151.2352330890739,134.95914902942462,-3.23295607813634e-05,0.0915781408548355,0,0,0
12662,433089.61396929313,2010-10-13 14:48:10,60.01476647914803,5,37,0.0,4.190425872802734,37.971947908722754,36.91368495716268,151.2352330890739,134.95914902942462,-3.23295607813634e-05,0.0915781408548355,0,0,0
12663,433089.8128219957,2010-10-13 14:48:11,0.187613806332706,6,37,-1.9243103452026844e-05,4.190587520599365,37.971947908722754,36.91368495816553,151.2352330890739,134.95914903362717,0.0,0.0962666198611259,0,0,0
12664,433094.6407494765,2010-10-13 14:48:16,5.015541282118511,6,37,0.0008838032954372,4.190425872802734,37.971948907908335,36.91368495824867,151.23523727618772,134.95914903397556,-3.23295607813634e-05,0.0962666198611259,0,0,0
12665,433124.6672787279,2010-10-13 14:48:46,30.01510004973935,7,37,-1.099568486213684,4.010246753692627,37.971948907908335,36.922852004904,151.23523727618772,134.99611396335888,-0.0009713172912597,0.0962666198611259,0,0,0
12666,433154.6824205868,2010-10-13 14:49:16,60.03024191369259,7,37,-1.0997490882873535,3.9824025630950928,37.971948907908335,36.93201908652272,151.23523727618772,135.03274030620338,-0.0006151676061563,0.0962666198611259,0,0,0
12667,433184.6975635886,2010-10-13 14:49:46,90.04538491046918,7,37,-1.0993878841400146,3.9634618759155273,37.971948907908335,36.94118605753844,151.23523727618772,135.06915608283663,-0.0004532813909463,0.0962666198611259,0,0,0
12668,433214.71272166295,2010-10-13 14:50:16,120.0605429948487,7,37,-1.099568486213684,3.948730230331421,37.971948907908335,36.950352999352376,151.23523727618772,135.10541878902723,-0.0003561496851034,0.0962666198611259,0,0,0
12669,433244.7278521136,2010-10-13 14:50:46,150.07567344034362,7,37,-1.0993878841400146,3.936426877975464,37.971948907908335,36.959519980100175,151.23523727618772,135.14155939831366,-0.0002913951757363,0.0962666198611259,0,0,0
12670,433274.74314310914,2010-10-13 14:51:16,180.0909644460039,7,37,-1.099568486213684,3.9257423877716064,37.971948907908335,36.96868697772264,151.23523727618772,135.17759544091646,-0.0002913951757363,0.0962666198611259,0,0,0
12671,433304.758143726,2010-10-13 14:51:46,210.10596505290107,7,37,-1.0997490882873535,3.915867328643799,37.971948907908335,36.9778539831631,151.23523727618772,135.21353791235998,-0.0002913951757363,0.0962666198611259,0,0,0
12672,433334.77330334927,2010-10-13 14:52:16,240.12112467611587,7,37,-1.099568486213684,3.90664005279541,37.971948907908335,36.98702094212954,151.23523727618772,135.24939278850636,-0.0002590179501567,0.0962666198611259,0,0,0
12673,433364.78856402927,2010-10-13 14:52:46,270.1363854614578,7,37,-1.099568486213684,3.897574424743652,37.971948907908335,36.99618795507653,151.23523727618772,135.28516419471217,-0.0002590179501567,0.0962666198611259,0,0,0
12674,433394.803582616,2010-10-13 14:53:16,300.1514039479163,7,37,-1.099568486213684,3.8891563415527344,37.971948907908335,37.00535489688348,151.23523727618772,135.32085508300185,-0.0002266406954731,0.0962666198611259,0,0,0
12675,433424.8187334322,2010-10-13 14:53:46,330.166554759169,7,37,-1.0993878841400146,3.8809001445770255,37.971948907908335,37.01452195956207,151.23523727618772,135.35646879893716,-0.0001942634553415,0.0962666198611259,0,0,0
12676,433454.83401534025,2010-10-13 14:54:16,360.1818366821925,7,37,-1.0993878841400146,3.8726439476013184,37.971948907908335,37.02368905510716,151.23523727618772,135.39200671197432,-0.0002266406954731,0.0962666198611259,0,0,0
12677,433484.8490378969,2010-10-13 14:54:46,390.19685922877017,7,37,-1.099568486213684,3.86454963684082,37.971948907908335,37.0328560700215,151.23523727618772,135.4274701255407,-0.0002266406954731,0.0962666198611259,0,0,0
12678,433514.8642957249,2010-10-13 14:55:16,420.21211706175393,7,37,-1.0993878841400146,3.856617212295532,37.971948907908335,37.04202319313443,151.23523727618772,135.4628610748482,-0.0002590179501567,0.0962666198611259,0,0,0
12679,433544.879313705,2010-10-13 14:55:46,450.22713503192574,7,37,-1.099568486213684,3.848846673965454,37.971948907908335,37.05119019979792,151.23523727618772,135.49817963114904,-0.0002266406954731,0.0962666198611259,0,0,0
12680,433574.8945998535,2010-10-13 14:56:16,480.242421195518,7,37,-1.099568486213684,3.841076135635376,37.971948907908335,37.06035724620443,151.23523727618772,135.53342759279158,-0.0002590179501567,0.0962666198611259,0,0,0
12681,433604.9096329965,2010-10-13 14:56:46,510.25745432848026,7,37,-1.0993878841400146,3.8336293697357178,37.971948907908335,37.069524312429984,151.23523727618772,135.56860538968425,-0.0001942634553415,0.0962666198611259,0,0,0
12682,433634.9250014904,2010-10-13 14:57:16,540.2728229225145,7,37,-1.099568486213684,3.826182842254639,37.971948907908335,37.07869135701015,151.23523727618772,135.60371414130762,-0.0001942634553415,0.0962666198611259,0,0,0
12683,433664.939902865,2010-10-13 14:57:46,570.287724191832,7,37,-1.0993878841400146,3.818736076354981,37.971948907908335,37.08785830023288,151.23523727618772,135.63875461086724,-0.0002266406954731,0.0962666198611259,0,0,0
12684,433694.9550888188,2010-10-13 14:58:16,600.3029101456708,7,37,-1.0993878841400146,3.811613082885742,37.971948907908335,37.09702539107856,151.23523727618772,135.67372928142754,-0.0001942634553415,0.0962666198611259,0,0,0
12685,433724.97034503776,2010-10-13 14:58:46,630.3181663796694,7,37,-1.0993878841400146,3.804651975631714,37.971948907908335,37.106192411051,151.23523727618772,135.70863833746495,-0.0001942634553415,0.0962666198611259,0,0,0
12686,433754.98534522863,2010-10-13 14:59:16,660.3331665655171,7,37,-1.099568486213684,3.797528982162476,37.971948907908335,37.11535939510773,151.23523727618772,135.74348293576082,-0.0001942634553415,0.0962666198611259,0,0,0
12687,433785.000614024,2010-10-13 14:59:46,690.3484353658348,7,37,-1.099568486213684,3.790729761123657,37.971948907908335,37.12452642635299,151.23523727618772,135.77826437895388,-0.0001942634553415,0.0962666198611259,0,0,0
12688,433815.01569201367,2010-10-13 15:00:16,720.3635133505815,7,37,-1.099568486213684,3.784092426300049,37.971948907908335,37.1336934042604,151.23523727618772,135.81298429422466,-0.0002266406954731,0.0962666198611259,0,0,0
12689,433845.03078466497,2010-10-13 15:00:46,750.3786060068942,7,37,-1.099568486213684,3.7776169776916495,37.971948907908335,37.1428604273167,151.23523727618772,135.84764404138312,-0.0002266406954731,0.0962666198611259,0,0,0
12690,433875.0461159611,2010-10-13 15:01:16,780.3939372979579,7,37,-1.0993878841400146,3.771141529083252,37.971948907908335,37.15202750722736,151.23523727618772,135.88224466743705,-0.0001942634553415,0.0962666198611259,0,0,0
12691,433905.0613206867,2010-10-13 15:01:46,810.4091420636818,7,37,-1.0993878841400146,3.764827966690064,37.971948907908335,37.161194537350845,151.23523727618772,135.91678653722437,-0.0001618862152099,0.0962666198611259,0,0,0
12692,433935.0762402766,2010-10-13 15:02:16,840.42406161356,7,37,-1.099568486213684,3.758838176727295,37.971948907908335,37.17036154101967,151.23523727618772,135.95127134627964,-0.0001295089750783,0.0962666198611259,0,0,0
12693,433965.0913709728,2010-10-13 15:02:46,870.4391922996545,7,37,-1.0993878841400146,3.752686738967896,37.971948907908335,37.1795286326373,151.23523727618772,135.9857008425659,-0.0001618385285837,0.0962666198611259,0,0,0
12694,433995.1065158342,2010-10-13 15:03:16,900.4543371610785,7,37,-1.099568486213684,3.747020721435547,37.971948907908335,37.18869564743485,151.23523727618772,136.02007565373404,-0.0001295089750783,0.0962666198611259,0,0,0
12695,434025.1217046953,2010-10-13 15:03:46,930.4695260672752,7,37,-1.099568486213684,3.7410309314727774,37.971948907908335,37.197862751364106,151.23523727618772,136.05439747237378,-0.0001295089750783,0.0962666198611259,0,0,0
12696,434055.1368378074,2010-10-13 15:04:16,960.4846591292916,7,37,-1.099568486213684,3.73552680015564,37.971948907908335,37.20702980017104,151.23523727618772,136.08866622905603,-0.0001295089750783,0.0962666198611259,0,0,0
12697,434085.1519834658,2010-10-13 15:04:46,990.4998047877018,7,37,-1.0993878841400146,3.730022668838501,37.971948907908335,37.21619682142933,151.23523727618772,136.12288328379327,-9.713172767078504e-05,0.0962666198611259,0,0,0
12698,434115.1671219314,2010-10-13 15:05:16,1020.5149432682224,7,37,-1.099568486213684,3.7241947650909424,37.971948907908335,37.225363864897545,151.23523727618772,136.15704962461606,-0.0001295089750783,0.0962666198611259,0,0,0
12699,434145.1822544419,2010-10-13 15:05:46,1050.5300757638267,7,37,-1.0993878841400146,3.7188525199890137,37.971948907908335,37.23453096535257,151.23523727618772,136.191166167454,-0.0001618862152099,0.0962666198611259,0,0,0
12700,434175.19741836085,2010-10-13 15:06:16,1080.5452396877604,7,37,-1.099568486213684,3.713510274887085,37.971948907908335,37.243698070758825,151.23523727618772,136.22523307858637,-9.713172767078504e-05,0.0962666198611259,0,0,0
12701,434205.21262860525,2010-10-13 15:06:46,1110.560449932139,7,37,-1.0997490882873535,3.708168029785156,37.971948907908335,37.25286516969648,151.23523727618772,136.25925081155538,-0.0001618862152099,0.0962666198611259,0,0,0
12702,434235.2276943996,2010-10-13 15:07:16,1140.5755157214903,7,37,-1.099568486213684,3.7029876708984375,37.971948907908335,37.26203221913418,151.23523727618772,136.29322059740926,-0.0001295089750783,0.0962666198611259,0,0,0
12703,434265.24284903536,2010-10-13 15:07:46,1170.590670357275,7,37,-1.099568486213684,3.697807312011719,37.971948907908335,37.271199249716666,151.23523727618772,136.32714305436224,-0.0001618862152099,0.0962666198611259,0,0,0
12704,434295.2579997163,2010-10-13 15:08:16,1200.6058210382027,7,37,-1.099568486213684,3.69295072555542,37.971948907908335,37.28036633562541,151.23523727618772,136.3610194358361,-0.0001295089750783,0.0962666198611259,0,0,0
12705,434325.2732753085,2010-10-13 15:08:46,1230.6210966404733,7,37,-1.0993878841400146,3.687932252883911,37.971948907908335,37.28953341830862,151.23523727618772,136.39485019400627,-0.0001618862152099,0.0962666198611259,0,0,0
12706,434355.28840339824,2010-10-13 15:09:16,1260.6362247200716,7,37,-1.099568486213684,3.683075666427612,37.971948907908335,37.29870036912167,151.23523727618772,136.42863517649144,-0.0001295089750783,0.0962666198611259,0,0,0
12707,434385.3036018833,2010-10-13 15:09:46,1290.651423255267,7,37,-1.0993878841400146,3.6782190799713135,37.971948907908335,37.307867518118606,151.23523727618772,136.46237638196948,-0.0001295089750783,0.0962666198611259,0,0,0
12708,434415.31871878,2010-10-13 15:10:16,1320.6665401219193,7,37,-1.099568486213684,3.6735243797302246,37.971948907908335,37.31703458559243,151.23523727618772,136.4960735999788,-0.0001295089750783,0.0962666198611259,0,0,0
12709,434445.3337236776,2010-10-13 15:10:46,1350.6815450094853,7,37,-1.099568486213684,3.668829917907715,37.971948907908335,37.326201651052266,151.23523727618772,136.52972776042006,-9.713172767078504e-05,0.0962666198611259,0,0,0
12710,434475.3490007235,2010-10-13 15:11:16,1380.6968220653782,7,37,-1.099568486213684,3.664297103881836,37.971948907908335,37.33536876752992,151.23523727618772,136.56333956066422,-0.0001295089750783,0.0962666198611259,0,0,0
12711,434505.36408154026,2010-10-13 15:11:46,1410.7119029022333,7,37,-1.099568486213684,3.659764289855957,37.971948907908335,37.34453587443046,151.23523727618772,136.59690983911992,-0.0001295089750783,0.0962666198611259,0,0,0
12712,434535.3793262355,2010-10-13 15:12:16,1440.727147577424,7,37,-1.0993878841400146,3.655231475830078,37.971948907908335,37.3537030046988,151.23523727618772,136.63043861165963,-0.0001618862152099,0.0962666198611259,0,0,0
12713,434565.3943186721,2010-10-13 15:12:46,1470.7421400039327,7,37,-1.099568486213684,3.650860548019409,37.971948907908335,37.36287011938614,151.23523727618772,136.66392647729955,-9.713172767078504e-05,0.0962666198611259,0,0,0
12714,434595.4097891901,2010-10-13 15:13:16,1500.7576105320184,7,37,-1.099568486213684,3.6463277339935294,37.971948907908335,37.37203741558783,151.23523727618772,136.69737447273616,-0.0001618862152099,0.0962666198611259,0,0,0
12715,434625.4246145904,2010-10-13 15:13:46,1530.7724359172091,7,37,-1.099568486213684,3.641956806182861,37.971948907908335,37.381204366957085,151.23523727618772,136.7307811436743,-9.713172767078504e-05,0.0962666198611259,0,0,0
12716,434655.4397855919,2010-10-13 15:14:16,1560.7876069237946,7,37,-1.099568486213684,3.6377477645874015,37.971948907908335,37.39037145712881,151.23523727618772,136.76414899493088,-0.0001295089750783,0.0962666198611259,0,0,0
12717,434685.4549397264,2010-10-13 15:14:46,1590.8027611635923,7,37,-1.099568486213684,3.633700609207153,37.971948907908335,37.39953852111996,151.23523727618772,136.79747831957792,-0.0001295089750783,0.0962666198611259,0,0,0
12718,434715.47006004665,2010-10-13 15:15:16,1620.8178813785896,7,37,-1.099568486213684,3.629653453826904,37.971948907908335,37.40870558825291,151.23523727618772,136.8307696978686,-9.713172767078504e-05,0.0962666198611259,0,0,0
12719,434745.4852275997,2010-10-13 15:15:47,1650.833048931568,7,37,-1.0993878841400146,3.6256062984466553,37.971948907908335,37.41787273460486,151.23523727618772,136.86402426318676,-0.0001295089750783,0.0962666198611259,0,0,0
12720,434775.50294461165,2010-10-13 15:16:17,1680.8507660688947,7,37,-1.099568486213684,3.621721029281616,37.971948907908335,37.42704061179334,151.23523727618772,136.89724510899967,-9.713172767078504e-05,0.0962666198611259,0,0,0
12721,434805.51550320734,2010-10-13 15:16:47,1710.863324539236,7,37,-1.0993878841400146,3.617835760116577,37.971948907908335,37.43620689991382,151.23523727618772,136.930425199968,-9.713172767078504e-05,0.0962666198611259,0,0,0
12722,434835.53065600846,2010-10-13 15:17:17,1740.8784773404484,7,37,-1.0993878841400146,3.614274263381958,37.971948907908335,37.44537393115759,151.23523727618772,136.96357348876427,-9.713172767078504e-05,0.0962666198611259,0,0,0
12723,434865.5458014565,2010-10-13 15:17:47,1770.893622788334,7,37,-1.0993878841400146,3.610388994216919,37.971948907908335,37.45454106193865,151.23523727618772,136.99668843095327,-0.0001295089750783,0.0962666198611259,0,0,0
12724,434895.5609737663,2010-10-13 15:18:17,1800.908795098168,7,37,-1.0993878841400146,3.6069893836975098,37.971948907908335,37.46370820123866,151.23523727618772,137.02976988847368,-6.47544875391759e-05,0.0962666198611259,0,0,0
12725,434925.5764473871,2010-10-13 15:18:47,1830.9242687690864,7,37,-1.0993878841400146,3.60342788696289,37.971948907908335,37.472875382323856,151.23523727618772,137.0628193363258,-9.713172767078504e-05,0.0962666198611259,0,0,0
12726,434955.5912667723,2010-10-13 15:19:17,1860.9390881041984,7,37,-1.099568486213684,3.600028276443481,37.971948907908335,37.48204235269958,151.23523727618772,137.09583636136156,-9.713172767078504e-05,0.0962666198611259,0,0,0
12727,434985.606382446,2010-10-13 15:19:47,1890.9542037728647,7,37,-1.0993878841400146,3.5966286659240723,37.971948907908335,37.49120948129589,151.23523727618772,137.1288220323936,-6.47544875391759e-05,0.0962666198611259,0,0,0
12728,435015.6215442897,2010-10-13 15:20:17,1920.9693656116008,7,37,-1.099568486213684,3.593229055404663,37.971948907908335,37.500376502613086,151.23523727618772,137.16177620276324,-9.713172767078504e-05,0.0962666198611259,0,0,0
12729,435045.636692735,2010-10-13 15:20:47,1950.98451406197,7,37,-1.099568486213684,3.589991569519043,37.971948907908335,37.50954362873449,151.23523727618772,137.19470060961325,-6.47544875391759e-05,0.0962666198611259,0,0,0
12730,435075.65184892976,2010-10-13 15:21:17,1980.9996702566395,7,37,-1.099568486213684,3.5869157314300537,37.971948907908335,37.51871070980961,151.23523727618772,137.22759606658855,-6.47544875391759e-05,0.0962666198611259,0,0,0
12731,435105.6669745232,2010-10-13 15:21:47,2011.0147958550544,7,37,-1.099568486213684,3.5836780071258545,37.971948907908335,37.527877782117486,151.23523727618772,137.2604626172064,-0.0001295089750783,0.0962666198611259,0,0,0
12732,435135.6821317955,2010-10-13 15:22:17,2041.0299531173848,7,37,-1.0993878841400146,3.580764055252075,37.971948907908335,37.53704490614752,151.23523727618772,137.2933008883289,-6.47544875391759e-05,0.0962666198611259,0,0,0
12733,435165.697404676,2010-10-13 15:22:47,2071.045226007897,7,37,-1.0993878841400146,3.577526330947876,37.971948907908335,37.54621206887087,151.23523727618772,137.32611032268915,-0.0001295089750783,0.0962666198611259,0,0,0
12734,435195.7124101501,2010-10-13 15:23:17,2101.0602314819243,7,37,-1.099568486213684,3.5744504928588867,37.971948907908335,37.55537914822742,151.23523727618772,137.35889157209988,-9.713172767078504e-05,0.0962666198611259,0,0,0
12735,435225.7275599688,2010-10-13 15:23:47,2131.075381295691,7,37,-1.099568486213684,3.5715365409851074,37.971948907908335,37.5645462323934,151.23523727618772,137.39164533215157,-6.47544875391759e-05,0.0962666198611259,0,0,0
12736,435255.7427510655,2010-10-13 15:24:17,2161.0905724123973,7,37,-1.099568486213684,3.568298816680908,37.971948907908335,37.5737133864053,151.23523727618772,137.42437179401475,-9.713172767078504e-05,0.0962666198611259,0,0,0
12737,435285.7578531102,2010-10-13 15:24:47,2191.1056744320463,7,37,-1.0993878841400146,3.565384864807129,37.971948907908335,37.582879971081525,151.23523727618772,137.4570687267976,-6.47544875391759e-05,0.0962666198611259,0,0,0
12738,435315.7730023324,2010-10-13 15:25:17,2221.120823659351,7,37,-1.0993878841400146,3.5624709129333496,37.971948907908335,37.5920463715584,151.23523727618772,137.48973749081208,-0.0001295089750783,0.0962666198611259,0,0,0
12739,435345.7881447929,2010-10-13 15:25:47,2251.1359661197907,7,37,-1.0993878841400146,3.5595569610595703,37.971948907908335,37.601212820478686,151.23523727618772,137.5223797079035,-6.47544875391759e-05,0.0962666198611259,0,0,0
12740,435375.8033294736,2010-10-13 15:26:17,2281.1511508004564,7,37,-1.099568486213684,3.556481122970581,37.971948907908335,37.61037926127026,151.23523727618772,137.55499353542237,-6.47544875391759e-05,0.0962666198611259,0,0,0
12741,435405.81844113726,2010-10-13 15:26:47,2311.1662624641413,7,37,-1.099568486213684,3.553405284881592,37.971948907908335,37.61954619519489,151.23523727618772,137.5875815225252,-6.47544875391759e-05,0.0962666198611259,0,0,0
12742,435435.8336215673,2010-10-13 15:27:17,2341.1814429042383,7,37,-1.099568486213684,3.5504913330078125,37.971948907908335,37.62871329738083,151.23523727618772,137.6201428367839,-6.47544875391759e-05,0.0962666198611259,0,0,0
12743,435465.8487390555,2010-10-13 15:27:47,2371.1965603774024,7,37,-1.0993878841400146,3.547577381134033,37.971948907908335,37.63788042323392,151.23523727618772,137.65267638464533,-3.237724376958795e-05,0.0962666198611259,0,0,0
12744,435495.863895125,2010-10-13 15:28:17,2401.211716451772,7,37,-1.0993878841400146,3.544339656829834,37.971948907908335,37.6470475647247,151.23523727618772,137.68518192752992,-3.237724376958795e-05,0.0962666198611259,0,0,0
12745,435525.8790433648,2010-10-13 15:28:47,2431.2268647467536,7,37,-1.0993878841400146,3.5412638187408447,37.971948907908335,37.65621472813886,151.23523727618772,137.71765861853365,-6.47544875391759e-05,0.0962666198611259,0,0,0
12746,435555.8943094984,2010-10-13 15:29:17,2461.2421309506,7,37,-1.0993878841400146,3.5378642082214355,37.971948907908335,37.66538200177854,151.23523727618772,137.75010612516232,-9.713172767078504e-05,0.0962666198611259,0,0,0
12747,435585.9093422454,2010-10-13 15:29:47,2491.2571635722875,7,37,-1.0993878841400146,3.5346264839172363,37.971948907908335,37.67454912084566,151.23523727618772,137.78252288589687,-3.237724376958795e-05,0.0962666198611259,0,0,0
12748,435615.9244955429,2010-10-13 15:30:17,2521.2723168948,7,37,-1.0993878841400146,3.531226873397827,37.971948907908335,37.68371623311852,151.23523727618772,137.8149091736574,-9.713172767078504e-05,0.0962666198611259,0,0,0
12749,435645.9396393867,2010-10-13 15:30:47,2551.2874607437,7,37,-1.0993878841400146,3.527827262878418,37.971948907908335,37.692883464573335,151.23523727618772,137.84726490392524,-9.713172767078504e-05,0.0962666198611259,0,0,0
12750,435675.9547810552,2010-10-13 15:31:17,2581.302602397128,7,37,-1.0997490882873535,3.524103879928589,37.971948907908335,37.70205070193362,151.23523727618772,137.87958808962716,-9.713172767078504e-05,0.0962666198611259,0,0,0
12751,435705.96991603705,2010-10-13 15:31:47,2611.317737388954,7,37,-1.0993878841400146,3.52038049697876,37.971948907908335,37.71121789888276,151.23523727618772,137.91187759454922,-9.713172767078504e-05,0.0962666198611259,0,0,0
12752,435735.9850900611,2010-10-13 15:32:17,2641.3329113879977,7,37,-1.099568486213684,3.5164952278137207,37.971948907908335,37.72038507109357,151.23523727618772,137.94413183864197,-9.713172767078504e-05,0.0962666198611259,0,0,0
12753,435766.00025406526,2010-10-13 15:32:47,2671.348075407169,7,37,-1.0993878841400146,3.5122861862182617,37.971948907908335,37.729552258225816,151.23523727618772,137.9763489992082,-0.0001295089750783,0.0962666198611259,0,0,0
12754,435796.01557519095,2010-10-13 15:33:17,2701.363396603072,7,37,-1.0993878841400146,3.508077383041382,37.971948907908335,37.73871950262025,151.23523727618772,138.00852782009977,-0.0001618862152099,0.0962666198611259,0,0,0
12755,435826.03072465886,2010-10-13 15:33:47,2731.3785460058143,7,37,-1.0993878841400146,3.503706455230713,37.971948907908335,37.7478867168633,151.23523727618772,138.04066641336397,-9.713172767078504e-05,0.0962666198611259,0,0,0
12756,435856.0458186736,2010-10-13 15:34:17,2761.3936400054754,7,37,-1.099568486213684,3.498687982559204,37.971948907908335,37.75705385985732,151.23523727618772,138.07276245656652,-0.0001618862152099,0.0962666198611259,0,0,0
12757,435886.0608048094,2010-10-13 15:34:47,2791.408626151331,7,37,-1.0997490882873535,3.4936695098876958,37.971948907908335,37.766221048374575,151.23523727618772,138.10481311135106,-0.0001295089750783,0.0962666198611259,0,0,0
12758,435916.07607391046,2010-10-13 15:35:17,2821.4238952523983,7,37,-1.099568486213684,3.4881653785705566,37.971948907908335,37.77538822327547,151.23523727618772,138.13681558090136,-0.0001618862152099,0.0962666198611259,0,0,0
12759,435946.09109746455,2010-10-13 15:35:47,2851.438918796462,7,37,-1.0992072820663452,3.482013702392578,37.971948907908335,37.78455528640466,151.23523727618772,138.16876440342384,-0.0001942634553415,0.0962666198611259,0,0,0
12760,435976.1062563008,2010-10-13 15:36:17,2881.454077657778,7,37,-1.099568486213684,3.4753763675689697,37.971948907908335,37.793722432198805,151.23523727618772,138.2006541873971,-0.0001618862152099,0.0962666198611259,0,0,0
12761,436006.12153341685,2010-10-13 15:36:47,2911.469354748758,7,37,-1.0993878841400146,3.4679296016693115,37.971948907908335,37.80288952962937,151.23523727618772,138.23247916014134,-0.0001942634553415,0.0962666198611259,0,0,0
12762,436036.13654794346,2010-10-13 15:37:17,2941.4843692853724,7,37,-1.099568486213684,3.459349632263184,37.971948907908335,37.81205654443722,151.23523727618772,138.26423091528602,-0.0002590179501567,0.0962666198611259,0,0,0
12763,436066.1518313953,2010-10-13 15:37:47,2971.499652727181,7,37,-1.0993878841400146,3.449312686920166,37.971948907908335,37.8212236604343,151.23523727618772,138.29589882576215,-0.0002913951757363,0.0962666198611259,0,0,0
12764,436096.1668445084,2010-10-13 15:38:17,3001.5146658502726,7,37,-1.099568486213684,3.437818765640259,37.971948907908335,37.83039073900415,151.23523727618772,138.3274687189908,-0.0003237724304199,0.0962666198611259,0,0,0
12765,436126.18210650166,2010-10-13 15:38:47,3031.529927828588,7,37,-1.0997490882873535,3.424220561981201,37.971948907908335,37.839557866947416,151.23523727618772,138.35892446282614,-0.0003885269106831,0.0962666198611259,0,0,0
12766,436156.1971238704,2010-10-13 15:39:17,3061.544945227336,7,37,-1.0992072820663452,3.407870054244995,37.971948907908335,37.84872494878305,151.23523727618772,138.39024294335266,-0.0004856586456298,0.0962666198611259,0,0,0
12767,436186.2124038786,2010-10-13 15:39:47,3091.56022522055,7,37,-1.099568486213684,3.38698673248291,37.971948907908335,37.85789210957057,151.23523727618772,138.4213913846109,-0.0006151676061563,0.0962666198611259,0,0,0
12768,436216.2274393925,2010-10-13 15:40:17,3121.575260724421,7,37,-1.099568486213684,3.359466075897217,37.971948907908335,37.86705924778721,151.23523727618772,138.45232035299165,-0.0008741855854168,0.0962666198611259,0,0,0
12769,436246.2426914662,2010-10-13 15:40:47,3151.5905127980504,7,37,-1.0993878841400146,3.322232484817505,37.971948907908335,37.87622648285784,151.23523727618772,138.48295505289477,-0.0010684489971026,0.0962666198611259,0,0,0
12770,436276.25782946544,2010-10-13 15:41:17,3181.605650797372,7,37,-1.099568486213684,3.2697815895080566,37.971948907908335,37.88539361995967,151.23523727618772,138.513181878079,-0.0015864372253417,0.0962666198611259,0,0,0
12771,436306.2729914746,2010-10-13 15:41:47,3211.6208128165586,7,37,-1.0993878841400146,3.194342613220215,37.971948907908335,37.89456085153344,151.23523727618772,138.5428324034154,-0.0023959160316735,0.0962666198611259,0,0,0
12772,436336.28817089216,2010-10-13 15:42:17,3241.63599310628,7,37,-1.099568486213684,3.0802133083343506,37.971948907908335,37.90372805622492,151.23523727618772,138.57163008958054,-0.0036586285568773,0.0962666198611259,0,0,0
12773,436365.55316541815,2010-10-13 15:42:47,3270.9009867701043,7,37,-1.0993878841400146,2.879798650741577,37.971948907908335,37.912666160144376,151.23523727618772,138.59837552337706,-0.0074791433289647,0.0962666198611259,0,0,0
12774,436380.3341922951,2010-10-13 15:43:01,3285.682013632052,7,37,-1.0993878841400146,2.699943780899048,37.971948907908335,37.917180530577006,151.23523727618772,138.6109948074888,-0.0109758377075195,0.0962666198611259,0,0,0
12775,436440.3344945783,2010-10-13 15:44:01,60.01466608393226,8,37,0.0,3.366427183151245,37.971948907908335,37.917180530577006,151.23523727618772,138.6109948074888,0.0012950897216796,0.0962666198611259,0,0,0
12776,436440.5243271605,2010-10-13 15:44:02,0.187627700962399,9,37,-1.9243103452026844e-05,3.366427183151245,37.971948907908335,37.91718053157993,151.23523727618772,138.6109948108651,0.0,0.0915781408548355,0,0,0
12777,436445.35224451096,2010-10-13 15:44:07,5.015545051513001,9,37,0.0008838032954372,3.374359607696533,37.97194980029983,37.91718053174619,151.23524028459698,138.61099481142475,0.0011332035064697,0.0915781408548355,0,0,0
