Data_Point,Test_Time(s),Date_Time,Step_Time(s),Step_Index,Cycle_Index,Current(A),Voltage(V),Charge_Capacity(Ah),Discharge_Capacity(Ah),Charge_Energy(Wh),Discharge_Energy(Wh),dV/dt(V/s),Internal_Resistance(Ohm),Is_FC_Data,AC_Impedance(Ohm),ACI_Phase_Angle(Deg)
356,12418.114689680791,2010-10-08 17:56:15,30.015260639979644,1,2,0.0,3.407708168029785,1.07599717825302,1.0415557005729,4.294141191156188,3.799903032276605,0.0007446765666827,0.0899572893977165,0,0,0
357,12448.129690643576,2010-10-08 17:56:45,60.03026162782627,1,2,0.0,3.4306960105896,1.07599717825302,1.0415557005729,4.294141191156188,3.799903032276605,0.0005504131549969,0.0899572893977165,0,0,0
358,12478.14483256768,2010-10-08 17:57:15,90.04540354691693,1,2,0.0,3.4475319385528564,1.07599717825302,1.0415557005729,4.294141191156188,3.799903032276605,0.0004209041653666,0.0899572893977165,0,0,0
359,12508.113105464745,2010-10-08 17:57:45,120.0136764740584,1,2,0.0,3.460968494415283,1.07599717825302,1.0415557005729,4.294141191156188,3.799903032276605,0.0003561496851034,0.0899572893977165,0,0,0
360,12538.128892586688,2010-10-08 17:58:15,30.015267687544345,2,2,0.550297200679779,3.60601806640625,1.080583521810771,1.0415557005729,4.310533636807064,3.799903032276605,0.0014569759368896,0.0899572893977165,0,0,0
361,12568.143894962994,2010-10-08 17:58:45,60.030270028764,2,2,0.5501165986061096,3.64940357208252,1.085169873553907,1.0415557005729,4.327177036626784,3.799903032276605,0.0010036944877356,0.0899572893977165,0,0,0
362,12598.159154520275,2010-10-08 17:59:15,90.04552962113266,2,2,0.5501165986061096,3.681618690490722,1.089756207879828,1.0415557005729,4.343991228379398,3.799903032276605,0.0007770538213662,0.0899572893977165,0,0,0
363,12628.17416893659,2010-10-08 17:59:45,120.06054399734724,2,2,0.5501165986061096,3.707520484924317,1.094342487063893,1.0415557005729,4.360937474344704,3.799903032276605,0.0006799221155233,0.0899572893977165,0,0,0
364,12658.189285833318,2010-10-08 18:00:15,150.07566089407445,2,2,0.5501165986061096,3.728403806686402,1.098928791616579,1.0415557005729,4.377990800706932,3.799903032276605,0.0005180359003134,0.0899572893977165,0,0,0
365,12688.204415722426,2010-10-08 18:00:45,180.0907907881952,2,2,0.550297200679779,3.7454018592834473,1.10351504001096,1.0415557005729,4.395130612354094,3.799903032276605,0.0003885269106831,0.0899572893977165,0,0,0
366,12718.219568669,2010-10-08 18:01:15,210.1059437598322,2,2,0.5501165986061096,3.758028745651245,1.108101269379503,1.0415557005729,4.412338322577427,3.799903032276605,0.0002913951757363,0.0899572893977165,0,0,0
367,12748.234699375143,2010-10-08 18:01:45,240.12107447098924,2,2,0.5501165986061096,3.766123056411743,1.112687498470038,1.0415557005729,4.429593893173824,3.799903032276605,0.0001618862152099,0.0899572893977165,0,0,0
368,12778.249802061457,2010-10-08 18:02:15,270.1361771372498,2,2,0.5501165986061096,3.771141529083252,1.117273743005477,1.0415557005729,4.446878846342195,3.799903032276605,0.0001295089750783,0.0899572893977165,0,0,0
369,12808.265214419562,2010-10-08 18:02:45,300.15158952042015,2,2,0.5501165986061096,3.774703025817871,1.121860009472434,1.0415557005729,4.464182496638276,3.799903032276605,9.713172767078504e-05,0.0899572893977165,0,0,0
370,12838.28017695658,2010-10-08 18:03:15,330.1665521677103,2,2,0.5499359965324402,3.777778863906861,1.126446201404311,1.0415557005729,4.481500718906395,3.799903032276605,9.713172767078504e-05,0.0899572893977165,0,0,0
371,12868.297748851915,2010-10-08 18:03:45,360.18412407307443,2,2,0.550297200679779,3.7808547019958496,1.131032758891087,1.0415557005729,4.498834272210484,3.799903032276605,9.713172767078504e-05,0.0899572893977165,0,0,0
372,12898.310343291909,2010-10-08 18:04:15,390.19671838273854,2,2,0.550297200679779,3.783930540084839,1.135618593034151,1.0415557005729,4.516178841589216,3.799903032276605,0.0001295089750783,0.0899572893977165,0,0,0
373,12928.32547140158,2010-10-08 18:04:45,420.21184649241184,2,2,0.5499359965324402,3.786682605743408,1.140204799453754,1.0415557005729,4.533538745088591,3.799903032276605,6.47544875391759e-05,0.0899572893977165,0,0,0
374,12958.340618834412,2010-10-08 18:05:15,450.2269938951695,2,2,0.5501165986061096,3.7897584438323975,1.144791079363653,1.0415557005729,4.550912725381311,3.799903032276605,9.713172767078504e-05,0.0899572893977165,0,0,0
375,12988.357630964643,2010-10-08 18:05:45,480.24400614068907,2,2,0.5501165986061096,3.7926723957061768,1.149377692038101,1.0415557005729,4.5683015490293,3.799903032276605,6.47544875391759e-05,0.0899572893977165,0,0,0
376,13018.373172865611,2010-10-08 18:06:15,510.25954805168266,2,2,0.5501165986061096,3.795586347579956,1.153963963899857,1.0415557005729,4.585702527057233,3.799903032276605,3.237724376958795e-05,0.0899572893977165,0,0,0
377,13048.386000712324,2010-10-08 18:06:45,540.2723758081681,2,2,0.550297200679779,3.798662185668945,1.158549924654588,1.0415557005729,4.603115620780701,3.799903032276605,6.47544875391759e-05,0.0899572893977165,0,0,0
378,13078.401236460264,2010-10-08 18:07:15,570.2876115260341,2,2,0.5501165986061096,3.8015761375427246,1.163136198291151,1.0415557005729,4.620543149494182,3.799903032276605,0.0001295089750783,0.0899572893977165,0,0,0
379,13108.416222651233,2010-10-08 18:07:45,600.3025977220149,2,2,0.5501165986061096,3.804328203201294,1.167722420493779,1.0415557005729,4.637983556071988,3.799903032276605,0.0001295089750783,0.0899572893977165,0,0,0
380,13138.431493351283,2010-10-08 18:08:15,630.3178684320923,2,2,0.5501165986061096,3.8070802688598633,1.172308685127867,1.0415557005729,4.655437213636541,3.799903032276605,6.47544875391759e-05,0.0899572893977165,0,0,0
381,13168.446499000753,2010-10-08 18:08:45,660.3328740615071,2,2,0.550297200679779,3.810156106948853,1.176894890830206,1.0415557005729,4.672903734251786,3.799903032276605,0.0001295089750783,0.0899572893977165,0,0,0
382,13198.461640418593,2010-10-08 18:09:15,690.3480155094235,2,2,0.5499359965324402,3.812746286392212,1.181481229360863,1.0415557005729,4.690383919506772,3.799903032276605,3.237724376958795e-05,0.0899572893977165,0,0,0
383,13228.476763099736,2010-10-08 18:09:45,720.3631381604923,2,2,0.5501165986061096,3.815822124481201,1.186067462105003,1.0415557005729,4.707877357171323,3.799903032276605,9.713172767078504e-05,0.0899572893977165,0,0,0
384,13258.492151718678,2010-10-08 18:10:15,750.3785267894599,2,2,0.5501165986061096,3.8188979625701904,1.190653806439854,1.0415557005729,4.725384704421777,3.799903032276605,0.0001295089750783,0.0899572893977165,0,0,0
385,13288.507013379278,2010-10-08 18:10:45,780.3933884450477,2,2,0.5501165986061096,3.8218119144439697,1.195240056128141,1.0415557005729,4.742905627202863,3.799903032276605,3.237724376958795e-05,0.0899572893977165,0,0,0
386,13318.522164015094,2010-10-08 18:11:15,810.4085392011629,2,2,0.5501165986061096,3.825049638748169,1.199826326103681,1.0415557005729,4.760440753348301,3.799903032276605,9.713172767078504e-05,0.0899572893977165,0,0,0
387,13348.537276170002,2010-10-08 18:11:45,840.4236512357721,2,2,0.5501165986061096,3.828125476837158,1.204412600149182,1.0415557005729,4.777990503401994,3.799903032276605,9.713172767078504e-05,0.0899572893977165,0,0,0
388,13378.55253791273,2010-10-08 18:12:15,870.4389129785003,2,2,0.5501165986061096,3.831363201141357,1.208998845045492,1.0415557005729,4.795555055280461,3.799903032276605,3.237724376958795e-05,0.0899572893977165,0,0,0
389,13408.567688172609,2010-10-08 18:12:45,900.4540632784788,2,2,0.5499359965324402,3.834762573242188,1.213585134303696,1.0415557005729,4.813135003938436,3.799903032276605,9.713172767078504e-05,0.0899572893977165,0,0,0
390,13438.582679571558,2010-10-08 18:13:15,930.4690546423392,2,2,0.5501165986061096,3.838324069976807,1.218171408422584,1.0415557005729,4.830730333854056,3.799903032276605,0.0001295089750783,0.0899572893977165,0,0,0
391,13468.597820683635,2010-10-08 18:13:45,960.4841957794812,2,2,0.550297200679779,3.841723680496216,1.222757675468812,1.0415557005729,4.84834110108672,3.799903032276605,0.0001295089750783,0.0899572893977165,0,0,0
392,13498.613060892696,2010-10-08 18:14:15,990.499436063728,2,2,0.550297200679779,3.844961404800415,1.227343946898985,1.0415557005729,4.865967324783798,3.799903032276605,9.713172767078504e-05,0.0899572893977165,0,0,0
393,13528.62809032644,2010-10-08 18:14:45,1020.5144655225332,2,2,0.5499359965324402,3.8481991291046143,1.23193023122786,1.0415557005729,4.883609084968279,3.799903032276605,6.47544875391759e-05,0.0899572893977165,0,0,0
394,13558.643221278197,2010-10-08 18:15:15,1050.5295963790525,2,2,0.5501165986061096,3.851598739624024,1.236516567927633,1.0415557005729,4.901266283078821,3.799903032276605,6.47544875391759e-05,0.0899572893977165,0,0,0
395,13588.660292375393,2010-10-08 18:15:45,1080.5466674862737,2,2,0.5499359965324402,3.8546745777130127,1.241103122153657,1.0415557005729,4.918939319856086,3.799903032276605,6.47544875391759e-05,0.0899572893977165,0,0,0
396,13618.673606995288,2010-10-08 18:16:15,1110.5599821663222,2,2,0.5501165986061096,3.858074188232422,1.245689153837923,1.0415557005729,4.936625237144572,3.799903032276605,9.713172767078504e-05,0.0899572893977165,0,0,0
397,13648.688623481765,2010-10-08 18:16:46,1140.5749985826214,2,2,0.5501165986061096,3.861150026321411,1.250275425605025,1.0415557005729,4.954326639667917,3.799903032276605,3.237724376958795e-05,0.0899572893977165,0,0,0
398,13678.703777355651,2010-10-08 18:17:16,1170.5901524414694,2,2,0.550297200679779,3.86454963684082,1.254861727873165,1.0415557005729,4.972042506962474,3.799903032276605,0.0001295089750783,0.0899572893977165,0,0,0
399,13708.718855410572,2010-10-08 18:17:46,1200.6052304813536,2,2,0.5499359965324402,3.8673017024993896,1.259447970658399,1.0415557005729,4.989772045328162,3.799903032276605,6.47544875391759e-05,0.0899572893977165,0,0,0
400,13738.734002683004,2010-10-08 18:18:16,1230.6203777838612,2,2,0.5501165986061096,3.870377540588379,1.264034247253221,1.0415557005729,5.007515281635421,3.799903032276605,0.0001295089750783,0.0899572893977165,0,0,0
401,13768.749109023422,2010-10-08 18:18:46,1260.6354841192665,2,2,0.5501165986061096,3.873129606246948,1.268620508453837,1.0415557005729,5.025271554994599,3.799903032276605,9.713172767078504e-05,0.0899572893977165,0,0,0
402,13798.764381272336,2010-10-08 18:19:16,1290.6507563431169,2,2,0.5501165986061096,3.8755578994750977,1.273206796370809,1.0415557005729,5.043040378599192,3.799903032276605,3.237724376958795e-05,0.0899572893977165,0,0,0
403,13828.77959517082,2010-10-08 18:19:46,1320.665970291727,2,2,0.5501165986061096,3.878148078918457,1.277793076349503,1.0415557005729,5.060820975883741,3.799903032276605,3.237724376958795e-05,0.0899572893977165,0,0,0
404,13858.794632534326,2010-10-08 18:20:16,1350.681007605108,2,2,0.5499359965324402,3.880414485931397,1.282379371450304,1.0415557005729,5.078612695899667,3.799903032276605,3.237724376958795e-05,0.0899572893977165,0,0,0
405,13888.80978119522,2010-10-08 18:20:46,1380.6961562660017,2,2,0.550297200679779,3.882842779159546,1.286965696192207,1.0415557005729,5.096414867157743,3.799903032276605,9.713172767078504e-05,0.0899572893977165,0,0,0
406,13918.82477967682,2010-10-08 18:21:16,1410.7111547476018,2,2,0.5501165986061096,3.884623527526856,1.291551985514777,1.0415557005729,5.114226458549508,3.799903032276605,6.47544875391759e-05,0.0899572893977165,0,0,0
407,13948.839896999609,2010-10-08 18:21:46,1440.7262720603658,2,2,0.5501165986061096,3.886404275894165,1.296138322414994,1.0415557005729,5.1320468668841,3.799903032276605,6.47544875391759e-05,0.0899572893977165,0,0,0
408,13978.855049550197,2010-10-08 18:22:16,1470.7414246259907,2,2,0.5501165986061096,3.8881850242614746,1.300724644993223,1.0415557005729,5.149875159063472,3.799903032276605,6.47544875391759e-05,0.0899572893977165,0,0,0
409,14008.870156832963,2010-10-08 18:22:46,1500.7565318987322,2,2,0.5501165986061096,3.889642000198364,1.305310949931352,1.0415557005729,5.167710690162498,3.799903032276605,0.0,0.0899572893977165,0,0,0
410,14038.885417878952,2010-10-08 18:23:16,1530.7717929647738,2,2,0.5501165986061096,3.890937089920044,1.309897276625114,1.0415557005729,5.185552883374271,3.799903032276605,0.0,0.0899572893977165,0,0,0
411,14068.90041741318,2010-10-08 18:23:46,1560.7867924739353,2,2,0.5501165986061096,3.892232179641724,1.314483548734221,1.0415557005729,5.2034010153282,3.799903032276605,3.237724376958795e-05,0.0899572893977165,0,0,0
412,14098.91556774323,2010-10-08 18:24:16,1590.8019428641385,2,2,0.5499359965324402,3.893365383148194,1.319069913972625,1.0415557005729,5.221255137927664,3.799903032276605,0.0,0.0899572893977165,0,0,0
413,14128.930678905668,2010-10-08 18:24:46,1620.8170540015117,2,2,0.5501165986061096,3.894498586654663,1.323656308434345,1.0415557005729,5.239114761254263,3.799903032276605,0.0,0.0899572893977165,0,0,0
414,14158.945816233314,2010-10-08 18:25:16,1650.8321913291588,2,2,0.550297200679779,3.895631790161133,1.32824269097674,1.0415557005729,5.256978829085868,3.799903032276605,3.237724376958795e-05,0.0899572893977165,0,0,0
415,14188.962905696284,2010-10-08 18:25:46,1680.849280802153,2,2,0.5497553944587708,3.896441221237183,1.332829292067685,1.0415557005729,5.274848727400703,3.799903032276605,0.0,0.0899572893977165,0,0,0
416,14218.976068653192,2010-10-08 18:26:16,1710.8624437189612,2,2,0.5499359965324402,3.897574424743652,1.337415319530891,1.0415557005729,5.292721135679272,3.799903032276605,3.237724376958795e-05,0.0899572893977165,0,0,0
417,14248.991327248074,2010-10-08 18:26:46,1740.8777023138437,2,2,0.5501165986061096,3.898545742034912,1.34200166156145,1.0415557005729,5.310599396770535,3.799903032276605,-3.237724376958795e-05,0.0899572893977165,0,0,0
418,14279.00634804028,2010-10-08 18:27:16,1770.8927231060493,2,2,0.5501165986061096,3.899678945541382,1.346587988357356,1.0415557005729,5.328482263368453,3.799903032276605,3.237724376958795e-05,0.0899572893977165,0,0,0
419,14309.021565432471,2010-10-08 18:27:46,1800.9079406235542,2,2,0.5501165986061096,3.900812149047852,1.351174410550954,1.0415557005729,5.346370004249955,3.799903032276605,9.713172767078504e-05,0.0899572893977165,0,0,0
420,14339.036597477723,2010-10-08 18:28:16,1830.9229725785808,2,2,0.5499359965324402,3.901621580123901,1.355760635860558,1.0415557005729,5.364261630363299,3.799903032276605,0.0,0.0899572893977165,0,0,0
421,14369.051871275497,2010-10-08 18:28:46,1860.938246341266,2,2,0.5501165986061096,3.902592897415161,1.360346950147442,1.0415557005729,5.382158232578871,3.799903032276605,0.0,0.0899572893977165,0,0,0
422,14399.066855556704,2010-10-08 18:29:16,1890.9532306475369,2,2,0.5501165986061096,3.903726100921631,1.364933277501743,1.0415557005729,5.400059530245988,3.799903032276605,6.47544875391759e-05,0.0899572893977165,0,0,0
423,14429.08198333054,2010-10-08 18:29:46,1920.968358391298,2,2,0.5499359965324402,3.9045355319976807,1.369519647281127,1.0415557005729,5.417965731730232,3.799903032276605,0.0,0.0899572893977165,0,0,0
424,14459.097236376594,2010-10-08 18:30:16,1950.983611472439,2,2,0.5501165986061096,3.90583062171936,1.374105339423966,1.0415557005729,5.435873693293079,3.799903032276605,6.47544875391759e-05,0.0899572893977165,0,0,0
425,14489.112244381931,2010-10-08 18:30:46,1980.9986194777755,2,2,0.5497553944587708,3.90664005279541,1.378690699601371,1.0415557005729,5.453785129952543,3.799903032276605,0.0,0.0899572893977165,0,0,0
426,14519.127405213158,2010-10-08 18:31:16,2011.013780298976,2,2,0.5501165986061096,3.90777325630188,1.383276050057289,1.0415557005729,5.471701374386865,3.799903032276605,3.237724376958795e-05,0.0899572893977165,0,0,0
427,14549.142552169802,2010-10-08 18:31:46,2041.028927290709,2,2,0.5499359965324402,3.9089064598083496,1.387861446981598,1.0415557005729,5.489622586593114,3.799903032276605,6.47544875391759e-05,0.0899572893977165,0,0,0
428,14579.157647317325,2010-10-08 18:32:16,2071.0440232402298,2,2,0.5501165986061096,3.9100396633148193,1.392447488053125,1.0415557005729,5.507551426776979,3.799903032276605,3.237724376958795e-05,0.0899572893977165,0,0,0
429,14609.172745362066,2010-10-08 18:32:46,2101.0591204478856,2,2,0.550297200679779,3.911334753036499,1.397033819487953,1.0415557005729,5.525486357241705,3.799903032276605,9.713172767078504e-05,0.0899572893977165,0,0,0
430,14639.187935381036,2010-10-08 18:33:16,2131.0743104518183,2,2,0.5501165986061096,3.911982297897339,1.401620069495791,1.0415557005729,5.543426053365982,3.799903032276605,-3.237724376958795e-05,0.0899572893977165,0,0,0
431,14669.203053260211,2010-10-08 18:33:46,2161.089428330994,2,2,0.5499359965324402,3.9131155014038086,1.406206371691016,1.0415557005729,5.561371080009277,3.799903032276605,0.0,0.0899572893977165,0,0,0
432,14699.218215239298,2010-10-08 18:34:16,2191.1045904504304,2,2,0.5501165986061096,3.914410352706909,1.410792654225011,1.0415557005729,5.579321173672998,3.799903032276605,3.237724376958795e-05,0.0899572893977165,0,0,0
433,14729.23364693059,2010-10-08 18:34:46,2221.120022006385,2,2,0.5501165986061096,3.915543556213379,1.41537908359994,1.0415557005729,5.597277113899398,3.799903032276605,3.237724376958795e-05,0.0899572893977165,0,0,0
434,14759.248436471446,2010-10-08 18:35:16,2251.1348115422284,2,2,0.5499359965324402,3.9166767597198486,1.419965345639919,1.0415557005729,5.615237447812046,3.799903032276605,0.0,0.0899572893977165,0,0,0
435,14789.266100481364,2010-10-08 18:35:46,2281.152475577208,2,2,0.5501165986061096,3.917971849441528,1.424551961158252,1.0415557005729,5.633204638594394,3.799903032276605,0.0,0.0899572893977165,0,0,0
436,14819.278854579268,2010-10-08 18:36:16,2311.1652296450384,2,2,0.5501165986061096,3.919105052947998,1.429137802658813,1.0415557005729,5.65117425442322,3.799903032276605,3.237724376958795e-05,0.0899572893977165,0,0,0
437,14849.293958899652,2010-10-08 18:36:46,2341.180333970434,2,2,0.5501165986061096,3.9204001426696777,1.433724016704363,1.0415557005729,5.669150888678582,3.799903032276605,6.47544875391759e-05,0.0899572893977165,0,0,0
438,14879.308975947526,2010-10-08 18:37:16,2371.195351018307,2,2,0.550297200679779,3.921857118606568,1.438310287305394,1.0415557005729,5.687133260098808,3.799903032276605,6.47544875391759e-05,0.0899572893977165,0,0,0
439,14909.324090267832,2010-10-08 18:37:46,2401.210465343626,2,2,0.5501165986061096,3.922666549682617,1.442896528187812,1.0415557005729,5.705121280666829,3.799903032276605,0.0,0.0899572893977165,0,0,0
440,14939.34162063968,2010-10-08 18:38:16,2431.227995835776,2,2,0.5501165986061096,3.924123525619507,1.447483229254526,1.0415557005729,5.723116890783834,3.799903032276605,3.237724376958795e-05,0.0899572893977165,0,0,0
441,14969.35436382539,2010-10-08 18:38:46,2461.240738941284,2,2,0.5501165986061096,3.9254186153411865,1.45206910469025,1.0415557005729,5.741115110227432,3.799903032276605,6.47544875391759e-05,0.0899572893977165,0,0,0
442,14999.369506310892,2010-10-08 18:39:16,2491.2558814067365,2,2,0.5501165986061096,3.926551818847656,1.456655384960394,1.0415557005729,5.759120705791161,3.799903032276605,3.237724376958795e-05,0.0899572893977165,0,0,0
443,15029.384613187647,2010-10-08 18:39:46,2521.270988258429,2,2,0.5499359965324402,3.927846908569336,1.461241667797097,1.0415557005729,5.777132315468946,3.799903032276605,3.237724376958795e-05,0.0899572893977165,0,0,0
444,15059.39974974337,2010-10-08 18:40:16,2551.286124814152,2,2,0.5501165986061096,3.9293038845062256,1.465827999394036,1.0415557005729,5.79515012667679,3.799903032276605,3.237724376958795e-05,0.0899572893977165,0,0,0
445,15089.414883467036,2010-10-08 18:40:46,2581.3012585328047,2,2,0.5499359965324402,3.930598974227905,1.470414287178579,1.0415557005729,5.813173889651526,3.799903032276605,3.237724376958795e-05,0.0899572893977165,0,0,0
446,15119.430038172994,2010-10-08 18:41:16,2611.316413243777,2,2,0.5497553944587708,3.931732177734375,1.475000615470196,1.0415557005729,5.8312039544412,3.799903032276605,0.0,0.0899572893977165,0,0,0
447,15149.445163836572,2010-10-08 18:41:46,2641.3315389223912,2,2,0.5501165986061096,3.9333510398864746,1.479586879073917,1.0415557005729,5.849240015575095,3.799903032276605,6.47544875391759e-05,0.0899572893977165,0,0,0
448,15179.460612525228,2010-10-08 18:42:16,2671.3469877213206,2,2,0.5501165986061096,3.9346461296081534,1.484173239087602,1.0415557005729,5.867282734632757,3.799903032276605,3.237724376958795e-05,0.0899572893977165,0,0,0
449,15209.475413354216,2010-10-08 18:42:46,2701.361788414973,2,2,0.5499359965324402,3.935941219329834,1.48875958880308,1.0415557005729,5.885331860279494,3.799903032276605,0.0,0.0899572893977165,0,0,0
450,15239.490549859816,2010-10-08 18:43:16,2731.376924930596,2,2,0.5499359965324402,3.937398195266724,1.493345899424514,1.0415557005729,5.903387050375241,3.799903032276605,3.237724376958795e-05,0.0899572893977165,0,0,0
451,15269.505672515896,2010-10-08 18:43:46,2761.3920475816653,2,2,0.5501165986061096,3.9390170574188232,1.49793216568472,1.0415557005729,5.921448704171584,3.799903032276605,6.47544875391759e-05,0.0899572893977165,0,0,0
452,15299.520809041544,2010-10-08 18:44:16,2791.407184142401,2,2,0.5501165986061096,3.940312147140503,1.502518478350693,1.0415557005729,5.939517072786607,3.799903032276605,3.237724376958795e-05,0.0899572893977165,0,0,0
453,15329.535948750125,2010-10-08 18:44:46,2821.4223238209074,2,2,0.5501165986061096,3.9417691230773926,1.507104795699918,1.0415557005729,5.957592073558772,3.799903032276605,0.0,0.0899572893977165,0,0,0
454,15359.551091070216,2010-10-08 18:45:16,2851.437466140997,2,2,0.5501165986061096,3.943387985229492,1.511691122097582,1.0415557005729,5.975673794817615,3.799903032276605,3.237724376958795e-05,0.0899572893977165,0,0,0
455,15389.568106603932,2010-10-08 18:45:46,2881.4544816947623,2,2,0.550297200679779,3.944844961166382,1.516277750346649,1.0415557005729,5.993763435346207,3.799903032276605,6.47544875391759e-05,0.0899572893977165,0,0,0
456,15419.581573413132,2010-10-08 18:46:16,2911.467948599201,2,2,0.5501165986061096,3.9461400508880615,1.520863865173739,1.0415557005729,6.011857865932394,3.799903032276605,3.237724376958795e-05,0.0899572893977165,0,0,0
457,15449.596489073316,2010-10-08 18:46:46,2941.48286422931,2,2,0.550297200679779,3.947758913040161,1.52545013884465,1.0415557005729,6.029959637175061,3.799903032276605,3.237724376958795e-05,0.0899572893977165,0,0,0
458,15479.61166512748,2010-10-08 18:47:16,2971.498040233351,2,2,0.5501165986061096,3.9493777751922607,1.53003646496663,1.0415557005729,6.048068580325214,3.799903032276605,6.47544875391759e-05,0.0899572893977165,0,0,0
459,15509.626739548346,2010-10-08 18:47:46,3001.5131146441904,2,2,0.5501165986061096,3.9508347511291504,1.534622770793204,1.0415557005729,6.06618431809416,3.799903032276605,6.47544875391759e-05,0.0899572893977165,0,0,0
460,15539.641867983832,2010-10-08 18:48:16,3031.528243054613,2,2,0.5499359965324402,3.95196795463562,1.539209123170819,1.0415557005729,6.08430720183032,3.799903032276605,0.0,0.0899572893977165,0,0,0
461,15569.65702047928,2010-10-08 18:48:47,3061.543395600188,2,2,0.5499359965324402,3.9537487030029297,1.543795397981742,1.0415557005729,6.102436782290591,3.799903032276605,0.0,0.0899572893977165,0,0,0
462,15599.672163295609,2010-10-08 18:49:17,3091.5585383964653,2,2,0.5499359965324402,3.955367565155029,1.548381660557686,1.0415557005729,6.120573367227446,3.799903032276605,6.47544875391759e-05,0.0899572893977165,0,0,0
463,15629.687260017052,2010-10-08 18:49:47,3121.573635107884,2,2,0.550297200679779,3.956986427307129,1.552968000242594,1.0415557005729,6.138717410314913,3.799903032276605,6.47544875391759e-05,0.0899572893977165,0,0,0
464,15659.70251596534,2010-10-08 18:50:17,3151.588891091258,2,2,0.5501165986061096,3.9584434032440186,1.557554334529525,1.0415557005729,6.156868466957075,3.799903032276605,3.237724376958795e-05,0.0899572893977165,0,0,0
465,15689.71753743423,2010-10-08 18:50:47,3181.6039124949875,2,2,0.5499359965324402,3.959900379180908,1.562140653030507,1.0415557005729,6.175026777250046,3.799903032276605,3.237724376958795e-05,0.0899572893977165,0,0,0
466,15719.732700967188,2010-10-08 18:51:17,3211.6190760680465,2,2,0.5501165986061096,3.9616811275482178,1.56672694614878,1.0415557005729,6.193192276367751,3.799903032276605,6.47544875391759e-05,0.0899572893977165,0,0,0
467,15749.74800926595,2010-10-08 18:51:47,3241.6343844169314,2,2,0.550297200679779,3.9634618759155273,1.571313284738181,1.0415557005729,6.211365280389255,3.799903032276605,3.237724376958795e-05,0.0899572893977165,0,0,0
468,15779.76295106127,2010-10-08 18:52:17,3271.649326162127,2,2,0.5501165986061096,3.964918851852417,1.575899544638367,1.0415557005729,6.229545400494738,3.799903032276605,6.47544875391759e-05,0.0899572893977165,0,0,0
469,15809.778058845286,2010-10-08 18:52:47,3301.6644339160675,2,2,0.5501165986061096,3.9665377140045166,1.580485911456396,1.0415557005729,6.247733450802933,3.799903032276605,3.237724376958795e-05,0.0899572893977165,0,0,0
470,15839.793296272412,2010-10-08 18:53:17,3331.6796714785314,2,2,0.5501165986061096,3.968156576156616,1.585072306278246,1.0415557005729,6.265929106550268,3.799903032276605,6.47544875391759e-05,0.0899572893977165,0,0,0
471,15869.808452888132,2010-10-08 18:53:47,3361.6948279589133,2,2,0.5501165986061096,3.969775438308716,1.589658646086236,1.0415557005729,6.284132165399643,3.799903032276605,3.237724376958795e-05,0.0899572893977165,0,0,0
472,15899.823463991188,2010-10-08 18:54:17,3391.7098390920446,2,2,0.5501165986061096,3.9715561866760254,1.594244900046928,1.0415557005729,6.302342584443969,3.799903032276605,6.47544875391759e-05,0.0899572893977165,0,0,0
473,15929.83859770984,2010-10-08 18:54:47,3421.7249727806225,2,2,0.5501165986061096,3.973175048828125,1.598831274259563,1.0415557005729,6.320561312406099,3.799903032276605,3.237724376958795e-05,0.0899572893977165,0,0,0
474,15959.85374800982,2010-10-08 18:55:17,3451.740123080601,2,2,0.5499359965324402,3.9749557971954346,1.603417604972645,1.0415557005729,6.338787794779591,3.799903032276605,6.47544875391759e-05,0.0899572893977165,0,0,0
475,15989.870852329816,2010-10-08 18:55:47,3481.7572274607487,2,2,0.5499359965324402,3.976736545562744,1.608004268622366,1.0415557005729,6.357023595035416,3.799903032276605,9.713172767078504e-05,0.0899572893977165,0,0,0
476,16019.88400458004,2010-10-08 18:56:17,3511.7703797410472,2,2,0.5501165986061096,3.978031635284424,1.612590356609716,1.0415557005729,6.375264774133074,3.799903032276605,0.0,0.0899572893977165,0,0,0
477,16049.899171230769,2010-10-08 18:56:47,3541.785546426864,2,2,0.5501165986061096,3.9802980422973633,1.617176529299902,1.0415557005729,6.393514859287719,3.799903032276605,6.47544875391759e-05,0.0899572893977165,0,0,0
478,16079.914269100074,2010-10-08 18:57:17,3571.8006441708567,2,2,0.5501165986061096,3.982078790664673,1.621762777102227,1.0415557005729,6.411773524690984,3.799903032276605,3.237724376958795e-05,0.0899572893977165,0,0,0
479,16109.929399219756,2010-10-08 18:57:47,3601.815774315602,2,2,0.5499359965324402,3.9838595390319824,1.626349018708031,1.0415557005729,6.430040523855633,3.799903032276605,3.237724376958795e-05,0.0899572893977165,0,0,0
480,16139.944525855755,2010-10-08 18:58:17,3631.8309009516015,2,2,0.5501165986061096,3.985640287399292,1.630935219998766,1.0415557005729,6.448315805664141,3.799903032276605,3.237724376958795e-05,0.0899572893977165,0,0,0
481,16169.959664035528,2010-10-08 18:58:47,3661.846039101298,2,2,0.5499359965324402,3.9877448081970215,1.635521509235272,1.0415557005729,6.466600133555712,3.799903032276605,6.47544875391759e-05,0.0899572893977165,0,0,0
482,16199.974814175108,2010-10-08 18:59:17,3691.86118924589,2,2,0.5497553944587708,3.989363670349121,1.640107631115885,1.0415557005729,6.484892343854556,3.799903032276605,3.237724376958795e-05,0.0899572893977165,0,0,0
483,16229.98989273128,2010-10-08 18:59:47,3721.8762678271232,2,2,0.5501165986061096,3.9914681911468506,1.644694060258011,1.0415557005729,6.503194628504796,3.799903032276605,0.0,0.0899572893977165,0,0,0
484,16260.005136288684,2010-10-08 19:00:17,3751.891511384528,2,2,0.5501165986061096,3.99341082572937,1.649281089761532,1.0415557005729,6.521508330301682,3.799903032276605,3.237724376958795e-05,0.0899572893977165,0,0,0
485,16290.020111482245,2010-10-08 19:00:47,3781.9064865730734,2,2,0.5501165986061096,3.995515108108521,1.653867970454179,1.0415557005729,6.539830528400588,3.799903032276605,6.47544875391759e-05,0.0899572893977165,0,0,0
486,16320.03535190684,2010-10-08 19:01:17,3811.921727007696,2,2,0.550297200679779,3.99761962890625,1.658455063765508,1.0415557005729,6.558162807863688,3.799903032276605,6.47544875391759e-05,0.0899572893977165,0,0,0
487,16350.0504112401,2010-10-08 19:01:47,3841.93678632592,2,2,0.5501165986061096,3.9995622634887695,1.663042216494359,1.0415557005729,6.576504568329953,3.799903032276605,6.47544875391759e-05,0.0899572893977165,0,0,0
488,16380.065673804876,2010-10-08 19:02:17,3871.9520488957087,2,2,0.5501165986061096,4.001504898071289,1.667629244146853,1.0415557005729,6.594855268546695,3.799903032276605,3.23295607813634e-05,0.0899572893977165,0,0,0
489,16410.08068649188,2010-10-08 19:02:47,3901.9670615927375,2,2,0.5501165986061096,4.003609657287598,1.672216258252749,1.0415557005729,6.613215504644567,3.799903032276605,6.47544875391759e-05,0.0899572893977165,0,0,0
490,16440.09587555848,2010-10-08 19:03:17,3931.9822506292608,2,2,0.5499359965324402,4.005876064300537,1.676802619592393,1.0415557005729,6.631582749356818,3.799903032276605,3.24249267578125e-05,0.0899572893977165,0,0,0
491,16470.110988906363,2010-10-08 19:03:47,3961.99736397213,2,2,0.5501165986061096,4.007980346679688,1.681389006203395,1.0415557005729,6.649959901344057,3.799903032276605,6.47544875391759e-05,0.0899572893977165,0,0,0
492,16500.126131477078,2010-10-08 19:04:17,3992.012506577933,2,2,0.5501165986061096,4.010085105895996,1.685975365878963,1.0415557005729,6.668346714630189,3.799903032276605,3.24249267578125e-05,0.0899572893977165,0,0,0
493,16530.141262799756,2010-10-08 19:04:47,4022.0276378655262,2,2,0.5501165986061096,4.012351512908936,1.690561709295202,1.0415557005729,6.686743419063831,3.799903032276605,6.47544875391759e-05,0.0899572893977165,0,0,0
494,16560.15652491341,2010-10-08 19:05:17,4052.042900014266,2,2,0.550297200679779,4.014617919921875,1.695148132973289,1.0415557005729,6.705150466050973,3.799903032276605,9.71794142969884e-05,0.0899572893977165,0,0,0
495,16590.173513264377,2010-10-08 19:05:47,4082.059888345183,2,2,0.5501165986061096,4.016722202301025,1.699734794582527,1.0415557005729,6.723568618613511,3.799903032276605,6.47544875391759e-05,0.0899572893977165,0,0,0
496,16620.186695338933,2010-10-08 19:06:17,4112.073070404701,2,2,0.5499359965324402,4.018988609313965,1.704320888144448,1.0415557005729,6.741994746331312,3.799903032276605,9.70840483205393e-05,0.0899572893977165,0,0,0
497,16650.202068920396,2010-10-08 19:06:47,4142.088444091428,2,2,0.5501165986061096,4.021093368530273,1.708907293741623,1.0415557005729,6.760432218190394,3.799903032276605,3.24249267578125e-05,0.0899572893977165,0,0,0
498,16680.216958490557,2010-10-08 19:07:17,4172.1033335864,2,2,0.5501165986061096,4.023359775543213,1.713493560561071,1.0415557005729,6.778879492031889,3.799903032276605,6.47544875391759e-05,0.0899572893977165,0,0,0
499,16710.23436226188,2010-10-08 19:07:47,4202.120737367747,2,2,0.5501165986061096,4.025626182556152,1.718080247531362,1.0415557005729,6.797338858853571,3.799903032276605,3.24249267578125e-05,0.0899572893977165,0,0,0
500,16740.247202113507,2010-10-08 19:08:17,4232.13357718429,2,2,0.5499359965324402,4.028054237365723,1.722666250763899,1.0415557005729,6.81580596627779,3.799903032276605,9.70840483205393e-05,0.0899572893977165,0,0,0
501,16770.26233546625,2010-10-08 19:08:47,4262.14871055708,2,2,0.5501165986061096,4.030320644378662,1.727252620550852,1.0415557005729,6.834285080245222,3.799903032276605,3.23295607813634e-05,0.0899572893977165,0,0,0
502,16800.277478493103,2010-10-08 19:09:17,4292.163853563882,2,2,0.5501165986061096,4.032749176025391,1.731838915680634,1.0415557005729,6.852774507119739,3.799903032276605,0.0001295089750783,0.0899572893977165,0,0,0
503,16830.292640066174,2010-10-08 19:09:47,4322.179015131944,2,2,0.5501165986061096,4.035015106201172,1.736425252200665,1.0415557005729,6.871274829083148,3.799903032276605,6.47544875391759e-05,0.0899572893977165,0,0,0
504,16860.307748120864,2010-10-08 19:10:17,4352.194123306934,2,2,0.5497553944587708,4.037281513214111,1.741011591179806,1.0415557005729,6.889785964616547,3.799903032276605,3.23295607813634e-05,0.0899572893977165,0,0,0
505,16890.309666131907,2010-10-08 19:10:47,4382.196041328002,2,2,0.5501165986061096,4.039547920227051,1.745595987267909,1.0415557005729,6.908300212607489,3.799903032276605,3.23295607813634e-05,0.0899572893977165,0,0,0
506,16920.32241276621,2010-10-08 19:11:17,4412.208787867068,2,2,0.5499359965324402,4.04213809967041,1.750181986896028,1.0415557005729,6.926831855919233,3.799903032276605,3.23295607813634e-05,0.0899572893977165,0,0,0
507,16950.33753451002,2010-10-08 19:11:47,4442.223909580802,2,2,0.5501165986061096,4.0447282791137695,1.75476830740755,1.0415557005729,6.945375956130133,3.799903032276605,9.70840483205393e-05,0.0899572893977165,0,0,0
508,16980.352682609515,2010-10-08 19:12:17,4472.239057695333,2,2,0.5499359965324402,4.046994686126709,1.759354669004993,1.0415557005729,6.963931446985786,3.799903032276605,6.47544875391759e-05,0.0899572893977165,0,0,0
509,17010.367771125508,2010-10-08 19:12:47,4502.254146216339,2,2,0.550297200679779,4.049584865570068,1.76394101961289,1.0415557005729,6.982498244870567,3.799903032276605,9.70840483205393e-05,0.0899572893977165,0,0,0
510,17040.382911926812,2010-10-08 19:13:17,4532.269286997594,2,2,0.5501165986061096,4.052013397216797,1.768527391229733,1.0415557005729,7.001076494245218,3.799903032276605,6.47544875391759e-05,0.0899572893977165,0,0,0
511,17070.398062081425,2010-10-08 19:13:47,4562.284437147197,2,2,0.5501165986061096,4.054441452026367,1.773113697903976,1.0415557005729,7.019666053478066,3.799903032276605,3.23295607813634e-05,0.0899572893977165,0,0,0
512,17100.413183644785,2010-10-08 19:14:17,4592.299558715568,2,2,0.5499359965324402,4.057031631469727,1.7776994589339,1.0415557005729,7.0382648913394,3.799903032276605,6.47544875391759e-05,0.0899572893977165,0,0,0
513,17130.42843355803,2010-10-08 19:14:47,4622.314808628814,2,2,0.5501165986061096,4.059783935546875,1.78228511720679,1.0415557005729,7.056875069582343,3.799903032276605,9.71794142969884e-05,0.0899572893977165,0,0,0
514,17160.443464019336,2010-10-08 19:15:17,4652.329839090117,2,2,0.5499359965324402,4.062050342559815,1.786871356645539,1.0415557005729,7.075499197543879,3.799903032276605,3.24249267578125e-05,0.0899572893977165,0,0,0
515,17190.45874729573,2010-10-08 19:15:47,4682.345122386563,2,2,0.550297200679779,4.064802169799805,1.791457682969288,1.0415557005729,7.094135681504248,3.799903032276605,6.47544875391759e-05,0.0899572893977165,0,0,0
516,17220.475623797938,2010-10-08 19:16:17,4712.361998908818,2,2,0.5499359965324402,4.067392349243164,1.796044347166886,1.0415557005729,7.112785575142566,3.799903032276605,6.47544875391759e-05,0.0899572893977165,0,0,0
517,17250.4888854007,2010-10-08 19:16:47,4742.375260466471,2,2,0.5501165986061096,4.0701446533203125,1.800630375940431,1.0415557005729,7.131445075103356,3.799903032276605,9.71794142969884e-05,0.0899572893977165,0,0,0
518,17280.504172376317,2010-10-08 19:17:17,4772.390547457124,2,2,0.5499359965324402,4.072896480560303,1.805216744844558,1.0415557005729,7.150118186701728,3.799903032276605,9.70840483205393e-05,0.0899572893977165,0,0,0
519,17310.519169885494,2010-10-08 19:17:47,4802.405545051513,2,2,0.5499359965324402,4.075648784637451,1.809803035502155,1.0415557005729,7.168803399160432,3.799903032276605,9.71794142969884e-05,0.0899572893977165,0,0,0
520,17340.53428134868,2010-10-08 19:18:17,4832.420656419461,2,2,0.5501165986061096,4.0782389640808105,1.814389416839813,1.0415557005729,7.187501497139258,3.799903032276605,9.71794142969884e-05,0.0899572893977165,0,0,0
521,17370.549532685473,2010-10-08 19:18:47,4862.435907781317,2,2,0.5499359965324402,4.080990791320801,1.818975789007659,1.0415557005729,7.206212238828683,3.799903032276605,6.47544875391759e-05,0.0899572893977165,0,0,0
522,17400.56472165182,2010-10-08 19:19:17,4892.451096732626,2,2,0.5501165986061096,4.083743095397949,1.823562112350823,1.0415557005729,7.224935369640397,3.799903032276605,3.24249267578125e-05,0.0899572893977165,0,0,0
523,17430.579703356605,2010-10-08 19:19:47,4922.466078447438,2,2,0.5501165986061096,4.08649492263794,1.828148426594092,1.0415557005729,7.24367138154857,3.799903032276605,6.47544875391759e-05,0.0899572893977165,0,0,0
524,17460.594807827365,2010-10-08 19:20:17,4952.4811828981465,2,2,0.5501165986061096,4.089408874511719,1.83273477275535,1.0415557005729,7.262420493443403,3.799903032276605,6.47544875391759e-05,0.0899572893977165,0,0,0
525,17490.60993230799,2010-10-08 19:20:47,4982.496307378775,2,2,0.5499359965324402,4.092161178588867,1.837321174757806,1.0415557005729,7.281182957851157,3.799903032276605,6.47544875391759e-05,0.0899572893977165,0,0,0
526,17520.62509649258,2010-10-08 19:21:18,5012.511471563358,2,2,0.5501165986061096,4.095236778259277,1.841907517363412,1.0415557005729,7.299958346330614,3.799903032276605,6.47544875391759e-05,0.0899572893977165,0,0,0
527,17550.640235399158,2010-10-08 19:21:48,5042.526610495003,2,2,0.5501165986061096,4.097989082336426,1.846493851816526,1.0415557005729,7.318747074743865,3.799903032276605,6.47544875391759e-05,0.0899572893977165,0,0,0
528,17580.65534242629,2010-10-08 19:22:18,5072.541717527145,2,2,0.550297200679779,4.101226806640625,1.851080259499185,1.0415557005729,7.337549609318736,3.799903032276605,9.71794142969884e-05,0.0899572893977165,0,0,0
529,17610.670489347845,2010-10-08 19:22:48,5102.556864443691,2,2,0.5501165986061096,4.104140758514404,1.855666654692498,1.0415557005729,7.35636561846426,3.799903032276605,6.47544875391759e-05,0.0899572893977165,0,0,0
530,17640.68560843503,2010-10-08 19:23:18,5132.571983515839,2,2,0.5499359965324402,4.1068925857543945,1.860253022062674,1.0415557005729,7.375195286135095,3.799903032276605,0.0,0.0899572893977165,0,0,0
531,17670.700757060837,2010-10-08 19:23:48,5162.587132126608,2,2,0.5501165986061096,4.109968662261963,1.864839419912708,1.0415557005729,7.394038858225764,3.799903032276605,3.24249267578125e-05,0.0899572893977165,0,0,0
532,17700.71546827648,2010-10-08 19:24:18,5192.601843131729,2,2,0.550297200679779,4.113206386566162,1.869425657199164,1.0415557005729,7.412895688480985,3.799903032276605,9.71794142969884e-05,0.0899572893977165,0,0,0
533,17730.715609544335,2010-10-08 19:24:48,5222.601984635167,2,2,0.5501165986061096,4.116119861602783,1.874009708758589,1.0415557005729,7.431757576791469,3.799903032276605,6.47544875391759e-05,0.0899572893977165,0,0,0
534,17760.730574502388,2010-10-08 19:25:18,5252.616949708505,2,2,0.5499359965324402,4.119195938110352,1.878593665712915,1.0415557005729,7.450633297440049,3.799903032276605,6.47544875391759e-05,0.0899572893977165,0,0,0
535,17790.745706672176,2010-10-08 19:25:48,5282.632081868272,2,2,0.5501165986061096,4.122433662414551,1.883182345650542,1.0415557005729,7.469542781661111,3.799903032276605,3.24249267578125e-05,0.0899572893977165,0,0,0
536,17820.760934740978,2010-10-08 19:26:18,5312.647309962137,2,2,0.5501165986061096,4.12567138671875,1.88776874379414,1.0415557005729,7.488457178420171,3.799903032276605,9.71794142969884e-05,0.0899572893977165,0,0,0
537,17850.777882039634,2010-10-08 19:26:48,5342.664257135476,2,2,0.5501165986061096,4.12874698638916,1.892355418105637,1.0415557005729,7.507387358597496,3.799903032276605,6.47544875391759e-05,0.0899572893977165,0,0,0
538,17880.791055327285,2010-10-08 19:27:18,5372.677430453206,2,2,0.550297200679779,4.132146835327148,1.896941469842941,1.0415557005729,7.526329673297597,3.799903032276605,9.71794142969884e-05,0.0899572893977165,0,0,0
539,17910.80616484061,2010-10-08 19:27:48,5402.692539906382,2,2,0.5499359965324402,4.135222434997559,1.901527842799335,1.0415557005729,7.545288114220572,3.799903032276605,6.47544875391759e-05,0.0899572893977165,0,0,0
540,17940.82143922485,2010-10-08 19:28:18,5432.707814295629,2,2,0.5501165986061096,4.138460159301758,1.906114166325639,1.0415557005729,7.564261303095437,3.799903032276605,3.23295607813634e-05,0.0899572893977165,0,0,0
541,17970.836453921864,2010-10-08 19:28:48,5462.722829007681,2,2,0.5499359965324402,4.141860008239746,1.9107005560596,1.0415557005729,7.583249910414234,3.799903032276605,6.47544875391759e-05,0.0899572893977165,0,0,0
542,18000.8515729489,2010-10-08 19:29:18,5492.737948054767,2,2,0.5501165986061096,4.145259380340576,1.915286932492903,1.0415557005729,7.602253735487518,3.799903032276605,9.70840483205393e-05,0.0899572893977165,0,0,0
543,18030.866725554624,2010-10-08 19:29:48,5522.753100625405,2,2,0.5501165986061096,4.1486592292785645,1.919873262786104,1.0415557005729,7.621273013808492,3.799903032276605,9.71794142969884e-05,0.0899572893977165,0,0,0
544,18060.881840747104,2010-10-08 19:30:18,5552.768215842947,2,2,0.5499359965324402,4.1520586013793945,1.924459559693481,1.0415557005729,7.640307646857987,3.799903032276605,9.70840483205393e-05,0.0899572893977165,0,0,0
545,18090.89696764877,2010-10-08 19:30:48,5582.783342714535,2,2,0.5501165986061096,4.155458450317383,1.929045897108562,1.0415557005729,7.659358057340855,3.799903032276605,6.47544875391759e-05,0.0899572893977165,0,0,0
546,18120.912243471583,2010-10-08 19:31:18,5612.798618542368,2,2,0.5499359965324402,4.158857822418213,1.933632198647724,1.0415557005729,7.678424036912976,3.799903032276605,9.70840483205393e-05,0.0899572893977165,0,0,0
547,18150.927230975827,2010-10-08 19:31:48,5642.813606046609,2,2,0.550297200679779,4.162419319152832,1.93821844599121,1.0415557005729,7.69750554737819,3.799903032276605,0.0001295089750783,0.0899572893977165,0,0,0
548,18180.942399631556,2010-10-08 19:32:18,5672.828774702335,2,2,0.5501165986061096,4.16581916809082,1.942804800518256,1.0415557005729,7.71660347297221,3.799903032276605,6.47544875391759e-05,0.0899572893977165,0,0,0
549,18210.957506643645,2010-10-08 19:32:48,5702.8438817044025,2,2,0.5501165986061096,4.16938066482544,1.947391107925896,1.0415557005729,7.735717356871485,3.799903032276605,9.71794142969884e-05,0.0899572893977165,0,0,0
550,18240.97262856289,2010-10-08 19:33:18,5732.859003623647,2,2,0.5499359965324402,4.1727800369262695,1.951977477209569,1.0415557005729,7.754847730301495,3.799903032276605,3.23295607813634e-05,0.0899572893977165,0,0,0
551,18270.987775298985,2010-10-08 19:33:48,5762.874150369768,2,2,0.5499359965324402,4.176341533660889,1.956563818350905,1.0415557005729,7.773994277444367,3.799903032276605,9.70840483205393e-05,0.0899572893977165,0,0,0
552,18301.002915087767,2010-10-08 19:34:18,5792.88929015855,2,2,0.550297200679779,4.180226802825928,1.961150116251569,1.0415557005729,7.793157062558289,3.799903032276605,0.0001618385285837,0.0899572893977165,0,0,0
553,18331.01816243963,2010-10-08 19:34:48,5822.904537500385,2,2,0.5499359965324402,4.183626651763916,1.965736549712883,1.0415557005729,7.812336897450327,3.799903032276605,6.47544875391759e-05,0.0899572893977165,0,0,0
554,18361.033292925225,2010-10-08 19:35:18,5852.919668016056,2,2,0.5501165986061096,4.187349796295166,1.97032291194904,1.0415557005729,7.831532946529898,3.799903032276605,9.70840483205393e-05,0.0899572893977165,0,0,0
555,18391.04832390281,2010-10-08 19:35:48,5882.934699008682,2,2,0.5499359965324402,4.190911293029785,1.974909261925362,1.0415557005729,7.850745687711493,3.799903032276605,9.70840483205393e-05,0.0899572893977165,0,0,0
556,18421.063456007443,2010-10-08 19:36:18,5912.949831108301,2,2,0.5501165986061096,4.194634914398193,1.9794956260264,1.0415557005729,7.869975320803611,3.799903032276605,9.71794142969884e-05,0.0899572893977165,0,0,0
557,18451.08050850328,2010-10-08 19:36:48,5942.966883614161,2,2,0.5501165986061096,4.198195934295654,1.984082302020175,1.0415557005729,7.889223166184621,3.799903032276605,6.47544875391759e-05,0.0899572893977165,0,0,0
558,18464.093991191286,2010-10-08 19:37:01,5955.980366257056,2,2,0.550297200679779,4.200138568878174,1.986070789052287,1.0415557005729,7.897573082984351,3.799903032276605,0.0001295089750783,0.0899572893977165,0,0,0
559,18494.106160298543,2010-10-08 19:37:31,30.0124880448194,3,2,0.0,4.116119861602783,1.986070789052287,1.0415557005729,7.897573082984351,3.799903032276605,-0.0004209518374409,0.0899572893977165,0,0,0
560,18524.12129278914,2010-10-08 19:38:01,60.02762053541133,3,2,0.0,4.105759620666504,1.986070789052287,1.0415557005729,7.897573082984351,3.799903032276605,-0.0002265930233988,0.0899572893977165,0,0,0
561,18554.13644217183,2010-10-08 19:38:31,90.0427698880286,3,2,0.0,4.099445819854736,1.986070789052287,1.0415557005729,7.897573082984351,3.799903032276605,-0.0001619339018361,0.0899572893977165,0,0,0
562,18584.104699685555,2010-10-08 19:39:01,120.01102743684258,3,2,0.0,4.095722675323486,1.986070789052287,1.0415557005729,7.897573082984351,3.799903032276605,-9.70840483205393e-05,0.0899572893977165,0,0,0
563,18584.12006413523,2010-10-08 19:39:01,0.015684921650884,4,2,0.990261435508728,4.199653148651123,1.986075103544692,1.0415557005729,7.897591202355965,3.799903032276605,0.0,0.0899572893977165,0,0,0
564,18585.02618955358,2010-10-08 19:39:02,0.921810350026219,4,2,0.9395102262496948,4.199653148651123,1.986316080301536,1.0415557005729,7.898603240702982,3.799903032276605,0.0,0.0899572893977165,0,0,0
565,18587.30745328974,2010-10-08 19:39:04,3.20307414633394,4,2,0.8893008232116699,4.199653148651123,1.986894326981006,1.0415557005729,7.901031724926321,3.799903032276605,0.0,0.0899572893977165,0,0,0
566,18590.69796910839,2010-10-08 19:39:08,6.593589949952189,4,2,0.8392720818519592,4.199814796447754,1.987707027530664,1.0415557005729,7.904444845258245,3.799903032276605,3.23295607813634e-05,0.0899572893977165,0,0,0
567,18595.229130035623,2010-10-08 19:39:12,11.124750827061291,4,2,0.7892432808876038,4.199814796447754,1.988730518931738,1.0415557005729,7.908743245188857,3.799903032276605,0.0,0.0899572893977165,0,0,0
568,18601.11979814808,2010-10-08 19:39:18,17.01541897459823,4,2,0.7392145395278931,4.199814796447754,1.989979483011016,1.0415557005729,7.913988585261397,3.799903032276605,3.23295607813634e-05,0.0899572893977165,0,0,0
569,18608.77579608062,2010-10-08 19:39:26,24.671416877062835,4,2,0.6888245344161987,4.199814796447754,1.991495861777181,1.0415557005729,7.920357024759766,3.799903032276605,3.23295607813634e-05,0.0899572893977165,0,0,0
570,18618.94749457301,2010-10-08 19:39:36,34.84311539953423,4,2,0.6386151313781738,4.199814796447754,1.993367996464735,1.0415557005729,7.928219571477929,3.799903032276605,3.23295607813634e-05,0.0899572893977165,0,0,0
571,18632.93164786584,2010-10-08 19:39:50,48.82726866228138,4,2,0.5885863900184631,4.199814796447754,1.995746746157144,1.0415557005729,7.938209768428194,3.799903032276605,0.0,0.0899572893977165,0,0,0
572,18654.08756888553,2010-10-08 19:40:11,69.98318970703909,4,2,0.5385576486587524,4.199653148651123,1.999049231610467,1.0415557005729,7.95207945379906,3.799903032276605,0.0,0.0899572893977165,0,0,0
573,18690.60256179324,2010-10-08 19:40:48,106.49818258467256,4,2,0.4883482456207275,4.199653148651123,2.004236323132008,1.0415557005729,7.973864036327965,3.799903032276605,0.0,0.0899572893977165,0,0,0
574,18756.554626481386,2010-10-08 19:41:54,172.45024727281842,4,2,0.4383194744586944,4.199653148651123,2.012689134399176,1.0415557005729,8.009363854889271,3.799903032276605,0.0,0.0899572893977165,0,0,0
575,18857.052971429563,2010-10-08 19:43:34,272.9485922560844,4,2,0.3882907032966614,4.199814796447754,2.024204510246514,1.0415557005729,8.057725731168752,3.799903032276605,0.0,0.0899572893977165,0,0,0
576,18983.00404546524,2010-10-08 19:45:40,398.899666251658,4,2,0.3382619321346283,4.199653148651123,2.036894258710235,1.0415557005729,8.111019702250426,3.799903032276605,-3.23295607813634e-05,0.0899572893977165,0,0,0
577,19134.47031056788,2010-10-08 19:48:12,550.3659313643234,4,2,0.2882331609725952,4.199814796447754,2.050050247333671,1.0415557005729,8.166271887998397,3.799903032276605,-3.24249267578125e-05,0.0899572893977165,0,0,0
578,19316.63921740569,2010-10-08 19:51:14,732.5348382221846,4,2,0.2382043898105621,4.199491024017334,2.063348571003341,1.0415557005729,8.22212183314651,3.799903032276605,-6.47544875391759e-05,0.0899572893977165,0,0,0
579,19547.8701925738,2010-10-08 19:55:05,963.7658134103458,4,2,0.188175618648529,4.199653148651123,2.077015898702651,1.0415557005729,8.279521465912591,3.799903032276605,-3.23295607813634e-05,0.0899572893977165,0,0,0
580,19860.28666040979,2010-10-08 20:00:17,1276.1822812162625,4,2,0.1381468474864959,4.199653148651123,2.091098333608283,1.0415557005729,8.338664446877308,3.799903032276605,-3.23295607813634e-05,0.0899572893977165,0,0,0
581,20342.310023134585,2010-10-08 20:08:20,1758.205643981153,4,2,0.0881180837750434,4.199653148651123,2.105999097449599,1.0415557005729,8.401243853950444,3.799903032276605,0.0,0.0899572893977165,0,0,0
582,21000.002611160893,2010-10-08 20:19:17,2415.898231992427,4,2,0.0498289167881011,4.199814796447754,2.118311632097683,1.0415557005729,8.452953288311871,3.799903032276605,0.0,0.0899572893977165,0,0,0
583,21030.01761914908,2010-10-08 20:19:47,30.015170796060957,5,2,0.0,4.192044734954834,2.118311632097683,1.0415557005729,8.452953288311871,3.799903032276605,-3.23295607813634e-05,0.0899572893977165,0,0,0
584,21060.01725719274,2010-10-08 20:20:17,60.01480884974861,5,2,0.0,4.190911293029785,2.118311632097683,1.0415557005729,8.452953288311871,3.799903032276605,0.0,0.0899572893977165,0,0,0
585,21060.20739507084,2010-10-08 20:20:18,0.189460338458928,6,2,-0.0003804616571869,4.191882610321045,2.118311632097683,1.041555720595788,8.452953288311871,3.799903116210198,0.0,0.0914954170584678,0,0,0
586,21065.03348934272,2010-10-08 20:20:22,5.015554485024214,6,2,0.0007031940040178,4.190749645233154,2.118312561664477,1.041555720595788,8.452957184098718,3.799903116210198,-3.23295607813634e-05,0.0914954170584678,0,0,0
587,21095.04953296159,2010-10-08 20:20:53,30.0151616632993,7,2,-1.099568486213684,4.019959926605225,2.118312561664477,1.050723524114771,8.452957184098718,3.836940370344603,-0.000809478748124,0.0914954170584678,0,0,0
588,21125.064887991823,2010-10-08 20:21:23,60.03051666846602,7,2,-1.099568486213684,3.9948675632476807,2.118312561664477,1.059891416825602,8.452957184098718,3.87367019774575,-0.0005180359003134,0.0914954170584678,0,0,0
589,21155.079836002635,2010-10-08 20:21:53,90.04546468429008,7,2,-1.0993878841400146,3.977707862854004,2.118312561664477,1.069059072934129,8.452957184098718,3.910211549874147,-0.0004532813909463,0.0914954170584678,0,0,0
590,21185.094973595944,2010-10-08 20:22:23,120.06060230266202,7,2,-1.099568486213684,3.964595079421997,2.118312561664477,1.078226696188392,8.452957184098718,3.946616477631483,-0.0003561496851034,0.0914954170584678,0,0,0
591,21215.110141389523,2010-10-08 20:22:53,150.07577010626486,7,2,-1.0993878841400146,3.9537487030029297,2.118312561664477,1.087394375879764,8.452957184098718,3.98291172768019,-0.0002266406954731,0.0914954170584678,0,0,0
592,21245.12727638597,2010-10-08 20:23:23,180.09290516286745,7,2,-1.099568486213684,3.943711757659912,2.118312561664477,1.096562655925143,8.452957184098718,4.019113936666722,-0.0002590179501567,0.0914954170584678,0,0,0
593,21275.14044112733,2010-10-08 20:23:53,210.1060698390604,7,2,-1.099568486213684,3.9346461296081534,2.118312561664477,1.105729710221868,8.452957184098718,4.055224511889498,-0.0002590179501567,0.0914954170584678,0,0,0
594,21305.15561737197,2010-10-08 20:24:23,240.12124605863843,7,2,-1.0997490882873535,3.9257423877716064,2.118312561664477,1.114897323163359,8.452957184098718,4.091255438468326,-0.0002590179501567,0.0914954170584678,0,0,0
595,21335.170753386345,2010-10-08 20:24:53,270.13638206298776,7,2,-1.099568486213684,3.917648077011109,2.118312561664477,1.124065018003703,8.452957184098718,4.127208281031669,-0.0001942634553415,0.0914954170584678,0,0,0
596,21365.18591327021,2010-10-08 20:25:23,300.1515419618897,7,2,-1.099568486213684,3.90939211845398,2.118312561664477,1.133232675362948,8.452957184098718,4.163085037760144,-0.0001942634553415,0.0914954170584678,0,0,0
597,21395.20105129961,2010-10-08 20:25:53,330.16668006146085,7,2,-1.0997490882873535,3.9012978076934814,2.118312561664477,1.142400368590461,8.452957184098718,4.198887683898064,-0.0002590179501567,0.0914954170584678,0,0,0
598,21425.216227278583,2010-10-08 20:26:23,360.18185598530187,7,2,-1.099568486213684,3.8935272693634033,2.118312561664477,1.15156802846791,8.452957184098718,4.234617582910539,-0.0001942634553415,0.0914954170584678,0,0,0
599,21455.231387879237,2010-10-08 20:26:53,390.19701656089023,7,2,-1.099568486213684,3.885918617248535,2.118312561664477,1.160735675678251,8.452957184098718,4.270276824017244,-0.0001942634553415,0.0914954170584678,0,0,0
600,21485.24650157298,2010-10-08 20:27:23,420.2121302496221,7,2,-1.099568486213684,3.878309965133667,2.118312561664477,1.169903362711751,8.452957184098718,4.305866329760406,-0.0001942634553415,0.0914954170584678,0,0,0
601,21515.261670629705,2010-10-08 20:27:53,450.22729933642313,7,2,-1.099568486213684,3.870701313018799,2.118312561664477,1.179071102480742,8.452957184098718,4.34138686966418,-0.0002266406954731,0.0914954170584678,0,0,0
602,21545.27681651368,2010-10-08 20:28:23,480.2424451903205,7,2,-1.099568486213684,3.8632545471191406,2.118312561664477,1.188238806918415,8.452957184098718,4.376838968151301,-0.0002266406954731,0.0914954170584678,0,0,0
603,21575.292122566843,2010-10-08 20:28:53,510.25775125350873,7,2,-1.0997490882873535,3.855969667434693,2.118312561664477,1.197406533813737,8.452957184098718,4.412224023242145,-0.0002266406954731,0.0914954170584678,0,0,0
604,21605.307138697422,2010-10-08 20:29:23,540.2727674241956,7,2,-1.0993878841400146,3.849008560180664,2.118312561664477,1.20657421236029,8.452957184098718,4.447542592848389,-0.0002266406954731,0.0914954170584678,0,0,0
605,21635.3223115436,2010-10-08 20:29:53,570.2879402503162,7,2,-1.099568486213684,3.841885566711426,2.118312561664477,1.21574196967894,8.452957184098718,4.482796147759349,-0.0001618862152099,0.0914954170584678,0,0,0
606,21665.33743918711,2010-10-08 20:30:23,600.3030678587402,7,2,-1.099568486213684,3.8349244594573975,2.118312561664477,1.224909706903996,8.452957184098718,4.517985259220908,-0.0001618862152099,0.0914954170584678,0,0,0
607,21695.352608223784,2010-10-08 20:30:53,630.3182369305038,7,2,-1.0993878841400146,3.827963590621948,2.118312561664477,1.234077465019994,8.452957184098718,4.553110820588767,-0.0001618862152099,0.0914954170584678,0,0,0
608,21725.36787335496,2010-10-08 20:31:23,660.3335020416268,7,2,-1.099568486213684,3.82132625579834,2.118312561664477,1.243245269107431,8.452957184098718,4.588173341884546,-0.0001295089750783,0.0914954170584678,0,0,0
609,21755.38314459636,2010-10-08 20:31:53,690.3487733782658,7,2,-1.099568486213684,3.8145270347595215,2.118312561664477,1.25241307724055,8.452957184098718,4.623174275203305,-0.0001618862152099,0.0914954170584678,0,0,0
610,21785.39808659218,2010-10-08 20:32:23,720.3637152838612,7,2,-1.099568486213684,3.807727813720703,2.118312561664477,1.261580761101355,8.452957184098718,4.658113378781415,-0.0001942634553415,0.0914954170584678,0,0,0
611,21815.41323782448,2010-10-08 20:32:53,750.3788665111509,7,2,-1.099568486213684,3.801414251327514,2.118312561664477,1.270748501900623,8.452957184098718,4.692992782469727,-0.0001295089750783,0.0914954170584678,0,0,0
612,21845.43029740798,2010-10-08 20:33:23,780.3959261648263,7,2,-1.099568486213684,3.795100688934326,2.118312561664477,1.279916871455745,8.452957184098718,4.727816081368023,-0.0001618862152099,0.0914954170584678,0,0,0
613,21875.44354702588,2010-10-08 20:33:53,810.4091757025202,7,2,-1.0993878841400146,3.788625240325928,2.118312561664477,1.289083560095539,8.452957184098718,4.762575097287865,-0.0002266406954731,0.0914954170584678,0,0,0
614,21905.45878111969,2010-10-08 20:34:23,840.4244098264135,7,2,-1.099568486213684,3.782473564147949,2.118312561664477,1.298250669657872,8.452957184098718,4.797279033061889,-0.0001618862152099,0.0914954170584678,0,0,0
615,21935.47387365069,2010-10-08 20:34:53,870.4395023273389,7,2,-1.099568486213684,3.776645660400391,2.118312561664477,1.307417699435267,8.452957184098718,4.831927012494244,-0.0001618862152099,0.0914954170584678,0,0,0
616,21965.489015319163,2010-10-08 20:35:23,900.4546440158549,7,2,-1.0993878841400146,3.770655870437622,2.118312561664477,1.316584785270639,8.452957184098718,4.866520487654714,-0.0001618862152099,0.0914954170584678,0,0,0
617,21995.504195052497,2010-10-08 20:35:53,930.4698237291404,7,2,-1.0997490882873535,3.764827966690064,2.118312561664477,1.325752361354612,8.452957184098718,4.901062233996134,-0.0001295089750783,0.0914954170584678,0,0,0
618,22025.51961258851,2010-10-08 20:36:23,960.4852412952282,7,2,-1.0993878841400146,3.759323835372925,2.118312561664477,1.334920256594694,8.452957184098718,4.935552655097216,-0.0001295089750783,0.0914954170584678,0,0,0
619,22055.53463354112,2010-10-08 20:36:53,990.500262217758,7,2,-1.0997490882873535,3.753495931625366,2.118312561664477,1.344088022382598,8.452957184098718,4.969991136347868,-0.0001942634553415,0.0914954170584678,0,0,0
620,22085.55210089089,2010-10-08 20:37:23,1020.5177297179124,7,2,-1.099568486213684,3.7483158111572266,2.118312561664477,1.353256587871906,8.452957184098718,5.004382156392101,-9.713172767078504e-05,0.0914954170584678,0,0,0
621,22115.56482967571,2010-10-08 20:37:53,1050.530458452605,7,2,-1.099568486213684,3.742973566055298,2.118312561664477,1.3624237016414,8.452957184098718,5.038718392221186,-0.0001618862152099,0.0914954170584678,0,0,0
622,22145.57998064736,2010-10-08 20:38:23,1080.54560932902,7,2,-1.099568486213684,3.737631320953369,2.118312561664477,1.371591549418772,8.452957184098718,5.073008874231796,-0.0001618862152099,0.0914954170584678,0,0,0
623,22175.595152415848,2010-10-08 20:38:53,1110.5607811025172,7,2,-1.0997490882873535,3.7324509620666495,2.118312561664477,1.380759367153122,8.452957184098718,5.107251331972945,-0.0001618862152099,0.0914954170584678,0,0,0
624,22205.61032391867,2010-10-08 20:39:23,1140.575952650452,7,2,-1.099568486213684,3.7274324893951416,2.118312561664477,1.389927194192988,8.452957184098718,5.141446682159896,-0.0001295089750783,0.0914954170584678,0,0,0
625,22235.627833704213,2010-10-08 20:39:53,1170.593462410932,7,2,-1.099568486213684,3.722414016723633,2.118312561664477,1.399095758098714,8.452957184098718,5.175598866486174,-0.0001295089750783,0.0914954170584678,0,0,0
626,22265.64063047347,2010-10-08 20:40:23,1200.6062591801874,7,2,-1.099568486213684,3.717395544052124,2.118312561664477,1.408262937834373,8.452957184098718,5.209699949452952,-0.0001295089750783,0.0914954170584678,0,0,0
627,22295.65579091873,2010-10-08 20:40:53,1230.6214195903638,7,2,-1.099568486213684,3.712700843811035,2.118312561664477,1.417430814136968,8.452957184098718,5.243758701965217,-0.0001295089750783,0.0914954170584678,0,0,0
628,22325.67093722376,2010-10-08 20:41:23,1260.6365659906228,7,2,-1.0992072820663452,3.7080061435699454,2.118312561664477,1.426598669591472,8.452957184098718,5.277772952897697,-6.47544875391759e-05,0.0914954170584678,0,0,0
629,22355.68609514773,2010-10-08 20:41:53,1290.6517239196153,7,2,-1.0993878841400146,3.703149557113648,2.118312561664477,1.43576653991358,8.452957184098718,5.311743792790601,-9.713172767078504e-05,0.0914954170584678,0,0,0
630,22385.70138047424,2010-10-08 20:42:23,1320.6670092661711,7,2,-1.099568486213684,3.6981310844421382,2.118312561664477,1.44493451700252,8.452957184098718,5.345671534456127,-0.0001618862152099,0.0914954170584678,0,0,0
631,22415.71643793784,2010-10-08 20:42:53,1350.6820666495728,7,2,-1.099568486213684,3.6937601566314697,2.118312561664477,1.454102471410732,8.452957184098718,5.379556345045504,-0.0001295089750783,0.0914954170584678,0,0,0
632,22445.733463737142,2010-10-08 20:43:23,1380.6990924338352,7,2,-1.0997490882873535,3.689227342605591,2.118312561664477,1.463271072857018,8.452957184098718,5.413401532940263,-0.0001295089750783,0.0914954170584678,0,0,0
633,22475.747016605827,2010-10-08 20:43:53,1410.712645292498,7,2,-1.099568486213684,3.684694528579712,2.118312561664477,1.472438492404121,8.452957184098718,5.447200766654845,-9.713172767078504e-05,0.0914954170584678,0,0,0
634,22505.76192589513,2010-10-08 20:44:23,1440.7275545667665,7,2,-1.099568486213684,3.680161714553833,2.118312561664477,1.481606342905441,8.452957184098718,5.4809603516022,-9.713172767078504e-05,0.0914954170584678,0,0,0
635,22535.777236153783,2010-10-08 20:44:53,1470.742864860499,7,2,-1.099568486213684,3.675790786743164,2.118312561664477,1.490774345680061,8.452957184098718,5.514679450335052,-6.47544875391759e-05,0.0914954170584678,0,0,0
636,22565.79225553747,2010-10-08 20:45:23,1500.7578842040934,7,2,-1.099568486213684,3.671258211135864,2.118312561664477,1.499942282707176,8.452957184098718,5.548358263047046,-0.0001295089750783,0.0914954170584678,0,0,0
637,22595.80742966183,2010-10-08 20:45:53,1530.7730583685493,7,2,-1.099568486213684,3.667049169540405,2.118312561664477,1.509110306805818,8.452957184098718,5.581997787062526,-9.713172767078504e-05,0.0914954170584678,0,0,0
638,22625.82266893356,2010-10-08 20:46:23,1560.7882976352605,7,2,-1.0993878841400146,3.663002014160156,2.118312561664477,1.518278250945982,8.452957184098718,5.615598322132343,-9.713172767078504e-05,0.0914954170584678,0,0,0
639,22655.83775529417,2010-10-08 20:46:53,1590.803383995882,7,2,-1.099568486213684,3.658792972564697,2.118312561664477,1.527446173116033,8.452957184098718,5.649160400299906,-9.713172767078504e-05,0.0914954170584678,0,0,0
640,22685.85291230087,2010-10-08 20:47:23,1620.818540997563,7,2,-1.099568486213684,3.6545839309692383,2.118312561664477,1.536614114042394,8.452957184098718,5.682684989850307,-0.0001295089750783,0.0914954170584678,0,0,0
641,22715.868199928107,2010-10-08 20:47:53,1650.833828609766,7,2,-1.099568486213684,3.650698661804199,2.118312561664477,1.545782044996519,8.452957184098718,5.716172476135055,-0.0001295089750783,0.0914954170584678,0,0,0
642,22745.88323730164,2010-10-08 20:48:23,1680.8488660083592,7,2,-1.099568486213684,3.64648962020874,2.118312561664477,1.554949998398158,8.452957184098718,5.749623555347982,-0.0001295089750783,0.0914954170584678,0,0,0
643,22775.898409811973,2010-10-08 20:48:53,1710.8640385086678,7,2,-1.0997490882873535,3.642766237258911,2.118312561664477,1.564117809839255,8.452957184098718,5.783037891376502,-0.0001295089750783,0.0914954170584678,0,0,0
644,22805.913683309,2010-10-08 20:49:23,1740.879312025741,7,2,-1.099568486213684,3.639042854309082,2.118312561664477,1.573285741647975,8.452957184098718,5.816417392921331,-9.713172767078504e-05,0.0914954170584678,0,0,0
645,22835.92886735308,2010-10-08 20:49:53,1770.8944960397453,7,2,-1.099568486213684,3.635157585144043,2.118312561664477,1.582453673452976,8.452957184098718,5.84976217626629,-0.0001295089750783,0.0914954170584678,0,0,0
646,22865.94388795982,2010-10-08 20:50:24,1800.9095166214258,7,2,-1.099568486213684,3.631596088409424,2.118312561664477,1.591621607781502,8.452957184098718,5.883073063799508,-6.47544875391759e-05,0.0914954170584678,0,0,0
647,22895.9591062693,2010-10-08 20:50:54,1830.9247349960672,7,2,-1.0997490882873535,3.6280345916748047,2.118312561664477,1.600789569173194,8.452957184098718,5.91635091996593,-9.713172767078504e-05,0.0914954170584678,0,0,0
648,22925.97421759213,2010-10-08 20:51:24,1860.9398462888275,7,2,-1.0993878841400146,3.624634981155396,2.118312561664477,1.609957460202826,8.452957184098718,5.949596327420527,-6.47544875391759e-05,0.0914954170584678,0,0,0
649,22955.989386262896,2010-10-08 20:51:54,1890.955015084904,7,2,-1.099568486213684,3.621073484420776,2.118312561664477,1.619125383891098,8.452957184098718,5.982810354579777,-9.713172767078504e-05,0.0914954170584678,0,0,0
650,22986.00454771567,2010-10-08 20:52:24,1920.970176387304,7,2,-1.0993878841400146,3.617997646331787,2.118312561664477,1.628293291617407,8.452957184098718,6.015993476767418,-6.47544875391759e-05,0.0914954170584678,0,0,0
651,23016.01989467579,2010-10-08 20:52:54,1950.9855234426573,7,2,-1.0997490882873535,3.614436149597168,2.118312561664477,1.637461292684007,8.452957184098718,6.049146567705765,-9.713172767078504e-05,0.0914954170584678,0,0,0
652,23046.037022444227,2010-10-08 20:53:24,1981.0026512712448,7,2,-1.0997490882873535,3.6111984252929688,2.118312561664477,1.646629850671086,8.452957184098718,6.082272542448321,-9.713172767078504e-05,0.0914954170584678,0,0,0
653,23076.0500491666,2010-10-08 20:53:54,2011.0156778683024,7,2,-1.0997490882873535,3.6082844734191895,2.118312561664477,1.655797190012298,8.452957184098718,6.115365398109367,-6.47544875391759e-05,0.0914954170584678,0,0,0
654,23106.0653363377,2010-10-08 20:54:24,2041.030965019356,7,2,-1.099568486213684,3.6050467491149902,2.118312561664477,1.664965104837877,8.452957184098718,6.148432335994258,-0.0001295089750783,0.0914954170584678,0,0,0
655,23136.080378844024,2010-10-08 20:54:54,2071.0460075357046,7,2,-1.0997490882873535,3.602294683456421,2.118312561664477,1.674132938829868,8.452957184098718,6.181471445396605,-9.713172767078504e-05,0.0914954170584678,0,0,0
656,23166.09552792096,2010-10-08 20:55:24,2101.061156642709,7,2,-1.099568486213684,3.5993807315826416,2.118312561664477,1.683300816636849,8.452957184098718,6.21448389099029,-0.0001295089750783,0.0914954170584678,0,0,0
657,23196.11082987389,2010-10-08 20:55:54,2131.0764585856286,7,2,-1.0993878841400146,3.5967905521392822,2.118312561664477,1.692468733352439,8.452957184098718,6.247469936281143,-3.237724376958795e-05,0.0914954170584678,0,0,0
658,23226.1258633026,2010-10-08 20:56:24,2161.0914919792403,7,2,-1.099568486213684,3.593714714050293,2.118312561664477,1.701636732552698,8.452957184098718,6.280429904485389,-6.47544875391759e-05,0.0914954170584678,0,0,0
659,23256.141052830342,2010-10-08 20:56:54,2191.106681527037,7,2,-1.0993878841400146,3.5909628868103027,2.118312561664477,1.710804751785887,8.452957184098718,6.313364461578438,-3.237724376958795e-05,0.0914954170584678,0,0,0
660,23286.15618924572,2010-10-08 20:57:24,2221.121817912336,7,2,-1.099568486213684,3.5882108211517334,2.118312561664477,1.719972780151692,8.452957184098718,6.34627361664064,-6.47544875391759e-05,0.0914954170584678,0,0,0
661,23316.1713687184,2010-10-08 20:57:54,2251.136997395046,7,2,-1.099568486213684,3.585458755493164,2.118312561664477,1.729140772004879,8.452957184098718,6.37915740881396,-9.713172767078504e-05,0.0914954170584678,0,0,0
662,23346.186535454344,2010-10-08 20:58:24,2281.152164151038,7,2,-1.099568486213684,3.5828685760498047,2.118312561664477,1.73830875285743,8.452957184098718,6.412016022263491,-3.237724376958795e-05,0.0914954170584678,0,0,0
663,23376.201730215133,2010-10-08 20:58:54,2311.1673590421515,7,2,-1.0997490882873535,3.5799546241760254,2.118312561664477,1.747476726836618,8.452957184098718,6.444849670240218,-9.713172767078504e-05,0.0914954170584678,0,0,0
664,23406.216868820964,2010-10-08 20:59:24,2341.182497522672,7,2,-1.099568486213684,3.577202558517456,2.118312561664477,1.756644717367573,8.452957184098718,6.477658395086756,-6.47544875391759e-05,0.0914954170584678,0,0,0
665,23436.232031256182,2010-10-08 20:59:54,2371.197660078195,7,2,-1.0997490882873535,3.5742886066436768,2.118312561664477,1.765812780663009,8.452957184098718,6.510441960103253,-9.713172767078504e-05,0.0914954170584678,0,0,0
666,23466.2472140672,2010-10-08 21:00:24,2401.212842743839,7,2,-1.0997490882873535,3.5715365409851074,2.118312561664477,1.774980821624371,8.452957184098718,6.543199909478133,-9.713172767078504e-05,0.0914954170584678,0,0,0
667,23496.26237100873,2010-10-08 21:00:54,2431.227999720457,7,2,-1.0997490882873535,3.568784475326538,2.118312561664477,1.784148832499502,8.452957184098718,6.57593175249388,-6.47544875391759e-05,0.0914954170584678,0,0,0
668,23526.277499950476,2010-10-08 21:01:24,2461.243128652179,7,2,-1.099568486213684,3.565708637237549,2.118312561664477,1.793316791969622,8.452957184098718,6.60863693280415,-9.713172767078504e-05,0.0914954170584678,0,0,0
669,23556.29266456613,2010-10-08 21:01:54,2491.258293267837,7,2,-1.099568486213684,3.563118457794189,2.118312561664477,1.802484688564575,8.452957184098718,6.641314682890526,-3.237724376958795e-05,0.0914954170584678,0,0,0
670,23586.307847322,2010-10-08 21:02:24,2521.273476023706,7,2,-1.099568486213684,3.5598807334899902,2.118312561664477,1.81165250861287,8.452957184098718,6.673965653142273,-0.0001295089750783,0.0914954170584678,0,0,0
671,23616.32302648391,2010-10-08 21:02:54,2551.2886552156915,7,2,-1.099568486213684,3.556804895401001,2.118312561664477,1.820820375231829,8.452957184098718,6.706588956587859,-0.0001295089750783,0.0914954170584678,0,0,0
672,23646.340124202456,2010-10-08 21:03:24,2581.3057528991485,7,2,-1.099568486213684,3.5538909435272217,2.118312561664477,1.829988875647147,8.452957184098718,6.739185950256188,-6.47544875391759e-05,0.0914954170584678,0,0,0
673,23676.35360501656,2010-10-08 21:03:54,2611.3192337032297,7,2,-1.099568486213684,3.5504913330078125,2.118312561664477,1.839156248905963,8.452957184098718,6.771749780353561,-9.713172767078504e-05,0.0914954170584678,0,0,0
674,23706.368500040317,2010-10-08 21:04:24,2641.334128711944,7,2,-1.0997490882873535,3.5470917224884038,2.118312561664477,1.848324053191304,8.452957184098718,6.804285204665756,-0.0001295089750783,0.0914954170584678,0,0,0
675,23736.38383120105,2010-10-08 21:04:54,2671.3494599929822,7,2,-1.0997490882873535,3.543692111968994,2.118312561664477,1.857491959718906,8.452957184098718,6.836789995300728,-0.0001295089750783,0.0914954170584678,0,0,0
676,23766.398967501136,2010-10-08 21:05:24,2701.364596202844,7,2,-1.099568486213684,3.540292501449585,2.118312561664477,1.866659831985545,8.452957184098718,6.869262862682635,-9.713172767078504e-05,0.0914954170584678,0,0,0
677,23796.414022237943,2010-10-08 21:05:54,2731.3796509145877,7,2,-1.0997490882873535,3.536407232284546,2.118312561664477,1.875827701093485,8.452957184098718,6.901702976711452,-0.0001295089750783,0.0914954170584678,0,0,0
678,23826.429207630383,2010-10-08 21:06:24,2761.394836327077,7,2,-1.099568486213684,3.5328457355499268,2.118312561664477,1.884995691806265,8.452957184098718,6.93410942171394,-9.713172767078504e-05,0.0914954170584678,0,0,0
679,23856.444350186062,2010-10-08 21:06:54,2791.409978852679,7,2,-1.099568486213684,3.5291223526000977,2.118312561664477,1.894163556581233,8.452957184098718,6.966480644183382,-6.47544875391759e-05,0.0914954170584678,0,0,0
680,23886.459524751517,2010-10-08 21:07:24,2821.425153443197,7,2,-1.0993878841400146,3.5250751972198486,2.118312561664477,1.903331467998215,8.452957184098718,6.998815934129974,-0.0001295089750783,0.0914954170584678,0,0,0
681,23916.47467861036,2010-10-08 21:07:54,2851.440307287008,7,2,-1.0997490882873535,3.5208661556243896,2.118312561664477,1.91249944251271,8.452957184098718,7.031113915191398,-0.0001295089750783,0.0914954170584678,0,0,0
682,23946.49013391551,2010-10-08 21:08:24,2881.4557625921525,7,2,-1.099568486213684,3.5166571140289307,2.118312561664477,1.921667452820718,8.452957184098718,7.063373178107245,-6.47544875391759e-05,0.0914954170584678,0,0,0
683,23976.50502898437,2010-10-08 21:08:54,2911.4706576610165,7,2,-1.0993878841400146,3.511962413787842,2.118312561664477,1.930835302447594,8.452957184098718,7.095590973516408,-9.713172767078504e-05,0.0914954170584678,0,0,0
684,24006.52041169359,2010-10-08 21:09:24,2941.486040395293,7,2,-1.0997490882873535,3.506782293319702,2.118312561664477,1.940003370818724,8.452957184098718,7.127765892897958,-0.0001618862152099,0.0914954170584678,0,0,0
685,24036.52226262745,2010-10-08 21:09:54,2971.487891464496,7,2,-1.099568486213684,3.5016019344329834,2.118312561664477,1.949167270885112,8.452957184098718,7.159879389664034,-0.0001618862152099,0.0914954170584678,0,0,0
686,24066.53498135721,2010-10-08 21:10:24,3001.5006100338533,7,2,-1.0997490882873535,3.495774030685425,2.118312561664477,1.958335044397405,8.452957184098718,7.191955248620861,-0.0001618862152099,0.0914954170584678,0,0,0
687,24096.550021171824,2010-10-08 21:10:54,3031.5156498685187,7,2,-1.099929690361023,3.4891366958618164,2.118312561664477,1.967503729469247,8.452957184098718,7.223977398708591,-0.0002266406954731,0.0914954170584678,0,0,0
688,24126.565366713403,2010-10-08 21:11:24,3061.5309953950614,7,2,-1.0997490882873535,3.481851816177368,2.118312561664477,1.976672359633037,8.452957184098718,7.255935596910348,-0.0001942634553415,0.0914954170584678,0,0,0
689,24156.58036050331,2010-10-08 21:11:54,3091.5459892000063,7,2,-1.0997490882873535,3.4731099605560303,2.118312561664477,1.985841021422522,8.452957184098718,7.287820044323141,-0.0002590179501567,0.0914954170584678,0,0,0
690,24186.5978839479,2010-10-08 21:12:24,3121.563512739828,7,2,-1.099568486213684,3.4632349014282227,2.118312561664477,1.995010459896189,8.452957184098718,7.31962232358662,-0.0002913951757363,0.0914954170584678,0,0,0
691,24216.61070872195,2010-10-08 21:12:54,3151.5763374437056,7,2,-1.0997490882873535,3.451093435287476,2.118312561664477,2.004178452494588,8.452957184098718,7.351319160579637,-0.0003561496851034,0.0914954170584678,0,0,0
692,24246.62593779325,2010-10-08 21:13:24,3181.591566484932,7,2,-1.099568486213684,3.436523675918579,2.118312561664477,2.013346719201688,8.452957184098718,7.382895303732229,-0.0004209041653666,0.0914954170584678,0,0,0
693,24276.64309960153,2010-10-08 21:13:54,3211.60872831827,7,2,-1.099568486213684,3.4179069995880127,2.118312561664477,2.022515199990262,8.452957184098718,7.414320725696062,-0.0005504131549969,0.0914954170584678,0,0,0
694,24306.65623692956,2010-10-08 21:14:24,3241.6218656112155,7,2,-1.0997490882873535,3.3937859535217285,2.118312561664477,2.031682465253149,8.452957184098718,7.4455480177447,-0.0007122993702068,0.0914954170584678,0,0,0
695,24336.67153644142,2010-10-08 21:14:54,3271.6371651431264,7,2,-1.099568486213684,3.3609230518341064,2.118312561664477,2.040850391745398,8.452957184098718,7.476520082502217,-0.0010360718006268,0.0914954170584678,0,0,0
696,24366.68674133245,2010-10-08 21:15:24,3301.652370014112,7,2,-1.099568486213684,3.3154332637786865,2.118312561664477,2.050018324727659,8.452957184098718,7.507136788660767,-0.0013922214275225,0.0914954170584678,0,0,0
697,24396.702094197288,2010-10-08 21:15:54,3331.6677228789445,7,2,-1.099568486213684,3.251002788543701,2.118312561664477,2.059186198452765,8.452957184098718,7.537254485941644,-0.0020397664047777,0.0914954170584678,0,0,0
698,24426.717049937364,2010-10-08 21:16:24,3361.682678608995,7,2,-1.0997490882873535,3.1579184532165527,2.118312561664477,2.068354071938582,8.452957184098718,7.566661670251845,-0.0028815746773034,0.0914954170584678,0,0,0
699,24456.732117576325,2010-10-08 21:16:54,3391.6977462680065,7,2,-1.099568486213684,3.0068790912628174,2.118312561664477,2.077521938113161,8.452957184098718,7.594989519126064,-0.0053098201751708,0.0914954170584678,0,0,0
700,24476.731784109063,2010-10-08 21:17:14,3411.6974127807,7,2,-1.099568486213684,2.806464433670044,2.118312561664477,2.083630714644863,8.452957184098718,7.612812426698195,-0.010166454128921,0.0914954170584678,0,0,0
701,24484.1535897674,2010-10-08 21:17:22,3419.119218489157,7,2,-1.099568486213684,2.699943780899048,2.118312561664477,2.085897663283127,8.452957184098718,7.6190562936491,-0.0118500236421823,0.0914954170584678,0,0,0
702,24544.16911897529,2010-10-08 21:18:22,60.014712444477,8,2,0.0,3.3287079334259038,2.118312561664477,2.085897663283127,8.452957184098718,7.6190562936491,0.0013274669181555,0.0914954170584678,0,0,0
703,24544.35658390724,2010-10-08 21:18:22,0.187647234646349,9,2,-1.9243103452026844e-05,3.3287079334259038,2.118312561664477,2.085897664286159,8.452957184098718,7.619056296987901,0.0,0.0898760333657264,0,0,0
704,24549.184493388177,2010-10-08 21:18:27,5.015556625358586,9,2,0.0003419754502829,3.3368022441864014,2.118313496963108,2.085897664369234,8.452960301697749,7.619056297264432,0.0011655807029455,0.0898760333657264,0,0,0
