Data_Point,Test_Time(s),Date_Time,Step_Time(s),Step_Index,Cycle_Index,Current(A),Voltage(V),Charge_Capacity(Ah),Discharge_Capacity(Ah),Charge_Energy(Wh),Discharge_Energy(Wh),dV/dt(V/s),Internal_Resistance(Ohm),Is_FC_Data,AC_Impedance(Ohm),ACI_Phase_Angle(Deg)
10405,353924.4674349654,2010-10-12 16:48:37,30.01511792930072,1,31,0.0,3.392167091369629,30.8905782282756,30.84098253277357,122.96790522195772,112.81383273982948,0.0007122993702068,0.0915781408548355,0,0,0
10406,353954.4825857466,2010-10-12 16:49:07,60.0302686603535,1,31,0.0,3.4153168201446533,30.8905782282756,30.84098253277357,122.96790522195772,112.81383273982948,0.0005180359003134,0.0915781408548355,0,0,0
10407,353984.49773615686,2010-10-12 16:49:37,90.04541909065671,1,31,0.0,3.43296217918396,30.8905782282756,30.84098253277357,122.96790522195772,112.81383273982948,0.000453233718872,0.0915781408548355,0,0,0
10408,354014.46600982087,2010-10-12 16:50:07,120.01369273458468,1,31,0.0,3.446722507476806,30.8905782282756,30.84098253277357,122.96790522195772,112.81383273982948,0.0003237724304199,0.0915781408548355,0,0,0
10409,354044.48127282405,2010-10-12 16:50:37,30.015276925568337,2,31,0.5501165986061096,3.601323366165161,30.895164842496264,30.84098253277357,122.98426422166604,112.81383273982948,0.0015864849556237,0.0915781408548355,0,0,0
10410,354074.4963012954,2010-10-12 16:51:07,60.03030540192479,2,31,0.5499359965324402,3.64810848236084,30.89975138806445,30.84098253277357,123.00089631398532,112.81383273982948,0.0010360718006268,0.0915781408548355,0,0,0
10411,354104.5114637808,2010-10-12 16:51:37,90.0454678822604,2,31,0.550297200679779,3.682104349136353,30.904337949093517,30.84098253277357,123.0177104897889,112.81383273982948,0.0008094310760498,0.0915781408548355,0,0,0
10412,354134.52673385927,2010-10-12 16:52:07,120.06073795073875,2,31,0.550297200679779,3.708653688430786,30.908924507488493,30.84098253277357,123.03466164883486,112.81383273982948,0.0006475448608398,0.0915781408548355,0,0,0
10413,354164.5417790422,2010-10-12 16:52:37,150.07578312370833,2,31,0.5501165986061096,3.730184555053711,30.913511058607,30.84098253277357,123.05172243183291,112.81383273982948,0.0005180359003134,0.0915781408548355,0,0,0
10414,354194.557087742,2010-10-12 16:53:07,180.09109183349273,2,31,0.550297200679779,3.747992038726807,30.91809762884457,30.84098253277357,123.06887298208844,112.81383273982948,0.0004532813909463,0.0915781408548355,0,0,0
10415,354224.57209167216,2010-10-12 16:53:37,210.1060957837225,2,31,0.5499359965324402,3.761590242385864,30.922684109525942,30.84098253277357,123.08609560515936,112.81383273982948,0.0003237724304199,0.0915781408548355,0,0,0
10416,354254.5872145037,2010-10-12 16:54:07,240.12121858516613,2,31,0.5501165986061096,3.770332098007202,30.927270701223705,30.84098253277357,123.10336991778271,112.81383273982948,0.0001942634553415,0.0915781408548355,0,0,0
10417,354284.60249961965,2010-10-12 16:54:37,270.1365037211974,2,31,0.550297200679779,3.775512456893921,30.93185721415814,30.84098253277357,123.1206748952016,112.81383273982948,0.0001295089750783,0.0915781408548355,0,0,0
10418,354314.6175240058,2010-10-12 16:55:07,300.1515280873099,2,31,0.5499359965324402,3.77907395362854,30.9364436962884,30.84098253277357,123.13800017013462,112.81383273982948,3.237724376958795e-05,0.0915781408548355,0,0,0
10419,354344.63281210425,2010-10-12 16:55:37,330.16681622582433,2,31,0.5501165986061096,3.782959222793579,30.941030258511883,30.84098253277357,123.15534257131536,112.81383273982948,9.713172767078504e-05,0.0915781408548355,0,0,0
10420,354374.64787375333,2010-10-12 16:56:07,360.1818778648324,2,31,0.5499359965324402,3.7861969470977774,30.945616692771413,30.84098253277357,123.17270028348752,112.81383273982948,6.47544875391759e-05,0.0915781408548355,0,0,0
10421,354404.6630024494,2010-10-12 16:56:37,390.19700656096734,2,31,0.5501165986061096,3.7897584438323975,30.950203174677497,30.84098253277357,123.19007377253745,112.81383273982948,9.713172767078504e-05,0.0915781408548355,0,0,0
10422,354434.67813944625,2010-10-12 16:57:08,420.2121435527778,2,31,0.550297200679779,3.7929961681365967,30.95478974502897,30.84098253277357,123.2074630048558,112.81383273982948,6.47544875391759e-05,0.0915781408548355,0,0,0
10423,354464.69590010704,2010-10-12 16:57:38,450.2299044241031,2,31,0.5499359965324402,3.796233892440796,30.95937671583952,30.84098253277357,123.2248688276121,112.81383273982948,6.47544875391759e-05,0.0915781408548355,0,0,0
10424,354494.70845488313,2010-10-12 16:58:08,480.2424589897128,2,31,0.5501165986061096,3.799471616744995,30.96396286477905,30.84098253277357,123.24228628003728,112.81383273982948,6.47544875391759e-05,0.0915781408548355,0,0,0
10425,354524.7238164447,2010-10-12 16:58:38,510.257820541195,2,31,0.550297200679779,3.8027093410491934,30.968549443295444,30.84098253277357,123.25972002401608,112.81383273982948,9.713172767078504e-05,0.0915781408548355,0,0,0
10426,354554.73876435024,2010-10-12 16:59:08,540.2727684517566,2,31,0.5501165986061096,3.805785179138184,30.973135929069407,30.84098253277357,123.2771677282104,112.81383273982948,9.713172767078504e-05,0.0915781408548355,0,0,0
10427,354584.7540151256,2010-10-12 16:59:38,570.2880192221382,2,31,0.550297200679779,3.808861017227173,30.97772249119767,30.84098253277357,123.2946298528668,112.81383273982948,0.0001295089750783,0.0915781408548355,0,0,0
10428,354614.76907901524,2010-10-12 17:00:08,600.3030831468429,2,31,0.5501165986061096,3.811774969100952,30.982309043357148,30.84098253277357,123.31210596062562,112.81383273982948,3.237724376958795e-05,0.0915781408548355,0,0,0
10429,354644.7842102126,2010-10-12 17:00:38,630.3182142890743,2,31,0.5501165986061096,3.814688920974731,30.9868955428748,30.84098253277357,123.32959593784926,112.81383273982948,6.47544875391759e-05,0.0915781408548355,0,0,0
10430,354674.79936350504,2010-10-12 17:01:08,660.3333676165983,2,31,0.550297200679779,3.81792664527893,30.99148212224236,30.84098253277357,123.34710034208904,112.81383273982948,9.713172767078504e-05,0.0915781408548355,0,0,0
10431,354704.8145375592,2010-10-12 17:01:38,690.3485416607544,2,31,0.5501165986061096,3.82084059715271,30.99606863027658,30.84098253277357,123.36461831683668,112.81383273982948,9.713172767078504e-05,0.0915781408548355,0,0,0
10432,354734.82967787434,2010-10-12 17:02:08,720.3636819858724,2,31,0.550297200679779,3.824240207672119,31.000655202578525,30.84098253277357,123.38215054328997,112.81383273982948,0.0001295089750783,0.0915781408548355,0,0,0
10433,354764.844822831,2010-10-12 17:02:38,750.3788269575712,2,31,0.5501165986061096,3.8271541595458975,31.00524173467865,30.84098253277357,123.39969693580092,112.81383273982948,9.713172767078504e-05,0.0915781408548355,0,0,0
10434,354794.8601226887,2010-10-12 17:03:08,780.3941268954934,2,31,0.5501165986061096,3.8303918838500977,31.00982826882736,30.84098253277357,123.4172578674011,112.81383273982948,6.47544875391759e-05,0.0915781408548355,0,0,0
10435,354824.8751549796,2010-10-12 17:03:38,810.4091590861069,2,31,0.5501165986061096,3.833791255950928,31.014414767933253,30.84098253277357,123.43483356608807,112.81383273982948,0.0001294612884521,0.0915781408548355,0,0,0
10436,354854.89028321457,2010-10-12 17:04:08,840.4242872960301,2,31,0.5499359965324402,3.836867094039917,31.019001324300536,30.84098253277357,123.45242467927643,112.81383273982948,6.47544875391759e-05,0.0915781408548355,0,0,0
10437,354884.9054353842,2010-10-12 17:04:38,870.4394394857183,2,31,0.5501165986061096,3.840266704559326,31.02358779724704,30.84098253277357,123.47003084503127,112.81383273982948,6.47544875391759e-05,0.0915781408548355,0,0,0
10438,354914.9206214583,2010-10-12 17:05:08,900.4546255899319,2,31,0.5501165986061096,3.843666315078736,31.02817437058875,30.84098253277357,123.4876528751688,112.81383273982948,6.47544875391759e-05,0.0915781408548355,0,0,0
10439,354944.93577690615,2010-10-12 17:05:38,930.4697810227028,2,31,0.5499359965324402,3.847065925598145,31.032760816355545,30.84098253277357,123.50528966245236,112.81383273982948,9.713172767078504e-05,0.0915781408548355,0,0,0
10440,354974.9508936325,2010-10-12 17:06:08,960.4848977139178,2,31,0.5499359965324402,3.850303649902344,31.037347401184416,30.84098253277357,123.52294211783295,112.81383273982948,6.47544875391759e-05,0.0915781408548355,0,0,0
10441,355004.9660689348,2010-10-12 17:06:38,990.5000730763596,2,31,0.5499359965324402,3.853379487991333,31.04193388362613,30.84098253277357,123.54060902360132,112.81383273982948,3.237724376958795e-05,0.0915781408548355,0,0,0
10442,355034.9812089842,2010-10-12 17:07:08,1020.5152130957156,2,31,0.5501165986061096,3.856940984725952,31.0465203911456,30.84098253277357,123.55829064799454,112.81383273982948,0.0001618862152099,0.0915781408548355,0,0,0
10443,355064.99636282795,2010-10-12 17:07:38,1050.5303669395262,2,31,0.5499359965324402,3.859854936599731,31.051106968737503,30.84098253277357,123.5759869215822,112.81383273982948,9.713172767078504e-05,0.0915781408548355,0,0,0
10444,355095.0116250168,2010-10-12 17:08:08,1080.5456291835037,2,31,0.5501165986061096,3.86309266090393,31.05569353004089,30.84098253277357,123.59369725838684,112.81383273982948,0.0001295089750783,0.0915781408548355,0,0,0
10445,355125.02665003954,2010-10-12 17:08:38,1110.5606541210402,2,31,0.5501165986061096,3.86600661277771,31.060280039663688,30.84098253277357,123.61142112648004,112.81383273982948,9.713172767078504e-05,0.0915781408548355,0,0,0
10446,355155.0419347295,2010-10-12 17:09:08,1140.5759388460467,2,31,0.5501165986061096,3.868596792221069,31.06486656707776,30.84098253277357,123.6291584670088,112.81383273982948,6.47544875391759e-05,0.0915781408548355,0,0,0
10447,355185.0569803486,2010-10-12 17:09:38,1170.5909844350535,2,31,0.5499359965324402,3.8715107440948486,31.0694531337044,30.84098253277357,123.64690885754445,112.81383273982948,6.47544875391759e-05,0.0915781408548355,0,0,0
10448,355215.07215692906,2010-10-12 17:10:08,1200.606161065656,2,31,0.5501165986061096,3.874100923538208,31.074039715993784,30.84098253277357,123.66467168672524,112.81383273982948,9.713172767078504e-05,0.0915781408548355,0,0,0
10449,355245.08739001537,2010-10-12 17:10:38,1230.6213941469507,2,31,0.5501165986061096,3.876529216766357,31.078626283848443,30.84098253277357,123.6824460871193,112.81383273982948,6.47544875391759e-05,0.0915781408548355,0,0,0
10450,355275.1024198,2010-10-12 17:11:08,1260.6364239065051,2,31,0.5501165986061096,3.878957509994507,31.083212857734708,30.84098253277357,123.7002317060044,112.81383273982948,6.47544875391759e-05,0.0915781408548355,0,0,0
10451,355305.1175860797,2010-10-12 17:11:38,1290.651590161248,2,31,0.5501165986061096,3.881062030792236,31.08779945432969,30.84098253277357,123.71802783061068,112.81383273982948,3.237724376958795e-05,0.0915781408548355,0,0,0
10452,355335.13288044883,2010-10-12 17:12:08,1320.6668845703907,2,31,0.550297200679779,3.883328437805176,31.09238599747445,30.84098253277357,123.73583354137683,112.81383273982948,6.47544875391759e-05,0.0915781408548355,0,0,0
10453,355365.1478709405,2010-10-12 17:12:38,1350.6818750269904,2,31,0.5501165986061096,3.885109186172485,31.096972543233253,30.84098253277357,123.75364838762844,112.81383273982948,3.237724376958795e-05,0.0915781408548355,0,0,0
10454,355395.16315080336,2010-10-12 17:13:08,1380.697154884867,2,31,0.550297200679779,3.886889934539795,31.10155910161741,30.84098253277357,123.77147171842094,112.81383273982948,6.47544875391759e-05,0.0915781408548355,0,0,0
10455,355425.1782271841,2010-10-12 17:13:38,1410.7122313809032,2,31,0.5501165986061096,3.8885087966918954,31.10614564912424,30.84098253277357,123.78930283087544,112.81383273982948,3.237724376958795e-05,0.0915781408548355,0,0,0
10456,355455.19335082266,2010-10-12 17:14:08,1440.7273549342206,2,31,0.5501165986061096,3.889965772628784,31.11073217795031,30.84098253277357,123.80714112208966,112.81383273982948,3.237724376958795e-05,0.0915781408548355,0,0,0
10457,355485.2087152363,2010-10-12 17:14:38,1470.7427193127487,2,31,0.5501165986061096,3.891422748565674,31.11531883184214,30.84098253277357,123.8249866539372,112.81383273982948,3.237724376958795e-05,0.0915781408548355,0,0,0
10458,355515.2238966037,2010-10-12 17:15:08,1500.7579008255188,2,31,0.5501165986061096,3.892879724502564,31.119905392520668,30.84098253277357,123.84283811362212,112.81383273982948,3.237724376958795e-05,0.0915781408548355,0,0,0
10459,355545.2388722534,2010-10-12 17:15:38,1530.7728764601777,2,31,0.5501165986061096,3.894174814224243,31.1244919617662,30.84098253277357,123.86069557412148,112.81383273982948,3.237724376958795e-05,0.0915781408548355,0,0,0
10460,355575.25397388707,2010-10-12 17:16:08,1560.787977958527,2,31,0.5501165986061096,3.895146131515503,31.12907854251975,30.84098253277357,123.87855858706182,112.81383273982948,6.47544875391759e-05,0.0915781408548355,0,0,0
10461,355605.26911176107,2010-10-12 17:16:38,1590.8031158425615,2,31,0.550297200679779,3.896441221237183,31.133665088645984,30.84098253277357,123.8964267451636,112.81383273982948,6.47544875391759e-05,0.0915781408548355,0,0,0
10462,355635.2842819005,2010-10-12 17:17:08,1620.8182860070483,2,31,0.5501165986061096,3.8974125385284415,31.13825157872605,30.84098253277357,123.91430015716396,112.81383273982948,0.0,0.0915781408548355,0,0,0
10463,355665.2993169382,2010-10-12 17:17:38,1650.83332100967,2,31,0.5501165986061096,3.898707628250122,31.142838039144426,30.84098253277357,123.93217874012667,112.81383273982948,6.47544875391759e-05,0.0915781408548355,0,0,0
10464,355695.3145450371,2010-10-12 17:18:08,1680.84854911356,2,31,0.550297200679779,3.9000027179718018,31.147424533452277,30.84098253277357,123.95006273905688,112.81383273982948,6.47544875391759e-05,0.0915781408548355,0,0,0
10465,355725.32899369835,2010-10-12 17:18:38,1710.862997774839,2,31,0.5499359965324402,3.9009740352630615,31.151991947988808,30.84098253277357,123.96787745714488,112.81383273982948,3.237724376958795e-05,0.0915781408548355,0,0,0
10466,355755.3292832708,2010-10-12 17:19:08,1740.8632873473118,2,31,0.5501165986061096,3.9021072387695312,31.156595139418982,30.84098253277357,123.98583714471744,112.81383273982948,3.237724376958795e-05,0.0915781408548355,0,0,0
10467,355785.34446764074,2010-10-12 17:19:38,1770.8784717372528,2,31,0.550297200679779,3.903402328491211,31.16118161054876,30.84098253277357,124.00373684940192,112.81383273982948,6.47544875391759e-05,0.0915781408548355,0,0,0
10468,355815.3595916402,2010-10-12 17:20:08,1800.8935957216447,2,31,0.5501165986061096,3.9045355319976807,31.16576807653053,30.84098253277357,124.02164188359797,112.81383273982948,3.237724376958795e-05,0.0915781408548355,0,0,0
10469,355845.374733865,2010-10-12 17:20:38,1830.9087379966224,2,31,0.5501165986061096,3.9056687355041504,31.170354584271195,30.84098253277357,124.03955233287137,112.81383273982948,6.47544875391759e-05,0.0915781408548355,0,0,0
10470,355875.3898789369,2010-10-12 17:21:08,1860.9238830234583,2,31,0.5501165986061096,3.90680193901062,31.17494103199418,30.84098253277357,124.05746791766562,112.81383273982948,0.0,0.0915781408548355,0,0,0
10471,355905.40504107147,2010-10-12 17:21:38,1890.939045198032,2,31,0.5501165986061096,3.9080970287323,31.179527508892637,30.84098253277357,124.07538905604764,112.81383273982948,6.47544875391759e-05,0.0915781408548355,0,0,0
10472,355935.42020998284,2010-10-12 17:22:08,1920.9542142096457,2,31,0.5501165986061096,3.9092302322387695,31.184113974197444,30.84098253277357,124.09331556897568,112.81383273982948,3.237724376958795e-05,0.0915781408548355,0,0,0
10473,355965.43542433245,2010-10-12 17:22:38,1950.9694285592552,2,31,0.5499359965324402,3.9103634357452393,31.18870055006231,30.84098253277357,124.11124812773168,112.81383273982948,6.47544875391759e-05,0.0915781408548355,0,0,0
10474,355995.4506319753,2010-10-12 17:23:08,1980.9846360918752,2,31,0.5501165986061096,3.911658525466919,31.1932870831772,30.84098253277357,124.12918599991067,112.81383273982948,6.47544875391759e-05,0.0915781408548355,0,0,0
10475,356025.4656244469,2010-10-12 17:23:38,2010.9996285284087,2,31,0.5501165986061096,3.912953615188599,31.197873510549915,30.84098253277357,124.14712911770256,112.81383273982948,6.47544875391759e-05,0.0915781408548355,0,0,0
10476,356055.4807905212,2010-10-12 17:24:08,2041.0147946578395,2,31,0.550297200679779,3.914086580276489,31.202459920089787,30.84098253277357,124.16507785022776,112.81383273982948,6.47544875391759e-05,0.0915781408548355,0,0,0
10477,356085.495960776,2010-10-12 17:24:38,2071.0299649075387,2,31,0.5501165986061096,3.915381669998169,31.20704644405348,30.84098253277357,124.1830328037794,112.81383273982948,6.47544875391759e-05,0.0915781408548355,0,0,0
10478,356115.5111268252,2010-10-12 17:25:08,2101.0451309467444,2,31,0.5501165986061096,3.9166767597198486,31.21163290666235,30.84098253277357,124.20099306880157,112.81383273982948,6.47544875391759e-05,0.0915781408548355,0,0,0
10479,356145.5262910198,2010-10-12 17:25:38,2131.0602951062647,2,31,0.5499359965324402,3.9178099632263184,31.216219330572027,30.84098253277357,124.21895912373668,112.81383273982948,0.0,0.0915781408548355,0,0,0
10480,356175.5414589337,2010-10-12 17:26:08,2161.0754630401925,2,31,0.550297200679779,3.919266939163208,31.220805805766176,30.84098253277357,124.23693125035835,112.81383273982948,6.47544875391759e-05,0.0915781408548355,0,0,0
10481,356205.5566032136,2010-10-12 17:26:38,2191.0906072900925,2,31,0.5499359965324402,3.920238256454468,31.2253922584016,30.84098253277357,124.25490927580252,112.81383273982948,-3.237724376958795e-05,0.0915781408548355,0,0,0
10482,356235.5718624,2010-10-12 17:27:08,2221.105866516549,2,31,0.5499359965324402,3.921695232391357,31.229978790164846,30.84098253277357,124.27289361696668,112.81383273982948,0.0,0.0915781408548355,0,0,0
10483,356265.58688857564,2010-10-12 17:27:38,2251.120892687158,2,31,0.5499359965324402,3.923152208328247,31.2345651508923,30.84098253277357,124.29088341278876,112.81383273982948,3.237724376958795e-05,0.0915781408548355,0,0,0
10484,356295.60204925144,2010-10-12 17:28:08,2281.136053368009,2,31,0.5501165986061096,3.924447298049927,31.239151575193898,30.84098253277357,124.3088796175997,112.81383273982948,6.47544875391759e-05,0.0915781408548355,0,0,0
10485,356325.6172009299,2010-10-12 17:28:38,2311.1512050363986,2,31,0.550297200679779,3.925904273986816,31.24373808073993,30.84098253277357,124.32688241689856,112.81383273982948,3.237724376958795e-05,0.0915781408548355,0,0,0
10486,356355.632379766,2010-10-12 17:29:08,2341.1663838775103,2,31,0.550297200679779,3.927199363708496,31.24832460142772,30.84098253277357,124.34489135649171,112.81383273982948,3.237724376958795e-05,0.0915781408548355,0,0,0
10487,356385.6474977304,2010-10-12 17:29:39,2371.181501841898,2,31,0.5501165986061096,3.9286563396453857,31.25291103312873,30.84098253277357,124.36290627557936,112.81383273982948,6.47544875391759e-05,0.0915781408548355,0,0,0
10488,356415.6639753534,2010-10-12 17:30:09,2401.197979560212,2,31,0.5499359965324402,3.9299514293670654,31.25749773078368,30.84098253277357,124.38092864381544,112.81383273982948,3.237724376958795e-05,0.0915781408548355,0,0,0
10489,356445.6655047459,2010-10-12 17:30:39,2431.199508952697,2,31,0.5501165986061096,3.931408405303955,31.26208217129056,30.84098253277357,124.39894858683968,112.81383273982948,6.47544875391759e-05,0.0915781408548355,0,0,0
10490,356475.6773658783,2010-10-12 17:31:09,2461.2113701201456,2,31,0.5501165986061096,3.9328653812408447,31.26666820859159,30.84098253277357,124.41698126142695,112.81383273982948,6.47544875391759e-05,0.0915781408548355,0,0,0
10491,356505.6926821218,2010-10-12 17:31:39,2491.226686318594,2,31,0.5501165986061096,3.9343223571777344,31.27125476215908,30.84098253277357,124.435022592621,112.81383273982948,6.47544875391759e-05,0.0915781408548355,0,0,0
10492,356535.70775021694,2010-10-12 17:32:09,2521.24175430843,2,31,0.5501165986061096,3.935779333114624,31.275841258164967,30.84098253277357,124.45307036878114,112.81383273982948,6.47544875391759e-05,0.0915781408548355,0,0,0
10493,356565.7228111943,2010-10-12 17:32:39,2551.256815275764,2,31,0.5501165986061096,3.9372363090515137,31.280427777213905,30.84098253277357,124.47112471828632,112.81383273982948,6.47544875391759e-05,0.0915781408548355,0,0,0
10494,356595.7379275146,2010-10-12 17:33:09,2581.27193162613,2,31,0.5499359965324402,3.938531398773194,31.28501418206047,30.84098253277357,124.48918547364988,112.81383273982948,3.237724376958795e-05,0.0915781408548355,0,0,0
10495,356625.75307162915,2010-10-12 17:33:39,2611.287075760742,2,31,0.5501165986061096,3.940150260925293,31.2896006211618,30.84098253277357,124.50725310086156,112.81383273982948,3.237724376958795e-05,0.0915781408548355,0,0,0
10496,356655.76823088643,2010-10-12 17:34:09,2641.3022350280694,2,31,0.5501165986061096,3.941607236862183,31.294187039010872,30.84098253277357,124.52532743271836,112.81383273982948,6.47544875391759e-05,0.0915781408548355,0,0,0
10497,356685.7833996224,2010-10-12 17:34:39,2671.317403718884,2,31,0.5499359965324402,3.9429023265838623,31.29877355287771,30.84098253277357,124.54340891633257,112.81383273982948,3.237724376958795e-05,0.0915781408548355,0,0,0
10498,356715.7985393109,2010-10-12 17:35:09,2701.3325433923774,2,31,0.5501165986061096,3.944844961166382,31.303360111553456,30.84098253277357,124.56149748993296,112.81383273982948,9.713172767078504e-05,0.0915781408548355,0,0,0
10499,356745.8137094854,2010-10-12 17:35:39,2731.3477135919525,2,31,0.550297200679779,3.9461400508880615,31.30794667459143,30.84098253277357,124.57959313116254,112.81383273982948,3.237724376958795e-05,0.0915781408548355,0,0,0
10500,356775.8288567228,2010-10-12 17:36:09,2761.362860829297,2,31,0.5501165986061096,3.947597026824951,31.31253326829933,30.84098253277357,124.59769582535948,112.81383273982948,3.237724376958795e-05,0.0915781408548355,0,0,0
10501,356805.8440224011,2010-10-12 17:36:39,2791.3780265276537,2,31,0.5501165986061096,3.949215888977051,31.31711971339997,30.84098253277357,124.61580499636314,112.81383273982948,6.47544875391759e-05,0.0915781408548355,0,0,0
10502,356835.85920150287,2010-10-12 17:37:09,2821.39320563944,2,31,0.550297200679779,3.9508347511291504,31.32170622009169,30.84098253277357,124.6339216044379,112.81383273982948,6.47544875391759e-05,0.0915781408548355,0,0,0
10503,356865.8742992819,2010-10-12 17:37:39,2851.4083035137573,2,31,0.550297200679779,3.95245361328125,31.32629273971564,30.84098253277357,124.6520454566774,112.81383273982948,9.713172767078504e-05,0.0915781408548355,0,0,0
10504,356895.88944098545,2010-10-12 17:38:09,2881.423445066936,2,31,0.5499359965324402,3.95391058921814,31.33087924228785,30.84098253277357,124.67017650900053,112.81383273982948,3.237724376958795e-05,0.0915781408548355,0,0,0
10505,356925.90562323737,2010-10-12 17:38:39,2911.439627439156,2,31,0.5499359965324402,3.955367565155029,31.33546590034925,30.84098253277357,124.68831548029834,112.81383273982948,3.237724376958795e-05,0.0915781408548355,0,0,0
10506,356955.91982399585,2010-10-12 17:39:09,2941.45382810736,2,31,0.5501165986061096,3.956986427307129,31.34005247283971,30.84098253277357,124.70646152462233,112.81383273982948,0.0,0.0915781408548355,0,0,0
10507,356985.93492949416,2010-10-12 17:39:39,2971.468933575604,2,31,0.550297200679779,3.9587671756744394,31.344639748091257,30.84098253277357,124.7246176355455,112.81383273982948,6.47544875391759e-05,0.0915781408548355,0,0,0
10508,357015.95021182817,2010-10-12 17:40:09,3001.484215914664,2,31,0.5499359965324402,3.960224151611328,31.349226863121515,30.84098253277357,124.74278062558356,112.81383273982948,0.0,0.0915781408548355,0,0,0
10509,357045.96525960765,2010-10-12 17:40:39,3031.499263684105,2,31,0.5499359965324402,3.961843013763428,31.35381328873997,30.84098253277357,124.76094839330786,112.81383273982948,0.0,0.0915781408548355,0,0,0
10510,357075.9803887349,2010-10-12 17:41:09,3061.514392816327,2,31,0.5499359965324402,3.9634618759155273,31.35839972484513,30.84098253277357,124.77912365821808,112.81383273982948,0.0,0.0915781408548355,0,0,0
10511,357105.99553909496,2010-10-12 17:41:39,3091.5295431714426,2,31,0.5501165986061096,3.965404510498047,31.362986115833948,30.84098253277357,124.79730642611128,112.81383273982948,6.47544875391759e-05,0.0915781408548355,0,0,0
10512,357136.0107038159,2010-10-12 17:42:09,3121.54470792745,2,31,0.5501165986061096,3.9670233726501465,31.367572595407736,30.84098253277357,124.81549730450156,112.81383273982948,3.237724376958795e-05,0.0915781408548355,0,0,0
10513,357166.02586765966,2010-10-12 17:42:39,3151.559871766171,2,31,0.5501165986061096,3.968642234802246,31.372159111156986,30.84098253277357,124.8336959933519,112.81383273982948,0.0,0.0915781408548355,0,0,0
10514,357196.0410299445,2010-10-12 17:43:09,3181.5750340460067,2,31,0.5501165986061096,3.970422983169556,31.3767456712688,30.84098253277357,124.85190266665953,112.81383273982948,6.47544875391759e-05,0.0915781408548355,0,0,0
10515,357226.05628700054,2010-10-12 17:43:39,3211.590291107067,2,31,0.5501165986061096,3.9720418453216553,31.381332203042767,30.84098253277357,124.87011714204638,112.81383273982948,3.237724376958795e-05,0.0915781408548355,0,0,0
10516,357256.07132329635,2010-10-12 17:44:09,3241.6053274480246,2,31,0.5501165986061096,3.973822593688965,31.385918737584568,30.84098253277357,124.88833947204095,112.81383273982948,3.237724376958795e-05,0.0915781408548355,0,0,0
10517,357286.0864794209,2010-10-12 17:44:39,3271.6204835173817,2,31,0.5501165986061096,3.9756033420562735,31.390505290281755,30.84098253277357,124.9065698586884,112.81383273982948,3.237724376958795e-05,0.0915781408548355,0,0,0
10518,357316.1016314802,2010-10-12 17:45:09,3301.635635556695,2,31,0.5499359965324402,3.977384090423584,31.395091860963365,30.84098253277357,124.92480845190325,112.81383273982948,3.237724376958795e-05,0.0915781408548355,0,0,0
10519,357346.11680321867,2010-10-12 17:45:39,3331.6508073001173,2,31,0.5501165986061096,3.9791648387908936,31.399678353061688,30.84098253277357,124.9430543689369,112.81383273982948,6.47544875391759e-05,0.0915781408548355,0,0,0
10520,357376.13205392886,2010-10-12 17:46:09,3361.6660580354114,2,31,0.5499359965324402,3.980945587158203,31.404264799978147,30.84098253277357,124.96130890864043,112.81383273982948,6.47544875391759e-05,0.0915781408548355,0,0,0
10521,357406.1471101344,2010-10-12 17:46:39,3391.681114230852,2,31,0.5499359965324402,3.982888221740722,31.40885119173736,30.84098253277357,124.97957166943212,112.81383273982948,6.47544875391759e-05,0.0915781408548355,0,0,0
10522,357436.1623667794,2010-10-12 17:47:09,3421.6963708708627,2,31,0.5501165986061096,3.984668970108032,31.413437620186265,30.84098253277357,124.99784297440978,112.81383273982948,3.237724376958795e-05,0.0915781408548355,0,0,0
10523,357466.17763326893,2010-10-12 17:47:39,3451.711637345384,2,31,0.5501165986061096,3.986449718475342,31.41802402250695,30.84098253277357,125.01612274198908,112.81383273982948,6.47544875391759e-05,0.0915781408548355,0,0,0
10524,357496.19286261086,2010-10-12 17:48:09,3481.726867549508,2,31,0.5499359965324402,3.988392353057861,31.42261047049565,30.84098253277357,125.03441135193614,112.81383273982948,3.237724376958795e-05,0.0915781408548355,0,0,0
10525,357526.20773178025,2010-10-12 17:48:39,3511.7417358867483,2,31,0.5501165986061096,3.990496873855591,31.427196842535672,30.84098253277357,125.05270838994804,112.81383273982948,9.713172767078504e-05,0.0915781408548355,0,0,0
10526,357556.2228685014,2010-10-12 17:49:09,3541.7568725828214,2,31,0.5501165986061096,3.9924395084381104,31.4317832651226,30.84098253277357,125.07101450527544,112.81383273982948,6.47544875391759e-05,0.0915781408548355,0,0,0
10527,357586.23802590906,2010-10-12 17:49:39,3571.7720299855023,2,31,0.5501165986061096,3.994381904602051,31.436369765131296,30.84098253277357,125.08932992640872,112.81383273982948,9.70840483205393e-05,0.0915781408548355,0,0,0
10528,357616.25319813367,2010-10-12 17:50:09,3601.787202215136,2,31,0.5501165986061096,3.9963245391845694,31.440956187464607,30.84098253277357,125.1076541035562,112.81383273982948,6.47544875391759e-05,0.0915781408548355,0,0,0
10529,357646.2683656365,2010-10-12 17:50:39,3631.802369743052,2,31,0.5501165986061096,3.9984290599823,31.44554264899925,30.84098253277357,125.12598766203438,112.81383273982948,6.47544875391759e-05,0.0915781408548355,0,0,0
10530,357676.28349258826,2010-10-12 17:51:09,3661.817496699852,2,31,0.5501165986061096,4.000371932983398,31.450129058874605,30.84098253277357,125.14433019368148,112.81383273982948,6.47544875391759e-05,0.0915781408548355,0,0,0
10531,357706.29863919906,2010-10-12 17:51:39,3691.8326432805607,2,31,0.5501165986061096,4.002638339996338,31.45471545595608,30.84098253277357,125.16268223135988,112.81383273982948,6.47544875391759e-05,0.0915781408548355,0,0,0
10532,357736.3138030228,2010-10-12 17:52:09,3721.847807104245,2,31,0.5501165986061096,4.004418849945068,31.459301900422023,30.84098253277357,125.18104409672569,112.81383273982948,0.0,0.0915781408548355,0,0,0
10533,357766.3289719943,2010-10-12 17:52:39,3751.862976095808,2,31,0.5501165986061096,4.006685256958008,31.46388828380972,30.84098253277357,125.19941536254682,112.81383273982948,3.23295607813634e-05,0.0915781408548355,0,0,0
10534,357796.344114585,2010-10-12 17:53:09,3781.8781186665233,2,31,0.5501165986061096,4.008790016174316,31.468474722913445,30.84098253277357,125.21779659444948,112.81383273982948,6.47544875391759e-05,0.0915781408548355,0,0,0
10535,357826.35928984225,2010-10-12 17:53:39,3811.893293948765,2,31,0.5501165986061096,4.010894298553467,31.47306122299543,30.84098253277357,125.23618774517362,112.81383273982948,6.47544875391759e-05,0.0915781408548355,0,0,0
10536,357856.37442997686,2010-10-12 17:54:09,3841.9084340583454,2,31,0.550297200679779,4.013160705566406,31.477647656637338,30.84098253277357,125.25458855723852,112.81383273982948,6.47544875391759e-05,0.0915781408548355,0,0,0
10537,357886.38960408623,2010-10-12 17:54:39,3871.9236081626514,2,31,0.5499359965324402,4.015103340148926,31.482234100815607,30.84098253277357,125.27299935599216,112.81383273982948,3.23295607813634e-05,0.0915781408548355,0,0,0
10538,357916.40503390285,2010-10-12 17:55:09,3901.939038129646,2,31,0.5501165986061096,4.017531871795654,31.48682059411892,30.84098253277357,125.29142045266649,112.81383273982948,6.47544875391759e-05,0.0915781408548355,0,0,0
10539,357946.4200122191,2010-10-12 17:55:39,3931.954016325688,2,31,0.550297200679779,4.019636154174805,31.491407009186563,30.84098253277357,125.3098513869845,112.81383273982948,3.23295607813634e-05,0.0915781408548355,0,0,0
10540,357976.4350431416,2010-10-12 17:56:09,3961.969047253154,2,31,0.5501165986061096,4.022064685821533,31.495993402320977,30.84098253277357,125.32829250179014,112.81383273982948,6.47544875391759e-05,0.0915781408548355,0,0,0
10541,358006.4502390803,2010-10-12 17:56:39,3991.984243211929,2,31,0.5501165986061096,4.024331092834473,31.50057980641161,30.84098253277357,125.34674405497536,112.81383273982948,6.47544875391759e-05,0.0915781408548355,0,0,0
10542,358036.465414939,2010-10-12 17:57:09,4021.9994190305065,2,31,0.5501165986061096,4.026435375213623,31.50516627092292,30.84098253277357,125.36520623802504,112.81383273982948,6.47544875391759e-05,0.0915781408548355,0,0,0
10543,358066.4805350237,2010-10-12 17:57:39,4052.0145391101673,2,31,0.5499359965324402,4.0287017822265625,31.509752644173307,30.84098253277357,125.38367851830448,112.81383273982948,3.23295607813634e-05,0.0915781408548355,0,0,0
10544,358096.4957005215,2010-10-12 17:58:09,4082.0297046330857,2,31,0.5499359965324402,4.030968189239502,31.51433904170676,30.84098253277357,125.4021613977436,112.81383273982948,0.0,0.0915781408548355,0,0,0
10545,358126.51084749826,2010-10-12 17:58:39,4112.044851574694,2,31,0.550297200679779,4.033396720886231,31.51892541702696,30.84098253277357,125.4206548717988,112.81383273982948,6.47544875391759e-05,0.0915781408548355,0,0,0
10546,358156.52598079585,2010-10-12 17:59:09,4142.059984907384,2,31,0.5501165986061096,4.035662651062012,31.523511851789632,30.84098253277357,125.43915935526492,112.81383273982948,3.23295607813634e-05,0.0915781408548355,0,0,0
10547,358186.54126216244,2010-10-12 17:59:39,4172.075266243946,2,31,0.5501165986061096,4.03809118270874,31.52809828980381,30.84098253277357,125.45767467914622,112.81383273982948,3.24249267578125e-05,0.0915781408548355,0,0,0
10548,358216.55628443835,2010-10-12 18:00:09,4202.0902885499245,2,31,0.5501165986061096,4.04035758972168,31.532684716747767,30.84098253277357,125.47620085460332,112.81383273982948,3.24249267578125e-05,0.0915781408548355,0,0,0
10549,358246.5714688834,2010-10-12 18:00:39,4232.105473015054,2,31,0.550297200679779,4.04310941696167,31.537271134734432,30.84098253277357,125.49473805016548,112.81383273982948,9.70840483205393e-05,0.0915781408548355,0,0,0
10550,358276.58661656687,2010-10-12 18:01:09,4262.12062067846,2,31,0.5501165986061096,4.045537948608398,31.541857551812804,30.84098253277357,125.51328649636496,112.81383273982948,9.71794142969884e-05,0.0915781408548355,0,0,0
10551,358306.60175914766,2010-10-12 18:01:39,4292.135763219099,2,31,0.5501165986061096,4.047966003417969,31.54644390632277,30.84098253277357,125.5318460399436,112.81383273982948,6.47544875391759e-05,0.0915781408548355,0,0,0
10552,358336.6169274325,2010-10-12 18:02:10,4322.150931554027,2,31,0.5501165986061096,4.050394535064697,31.55103036712284,30.84098253277357,125.55041752159788,112.81383273982948,6.47544875391759e-05,0.0915781408548355,0,0,0
10553,358366.6346464946,2010-10-12 18:02:40,4352.168650711388,2,31,0.5499359965324402,4.052984714508057,31.55561707990405,30.84098253277357,125.5690014863096,112.81383273982948,6.47544875391759e-05,0.0915781408548355,0,0,0
10554,358396.64721685456,2010-10-12 18:03:10,4382.181220951063,2,31,0.5499359965324402,4.055412769317627,31.560203087995443,30.84098253277357,125.58759432529524,112.81383273982948,6.47544875391759e-05,0.0915781408548355,0,0,0
10555,358426.66261050105,2010-10-12 18:03:40,4412.196614672724,2,31,0.5501165986061096,4.058165073394775,31.564789544903213,30.84098253277357,125.60620075208132,112.81383273982948,6.47544875391759e-05,0.0915781408548355,0,0,0
10556,358456.67753375013,2010-10-12 18:04:10,4442.2115378767085,2,31,0.5501165986061096,4.060593128204346,31.569375946694848,30.84098253277357,125.62481884912792,112.81383273982948,3.23295607813634e-05,0.0915781408548355,0,0,0
10557,358486.69268531323,2010-10-12 18:04:40,4472.226689419785,2,31,0.5499359965324402,4.063345432281494,31.57396236203153,30.84098253277357,125.64344860340589,112.81383273982948,6.47544875391759e-05,0.0915781408548355,0,0,0
10558,358516.7079394119,2010-10-12 18:05:10,4502.241943493399,2,31,0.5499359965324402,4.0659356117248535,31.57854873753812,30.84098253277357,125.66209048514922,112.81383273982948,6.47544875391759e-05,0.0915781408548355,0,0,0
10559,358546.72296503617,2010-10-12 18:05:40,4532.256969132684,2,31,0.5499359965324402,4.068687438964844,31.583135158512448,30.84098253277357,125.68074488608966,112.81383273982948,6.47544875391759e-05,0.0915781408548355,0,0,0
10560,358576.7381261481,2010-10-12 18:06:10,4562.272130229572,2,31,0.5499359965324402,4.071277618408203,31.587721547084588,30.84098253277357,125.69941159746068,112.81383273982948,6.47544875391759e-05,0.0915781408548355,0,0,0
10561,358606.7532937461,2010-10-12 18:06:40,4592.287297827663,2,31,0.5501165986061096,4.074029922485352,31.59230788967379,30.84098253277357,125.71809055861678,112.81383273982948,6.47544875391759e-05,0.0915781408548355,0,0,0
10562,358636.7684899355,2010-10-12 18:07:10,4622.302494142324,2,31,0.5501165986061096,4.076781749725342,31.59689434541508,30.84098253277357,125.73678261889916,112.81383273982948,6.47544875391759e-05,0.0915781408548355,0,0,0
10563,358666.78359309805,2010-10-12 18:07:40,4652.317597194547,2,31,0.5501165986061096,4.079695701599121,31.60148074770774,30.84098253277357,125.75548719113878,112.81383273982948,6.47544875391759e-05,0.0915781408548355,0,0,0
10564,358696.7988515626,2010-10-12 18:08:10,4682.332855639054,2,31,0.5497553944587708,4.0822858810424805,31.60606713527882,30.84098253277357,125.77420449830572,112.81383273982948,0.0,0.0915781408548355,0,0,0
10565,358726.8138933973,2010-10-12 18:08:40,4712.3478974737045,2,31,0.5499359965324402,4.08519983291626,31.610653483464056,30.84098253277357,125.79293461360665,112.81383273982948,9.70840483205393e-05,0.0915781408548355,0,0,0
10566,358756.8290322938,2010-10-12 18:09:10,4742.363036375274,2,31,0.5501165986061096,4.088113784790039,31.615239862942435,30.84098253277357,125.81167789778092,112.81383273982948,3.23295607813634e-05,0.0915781408548355,0,0,0
10567,358786.8442089144,2010-10-12 18:09:40,4772.378213000864,2,31,0.5499359965324402,4.091027736663818,31.619826233207647,30.84098253277357,125.8304344140474,112.81383273982948,6.47544875391759e-05,0.0915781408548355,0,0,0
10568,358816.8593426832,2010-10-12 18:10:10,4802.393346759616,2,31,0.5499359965324402,4.093941688537598,31.624412592929197,30.84098253277357,125.8492042531506,112.81383273982948,3.23295607813634e-05,0.0915781408548355,0,0,0
10569,358846.8745032738,2010-10-12 18:10:40,4832.408507350242,2,31,0.550297200679779,4.097017765045166,31.62899894533357,30.84098253277357,125.867987623828,112.81383273982948,0.0001295089750783,0.0915781408548355,0,0,0
10570,358876.889657679,2010-10-12 18:11:10,4862.4236617805145,2,31,0.5501165986061096,4.100093364715576,31.633585324879707,30.84098253277357,125.8867847630478,112.81383273982948,9.70840483205393e-05,0.0915781408548355,0,0,0
10571,358906.9047929315,2010-10-12 18:11:40,4892.438797038003,2,31,0.5499359965324402,4.103007316589356,31.63817172377279,30.84098253277357,125.90559571455732,112.81383273982948,6.47544875391759e-05,0.0915781408548355,0,0,0
10572,358936.9199484244,2010-10-12 18:12:10,4922.453952500848,2,31,0.5501165986061096,4.106083393096924,31.642758062919125,30.84098253277357,125.92442039808807,112.81383273982948,9.71794142969884e-05,0.0915781408548355,0,0,0
10573,358966.93523405667,2010-10-12 18:12:40,4952.469238143141,2,31,0.5501165986061096,4.109158992767334,31.64734446130123,30.84098253277357,125.9432593856384,112.81383273982948,9.70840483205393e-05,0.0915781408548355,0,0,0
10574,358996.95024283393,2010-10-12 18:13:10,4982.484246910377,2,31,0.5501165986061096,4.112235069274902,31.651930767647496,30.84098253277357,125.96211216810894,112.81383273982948,6.47544875391759e-05,0.0915781408548355,0,0,0
10575,359026.9653801365,2010-10-12 18:13:40,5012.499384253061,2,31,0.5501165986061096,4.115472316741943,31.656517082608023,30.84098253277357,125.98097907468411,112.81383273982948,0.0001295089750783,0.0915781408548355,0,0,0
10576,359056.98052805057,2010-10-12 18:14:10,5042.514532132006,2,31,0.5499359965324402,4.118386268615723,31.66110338487984,30.84098253277357,125.99986033347705,112.81383273982948,6.47544875391759e-05,0.0915781408548355,0,0,0
10577,359086.9957050571,2010-10-12 18:14:40,5072.529709168621,2,31,0.5501165986061096,4.121623992919922,31.66568973090926,30.84098253277357,126.01875629569528,112.81383273982948,9.70840483205393e-05,0.0915781408548355,0,0,0
10578,359117.010990955,2010-10-12 18:15:10,5102.544995061538,2,31,0.5501165986061096,4.124861717224121,31.67027602447301,30.84098253277357,126.03766657154225,112.81383273982948,6.47544875391759e-05,0.0915781408548355,0,0,0
10579,359147.0261455256,2010-10-12 18:15:40,5132.560149602085,2,31,0.5501165986061096,4.1279377937316895,31.67486238607865,30.84098253277357,126.05659190925712,112.81383273982948,6.47544875391759e-05,0.0915781408548355,0,0,0
10580,359177.0411387942,2010-10-12 18:16:10,5162.575142875706,2,31,0.5501165986061096,4.13133716583252,31.6794487657202,30.84098253277357,126.07553222367392,112.81383273982948,9.70840483205393e-05,0.0915781408548355,0,0,0
10581,359207.0562973648,2010-10-12 18:16:40,5192.590301446297,2,31,0.5501165986061096,4.134737014770508,31.684034381808186,30.84098253277357,126.09448422816656,112.81383273982948,0.0001619339018361,0.0915781408548355,0,0,0
10582,359237.07143685786,2010-10-12 18:17:10,5222.605440939341,2,31,0.5497553944587708,4.137812614440918,31.68861994514894,30.84098253277357,126.11345109364424,112.81383273982948,9.70840483205393e-05,0.0915781408548355,0,0,0
10583,359267.08655549894,2010-10-12 18:17:40,5252.620559570391,2,31,0.5499359965324402,4.141212463378906,31.69320538559808,30.84098253277357,126.13243267104404,112.81383273982948,9.71794142969884e-05,0.0915781408548355,0,0,0
10584,359297.1017376884,2010-10-12 18:18:10,5282.635741784909,2,31,0.5499359965324402,4.144773960113525,31.69779085023376,30.84098253277357,126.15142978287004,112.81383273982948,9.71794142969884e-05,0.0915781408548355,0,0,0
10585,359327.116920745,2010-10-12 18:18:40,5312.650924841528,2,31,0.550297200679779,4.1483354568481445,31.70237705300864,30.84098253277357,126.17044599439885,112.81383273982948,0.0001295089750783,0.0915781408548355,0,0,0
10586,359357.1320130655,2010-10-12 18:19:10,5342.666017197091,2,31,0.5499359965324402,4.151411056518555,31.706963269524724,30.84098253277357,126.18947794471794,112.81383273982948,6.47544875391759e-05,0.0915781408548355,0,0,0
10587,359387.1473720255,2010-10-12 18:19:40,5372.681376096964,2,31,0.5501165986061096,4.154972553253174,31.7115496349824,30.84098253277357,126.20852636981284,112.81383273982948,9.70840483205393e-05,0.0915781408548355,0,0,0
10588,359417.16272720613,2010-10-12 18:20:10,5402.696731347744,2,31,0.5501165986061096,4.158534049987793,31.716136034054127,30.84098253277357,126.2275907620697,112.81383273982948,9.70840483205393e-05,0.0915781408548355,0,0,0
10589,359447.1774880505,2010-10-12 18:20:40,5432.711492146966,2,31,0.5501165986061096,4.161933898925781,31.72072234926183,30.84098253277357,126.24667081078796,112.81383273982948,9.71794142969884e-05,0.0915781408548355,0,0,0
10590,359477.19261435064,2010-10-12 18:21:10,5462.726618432092,2,31,0.5501165986061096,4.165333271026611,31.725308690374643,30.84098253277357,126.26576704200914,112.81383273982948,9.70840483205393e-05,0.0915781408548355,0,0,0
10591,359507.2077809312,2010-10-12 18:21:40,5492.741785027684,2,31,0.5501165986061096,4.16905689239502,31.72989501043748,30.84098253277357,126.2848793689158,112.81383273982948,9.71794142969884e-05,0.0915781408548355,0,0,0
10592,359537.2229423188,2010-10-12 18:22:10,5522.756946440359,2,31,0.5501165986061096,4.172618389129639,31.73448132546146,30.84098253277357,126.30400800928442,112.81383273982948,9.71794142969884e-05,0.0915781408548355,0,0,0
10593,359567.23808614764,2010-10-12 18:22:40,5552.772090244147,2,31,0.5501165986061096,4.176341533660889,31.739067657902552,30.84098253277357,126.32315326584934,112.81383273982948,0.0001295089750783,0.0915781408548355,0,0,0
10594,359597.25321159564,2010-10-12 18:23:10,5582.78721567715,2,31,0.5499359965324402,4.179741382598877,31.74365402567802,30.84098253277357,126.34231528751786,112.81383273982948,6.47544875391759e-05,0.0915781408548355,0,0,0
10595,359627.26836113376,2010-10-12 18:23:40,5612.8023652102165,2,31,0.5501165986061096,4.183626651763916,31.74824041302832,30.84098253277357,126.3614940286594,112.81383273982948,0.0001295089750783,0.0915781408548355,0,0,0
10596,359657.28351301263,2010-10-12 18:24:10,5642.817517094143,2,31,0.550297200679779,4.187349796295166,31.75282681077489,30.84098253277357,126.38068960476154,112.81383273982948,0.0001618385285837,0.0915781408548355,0,0,0
10597,359687.2986695131,2010-10-12 18:24:40,5672.832673589562,2,31,0.5499359965324402,4.190911293029785,31.757413134993644,30.84098253277357,126.3999018353082,112.81383273982948,0.0001295089750783,0.0915781408548355,0,0,0
10598,359717.3138274421,2010-10-12 18:25:10,5702.847831558654,2,31,0.5499359965324402,4.194634914398193,31.761999471099863,30.84098253277357,126.41913119717722,112.81383273982948,0.0001295089750783,0.0915781408548355,0,0,0
10599,359747.3289531408,2010-10-12 18:25:40,5732.8629572422815,2,31,0.5501165986061096,4.198519706726074,31.76658584899481,30.84098253277357,126.43837779579243,112.81383273982948,0.0001295089750783,0.0915781408548355,0,0,0
10600,359759.9068827013,2010-10-12 18:25:53,5745.44088682794,2,31,0.5501165986061096,4.200138568878174,31.76850777173589,30.84098253277357,126.4464482185133,112.81383273982948,0.0001618385285837,0.0915781408548355,0,0,0
10601,359789.9186300902,2010-10-12 18:26:23,30.01515904176563,3,31,0.0,4.114015579223633,31.76850777173589,30.84098253277357,126.4464482185133,112.81383273982948,-0.0004208564641885,0.0915781408548355,0,0,0
10602,359819.9336683409,2010-10-12 18:26:53,60.03019728747032,3,31,0.0,4.1031694412231445,31.76850777173589,30.84098253277357,126.4464482185133,112.81383273982948,-0.0001942634553415,0.0915781408548355,0,0,0
10603,359849.9487877088,2010-10-12 18:27:23,90.04531668041889,3,31,0.0,4.096693992614746,31.76850777173589,30.84098253277357,126.4464482185133,112.81383273982948,-0.0001295089750783,0.0915781408548355,0,0,0
10604,359879.9170644905,2010-10-12 18:27:53,120.01359346717976,3,31,0.0,4.092322826385498,31.76850777173589,30.84098253277357,126.4464482185133,112.81383273982948,-9.71794142969884e-05,0.0915781408548355,0,0,0
10605,359879.9311602937,2010-10-12 18:27:53,0.015604506230914,4,31,0.9983888268470764,4.199653148651123,31.768512133789105,30.84098253277357,126.4464665379754,112.81383273982948,-3.23295607813634e-05,0.0915781408548355,0,0,0
10606,359880.88456323725,2010-10-12 18:27:54,0.969007389570931,4,31,0.9481794834136964,4.199653148651123,31.768768298622017,30.84098253277357,126.44754236517272,112.81383273982948,-3.23295607813634e-05,0.0915781408548355,0,0,0
10607,359883.05614695203,2010-10-12 18:27:56,3.140591074292853,4,31,0.8979700803756714,4.199814796447754,31.76932398038881,30.84098253277357,126.44987610051714,112.81383273982948,0.0,0.0915781408548355,0,0,0
10608,359886.2904515843,2010-10-12 18:27:59,6.374895711619729,4,31,0.8477606773376465,4.199814796447754,31.77010717703408,30.84098253277357,126.4531653409764,112.81383273982948,0.0,0.0915781408548355,0,0,0
10609,359890.6809949594,2010-10-12 18:28:04,10.76543908664672,4,31,0.7977319359779358,4.199653148651123,31.7711096635606,30.84098253277357,126.45737556311846,112.81383273982948,0.0,0.0915781408548355,0,0,0
10610,359896.43090329017,2010-10-12 18:28:10,16.515347412397052,4,31,0.7477031350135803,4.199976921081543,31.772342282080945,30.84098253277357,126.46255228726994,112.81383273982948,3.24249267578125e-05,0.0915781408548355,0,0,0
10611,359903.7276734365,2010-10-12 18:28:17,23.81211755876184,4,31,0.6976743936538696,4.199814796447754,31.773805021674303,30.84098253277357,126.4686954756382,112.81383273982948,0.0,0.0915781408548355,0,0,0
10612,359913.46189860575,2010-10-12 18:28:27,33.54634273304235,4,31,0.6474649906158447,4.199976921081543,31.775620801466697,30.84098253277357,126.476321364563,112.81383273982948,3.24249267578125e-05,0.0915781408548355,0,0,0
10613,359926.83668073814,2010-10-12 18:28:40,46.921124865433846,4,31,0.597436249256134,4.199653148651123,31.77792852068667,30.84098253277357,126.48601328758886,112.81383273982948,-3.23295607813634e-05,0.0915781408548355,0,0,0
10614,359946.99260176014,2010-10-12 18:29:00,67.07704585736758,4,31,0.5474074482917786,4.199814796447754,31.78112318906204,30.84098253277357,126.49943022198669,112.81383273982948,3.23295607813634e-05,0.0915781408548355,0,0,0
10615,359980.5076887693,2010-10-12 18:29:34,100.59213287154138,4,31,0.4973787069320678,4.199814796447754,31.78596603419143,30.84098253277357,126.51976914633696,112.81383273982948,0.0,0.0915781408548355,0,0,0
10616,360042.4129650757,2010-10-12 18:30:36,162.49740920293655,4,31,0.4473499357700348,4.199653148651123,31.794051196673223,30.84098253277357,126.55372513789632,112.81383273982948,-3.23295607813634e-05,0.0915781408548355,0,0,0
10617,360139.8020233397,2010-10-12 18:32:13,259.8864674369197,4,31,0.3973211646080017,4.199814796447754,31.80544731928522,30.84098253277357,126.6015864102962,112.81383273982948,0.0,0.0915781408548355,0,0,0
10618,360265.1438074073,2010-10-12 18:34:18,385.2282515396065,4,31,0.3472923934459686,4.199814796447754,31.81838921628349,30.84098253277357,126.65593965570808,112.81383273982948,0.0,0.0915781408548355,0,0,0
10619,360415.7353144637,2010-10-12 18:36:49,535.8197587464141,4,31,0.2972636222839355,4.199653148651123,31.83184525783024,30.84098253277357,126.7124522004872,112.81383273982948,-3.23295607813634e-05,0.0915781408548355,0,0,0
10620,360595.9042956917,2010-10-12 18:39:49,715.9887398489312,4,31,0.2472348511219024,4.199814796447754,31.845441764406218,30.84098253277357,126.76955475366398,112.81383273982948,0.0,0.0915781408548355,0,0,0
10621,360820.27557407465,2010-10-12 18:43:33,940.3600181968908,4,31,0.1972060799598693,4.199653148651123,31.85924945083468,30.84098253277357,126.82754418544566,112.81383273982948,-3.23295607813634e-05,0.0915781408548355,0,0,0
10622,361112.8959571563,2010-10-12 18:48:26,1232.9804012785712,4,31,0.1471773236989975,4.199814796447754,31.87317224865104,30.84098253277357,126.88601707845662,112.81383273982948,0.0,0.0915781408548355,0,0,0
10623,361541.951634732,2010-10-12 18:55:35,1662.0360788642463,4,31,0.0971485450863838,4.199653148651123,31.88755742111653,30.84098253277357,126.94643185392655,112.81383273982948,-3.23295607813634e-05,0.0915781408548355,0,0,0
10624,362287.1116991475,2010-10-12 19:08:00,2407.1961432447024,4,31,0.0498289167881011,4.199814796447754,31.902221705977883,30.84098253277357,127.00801875548665,112.81383273982948,0.0,0.0915781408548355,0,0,0
10625,362317.1166552527,2010-10-12 19:08:30,30.015122876630983,5,31,0.0,4.191558837890625,31.902221705977883,30.84098253277357,127.00801875548665,112.81383273982948,-9.71794142969884e-05,0.0915781408548355,0,0,0
10626,362347.11619540746,2010-10-12 19:09:00,60.01466306139918,5,31,0.0,4.190587520599365,31.902221705977883,30.84098253277357,127.00801875548665,112.81383273982948,-3.24249267578125e-05,0.0915781408548355,0,0,0
10627,362347.31015759695,2010-10-12 19:09:01,0.187545135183072,6,31,-1.9243103452026844e-05,4.190587520599365,31.902221705977883,30.840982533776057,127.00801875548665,112.81383274403048,0.0,0.0940094217658042,0,0,0
10628,362352.1383273866,2010-10-12 19:09:06,5.015714879777291,6,31,0.0008838032954372,4.190587520599365,31.90222265722736,30.84098253394299,127.00802274178812,112.81383274473004,0.0,0.0940094217658042,0,0,0
10629,362382.15978433366,2010-10-12 19:09:36,30.015110776473676,7,31,-1.0997490882873535,4.010894298553467,31.90222265722736,30.850150023459527,127.00802274178812,112.85080447062484,-0.0009713172912597,0.0940094217658042,0,0,0
10630,362412.1749325635,2010-10-12 19:10:06,60.03025894614269,7,31,-1.099568486213684,3.9835357666015625,31.90222265722736,30.85931747143893,127.00802274178812,112.88743986045104,-0.0006151676061563,0.0940094217658042,0,0,0
10631,362442.1900690039,2010-10-12 19:10:36,90.0453953565039,7,31,-1.0997490882873535,3.964433193206787,31.90222265722736,30.86848491885383,127.00802274178812,112.92386687532188,-0.0004532813909463,0.0940094217658042,0,0,0
10632,362472.2052281108,2010-10-12 19:11:06,120.06055445841945,7,31,-1.099568486213684,3.94986343383789,31.90222265722736,30.87765227566284,127.00802274178812,112.96014182551264,-0.0003885269106831,0.0940094217658042,0,0,0
10633,362502.2203778544,2010-10-12 19:11:36,150.07570426216108,7,31,-1.099568486213684,3.937721967697144,31.90222265722736,30.88681966518392,127.00802274178812,112.9962952930366,-0.0003237724304199,0.0940094217658042,0,0,0
10634,362532.23550524726,2010-10-12 19:12:06,180.09083159489805,7,31,-1.0993878841400146,3.927199363708496,31.90222265722736,30.89598700342749,127.00802274178812,113.03234461701622,-0.0002266406954731,0.0940094217658042,0,0,0
10635,362562.25077819295,2010-10-12 19:12:36,210.1061045455597,7,31,-1.099568486213684,3.917324304580689,31.90222265722736,30.90515441593695,127.00802274178812,113.06830098968308,-0.0002590179501567,0.0940094217658042,0,0,0
10636,362592.2658196567,2010-10-12 19:13:06,240.1211460393596,7,31,-1.0993878841400146,3.9082589149475098,31.90222265722736,30.914321694597305,127.00802274178812,113.10416966622202,-0.0002266406954731,0.0940094217658042,0,0,0
10637,362622.28111072746,2010-10-12 19:13:36,270.1364371202073,7,31,-1.0993878841400146,3.899193286895752,31.90222265722736,30.92348905817691,127.00802274178812,113.13995560566426,-0.0002590179501567,0.0940094217658042,0,0,0
10638,362652.296103946,2010-10-12 19:14:06,300.15143029357785,7,31,-1.099568486213684,3.890613317489624,31.90222265722736,30.93265636461036,127.00802274178812,113.17566124138668,-0.0002266406954731,0.0940094217658042,0,0,0
10639,362682.3113439044,2010-10-12 19:14:36,330.16667038233754,7,31,-1.099568486213684,3.882195234298706,31.90222265722736,30.94182369406664,127.00802274178812,113.21128907772948,-0.0002266406954731,0.0940094217658042,0,0,0
10640,362712.3264280696,2010-10-12 19:15:06,360.1817544221753,7,31,-1.099568486213684,3.873939037322998,31.90222265722736,30.95099105399668,127.00802274178812,113.24684036232055,-0.0002266406954731,0.0940094217658042,0,0,0
10641,362742.34177447326,2010-10-12 19:15:36,390.19710086600446,7,31,-1.099568486213684,3.8658447265625,31.90222265722736,30.96015850713045,127.00802274178812,113.28231720315908,-0.0001942634553415,0.0940094217658042,0,0,0
10642,362772.356818724,2010-10-12 19:16:06,420.21214508660046,7,31,-1.099568486213684,3.857912302017212,31.90222265722736,30.96932585830056,127.00802274178812,113.31771970767404,-0.0002266406954731,0.0940094217658042,0,0,0
10643,362802.3720102667,2010-10-12 19:16:36,450.2273366794934,7,31,-1.099568486213684,3.849979877471924,31.90222265722736,30.97849326525933,127.00802274178812,113.35305065938893,-0.0001942634553415,0.0940094217658042,0,0,0
10644,362832.38698931993,2010-10-12 19:17:06,480.24231568254726,7,31,-1.0993878841400146,3.8425331115722656,31.90222265722736,30.987660655905632,127.00802274178812,113.38831077604397,-0.0001942634553415,0.0940094217658042,0,0,0
10645,362862.4021430534,2010-10-12 19:17:36,510.2574694160832,7,31,-1.099568486213684,3.835086345672608,31.90222265722736,30.99682809090783,127.00802274178812,113.42350108984424,-0.0001618862152099,0.0940094217658042,0,0,0
10646,362892.4172718799,2010-10-12 19:18:06,540.2725982575804,7,31,-1.099568486213684,3.827316045761109,31.90222265722736,31.00599548783299,127.00802274178812,113.45862218660332,-0.0001942634553415,0.0940094217658042,0,0,0
10647,362922.4324647159,2010-10-12 19:18:36,570.2877911336717,7,31,-1.099568486213684,3.82003116607666,31.90222265722736,31.01516289910832,127.00802274178812,113.49367543826874,-0.0001942634553415,0.0940094217658042,0,0,0
10648,362952.4475872717,2010-10-12 19:19:06,600.3029136544156,7,31,-1.099568486213684,3.812746286392212,31.90222265722736,31.024330263567837,127.00802274178812,113.52866198745328,-0.0002266406954731,0.0940094217658042,0,0,0
10649,362982.4627150555,2010-10-12 19:19:36,630.318041408202,7,31,-1.099568486213684,3.805785179138184,31.90222265722736,31.033497603103527,127.00802274178812,113.56358246522028,-0.0001618862152099,0.0940094217658042,0,0,0
10650,363012.4780528278,2010-10-12 19:20:06,660.3333791754064,7,31,-1.0993878841400146,3.7988240718841553,31.90222265722736,31.042665021815203,127.00802274178812,113.59843892841953,-0.0001942634553415,0.0940094217658042,0,0,0
10651,363042.4934041137,2010-10-12 19:20:36,690.3487305064159,7,31,-1.0993878841400146,3.792024850845337,31.90222265722736,31.05183250719093,127.00802274178812,113.6332322448648,-0.0001618862152099,0.0940094217658042,0,0,0
10652,363072.50816419616,2010-10-12 19:21:06,720.3634905437398,7,31,-1.099568486213684,3.785225629806519,31.90222265722736,31.06099981175788,127.00802274178812,113.66796290024352,-0.0001618862152099,0.0940094217658042,0,0,0
10653,363102.52341544273,2010-10-12 19:21:36,750.3787418354204,7,31,-1.099568486213684,3.77875018119812,31.90222265722736,31.07016723783165,127.00802274178812,113.70263341379562,-0.0001618862152099,0.0940094217658042,0,0,0
10654,363132.5384680091,2010-10-12 19:22:06,780.3937943617169,7,31,-1.099568486213684,3.772112846374512,31.90222265722736,31.079334668105396,127.00802274178812,113.73724459159006,-0.0002266406954731,0.0940094217658042,0,0,0
10655,363162.5536040536,2010-10-12 19:22:36,810.408930526466,7,31,-1.0997490882873535,3.7657992839813232,31.90222265722736,31.0885021316235,127.00802274178812,113.77179788896214,-0.0002266406954731,0.0940094217658042,0,0,0
10656,363192.5687455216,2010-10-12 19:23:06,840.424071879145,7,31,-1.0997490882873535,3.7599713802337646,31.90222265722736,31.09766956796167,127.00802274178812,113.80629436011768,-0.0001295089750783,0.0940094217658042,0,0,0
10657,363222.58387887926,2010-10-12 19:23:36,870.4392052569482,7,31,-1.099568486213684,3.753819704055786,31.90222265722736,31.10683708245813,127.00802274178812,113.84073506857106,-0.0001295089750783,0.0940094217658042,0,0,0
10658,363252.59902732464,2010-10-12 19:24:06,900.4543536722293,7,31,-1.099568486213684,3.7478301525115967,31.90222265722736,31.116004528274395,127.00802274178812,113.87512035216722,-0.0001618862152099,0.0940094217658042,0,0,0
10659,363282.6141732286,2010-10-12 19:24:36,930.4694996063264,7,31,-1.0997490882873535,3.742002248764038,31.90222265722736,31.125171953587817,127.00802274178812,113.90945170146928,-0.0001618862152099,0.0940094217658042,0,0,0
10660,363312.6293434282,2010-10-12 19:25:06,960.4846698059008,7,31,-1.099568486213684,3.7363362312316895,31.90222265722736,31.134339443158083,127.00802274178812,113.9437305752181,-0.0001295089750783,0.0940094217658042,0,0,0
10661,363342.64449844,2010-10-12 19:25:36,990.49982481261,7,31,-1.099568486213684,3.730670213699341,31.90222265722736,31.14350694356292,127.00802274178812,113.97795761377384,-0.0001295089750783,0.0940094217658042,0,0,0
10662,363372.6596061688,2010-10-12 19:26:06,1020.514932521438,7,31,-1.0993878841400146,3.725166082382202,31.90222265722736,31.152674349023595,127.00802274178812,114.01213370760594,-0.0001618862152099,0.0940094217658042,0,0,0
10663,363402.6747162336,2010-10-12 19:26:36,1050.5300426112,7,31,-1.099568486213684,3.7198238372802734,31.90222265722736,31.161841795629424,127.00802274178812,114.04626019004232,-0.0001942634553415,0.0940094217658042,0,0,0
10664,363432.689884408,2010-10-12 19:27:06,1080.5452107556523,7,31,-1.099568486213684,3.714319705963135,31.90222265722736,31.171009237570964,127.00802274178812,114.08033721377832,-0.0001942634553415,0.0940094217658042,0,0,0
10665,363462.7050209137,2010-10-12 19:27:36,1110.5603472662635,7,31,-1.0993878841400146,3.709463119506836,31.90222265722736,31.18017664056272,127.00802274178812,114.11436502401598,-9.713172767078504e-05,0.0940094217658042,0,0,0
10666,363492.7202917841,2010-10-12 19:28:06,1140.5756181367408,7,31,-1.0993878841400146,3.7041208744049072,31.90222265722736,31.18934404421657,127.00802274178812,114.14834460980178,-0.0001295089750783,0.0940094217658042,0,0,0
10667,363522.7353129272,2010-10-12 19:28:36,1170.590639324933,7,31,-1.0993878841400146,3.6991024017333984,31.90222265722736,31.198511415894,127.00802274178812,114.18227648892532,-9.713172767078504e-05,0.0940094217658042,0,0,0
10668,363552.7505092117,2010-10-12 19:29:06,1200.6058356496192,7,31,-1.099568486213684,3.6937601566314697,31.90222265722736,31.2076788331749,127.00802274178812,114.21616260553937,-9.713172767078504e-05,0.0940094217658042,0,0,0
10669,363582.7656083392,2010-10-12 19:29:36,1230.6209347319473,7,31,-1.0997490882873535,3.688903570175171,31.90222265722736,31.21684617496628,127.00802274178812,114.2500026437008,-9.713172767078504e-05,0.0940094217658042,0,0,0
10670,363612.7807518423,2010-10-12 19:30:06,1260.6360782149357,7,31,-1.0997490882873535,3.684046983718872,31.90222265722736,31.22601356437813,127.00802274178812,114.28379759517968,-0.0001295089750783,0.0940094217658042,0,0,0
10671,363642.7960461712,2010-10-12 19:30:36,1290.6513725639286,7,31,-1.0993878841400146,3.679190397262573,31.90222265722736,31.235181001240058,127.00802274178812,114.31754825655786,-9.713172767078504e-05,0.0940094217658042,0,0,0
10672,363672.81105998106,2010-10-12 19:31:06,1320.666386328619,7,31,-1.099568486213684,3.674171924591065,31.90222265722736,31.24434837022175,127.00802274178812,114.35125418753697,-0.0001295089750783,0.0940094217658042,0,0,0
10673,363702.8262021056,2010-10-12 19:31:36,1350.6815284582344,7,31,-1.099568486213684,3.6696393489837646,31.90222265722736,31.253515761063767,127.00802274178812,114.3849166246818,-0.0001295089750783,0.0940094217658042,0,0,0
10674,363732.8414688809,2010-10-12 19:32:06,1380.6967953387673,7,31,-1.099568486213684,3.664944648742676,31.90222265722736,31.26268319141103,127.00802274178812,114.41853674421895,-0.0001618862152099,0.0940094217658042,0,0,0
10675,363762.856527758,2010-10-12 19:32:36,1410.7118541356922,7,31,-1.099568486213684,3.660411834716797,31.90222265722736,31.271850614222306,127.00802274178812,114.45211455822366,-0.0001295089750783,0.0940094217658042,0,0,0
10676,363792.87165275495,2010-10-12 19:33:06,1440.72697909752,7,31,-1.099568486213684,3.656040906906128,31.90222265722736,31.28101809124485,127.00802274178812,114.48565079306516,-9.713172767078504e-05,0.0940094217658042,0,0,0
10677,363822.8867841178,2010-10-12 19:33:36,1470.7421104703262,7,31,-1.0997490882873535,3.651508092880249,31.90222265722736,31.29018547156358,127.00802274178812,114.51914585227128,-0.0001295089750783,0.0940094217658042,0,0,0
10678,363852.90192931495,2010-10-12 19:34:06,1500.7572556675868,7,31,-1.0993878841400146,3.64713716506958,31.90222265722736,31.29935293313346,127.00802274178812,114.55260078252483,-9.713172767078504e-05,0.0940094217658042,0,0,0
10679,363882.91707954986,2010-10-12 19:34:37,1530.7724059024029,7,31,-1.0993878841400146,3.642928123474121,31.90222265722736,31.30852028971881,127.00802274178812,114.5860153396511,-9.713172767078504e-05,0.0940094217658042,0,0,0
10680,363912.9347815845,2010-10-12 19:35:07,1560.7901080874642,7,31,-1.099568486213684,3.638719081878662,31.90222265722736,31.317688051399383,127.00802274178812,114.6193926738822,-9.713172767078504e-05,0.0940094217658042,0,0,0
10681,363942.9474880085,2010-10-12 19:35:37,1590.802814391252,7,31,-1.0993878841400146,3.634510040283203,31.90222265722736,31.32685385995905,127.00802274178812,114.65272452157814,-9.713172767078504e-05,0.0940094217658042,0,0,0
10682,363972.9626868896,2010-10-12 19:36:07,1620.8180132422344,7,31,-1.0993878841400146,3.630462884902954,31.90222265722736,31.336020580483705,127.00802274178812,114.68602224479098,-0.0001295089750783,0.0940094217658042,0,0,0
10683,364002.9776221537,2010-10-12 19:36:37,1650.8329485313398,7,31,-1.0993878841400146,3.626577615737915,31.90222265722736,31.34518696331518,127.00802274178812,114.71928221637415,-6.47544875391759e-05,0.0940094217658042,0,0,0
10684,364032.99280081934,2010-10-12 19:37:07,1680.8481271869891,7,31,-1.0993878841400146,3.622692346572876,31.90222265722736,31.354353339322177,127.00802274178812,114.75250625723848,-6.47544875391759e-05,0.0940094217658042,0,0,0
10685,364063.0080318806,2010-10-12 19:37:37,1710.8633582582745,7,31,-1.099568486213684,3.618807077407837,31.90222265722736,31.363519822771146,127.00802274178812,114.78569536391213,-9.713172767078504e-05,0.0940094217658042,0,0,0
10686,364093.0230385275,2010-10-12 19:38:07,1740.8783648701378,7,31,-1.099568486213684,3.615083694458008,31.90222265722736,31.37268638206028,127.00802274178812,114.81885026032374,-0.0001295089750783,0.0940094217658042,0,0,0
10687,364123.0383497336,2010-10-12 19:38:37,1770.8936761262685,7,31,-1.0992072820663452,3.6115221977233887,31.90222265722736,31.381853618747133,127.00802274178812,114.851973992408,-6.47544875391759e-05,0.0940094217658042,0,0,0
10688,364153.05340694654,2010-10-12 19:39:07,1800.9087332991455,7,31,-1.099568486213684,3.6079607009887695,31.90222265722736,31.391020877237658,127.00802274178812,114.88506488375342,-9.713172767078504e-05,0.0940094217658042,0,0,0
10689,364183.06865756656,2010-10-12 19:39:37,1830.9239839492272,7,31,-1.0993878841400146,3.6043992042541504,31.90222265722736,31.40018816083118,127.00802274178812,114.91812347371568,-9.713172767078504e-05,0.0940094217658042,0,0,0
10690,364213.0836706595,2010-10-12 19:40:07,1860.9389970522689,7,31,-1.099568486213684,3.600999593734741,31.90222265722736,31.40935537968969,127.00802274178812,114.9511502109235,-9.713172767078504e-05,0.0940094217658042,0,0,0
10691,364243.0988050599,2010-10-12 19:40:37,1890.95413145262,7,31,-1.0997490882873535,3.597599983215332,31.90222265722736,31.41852261191468,127.00802274178812,114.98414613337356,-0.0001295089750783,0.0940094217658042,0,0,0
10692,364273.11395730975,2010-10-12 19:41:07,1920.9692836623583,7,31,-1.099568486213684,3.594362258911133,31.90222265722736,31.42768990479568,127.00802274178812,115.01711192982326,-6.47544875391759e-05,0.0940094217658042,0,0,0
10693,364303.1291110684,2010-10-12 19:41:37,1950.9844374259696,7,31,-1.099568486213684,3.5911247730255127,31.90222265722736,31.436857168902165,127.00802274178812,115.0500479029404,-9.713172767078504e-05,0.0940094217658042,0,0,0
10694,364333.1443495481,2010-10-12 19:42:07,1980.999675895694,7,31,-1.0993878841400146,3.5880489349365234,31.90222265722736,31.44602446149862,127.00802274178812,115.08295449690392,-6.47544875391759e-05,0.0940094217658042,0,0,0
10695,364363.1593875031,2010-10-12 19:42:37,2011.0147138657112,7,31,-1.0993878841400146,3.584811210632324,31.90222265722736,31.455191700786497,127.00802274178812,115.11583175880789,-9.713172767078504e-05,0.0940094217658042,0,0,0
10696,364393.174581898,2010-10-12 19:43:07,2041.0299082505628,7,31,-1.099568486213684,3.581897258758545,31.90222265722736,31.46435897981674,127.00802274178812,115.14868079863072,-6.47544875391759e-05,0.0940094217658042,0,0,0
10697,364423.1896815618,2010-10-12 19:43:37,2071.0450079243656,7,31,-1.099568486213684,3.5786595344543457,31.90222265722736,31.473526224349857,127.00802274178812,115.18150179883564,-6.47544875391759e-05,0.0940094217658042,0,0,0
10698,364453.2048349795,2010-10-12 19:44:07,2101.060161422314,7,31,-1.099568486213684,3.5757455825805664,31.90222265722736,31.482693608908395,127.00802274178812,115.2142953695044,-6.47544875391759e-05,0.0940094217658042,0,0,0
10699,364483.2200937498,2010-10-12 19:44:37,2131.0754202477715,7,31,-1.099568486213684,3.572831630706787,31.90222265722736,31.49186097325695,127.00802274178812,115.2470611898652,-3.237724376958795e-05,0.0940094217658042,0,0,0
10700,364513.2351361108,2010-10-12 19:45:07,2161.090462493445,7,31,-1.099568486213684,3.569593906402588,31.90222265722736,31.501028301155426,127.00802274178812,115.27979962360072,-9.713172767078504e-05,0.0940094217658042,0,0,0
10701,364543.2502745562,2010-10-12 19:45:37,2191.1056009188287,7,31,-1.099568486213684,3.5666799545288086,31.90222265722736,31.510195584794285,127.00802274178812,115.31251076437988,-9.713172767078504e-05,0.0940094217658042,0,0,0
10702,364573.2654447458,2010-10-12 19:46:07,2221.120771108377,7,31,-1.0993878841400146,3.5637660026550293,31.90222265722736,31.51936290271681,127.00802274178812,115.34519499435106,-9.713172767078504e-05,0.0940094217658042,0,0,0
10703,364603.2805830709,2010-10-12 19:46:37,2251.1359094234863,7,31,-1.099568486213684,3.56085205078125,31.90222265722736,31.5285301314969,127.00802274178812,115.37785225387243,-9.713172767078504e-05,0.0940094217658042,0,0,0
10704,364633.29571717046,2010-10-12 19:47:07,2281.151043548151,7,31,-1.099568486213684,3.5579380989074707,31.90222265722736,31.53769735172329,127.00802274178812,115.41048208924066,-6.47544875391759e-05,0.0940094217658042,0,0,0
10705,364663.3109594798,2010-10-12 19:47:37,2311.1662858925324,7,31,-1.099568486213684,3.554862260818481,31.90222265722736,31.54686474654248,127.00802274178812,115.44308493960293,-9.713172767078504e-05,0.0940094217658042,0,0,0
10706,364693.3261003763,2010-10-12 19:48:07,2341.181426759,7,31,-1.0993878841400146,3.551948308944702,31.90222265722736,31.556032113666728,127.00802274178812,115.47566045830952,-6.47544875391759e-05,0.0940094217658042,0,0,0
10707,364723.341157855,2010-10-12 19:48:37,2371.196484297788,7,31,-1.099568486213684,3.548872470855713,31.90222265722736,31.565199424192684,127.00802274178812,115.5082081983571,-9.713172767078504e-05,0.0940094217658042,0,0,0
10708,364753.35643903614,2010-10-12 19:49:07,2401.2117654288377,7,31,-1.099568486213684,3.545796632766724,31.90222265722736,31.574366817234733,127.00802274178812,115.54072816455988,-6.47544875391759e-05,0.0940094217658042,0,0,0
10709,364783.371447247,2010-10-12 19:49:37,2431.2267735995865,7,31,-1.099568486213684,3.5425589084625244,31.90222265722736,31.58353412407893,127.00802274178812,115.57321927832496,-0.0001295089750783,0.0940094217658042,0,0,0
10710,364813.38661252434,2010-10-12 19:50:07,2461.2419389220054,7,31,-1.0992072820663452,3.539806842803955,31.90222265722736,31.592701407123062,127.00802274178812,115.60568208672726,0.0,0.0940094217658042,0,0,0
10711,364843.4017487241,2010-10-12 19:50:37,2491.2570750717173,7,31,-1.0997490882873535,3.536083459854126,31.90222265722736,31.601868722950403,127.00802274178812,115.63811488689728,-0.0001295089750783,0.0940094217658042,0,0,0
10712,364873.416899375,2010-10-12 19:51:07,2521.2722257275827,7,31,-1.0993878841400146,3.5328457355499268,31.90222265722736,31.61103605376052,127.00802274178812,115.67051679039486,-6.47544875391759e-05,0.0940094217658042,0,0,0
10713,364903.4320383367,2010-10-12 19:51:37,2551.287364719378,7,31,-1.0993878841400146,3.529284238815308,31.90222265722736,31.62020338293119,127.00802274178812,115.70288678524156,-9.713172767078504e-05,0.0940094217658042,0,0,0
10714,364933.44739133184,2010-10-12 19:52:07,2581.302717699497,7,31,-1.099568486213684,3.5257227420806885,31.90222265722736,31.629370767832977,127.00802274178812,115.73522493495176,-9.713172767078504e-05,0.0940094217658042,0,0,0
10715,364963.4625590853,2010-10-12 19:52:37,2611.3178854630005,7,31,-1.0993878841400146,3.52199935913086,31.90222265722736,31.638538051875347,127.00802274178812,115.76752995482272,-0.0001295089750783,0.0940094217658042,0,0,0
10716,364993.47749856993,2010-10-12 19:53:07,2641.332824922499,7,31,-1.099568486213684,3.51859974861145,31.90222265722736,31.647705226625305,127.00802274178812,115.79980118839607,-9.713172767078504e-05,0.0940094217658042,0,0,0
10717,365023.4926491857,2010-10-12 19:53:37,2671.347975538265,7,31,-1.099568486213684,3.514552593231201,31.90222265722736,31.65687260248975,127.00802274178812,115.83203892868217,-9.713172767078504e-05,0.0940094217658042,0,0,0
10718,365053.5077786037,2010-10-12 19:54:07,2701.3631049812607,7,31,-1.0993878841400146,3.5105056762695312,31.90222265722736,31.66603993536652,127.00802274178812,115.86423978613549,-9.713172767078504e-05,0.0940094217658042,0,0,0
10719,365083.5229363522,2010-10-12 19:54:37,2731.378262729804,7,31,-1.099568486213684,3.5061347484588623,31.90222265722736,31.67520725458188,127.00802274178812,115.89640245521522,-0.0001618862152099,0.0940094217658042,0,0,0
10720,365113.53817292216,2010-10-12 19:55:07,2761.393499269718,7,31,-1.099568486213684,3.5017638206481934,31.90222265722736,31.684374635819985,127.00802274178812,115.92852561724284,-0.0001295089750783,0.0940094217658042,0,0,0
10721,365143.55324075656,2010-10-12 19:55:37,2791.40856710918,7,31,-1.099568486213684,3.4970691204071045,31.90222265722736,31.693541893686326,127.00802274178812,115.96060668970333,-0.0001295089750783,0.0940094217658042,0,0,0
10722,365173.5683805904,2010-10-12 19:56:07,2821.423706968136,7,31,-1.099568486213684,3.4918887615203857,31.90222265722736,31.702709240744728,127.00802274178812,115.99264254421112,-0.0001295089750783,0.0940094217658042,0,0,0
10723,365203.5835178229,2010-10-12 19:56:37,2851.438844175484,7,31,-1.0993878841400146,3.486546516418457,31.90222265722736,31.711876583479896,127.00802274178812,116.02462899832022,-9.713172767078504e-05,0.0940094217658042,0,0,0
10724,365233.5986979221,2010-10-12 19:57:07,2881.4540242897683,7,31,-1.0997490882873535,3.4800710678100586,31.90222265722736,31.72104391008233,127.00802274178812,116.05656192688564,-0.0001942634553415,0.0940094217658042,0,0,0
10725,365263.61385161045,2010-10-12 19:57:37,2911.469177983204,7,31,-1.099568486213684,3.47327184677124,31.90222265722736,31.730211218841905,127.00802274178812,116.08843484184648,-0.0001942634553415,0.0940094217658042,0,0,0
10726,365293.628976407,2010-10-12 19:58:07,2941.48430277962,7,31,-1.0993878841400146,3.465825080871582,31.90222265722736,31.739378519884387,127.00802274178812,116.12024175838816,-0.0001942634553415,0.0940094217658042,0,0,0
10727,365323.6442721194,2010-10-12 19:58:37,2971.499598471961,7,31,-1.0993878841400146,3.456921339035034,31.90222265722736,31.748545908447465,127.00802274178812,116.15197446427985,-0.0002590179501567,0.0940094217658042,0,0,0
10728,365353.6592875883,2010-10-12 19:59:07,3001.5146139358862,7,31,-1.0993878841400146,3.4470462799072266,31.90222265722736,31.75771317498167,127.00802274178812,116.18362137030994,-0.0002913951757363,0.0940094217658042,0,0,0
10729,365383.6745372409,2010-10-12 19:59:37,3031.529863598507,7,31,-1.099568486213684,3.4353904724121094,31.90222265722736,31.766880507390223,127.00802274178812,116.21516922175434,-0.0003237724304199,0.0940094217658042,0,0,0
10730,365413.689742949,2010-10-12 20:00:07,3061.5450693316416,7,31,-1.0992072820663452,3.420982837677002,31.90222265722736,31.776047911669163,127.00802274178812,116.24659764774172,-0.0003885269106831,0.0940094217658042,0,0,0
10731,365443.70473178657,2010-10-12 20:00:37,3091.560058194269,7,31,-1.099568486213684,3.4031753540039062,31.90222265722736,31.785215187293417,127.00802274178812,116.27787825235596,-0.0004856586456298,0.0940094217658042,0,0,0
10732,365473.7198925726,2010-10-12 20:01:07,3121.575218925245,7,31,-1.099568486213684,3.3806731700897217,31.90222265722736,31.79438245818124,127.00802274178812,116.30897670040922,-0.0006151676061563,0.0940094217658042,0,0,0
10733,365503.73513133806,2010-10-12 20:01:37,3151.590457690706,7,31,-1.099568486213684,3.350886344909668,31.90222265722736,31.8035498487112,127.00802274178812,116.33983877470672,-0.0009388923645019,0.0940094217658042,0,0,0
10734,365533.7501573684,2010-10-12 20:02:07,3181.6054837159536,7,31,-1.099568486213684,3.309605360031128,31.90222265722736,31.812717173383746,127.00802274178812,116.37037927792684,-0.0013274669181555,0.0940094217658042,0,0,0
10735,365563.7653156232,2010-10-12 20:02:37,3211.62064197577,7,31,-1.099568486213684,3.251488447189331,31.90222265722736,31.821884481388864,127.00802274178812,116.400469743508,-0.0018131255637854,0.0940094217658042,0,0,0
10736,365593.78047434415,2010-10-12 20:03:07,3241.635800691724,7,31,-1.099568486213684,3.1661746501922607,31.90222265722736,31.83105184509464,127.00802274178812,116.42991219345475,-0.0026873112656176,0.0940094217658042,0,0,0
10737,365623.7956115514,2010-10-12 20:03:37,3271.6509379341587,7,31,-1.0993878841400146,3.0339138507843018,31.90222265722736,31.84021925348792,127.00802274178812,116.45838033427768,-0.0043385503813624,0.0940094217658042,0,0,0
10738,365648.4827466081,2010-10-12 20:04:02,3296.338072965699,7,31,-1.099568486213684,2.833823204040528,31.90222265722736,31.84775934262846,127.00802274178812,116.48058943194172,-0.0085475444793701,0.0940094217658042,0,0,0
10739,365658.76383224194,2010-10-12 20:04:12,3306.61915861956,7,31,-1.0993878841400146,2.699943780899048,31.90222265722736,31.850899463420973,127.00802274178812,116.48928628368992,-0.0111377239227294,0.0940094217658042,0,0,0
10740,365718.775219612,2010-10-12 20:05:13,60.01469715637435,8,31,0.0,3.356066465377808,31.90222265722736,31.850899463420973,127.00802274178812,116.48928628368992,0.0012950419913977,0.0940094217658042,0,0,0
10741,365718.9602410194,2010-10-12 20:05:13,0.187377973564885,9,31,-1.9243103452026844e-05,3.356066465377808,31.90222265722736,31.850899464422564,127.00802274178812,116.48928628705131,0.0,0.0914954170584678,0,0,0
10742,365723.7883930147,2010-10-12 20:05:18,5.015529983960024,9,31,0.0007031940040178,3.363998889923096,31.902223609148585,31.850899464507183,127.00802594094252,116.48928628733528,0.0011332035064697,0.0914954170584678,0,0,0
