Data_Point,Test_Time(s),Date_Time,Step_Time(s),Step_Index,Cycle_Index,Current(A),Voltage(V),Charge_Capacity(Ah),Discharge_Capacity(Ah),Charge_Energy(Wh),Discharge_Energy(Wh),dV/dt(V/s),Internal_Resistance(Ohm),Is_FC_Data,AC_Impedance(Ohm),ACI_Phase_Angle(Deg)
1761,60776.21944614861,2010-10-09 07:22:18,30.01532627355872,1,6,0.0,3.333726406097412,5.259143063103466,5.22886648244988,20.956877742309825,19.135123294093955,0.0007446765666827,0.0906038731336593,0,0,0
1762,60806.236472343895,2010-10-09 07:22:48,60.03235239365804,1,6,0.0,3.3559045791625977,5.259143063103466,5.22886648244988,20.956877742309825,19.135123294093955,0.0005180359003134,0.0906038731336593,0,0,0
1763,60836.24971238291,2010-10-09 07:23:18,90.0455924126284,1,6,0.0,3.373064517974853,5.259143063103466,5.22886648244988,20.956877742309825,19.135123294093955,0.0003885269106831,0.0906038731336593,0,0,0
1764,60866.21803025207,2010-10-09 07:23:48,120.0139102817792,1,6,0.0,3.38698673248291,5.259143063103466,5.22886648244988,20.956877742309825,19.135123294093955,0.0003561496851034,0.0906038731336593,0,0,0
1765,60896.23266331809,2010-10-09 07:24:18,30.01287106943459,2,6,0.5501165986061096,3.5422351360321045,5.263729324889832,5.22886648244988,20.972948085882845,19.135123294093955,0.0017483711708337,0.0906038731336593,0,0,0
1766,60926.247981170665,2010-10-09 07:24:48,60.02818890696813,2,6,0.550297200679779,3.594362258911133,5.268315941281281,5.22886648244988,20.989321484649807,19.135123294093955,0.0011655330890789,0.0906038731336593,0,0,0
1767,60956.26305281962,2010-10-09 07:25:18,90.04326057096148,2,6,0.550297200679779,3.633376836776733,5.272902490879314,5.22886648244988,21.00590118138596,19.135123294093955,0.0009065627818927,0.0906038731336593,0,0,0
1768,60986.27834789542,2010-10-09 07:25:48,120.05855562671582,2,6,0.5499359965324402,3.664620876312256,5.277489126575206,5.22886648244988,21.02264047568413,19.135123294093955,0.0007770538213662,0.0906038731336593,0,0,0
1769,61016.296467881766,2010-10-09 07:26:18,150.0766756130664,2,6,0.550297200679779,3.690360546112061,5.28207614368718,5.22886648244988,21.0395109222049,19.135123294093955,0.0006475448608398,0.0906038731336593,0,0,0
1770,61046.30874674524,2010-10-09 07:26:48,180.08895447152906,2,6,0.5501165986061096,3.712215185165405,5.286662288450025,5.22886648244988,21.056486732854392,19.135123294093955,0.0005504131549969,0.0906038731336593,0,0,0
1771,61076.3238441133,2010-10-09 07:27:18,210.1040518596348,2,6,0.5501165986061096,3.730184555053711,5.291248844925714,5.22886648244988,21.073555355684032,19.135123294093955,0.0004209041653666,0.0906038731336593,0,0,0
1772,61106.33912602129,2010-10-09 07:27:48,240.11933375759585,2,6,0.5499359965324402,3.744754314422608,5.295835336504407,5.22886648244988,21.09069896683867,19.135123294093955,0.0003237724304199,0.0906038731336593,0,0,0
1773,61136.35419710382,2010-10-09 07:28:18,270.1344048551775,2,6,0.550297200679779,3.755600452423096,5.300421865031017,5.22886648244988,21.10790087661268,19.135123294093955,0.0002590179501567,0.0906038731336593,0,0,0
1774,61166.36939730317,2010-10-09 07:28:48,300.14960505452046,2,6,0.5501165986061096,3.7614283561706543,5.305008396081997,5.22886648244988,21.12514031093644,19.135123294093955,0.0001295089750783,0.0906038731336593,0,0,0
1775,61196.38460408893,2010-10-09 07:29:18,330.16481181521635,2,6,0.5501165986061096,3.7651517391204834,5.30959498300124,5.22886648244988,21.142401761684088,19.135123294093955,3.237724376958795e-05,0.0906038731336593,0,0,0
1776,61226.4018660819,2010-10-09 07:29:48,360.1820738382585,2,6,0.550297200679779,3.7682275772094727,5.314181880878828,5.22886648244988,21.159679525764997,19.135123294093955,6.47544875391759e-05,0.0906038731336593,0,0,0
1777,61256.41513230618,2010-10-09 07:30:18,390.1953400324656,2,6,0.5501165986061096,3.771141529083252,5.31876814411493,5.22886648244988,21.176968263458644,19.135123294093955,9.713172767078504e-05,0.0906038731336593,0,0,0
1778,61286.4302166969,2010-10-09 07:30:48,420.2104244432277,2,6,0.5499359965324402,3.773893594741821,5.323354696276784,5.22886648244988,21.19427121505184,19.135123294093955,6.47544875391759e-05,0.0906038731336593,0,0,0
1779,61316.44539500668,2010-10-09 07:31:18,450.2256027329653,2,6,0.5501165986061096,3.7768075466156006,5.327941221941515,5.22886648244988,21.21158704839411,19.135123294093955,9.713172767078504e-05,0.0906038731336593,0,0,0
1780,61346.46056593306,2010-10-09 07:31:48,480.24077365433845,2,6,0.550297200679779,3.77972149848938,5.332527757870827,5.22886648244988,21.22891578102876,19.135123294093955,9.713172767078504e-05,0.0906038731336593,0,0,0
1781,61376.47576065375,2010-10-09 07:32:18,510.25596841011446,2,6,0.5501165986061096,3.782149791717529,5.337114338584424,5.22886648244988,21.2462573458283,19.135123294093955,3.237724376958795e-05,0.0906038731336593,0,0,0
1782,61406.490991228806,2010-10-09 07:32:48,540.271198975138,2,6,0.5497553944587708,3.784901857376098,5.341700898774924,5.22886648244988,21.263611388129693,19.135123294093955,6.47544875391759e-05,0.0906038731336593,0,0,0
1783,61436.506174465874,2010-10-09 07:33:18,570.2863821921558,2,6,0.5501165986061096,3.787815809249878,5.346287493312968,5.22886648244988,21.28097800092541,19.135123294093955,9.713172767078504e-05,0.0906038731336593,0,0,0
1784,61466.52134945238,2010-10-09 07:33:48,600.3015571736481,2,6,0.5501165986061096,3.790405988693237,5.350874012217738,5.22886648244988,21.29835666617723,19.135123294093955,9.713172767078504e-05,0.0906038731336593,0,0,0
1785,61496.53669691875,2010-10-09 07:34:18,630.3169047703507,2,6,0.5499359965324402,3.7929961681365967,5.355460629202243,5.22886648244988,21.315747847725508,19.135123294093955,3.237724376958795e-05,0.0906038731336593,0,0,0
1786,61526.55175201646,2010-10-09 07:34:48,660.3319597678059,2,6,0.5499359965324402,3.795586347579956,5.360047231223476,5.22886648244988,21.333151206925947,19.135123294093955,6.47544875391759e-05,0.0906038731336593,0,0,0
1787,61556.56694927848,2010-10-09 07:35:18,690.3471570047657,2,6,0.5501165986061096,3.798338413238525,5.364633782521443,5.22886648244988,21.350566529915007,19.135123294093955,3.237724376958795e-05,0.0906038731336593,0,0,0
1788,61586.582132315045,2010-10-09 07:35:48,720.3623400413338,2,6,0.5501165986061096,3.8009285926818848,5.369220374288506,5.22886648244988,21.36799435001561,19.135123294093955,3.237724376958795e-05,0.0906038731336593,0,0,0
1789,61616.59737269453,2010-10-09 07:36:18,750.377580450893,2,6,0.5501165986061096,3.804004430770874,5.373806986821685,5.22886648244988,21.385434714090923,19.135123294093955,9.713172767078504e-05,0.0906038731336593,0,0,0
1790,61646.612590888726,2010-10-09 07:36:49,780.392798740322,2,6,0.5501165986061096,3.8065946102142334,5.378393589493611,5.22886648244988,21.40288781475813,19.135123294093955,6.47544875391759e-05,0.0906038731336593,0,0,0
1791,61676.62772681288,2010-10-09 07:37:19,810.4079345391592,2,6,0.5501165986061096,3.8095085620880127,5.382980195852871,5.22886648244988,21.42035405446291,19.135123294093955,6.47544875391759e-05,0.0906038731336593,0,0,0
1792,61706.64293616503,2010-10-09 07:37:49,840.4231439113637,2,6,0.5501165986061096,3.812584400177002,5.387566804314788,5.22886648244988,21.43783392083613,19.135123294093955,9.713172767078504e-05,0.0906038731336593,0,0,0
1793,61736.65810823928,2010-10-09 07:38:19,870.4383159705728,2,6,0.5501165986061096,3.815822124481201,5.392153254283646,5.22886648244988,21.455327675131056,19.135123294093955,6.47544875391759e-05,0.0906038731336593,0,0,0
1794,61766.67334008248,2010-10-09 07:38:49,900.4535478288195,2,6,0.5499359965324402,3.8188979625701904,5.396738992409702,5.22886648244988,21.47283319955071,19.135123294093955,6.47544875391759e-05,0.0906038731336593,0,0,0
1795,61796.68887159256,2010-10-09 07:39:19,930.4690794341282,2,6,0.5501165986061096,3.8222975730896,5.401324646579961,5.22886648244988,21.49035350356817,19.135123294093955,6.47544875391759e-05,0.0906038731336593,0,0,0
1796,61826.705865657765,2010-10-09 07:39:49,960.4860734943244,2,6,0.5499359965324402,3.825535297393799,5.405910521302671,5.22886648244988,21.50788992962073,19.135123294093955,6.47544875391759e-05,0.0906038731336593,0,0,0
1797,61856.71904679498,2010-10-09 07:40:19,990.499254576406,2,6,0.5501165986061096,3.829096794128418,5.410495825101802,5.22886648244988,21.525439824080227,19.135123294093955,9.713172767078504e-05,0.0906038731336593,0,0,0
1798,61886.7341051057,2010-10-09 07:40:49,1020.5143128369936,2,6,0.5501165986061096,3.832496404647827,5.415082282080787,5.22886648244988,21.54300994312664,19.135123294093955,9.713172767078504e-05,0.0906038731336593,0,0,0
1799,61916.74947516338,2010-10-09 07:41:19,1050.529682884651,2,6,0.550297200679779,3.836057662963867,5.419668833785257,5.22886648244988,21.56059584299877,19.135123294093955,0.0001295089750783,0.0906038731336593,0,0,0
1800,61946.76459599993,2010-10-09 07:41:49,1080.54480372621,2,6,0.5497553944587708,3.839133501052856,5.424255344580074,5.22886648244988,21.5781969549028,19.135123294093955,6.47544875391759e-05,0.0906038731336593,0,0,0
1801,61976.77967462627,2010-10-09 07:42:19,1110.559882347543,2,6,0.550297200679779,3.842694997787476,5.428841815888686,5.22886648244988,21.595813039190915,19.135123294093955,0.0001295089750783,0.0906038731336593,0,0,0
1802,62006.794871377024,2010-10-09 07:42:49,1140.5750790932786,2,6,0.5499359965324402,3.845608949661255,5.433428332019201,5.22886648244988,21.613444106359108,19.135123294093955,6.47544875391759e-05,0.0906038731336593,0,0,0
1803,62036.8100750851,2010-10-09 07:43:19,1170.5902828414664,2,6,0.5501165986061096,3.848846673965454,5.438014795686157,5.22886648244988,21.63108963660694,19.135123294093955,6.47544875391759e-05,0.0906038731336593,0,0,0
1804,62066.82525549514,2010-10-09 07:43:49,1200.6054633316885,2,6,0.5501165986061096,3.8519225120544434,5.442601345859197,5.22886648244988,21.648749976937037,19.135123294093955,6.47544875391759e-05,0.0906038731336593,0,0,0
1805,62096.84049644604,2010-10-09 07:44:19,1230.620704287609,2,6,0.550297200679779,3.8549983501434326,5.44718784517228,5.22886648244988,21.666424184917226,19.135123294093955,6.47544875391759e-05,0.0906038731336593,0,0,0
1806,62126.85566492633,2010-10-09 07:44:49,1260.6358726425865,2,6,0.5499359965324402,3.857912302017212,5.45177439443737,5.22886648244988,21.68411249226388,19.135123294093955,3.237724376958795e-05,0.0906038731336593,0,0,0
1807,62156.87085145159,2010-10-09 07:45:19,1290.6510592079492,2,6,0.550297200679779,3.860988140106201,5.456360942815334,5.22886648244988,21.701814151444847,19.135123294093955,9.713172767078504e-05,0.0906038731336593,0,0,0
1808,62186.8860417262,2010-10-09 07:45:49,1320.6662494474692,2,6,0.5499359965324402,3.863578319549561,5.460947397076457,5.22886648244988,21.719528239693208,19.135123294093955,3.237724376958795e-05,0.0906038731336593,0,0,0
1809,62216.90124003082,2010-10-09 07:46:19,1350.6814477771522,2,6,0.5501165986061096,3.86616849899292,5.465533864473461,5.22886648244988,21.73725445450077,19.135123294093955,6.47544875391759e-05,0.0906038731336593,0,0,0
1810,62246.91643144828,2010-10-09 07:46:49,1380.6966392096456,2,6,0.5499359965324402,3.868596792221069,5.470120344981641,5.22886648244988,21.75499220389954,19.135123294093955,6.47544875391759e-05,0.0906038731336593,0,0,0
1811,62276.93164195831,2010-10-09 07:47:19,1410.711849679586,2,6,0.5501165986061096,3.870863199234009,5.474706835561567,5.22886648244988,21.772740669383865,19.135123294093955,3.237724376958795e-05,0.0906038731336593,0,0,0
1812,62306.946820478624,2010-10-09 07:47:49,1440.7270282199484,2,6,0.5499359965324402,3.8729677200317374,5.479293363702733,5.22886648244988,21.79049927920877,19.135123294093955,6.47544875391759e-05,0.0906038731336593,0,0,0
1813,62336.96210894796,2010-10-09 07:48:19,1470.7423167243746,2,6,0.550297200679779,3.875072240829468,5.483879970487562,5.22886648244988,21.8082673632806,19.135123294093955,9.713172767078504e-05,0.0906038731336593,0,0,0
1814,62366.97720785987,2010-10-09 07:48:49,1500.7574155961784,2,6,0.5501165986061096,3.876691102981568,5.488466474202975,5.22886648244988,21.826043517248884,19.135123294093955,6.47544875391759e-05,0.0906038731336593,0,0,0
1815,62396.99253791285,2010-10-09 07:49:19,1530.7727456541688,2,6,0.5501165986061096,3.878309965133667,5.493053001110074,5.22886648244988,21.843827472275283,19.135123294093955,9.713172767078504e-05,0.0906038731336593,0,0,0
1816,62427.00953929629,2010-10-09 07:49:49,1560.7897470175667,2,6,0.5501165986061096,3.8797669410705566,5.497639769418993,5.22886648244988,21.861619486699144,19.135123294093955,6.47544875391759e-05,0.0906038731336593,0,0,0
1817,62457.022935339126,2010-10-09 07:50:19,1590.8031430503718,2,6,0.5501165986061096,3.8812239170074463,5.502225998496194,5.22886648244988,21.879415931550245,19.135123294093955,9.713172767078504e-05,0.0906038731336593,0,0,0
1818,62487.03800017109,2010-10-09 07:50:49,1620.8182080026374,2,6,0.5501165986061096,3.882357120513916,5.506812476178121,5.22886648244988,21.89721942012689,19.135123294093955,3.237724376958795e-05,0.0906038731336593,0,0,0
1819,62517.05328684596,2010-10-09 07:51:19,1650.8334946875289,2,6,0.5501165986061096,3.8834903240203857,5.511399002535953,5.22886648244988,21.91502883928603,19.135123294093955,0.0,0.0906038731336593,0,0,0
1820,62547.06840452965,2010-10-09 07:51:49,1680.8486123060552,2,6,0.5499359965324402,3.8847854137420654,5.515985512825668,5.22886648244988,21.93284360287189,19.135123294093955,3.237724376958795e-05,0.0906038731336593,0,0,0
1821,62577.08357833821,2010-10-09 07:52:19,1710.8637860644992,2,6,0.5499359965324402,3.885756731033325,5.520572020411749,5.22886648244988,21.95066353478586,19.135123294093955,0.0,0.0906038731336593,0,0,0
1822,62607.09879991584,2010-10-09 07:52:49,1740.8790076421233,2,6,0.550297200679779,3.887051820755005,5.525158548714522,5.22886648244988,21.96848865188561,19.135123294093955,6.47544875391759e-05,0.0906038731336593,0,0,0
1823,62637.113980285765,2010-10-09 07:53:19,1770.894188012045,2,6,0.5501165986061096,3.8881850242614746,5.529745117884691,5.22886648244988,21.98631886957767,19.135123294093955,6.47544875391759e-05,0.0906038731336593,0,0,0
1824,62667.129167577936,2010-10-09 07:53:49,1800.909375294195,2,6,0.550297200679779,3.8891563415527344,5.534331595162978,5.22886648244988,22.004153681903905,19.135123294093955,6.47544875391759e-05,0.0906038731336593,0,0,0
1825,62697.1443703537,2010-10-09 07:54:19,1830.924578110059,2,6,0.5499359965324402,3.889965772628784,5.538918127928906,5.22886648244988,22.02199357413274,19.135123294093955,3.237724376958795e-05,0.0906038731336593,0,0,0
1826,62727.1598613127,2010-10-09 07:54:49,1860.9400690740767,2,6,0.5501165986061096,3.891098976135254,5.543504739558022,5.22886648244988,22.039838664790462,19.135123294093955,0.0,0.0906038731336593,0,0,0
1827,62757.17478902794,2010-10-09 07:55:19,1890.954996774268,2,6,0.5501165986061096,3.8923940658569336,5.548091246704497,5.22886648244988,22.057688235214066,19.135123294093955,3.237724376958795e-05,0.0906038731336593,0,0,0
1828,62787.192486160406,2010-10-09 07:55:49,1920.972694001974,2,6,0.5501165986061096,3.893365383148194,5.552678174353249,5.22886648244988,22.075544312267013,19.135123294093955,3.237724376958795e-05,0.0906038731336593,0,0,0
1829,62817.20528291463,2010-10-09 07:56:19,1950.985490640905,2,6,0.5499359965324402,3.894498586654663,5.557264370889461,5.22886648244988,22.093402515172063,19.135123294093955,0.0,0.0906038731336593,0,0,0
1830,62847.22034201731,2010-10-09 07:56:49,1981.0005497385791,2,6,0.5501165986061096,3.895469903945923,5.561850891160201,5.22886648244988,22.111266414292395,19.135123294093955,6.47544875391759e-05,0.0906038731336593,0,0,0
1831,62877.23557360989,2010-10-09 07:57:19,2011.015781336176,2,6,0.5499359965324402,3.896441221237183,5.566437368132036,5.22886648244988,22.12913513558708,19.135123294093955,3.237724376958795e-05,0.0906038731336593,0,0,0
1832,62907.250755458495,2010-10-09 07:57:49,2041.0309632048336,2,6,0.5501165986061096,3.897574424743652,5.57102384161105,5.22886648244988,22.147008870985196,19.135123294093955,6.47544875391759e-05,0.0906038731336593,0,0,0
1833,62937.26820554024,2010-10-09 07:58:19,2071.048413361764,2,6,0.550297200679779,3.898869514465332,5.575610660281036,5.22886648244988,22.164888935413053,19.135123294093955,9.713172767078504e-05,0.0906038731336593,0,0,0
1834,62967.28113811798,2010-10-09 07:58:49,2101.0613458492703,2,6,0.5501165986061096,3.9000027179718018,5.580196859151078,5.22886648244988,22.18277167439372,19.135123294093955,3.237724376958795e-05,0.0906038731336593,0,0,0
1835,62997.29560287938,2010-10-09 07:59:19,2131.0758105956384,2,6,0.5501165986061096,3.900812149047852,5.584761952874412,5.22886648244988,22.20057710448829,19.135123294093955,-3.237724376958795e-05,0.0906038731336593,0,0,0
1836,63027.295938225936,2010-10-09 07:59:49,2161.076145942194,2,6,0.5501165986061096,3.901945352554321,5.589367472501161,5.22886648244988,22.218545423911884,19.135123294093955,0.0,0.0906038731336593,0,0,0
1837,63057.3130541298,2010-10-09 08:00:19,2191.0932619814,2,6,0.5501165986061096,3.903240442276001,5.593954229905397,5.22886648244988,22.236445764859617,19.135123294093955,3.237724376958795e-05,0.0906038731336593,0,0,0
1838,63087.32632213352,2010-10-09 08:00:49,2221.106529884867,2,6,0.5501165986061096,3.904373645782471,5.598540414715752,5.22886648244988,22.25434918916908,19.135123294093955,3.237724376958795e-05,0.0906038731336593,0,0,0
1839,63117.34154464347,2010-10-09 08:01:19,2251.1217523898026,2,6,0.550297200679779,3.905506849288941,5.603126938584685,5.22886648244988,22.272259190651024,19.135123294093955,3.237724376958795e-05,0.0906038731336593,0,0,0
1840,63147.35671638188,2010-10-09 08:01:49,2281.1369241382367,2,6,0.5501165986061096,3.90664005279541,5.607713395926545,5.22886648244988,22.29017425901153,19.135123294093955,3.237724376958795e-05,0.0906038731336593,0,0,0
1841,63177.37189434581,2010-10-09 08:02:19,2311.15210209715,2,6,0.5501165986061096,3.90777325630188,5.612299807550286,5.22886648244988,22.308094655695,19.135123294093955,0.0,0.0906038731336593,0,0,0
1842,63207.38721552166,2010-10-09 08:02:49,2341.167423237916,2,6,0.5497553944587708,3.9089064598083496,5.616886308525882,5.22886648244988,22.32602088378492,19.135123294093955,-3.237724376958795e-05,0.0906038731336593,0,0,0
1843,63237.40229132096,2010-10-09 08:03:19,2371.182499072303,2,6,0.5501165986061096,3.9103634357452393,5.621472816329907,5.22886648244988,22.34395278052416,19.135123294093955,6.47544875391759e-05,0.0906038731336593,0,0,0
1844,63267.41750613673,2010-10-09 08:03:49,2401.197713852988,2,6,0.5501165986061096,3.911658525466919,5.626059292260855,5.22886648244988,22.361890110618265,19.135123294093955,3.237724376958795e-05,0.0906038731336593,0,0,0
1845,63297.43266378001,2010-10-09 08:04:19,2431.2128715062927,2,6,0.5499359965324402,3.9127917289733887,5.630645747126293,5.22886648244988,22.37983309877288,19.135123294093955,3.237724376958795e-05,0.0906038731336593,0,0,0
1846,63327.44787392414,2010-10-09 08:04:49,2461.2280816604466,2,6,0.5501165986061096,3.9139246940612793,5.6352322358836,5.22886648244988,22.397781982001952,19.135123294093955,0.0,0.0906038731336593,0,0,0
1847,63357.46309079002,2010-10-09 08:05:19,2491.2432985413648,2,6,0.5501165986061096,3.915381669998169,5.639818722864424,5.22886648244988,22.415736777221927,19.135123294093955,6.47544875391759e-05,0.0906038731336593,0,0,0
1848,63387.47833254292,2010-10-09 08:05:49,2521.2585404095594,2,6,0.5501165986061096,3.9166767597198486,5.64440513028393,5.22886648244988,22.43369699090416,19.135123294093955,3.237724376958795e-05,0.0906038731336593,0,0,0
1849,63417.49344775044,2010-10-09 08:06:19,2551.2736554767266,2,6,0.5501165986061096,3.917971849441528,5.648991595240537,5.22886648244988,22.45166354971133,19.135123294093955,0.0,0.0906038731336593,0,0,0
1850,63447.50879635466,2010-10-09 08:06:49,2581.2890041110154,2,6,0.5501165986061096,3.919266939163208,5.653578054728398,5.22886648244988,22.469636153162824,19.135123294093955,3.237724376958795e-05,0.0906038731336593,0,0,0
1851,63477.5240228746,2010-10-09 08:07:19,2611.304230630957,2,6,0.550297200679779,3.9207239151000977,5.658164594098284,5.22886648244988,22.48761527456904,19.135123294093955,3.237724376958795e-05,0.0906038731336593,0,0,0
1852,63507.539097891946,2010-10-09 08:07:49,2641.3193056483083,2,6,0.550297200679779,3.922019004821777,5.662751021175076,5.22886648244988,22.50560005856761,19.135123294093955,3.237724376958795e-05,0.0906038731336593,0,0,0
1853,63537.55437940396,2010-10-09 08:08:19,2671.3345871402576,2,6,0.5501165986061096,3.923314094543457,5.667337471627453,5.22886648244988,22.523591270395592,19.135123294093955,0.0,0.0906038731336593,0,0,0
1854,63567.569430667085,2010-10-09 08:08:49,2701.34963839338,2,6,0.5501165986061096,3.9247710704803462,5.6719238936125,5.22886648244988,22.541588681601,19.135123294093955,3.237724376958795e-05,0.0906038731336593,0,0,0
1855,63597.58476326642,2010-10-09 08:09:20,2731.364970992705,2,6,0.5501165986061096,3.9260661602020255,5.676510481241687,5.22886648244988,22.559593161360866,19.135123294093955,3.237724376958795e-05,0.0906038731336593,0,0,0
1856,63627.59983503066,2010-10-09 08:09:50,2761.380042751936,2,6,0.5501165986061096,3.927523136138916,5.681096911286289,5.22886648244988,22.577603418618757,19.135123294093955,0.0,0.0906038731336593,0,0,0
1857,63657.61716542912,2010-10-09 08:10:20,2791.397373205528,2,6,0.5501165986061096,3.9289801120758057,5.685683755920511,5.22886648244988,22.59562180541324,19.135123294093955,6.47544875391759e-05,0.0906038731336593,0,0,0
1858,63687.63021797085,2010-10-09 08:10:50,2821.4104256971223,2,6,0.5501165986061096,3.930275201797485,5.690269926313902,5.22886648244988,22.613644164671285,19.135123294093955,0.0,0.0906038731336593,0,0,0
1859,63717.64541557872,2010-10-09 08:11:20,2851.425623310018,2,6,0.5501165986061096,3.931894063949585,5.694856456504004,5.22886648244988,22.631674537391262,19.135123294093955,3.237724376958795e-05,0.0906038731336593,0,0,0
1860,63747.66065101088,2010-10-09 08:11:50,2881.4408587872854,2,6,0.5501165986061096,3.9333510398864746,5.699442981599265,5.22886648244988,22.64971164679553,19.135123294093955,3.237724376958795e-05,0.0906038731336593,0,0,0
1861,63777.67598922419,2010-10-09 08:12:20,2911.456197060751,2,6,0.5501165986061096,3.934808015823364,5.704029497062695,5.22886648244988,22.66775539152665,19.135123294093955,3.237724376958795e-05,0.0906038731336593,0,0,0
1862,63807.69111328377,2010-10-09 08:12:50,2941.471321030106,2,6,0.5501165986061096,3.936264991760254,5.70861594963546,5.22886648244988,22.6858056787,19.135123294093955,3.237724376958795e-05,0.0906038731336593,0,0,0
1863,63837.70618734374,2010-10-09 08:13:20,2971.4863950900703,2,6,0.5499359965324402,3.937721967697144,5.713202420812232,5.22886648244988,22.70386276527659,19.135123294093955,6.47544875391759e-05,0.0906038731336593,0,0,0
1864,63867.72139517209,2010-10-09 08:13:50,3001.501602893365,2,6,0.5501165986061096,3.939340829849243,5.717788863991476,5.22886648244988,22.721926746365657,19.135123294093955,3.237724376958795e-05,0.0906038731336593,0,0,0
1865,63897.73656996812,2010-10-09 08:14:20,3031.516777689395,2,6,0.550297200679779,3.940959692001343,5.72237541774262,5.22886648244988,22.73999817122949,19.135123294093955,6.47544875391759e-05,0.0906038731336593,0,0,0
1866,63927.75177965612,2010-10-09 08:14:50,3061.5319874074617,2,6,0.5501165986061096,3.942416667938232,5.726962012564199,5.22886648244988,22.75807677885536,19.135123294093955,3.237724376958795e-05,0.0906038731336593,0,0,0
1867,63957.7669830434,2010-10-09 08:15:20,3091.547190789737,2,6,0.5501165986061096,3.944035530090332,5.731548518861474,5.22886648244988,22.77616210876334,19.135123294093955,6.47544875391759e-05,0.0906038731336593,0,0,0
1868,63987.78219161361,2010-10-09 08:15:50,3121.562399339893,2,6,0.5499359965324402,3.9454925060272217,5.736135075838462,5.22886648244988,22.79425476149628,19.135123294093955,3.237724376958795e-05,0.0906038731336593,0,0,0
1869,64017.79738330175,2010-10-09 08:16:20,3151.577591023012,2,6,0.5499359965324402,3.9469494819641113,5.740721643363401,5.22886648244988,22.812354598599946,19.135123294093955,3.237724376958795e-05,0.0906038731336593,0,0,0
1870,64047.8125652105,2010-10-09 08:16:50,3181.592772936781,2,6,0.5501165986061096,3.948730230331421,5.745308179834802,5.22886648244988,22.83046157446984,19.135123294093955,3.237724376958795e-05,0.0906038731336593,0,0,0
1871,64077.827757199375,2010-10-09 08:17:20,3211.607964920649,2,6,0.5501165986061096,3.950187206268311,5.74989474507383,5.22886648244988,22.848576001411637,19.135123294093955,3.237724376958795e-05,0.0906038731336593,0,0,0
1872,64107.84295430602,2010-10-09 08:17:50,3241.6231620222707,2,6,0.5501165986061096,3.95180606842041,5.754481262563173,5.22886648244988,22.866697590902707,19.135123294093955,3.237724376958795e-05,0.0906038731336593,0,0,0
1873,64137.85810534784,2010-10-09 08:18:20,3271.6383130791355,2,6,0.5499359965324402,3.9534249305725098,5.759067760105593,5.22886648244988,22.88482652053714,19.135123294093955,0.0,0.0906038731336593,0,0,0
1874,64167.87335456936,2010-10-09 08:18:50,3301.6535623156947,2,6,0.5499359965324402,3.95504379272461,5.763653504337742,5.22886648244988,22.90295986935941,19.135123294093955,3.237724376958795e-05,0.0906038731336593,0,0,0
1875,64197.8885201023,2010-10-09 08:19:20,3331.6687278235754,2,6,0.5501165986061096,3.956824541091919,5.768239225028078,5.22886648244988,22.92110070979136,19.135123294093955,6.47544875391759e-05,0.0906038731336593,0,0,0
1876,64227.90377721349,2010-10-09 08:19:50,3361.683984939773,2,6,0.5501165986061096,3.9584434032440186,5.772825797002484,5.22886648244988,22.93925259568697,19.135123294093955,6.47544875391759e-05,0.0906038731336593,0,0,0
1877,64257.921027397024,2010-10-09 08:20:20,3391.7012352686697,2,6,0.550297200679779,3.960062265396118,5.777412650841853,5.22886648244988,22.95741333174719,19.135123294093955,3.237724376958795e-05,0.0906038731336593,0,0,0
1878,64287.93415641935,2010-10-09 08:20:50,3421.714364175715,2,6,0.5501165986061096,3.961843013763428,5.781998926015707,5.22886648244988,22.97557961936701,19.135123294093955,3.237724376958795e-05,0.0906038731336593,0,0,0
1879,64317.949343506014,2010-10-09 08:21:20,3451.7295512824267,2,6,0.5501165986061096,3.963623762130737,5.786585423672019,5.22886648244988,22.99375456838761,19.135123294093955,3.237724376958795e-05,0.0906038731336593,0,0,0
1880,64347.96457000591,2010-10-09 08:21:50,3481.7447777572565,2,6,0.5501165986061096,3.965404510498047,5.791171931266295,5.22886648244988,23.011937586821823,19.135123294093955,6.47544875391759e-05,0.0906038731336593,0,0,0
1881,64377.97980566362,2010-10-09 08:22:20,3511.76001338991,2,6,0.5499359965324402,3.9670233726501465,5.795758420853427,5.22886648244988,23.030128675404995,19.135123294093955,0.0,0.0906038731336593,0,0,0
1882,64407.99505972721,2010-10-09 08:22:50,3541.775267488587,2,6,0.5501165986061096,3.968804121017456,5.800344996257684,5.22886648244988,23.04832817021716,19.135123294093955,3.237724376958795e-05,0.0906038731336593,0,0,0
1883,64438.01014540614,2010-10-09 08:23:20,3571.7903531324228,2,6,0.5501165986061096,3.970746755599976,5.804931568537532,5.22886648244988,23.06653592640037,19.135123294093955,6.47544875391759e-05,0.0906038731336593,0,0,0
1884,64468.02535513924,2010-10-09 08:23:50,3601.805562860514,2,6,0.5501165986061096,3.972527503967285,5.809518161528297,5.22886648244988,23.0847521772339,19.135123294093955,6.47544875391759e-05,0.0906038731336593,0,0,0
1885,64498.04052610573,2010-10-09 08:24:20,3631.820733826999,2,6,0.5504778623580933,3.974632024765015,5.814104744756984,5.22886648244988,23.102976839968,19.135123294093955,9.713172767078504e-05,0.0906038731336593,0,0,0
1886,64528.055717307645,2010-10-09 08:24:50,3661.835925058993,2,6,0.5501165986061096,3.976412773132324,5.818691377330069,5.22886648244988,23.121210333141093,19.135123294093955,6.47544875391759e-05,0.0906038731336593,0,0,0
1887,64558.07104288948,2010-10-09 08:25:20,3691.851250615766,2,6,0.5499359965324402,3.977869749069214,5.823278004664767,5.22886648244988,23.1394523359528,19.135123294093955,3.237724376958795e-05,0.0906038731336593,0,0,0
1888,64588.08614049313,2010-10-09 08:25:50,3721.8663482394586,2,6,0.5499359965324402,3.979974269866944,5.827864428289435,5.22886648244988,23.157702378042178,19.135123294093955,0.0,0.0906038731336593,0,0,0
1889,64618.101312276645,2010-10-09 08:26:20,3751.881519997919,2,6,0.5501165986061096,3.982240676879883,5.832450913586809,5.22886648244988,23.175961824065272,19.135123294093955,6.47544875391759e-05,0.0906038731336593,0,0,0
1890,64648.11650593468,2010-10-09 08:26:50,3781.896713686033,2,6,0.5499359965324402,3.984021425247192,5.83703738174106,5.22886648244988,23.19423021874237,19.135123294093955,3.237724376958795e-05,0.0906038731336593,0,0,0
1891,64678.13197951538,2010-10-09 08:27:20,3811.912187276752,2,6,0.5501165986061096,3.986125946044922,5.841623942049512,5.22886648244988,23.212508143266508,19.135123294093955,6.47544875391759e-05,0.0906038731336593,0,0,0
1892,64708.14692359138,2010-10-09 08:27:50,3841.9271313377194,2,6,0.5501165986061096,3.9880685806274414,5.846210431986946,5.22886648244988,23.230795113248327,19.135123294093955,6.47544875391759e-05,0.0906038731336593,0,0,0
1893,64738.16453787236,2010-10-09 08:28:20,3871.944745738995,2,6,0.5501165986061096,3.990173101425171,5.850797301836064,5.22886648244988,23.24909290839401,19.135123294093955,6.47544875391759e-05,0.0906038731336593,0,0,0
1894,64768.17730244638,2010-10-09 08:28:50,3901.957510172661,2,6,0.5499359965324402,3.992277622222901,5.855383384526605,5.22886648244988,23.267397075692607,19.135123294093955,6.47544875391759e-05,0.0906038731336593,0,0,0
1895,64798.192519963886,2010-10-09 08:29:20,3931.972727830516,2,6,0.5501165986061096,3.994381904602051,5.859969914040798,5.22886648244988,23.285712629413585,19.135123294093955,6.47544875391759e-05,0.0906038731336593,0,0,0
1896,64828.20770422851,2010-10-09 08:29:50,3961.9879119497823,2,6,0.5501165986061096,3.99648642539978,5.86455641796739,5.22886648244988,23.30403776864528,19.135123294093955,3.237724376958795e-05,0.0906038731336593,0,0,0
1897,64858.22478685443,2010-10-09 08:30:20,3992.004994716061,2,6,0.5501165986061096,3.9985909461975098,5.869143248854063,5.22886648244988,23.322373997028336,19.135123294093955,6.47544875391759e-05,0.0906038731336593,0,0,0
1898,64888.238598488046,2010-10-09 08:30:50,4022.018806349672,2,6,0.5499359965324402,4.000695705413818,5.873729496267758,5.22886648244988,23.34071766819402,19.135123294093955,3.24249267578125e-05,0.0906038731336593,0,0,0
1899,64918.24013904335,2010-10-09 08:31:20,4052.020346824778,2,6,0.550297200679779,4.003123760223389,5.87831389179613,5.22886648244988,23.3590638877478,19.135123294093955,9.70840483205393e-05,0.0906038731336593,0,0,0
1900,64948.25288718141,2010-10-09 08:31:50,4082.033094937768,2,6,0.5499359965324402,4.005066394805908,5.882899993733815,5.22886648244988,23.377426931373225,19.135123294093955,3.23295607813634e-05,0.0906038731336593,0,0,0
1901,64978.268068739286,2010-10-09 08:32:20,4112.048276465575,2,6,0.5501165986061096,4.007332801818848,5.887486471654965,5.22886648244988,23.395801625358803,19.135123294093955,6.47544875391759e-05,0.0906038731336593,0,0,0
1902,65008.28327222683,2010-10-09 08:32:50,4142.0634799531135,2,6,0.5501165986061096,4.009599208831787,5.892072984404188,5.22886648244988,23.414186573693,19.135123294093955,6.47544875391759e-05,0.0906038731336593,0,0,0
1903,65038.29846626582,2010-10-09 08:33:20,4172.078673992103,2,6,0.5501165986061096,4.011865615844727,5.896659433516387,5.22886648244988,23.4325814093894,19.135123294093955,9.70840483205393e-05,0.0906038731336593,0,0,0
1904,65068.313628335134,2010-10-09 08:33:50,4202.093836106526,2,6,0.5501165986061096,4.013970375061035,5.901245915201422,5.22886648244988,23.450986677798596,19.135123294093955,6.47544875391759e-05,0.0906038731336593,0,0,0
1905,65098.32882098065,2010-10-09 08:34:20,4232.109028726981,2,6,0.550297200679779,4.0163984298706055,5.905832398800297,5.22886648244988,23.469402265736075,19.135123294093955,9.70840483205393e-05,0.0906038731336593,0,0,0
1906,65128.34404984142,2010-10-09 08:34:50,4262.124257562695,2,6,0.5499359965324402,4.018664836883545,5.91041892477833,5.22886648244988,23.487828445872573,19.135123294093955,9.70840483205393e-05,0.0906038731336593,0,0,0
1907,65158.35939475645,2010-10-09 08:35:20,4292.139602527838,2,6,0.550297200679779,4.020931243896484,5.91500540958243,5.22886648244988,23.506264835832923,19.135123294093955,6.47544875391759e-05,0.0906038731336593,0,0,0
1908,65188.37444763361,2010-10-09 08:35:50,4322.154655379947,2,6,0.5499359965324402,4.023036003112793,5.919591753747907,5.22886648244988,23.52471128041267,19.135123294093955,0.0,0.0906038731336593,0,0,0
1909,65218.38965925643,2010-10-09 08:36:20,4352.169866987723,2,6,0.5501165986061096,4.025464057922363,5.924178300260889,5.22886648244988,23.54316927680971,19.135123294093955,6.47544875391759e-05,0.0906038731336593,0,0,0
1910,65248.40499444219,2010-10-09 08:36:50,4382.185202168482,2,6,0.5501165986061096,4.027892589569092,5.928764817688689,5.22886648244988,23.56163790207032,19.135123294093955,6.47544875391759e-05,0.0906038731336593,0,0,0
1911,65278.42003751493,2010-10-09 08:37:20,4412.200245261267,2,6,0.5501165986061096,4.030158996582031,5.933351321730872,5.22886648244988,23.580117313521505,19.135123294093955,3.24249267578125e-05,0.0906038731336593,0,0,0
1912,65308.43527235561,2010-10-09 08:37:50,4442.215480116984,2,6,0.550297200679779,4.032749176025391,5.937937776513084,5.22886648244988,23.598607442541976,19.135123294093955,6.47544875391759e-05,0.0906038731336593,0,0,0
1913,65338.4508183568,2010-10-09 08:38:20,4472.231026123184,2,6,0.5501165986061096,4.035177230834961,5.94252425055849,5.22886648244988,23.617108749947143,19.135123294093955,9.71794142969884e-05,0.0906038731336593,0,0,0
1914,65368.465658358415,2010-10-09 08:38:50,4502.245866079691,2,6,0.5501165986061096,4.037605285644531,5.947110710534378,5.22886648244988,23.635621215500446,19.135123294093955,6.47544875391759e-05,0.0906038731336593,0,0,0
1915,65398.48095039164,2010-10-09 08:39:20,4532.261158223187,2,6,0.5501165986061096,4.04003381729126,5.951697233916454,5.22886648244988,23.654145278888898,19.135123294093955,9.71794142969884e-05,0.0906038731336593,0,0,0
1916,65428.496040506616,2010-10-09 08:39:50,4562.276248262978,2,6,0.5501165986061096,4.042623996734619,5.956283699276137,5.22886648244988,23.672680438627125,19.135123294093955,9.71794142969884e-05,0.0906038731336593,0,0,0
1917,65458.511238640815,2010-10-09 08:40:20,4592.2914463671,2,6,0.5501165986061096,4.0450520515441895,5.960870202472124,5.22886648244988,23.691227339884563,19.135123294093955,6.47544875391759e-05,0.0906038731336593,0,0,0
1918,65488.52839614336,2010-10-09 08:40:50,4622.308603899719,2,6,0.5501165986061096,4.047642230987549,5.965456935452739,5.22886648244988,23.709786762792504,19.135123294093955,0.0001295089750783,0.0906038731336593,0,0,0
1919,65518.54174203119,2010-10-09 08:41:20,4652.321949767497,2,6,0.5501165986061096,4.050232410430908,5.970043141924347,5.22886648244988,23.728355895554884,19.135123294093955,6.47544875391759e-05,0.0906038731336593,0,0,0
1920,65548.55680915888,2010-10-09 08:41:51,4682.337016880148,2,6,0.5501165986061096,4.052822589874268,5.974629584304013,5.22886648244988,23.746937772138622,19.135123294093955,6.47544875391759e-05,0.0906038731336593,0,0,0
1921,65578.57204589428,2010-10-09 08:42:21,4712.352253650637,2,6,0.5499359965324402,4.055412769317627,5.979216106603605,5.22886648244988,23.765532023000404,19.135123294093955,9.70840483205393e-05,0.0906038731336593,0,0,0
1922,65608.58723693078,2010-10-09 08:42:51,4742.3674447071935,2,6,0.550297200679779,4.058002948760986,5.983802602642856,5.22886648244988,23.78413820384588,19.135123294093955,6.47544875391759e-05,0.0906038731336593,0,0,0
1923,65638.60241534082,2010-10-09 08:43:21,4772.382623092168,2,6,0.5501165986061096,4.060593128204346,5.988389181613986,5.22886648244988,23.80275696750928,19.135123294093955,3.23295607813634e-05,0.0906038731336593,0,0,0
1924,65668.61760237235,2010-10-09 08:43:51,4802.397810093618,2,6,0.5501165986061096,4.063345432281494,5.992975703481451,5.22886648244988,23.821387431561337,19.135123294093955,6.47544875391759e-05,0.0906038731336593,0,0,0
1925,65698.63282448631,2010-10-09 08:44:21,4832.413032212592,2,6,0.5501165986061096,4.066097259521484,5.99756218047014,5.22886648244988,23.84003018246881,19.135123294093955,9.70840483205393e-05,0.0906038731336593,0,0,0
1926,65728.64822431319,2010-10-09 08:44:51,4862.42843212468,2,6,0.5501165986061096,4.068849563598633,6.002148644343881,5.22886648244988,23.85868542951148,19.135123294093955,6.47544875391759e-05,0.0906038731336593,0,0,0
1927,65758.66319552682,2010-10-09 08:45:21,4892.44340327817,2,6,0.5501165986061096,4.071439743041992,6.006735110891757,5.22886648244988,23.877353372697137,19.135123294093955,3.24249267578125e-05,0.0906038731336593,0,0,0
1928,65788.67841055313,2010-10-09 08:45:51,4922.458618319504,2,6,0.5499359965324402,4.074353694915772,6.011321577717131,5.22886648244988,23.89603406266228,19.135123294093955,6.47544875391759e-05,0.0906038731336593,0,0,0
1929,65818.69361086274,2010-10-09 08:46:21,4952.473818669221,2,6,0.5499359965324402,4.077105522155762,6.015908066755921,5.22886648244988,23.914727737298087,19.135123294093955,0.0001295089750783,0.0906038731336593,0,0,0
1930,65848.70879387425,2010-10-09 08:46:51,4982.48900162559,2,6,0.5499359965324402,4.080019474029541,6.020494571375438,5.22886648244988,23.933434515733417,19.135123294093955,6.47544875391759e-05,0.0906038731336593,0,0,0
1931,65878.72398294586,2010-10-09 08:47:21,5012.504190707225,2,6,0.5501165986061096,4.08293342590332,6.025081075227203,5.22886648244988,23.9521543582057,19.135123294093955,9.70840483205393e-05,0.0906038731336593,0,0,0
1932,65908.73930265805,2010-10-09 08:47:51,5042.519510384343,2,6,0.5499359965324402,4.086009502410889,6.029667560109939,5.22886648244988,23.97088739885645,19.135123294093955,9.71794142969884e-05,0.0906038731336593,0,0,0
1933,65938.75439126427,2010-10-09 08:48:21,5072.534598990562,2,6,0.5499359965324402,4.088761329650879,6.034253991171747,5.22886648244988,23.98963362836625,19.135123294093955,6.47544875391759e-05,0.0906038731336593,0,0,0
1934,65968.76969947282,2010-10-09 08:48:51,5102.549907209122,2,6,0.5501165986061096,4.091675281524658,6.03884053102117,5.22886648244988,24.00839384635097,19.135123294093955,6.47544875391759e-05,0.0906038731336593,0,0,0
1935,65998.78482635441,2010-10-09 08:49:21,5132.565034100759,2,6,0.5501165986061096,4.0945892333984375,6.043426935834816,5.22886648244988,24.02716703166673,19.135123294093955,3.23295607813634e-05,0.0906038731336593,0,0,0
1936,66028.79999334601,2010-10-09 08:49:51,5162.580201082313,2,6,0.5501165986061096,4.097665309906006,6.048013381126714,5.22886648244988,24.0459540999764,19.135123294093955,6.47544875391759e-05,0.0906038731336593,0,0,0
1937,66058.81519620698,2010-10-09 08:50:21,5192.59540396334,2,6,0.5501165986061096,4.100740909576416,6.052599840958089,5.22886648244988,24.06475508491441,19.135123294093955,6.47544875391759e-05,0.0906038731336593,0,0,0
1938,66088.83234080738,2010-10-09 08:50:51,5222.612548573753,2,6,0.550297200679779,4.103978633880615,6.057186685686885,5.22886648244988,24.083571595835085,19.135123294093955,0.0001295089750783,0.0906038731336593,0,0,0
1939,66118.84568700597,2010-10-09 08:51:21,5252.625894742281,2,6,0.5501165986061096,4.1068925857543945,6.061772907001776,5.22886648244988,24.102399628076338,19.135123294093955,6.47544875391759e-05,0.0906038731336593,0,0,0
1940,66148.86075521636,2010-10-09 08:51:51,5282.640962947655,2,6,0.550297200679779,4.109968662261963,6.066359357237563,5.22886648244988,24.121242743384126,19.135123294093955,9.71794142969884e-05,0.0906038731336593,0,0,0
1941,66178.87596927525,2010-10-09 08:52:21,5312.656177036614,2,6,0.5501165986061096,4.113206386566162,6.07094584473126,5.22886648244988,24.14010038897704,19.135123294093955,6.47544875391759e-05,0.0906038731336593,0,0,0
1942,66208.89126915803,2010-10-09 08:52:51,5342.671476924412,2,6,0.5501165986061096,4.116281986236572,6.075532299121168,5.22886648244988,24.15897231024224,19.135123294093955,9.71794142969884e-05,0.0906038731336593,0,0,0
1943,66238.90632062669,2010-10-09 08:53:21,5372.686528368009,2,6,0.5499359965324402,4.119519710540772,6.080118687513102,5.22886648244988,24.177858530528077,19.135123294093955,9.71794142969884e-05,0.0906038731336593,0,0,0
1944,66268.92152329217,2010-10-09 08:53:51,5402.701731033499,2,6,0.5501165986061096,4.122757434844971,6.084705162778404,5.22886648244988,24.19675983066792,19.135123294093955,6.47544875391759e-05,0.0906038731336593,0,0,0
1945,66298.93674428835,2010-10-09 08:54:21,5432.716952059749,2,6,0.5499359965324402,4.125833034515381,6.089291633356578,5.22886648244988,24.21567589055396,19.135123294093955,9.70840483205393e-05,0.0906038731336593,0,0,0
1946,66328.95192460815,2010-10-09 08:54:51,5462.732132359496,2,6,0.5501165986061096,4.129232883453369,6.093878074305767,5.22886648244988,24.234606907639243,19.135123294093955,9.71794142969884e-05,0.0906038731336593,0,0,0
1947,66358.96724067126,2010-10-09 08:55:21,5492.747448397544,2,6,0.550297200679779,4.132794380187988,6.098464562820896,5.22886648244988,24.25355318779217,19.135123294093955,0.0001295089750783,0.0906038731336593,0,0,0
1948,66388.98231297685,2010-10-09 08:55:51,5522.762520703137,2,6,0.550297200679779,4.136032104492188,6.103051024433241,5.22886648244988,24.272514489605747,19.135123294093955,0.0001295089750783,0.0906038731336593,0,0,0
1949,66418.99753814844,2010-10-09 08:56:21,5552.7777458947685,2,6,0.5501165986061096,4.139107704162598,6.107637504445187,5.22886648244988,24.291491194335418,19.135123294093955,3.23295607813634e-05,0.0906038731336593,0,0,0
1950,66449.01271411237,2010-10-09 08:56:51,5582.79292183866,2,6,0.550297200679779,4.142669200897217,6.112224029622532,5.22886648244988,24.31048355997696,19.135123294093955,9.70840483205393e-05,0.0906038731336593,0,0,0
1951,66479.02790262259,2010-10-09 08:57:21,5612.808110378945,2,6,0.5501165986061096,4.146069049835205,6.116810560351556,5.22886648244988,24.329491594612204,19.135123294093955,9.71794142969884e-05,0.0906038731336593,0,0,0
1952,66509.04310584447,2010-10-09 08:57:51,5642.823313560721,2,6,0.5497553944587708,4.149468421936035,6.121396946354492,5.22886648244988,24.348514880610526,19.135123294093955,6.47544875391759e-05,0.0906038731336593,0,0,0
1953,66539.05831617405,2010-10-09 08:58:21,5672.838523895323,2,6,0.5499359965324402,4.153029918670654,6.125983447048214,5.22886648244988,24.36755444866717,19.135123294093955,9.70840483205393e-05,0.0906038731336593,0,0,0
1954,66569.07349696,2010-10-09 08:58:51,5702.853704711357,2,6,0.550297200679779,4.156429767608643,6.130569885065302,5.22886648244988,24.386609562369223,19.135123294093955,9.71794142969884e-05,0.0906038731336593,0,0,0
1955,66599.08882574482,2010-10-09 08:59:21,5732.869033476126,2,6,0.5501165986061096,4.159829139709473,6.135156368198515,5.22886648244988,24.405680823626053,19.135123294093955,9.70840483205393e-05,0.0906038731336593,0,0,0
1956,66629.10414583799,2010-10-09 08:59:51,5762.884353579305,2,6,0.550297200679779,4.163552761077881,6.139743326032186,5.22886648244988,24.424770321568808,19.135123294093955,0.0001295089750783,0.0906038731336593,0,0,0
1957,66659.11918568266,2010-10-09 09:00:21,5792.89939343402,2,6,0.550297200679779,4.166952133178711,6.144330619509282,5.22886648244988,24.443877372549967,19.135123294093955,9.70840483205393e-05,0.0906038731336593,0,0,0
1958,66689.13685112617,2010-10-09 09:00:51,5822.917058947685,2,6,0.5499359965324402,4.170351982116699,6.14891808570475,5.22886648244988,24.463001461730805,19.135123294093955,3.24249267578125e-05,0.0906038731336593,0,0,0
1959,66719.14946760608,2010-10-09 09:01:21,5852.929675327354,2,6,0.5501165986061096,4.174237251281738,6.153504910734435,5.22886648244988,24.482139280417936,19.135123294093955,9.71794142969884e-05,0.0906038731336593,0,0,0
1960,66749.16478735338,2010-10-09 09:01:51,5882.944995104723,2,6,0.5504778623580933,4.177798748016357,6.158092193703398,5.22886648244988,24.50129546207832,19.135123294093955,0.0001295089750783,0.0906038731336593,0,0,0
1961,66779.17987337316,2010-10-09 09:02:21,5912.960081094419,2,6,0.5501165986061096,4.181198120117188,6.162679465835554,5.22886648244988,24.52046819962342,19.135123294093955,6.47544875391759e-05,0.0906038731336593,0,0,0
1962,66809.19506504624,2010-10-09 09:02:51,5942.975272812625,2,6,0.5501165986061096,4.184921741485596,6.167266449832755,5.22886648244988,24.539656456577344,19.135123294093955,6.47544875391759e-05,0.0906038731336593,0,0,0
1963,66839.21267001901,2010-10-09 09:03:21,5972.992877860591,2,6,0.5501165986061096,4.188644886016846,6.171853376800375,5.22886648244988,24.55886123499237,19.135123294093955,6.47544875391759e-05,0.0906038731336593,0,0,0
1964,66869.22545597632,2010-10-09 09:03:51,6003.0056636976005,2,6,0.5501165986061096,4.192368507385254,6.176439618551225,5.22886648244988,24.578080224270032,19.135123294093955,9.71794142969884e-05,0.0906038731336593,0,0,0
1965,66899.24079195909,2010-10-09 09:04:21,6033.020999715444,2,6,0.550297200679779,4.196091651916504,6.18102624372409,5.22886648244988,24.597317897259806,19.135123294093955,0.0001295089750783,0.0906038731336593,0,0,0
1966,66928.74036413975,2010-10-09 09:04:51,6062.520571866035,2,6,0.550297200679779,4.200138568878174,6.185534100386429,5.22886648244988,24.616241916955463,19.135123294093955,0.0001295089750783,0.0906038731336593,0,0,0
1967,66958.75398526501,2010-10-09 09:05:21,30.01523942209815,3,6,0.0,4.120652675628662,6.185534100386429,5.22886648244988,24.616241916955463,19.135123294093955,-0.0003885269106831,0.0906038731336593,0,0,0
1968,66988.76916118384,2010-10-09 09:05:51,60.03041533090163,3,6,0.0,4.110939979553223,6.185534100386429,5.22886648244988,24.616241916955463,19.135123294093955,-0.0001942634553415,0.0906038731336593,0,0,0
1969,67018.78433554378,2010-10-09 09:06:21,90.04558967580739,3,6,0.0,4.105435848236084,6.185534100386429,5.22886648244988,24.616241916955463,19.135123294093955,-9.70840483205393e-05,0.0906038731336593,0,0,0
1970,67048.75267247544,2010-10-09 09:06:51,120.01392662250532,3,6,0.0,4.101712226867676,6.185534100386429,5.22886648244988,24.616241916955463,19.135123294093955,-6.47544875391759e-05,0.0906038731336593,0,0,0
1971,67048.75288554696,2010-10-09 09:06:51,2.681683581e-06,4,6,0.9904420375823976,4.199653148651123,6.185534101124221,5.22886648244988,24.616241920053938,19.135123294093955,0.0,0.0906038731336593,0,0,0
1972,67049.64352164617,2010-10-09 09:06:52,0.890638795922144,4,6,0.9400520324707032,4.199653148651123,6.185771120583241,5.22886648244988,24.61723730879454,19.135123294093955,0.0,0.0906038731336593,0,0,0
1973,67051.78408354505,2010-10-09 09:06:54,3.031200664733644,4,6,0.889842689037323,4.199653148651123,6.186313877887118,5.22886648244988,24.6195166759192,19.135123294093955,0.0,0.0906038731336593,0,0,0
1974,67055.01860864184,2010-10-09 09:06:57,6.265725801613252,4,6,0.8396332859992981,4.199491024017334,6.187089577207066,5.22886648244988,24.62277431077452,19.135123294093955,-3.24249267578125e-05,0.0906038731336593,0,0,0
1975,67059.42475476871,2010-10-09 09:07:02,10.671871918473734,4,6,0.7888820767402649,4.199491024017334,6.188085307372607,5.22886648244988,24.626956021184068,19.135123294093955,-6.47544875391759e-05,0.0906038731336593,0,0,0
1976,67065.22150637233,2010-10-09 09:07:07,16.46862351206083,4,6,0.73867267370224,4.199653148651123,6.189314149858092,5.22886648244988,24.632116714674275,19.135123294093955,3.24249267578125e-05,0.0906038731336593,0,0,0
1977,67072.64322772555,2010-10-09 09:07:15,23.890344875304606,4,6,0.6884633302688599,4.199491024017334,6.190783209287103,5.22886648244988,24.63828622885845,19.135123294093955,-3.24249267578125e-05,0.0906038731336593,0,0,0
1978,67082.50242379073,2010-10-09 09:07:25,33.74954094049786,4,6,0.6384345293045044,4.199491024017334,6.192596848137054,5.22886648244988,24.64590287976749,19.135123294093955,0.0,0.0906038731336593,0,0,0
1979,67096.03538026726,2010-10-09 09:07:38,47.28249742704895,4,6,0.5884057879447937,4.199653148651123,6.194897290467855,5.22886648244988,24.655563958581578,19.135123294093955,0.0,0.0906038731336593,0,0,0
1980,67116.26768488069,2010-10-09 09:07:59,67.51480200037015,4,6,0.5383769869804382,4.199653148651123,6.198053610894211,5.22886648244988,24.668819455252144,19.135123294093955,0.0,0.0906038731336593,0,0,0
1981,67150.11095079266,2010-10-09 09:08:32,101.3580680125852,4,6,0.4883482456207275,4.199491024017334,6.202859413749477,5.22886648244988,24.68900221688861,19.135123294093955,-3.24249267578125e-05,0.0906038731336593,0,0,0
1982,67209.95373359055,2010-10-09 09:09:32,161.2008507403066,4,6,0.438138872385025,4.199653148651123,6.210527661685533,5.22886648244988,24.721206312644743,19.135123294093955,0.0,0.0906038731336593,0,0,0
1983,67302.0774308198,2010-10-09 09:11:04,253.3245479545174,4,6,0.3881101012229919,4.199814796447754,6.221070446484271,5.22886648244988,24.765482485977355,19.135123294093955,3.23295607813634e-05,0.0906038731336593,0,0,0
1984,67418.21834888327,2010-10-09 09:13:00,369.465466133286,4,6,0.3380813300609588,4.199814796447754,6.232763919960416,5.22886648244988,24.814591235566446,19.135123294093955,3.23295607813634e-05,0.0906038731336593,0,0,0
1985,67558.55813135767,2010-10-09 09:15:21,509.8052484723465,4,6,0.2880525588989258,4.199491024017334,6.244948979231255,5.22886648244988,24.86576444677663,19.135123294093955,-3.24249267578125e-05,0.0906038731336593,0,0,0
1986,67728.1963463809,2010-10-09 09:18:10,679.4434635005706,4,6,0.2380237877368927,4.199653148651123,6.257320091115288,5.22886648244988,24.91771900305917,19.135123294093955,0.0,0.0906038731336593,0,0,0
1987,67941.97462311444,2010-10-09 09:21:44,893.2217403494093,4,6,0.187814399600029,4.199491024017334,6.269926985358338,5.22886648244988,24.970663783315725,19.135123294093955,-3.24249267578125e-05,0.0906038731336593,0,0,0
1988,68227.8454806968,2010-10-09 09:26:30,1179.0925978515686,4,6,0.1376050263643264,4.199491024017334,6.282775751922821,5.22886648244988,25.02462438255907,19.135123294093955,-3.24249267578125e-05,0.0906038731336593,0,0,0
1989,68661.38616396664,2010-10-09 09:33:44,1612.6332810863228,4,6,0.0875762552022934,4.199653148651123,6.296131528917973,5.22886648244988,25.08071425897579,19.135123294093955,0.0,0.0906038731336593,0,0,0
1990,69229.09687083337,2010-10-09 09:43:11,2180.343987978115,4,6,0.0498289167881011,4.199491024017334,6.306735908034091,5.22886648244988,25.125249172357787,19.135123294093955,-6.47544875391759e-05,0.0906038731336593,0,0,0
1991,69259.11202277248,2010-10-09 09:43:42,30.015161888861467,5,6,0.0,4.192206382751465,6.306735908034091,5.22886648244988,25.125249172357787,19.135123294093955,-6.47544875391759e-05,0.0906038731336593,0,0,0
1992,69289.11161852072,2010-10-09 09:44:12,60.01475763209846,5,6,0.0,4.191397190093994,6.306735908034091,5.22886648244988,25.125249172357787,19.135123294093955,0.0,0.0906038731336593,0,0,0
1993,69289.30001374579,2010-10-09 09:44:12,0.187525040099941,6,6,-1.9243103452026844e-05,4.191073417663574,6.306735908034091,5.228866483452259,25.125249172357787,19.135123298295,0.0,0.092138648033142,0,0,0
1994,69294.12814664857,2010-10-09 09:44:17,5.015657847635645,6,6,0.0003419754502829,4.191235065460205,6.306736800296836,5.228866483536584,25.12525291209381,19.13512329864841,-3.24249267578125e-05,0.092138648033142,0,0,0
1995,69324.1441959241,2010-10-09 09:44:47,30.01520709152041,7,6,-1.099568486213684,4.028540134429932,6.306736800296836,5.238035090515106,25.12525291209381,19.17223645941842,-0.0008418083307333,0.092138648033142,0,0,0
1996,69354.15939756202,2010-10-09 09:45:17,60.03040869937382,7,6,-1.0997490882873535,4.004904747009277,6.306736800296836,5.247203631229711,25.12525291209381,19.209055759836613,-0.0005503654247149,0.092138648033142,0,0,0
1997,69384.17469782075,2010-10-09 09:45:47,90.04570895809556,7,6,-1.099568486213684,3.988878011703491,6.306736800296836,5.256372193461177,25.12525291209381,19.245697985050796,-0.0003561496851034,0.092138648033142,0,0,0
1998,69414.18977474284,2010-10-09 09:46:17,120.06078587016871,7,6,-1.0997490882873535,3.976089000701904,6.306736800296836,5.265540692675649,25.12525291209381,19.282210047115523,-0.0003237724304199,0.092138648033142,0,0,0
1999,69444.2049957691,2010-10-09 09:46:47,150.07600692649373,7,6,-1.0997490882873535,3.965404510498047,6.306736800296836,5.27470909721692,25.12525291209381,19.31861513724079,-0.0002590179501567,0.092138648033142,0,0,0
2000,69474.22021646955,2010-10-09 09:47:17,180.09122760688177,7,6,-1.099568486213684,3.955691337585449,6.306736800296836,5.283877544856561,25.12525291209381,19.354926569626173,-0.0002266406954731,0.092138648033142,0,0,0
2001,69504.23537235343,2010-10-09 09:47:47,210.10638351082696,7,6,-1.099568486213684,3.9464638233184814,6.306736800296836,5.293046006939093,25.12525291209381,19.39115161543803,-0.0002590179501567,0.092138648033142,0,0,0
2002,69534.2505700766,2010-10-09 09:48:17,240.12158123901108,7,6,-1.099568486213684,3.9378838539123535,6.306736800296836,5.302214412990691,25.12525291209381,19.427294455421784,-0.0001942634553415,0.092138648033142,0,0,0
2003,69564.26575988505,2010-10-09 09:48:47,270.1367710173818,7,6,-1.099568486213684,3.9293038845062256,6.306736800296836,5.311382846686151,25.12525291209381,19.46335866278566,-0.0002266406954731,0.092138648033142,0,0,0
2004,69594.28089238066,2010-10-09 09:49:17,300.1519035480737,7,6,-1.0997490882873535,3.920885801315308,6.306736800296836,5.320551279134972,25.12525291209381,19.499346095524437,-0.0002266406954731,0.092138648033142,0,0,0
2005,69624.29613619369,2010-10-09 09:49:47,330.1671473460779,7,6,-1.099568486213684,3.912953615188599,6.306736800296836,5.329719792019004,25.12525291209381,19.535258366235656,-0.0001942157687153,0.092138648033142,0,0,0
2006,69654.31147025667,2010-10-09 09:50:17,360.1824814491502,7,6,-1.0997490882873535,3.9048593044281006,6.306736800296836,5.338888326178632,25.12525291209381,19.571096956083256,-0.0001942634553415,0.092138648033142,0,0,0
2007,69684.32660153424,2010-10-09 09:50:47,390.19761279689374,7,6,-1.0997490882873535,3.8970887660980233,6.306736800296836,5.348056920419452,25.12525291209381,19.606863160596703,-0.0001942634553415,0.092138648033142,0,0,0
2008,69714.34176700703,2010-10-09 09:51:17,420.2127781644252,7,6,-1.0997490882873535,3.889318227767944,6.306736800296836,5.357225461607784,25.12525291209381,19.642558077903832,-0.0002266406954731,0.092138648033142,0,0,0
2009,69744.35698742175,2010-10-09 09:51:47,450.2279985791511,7,6,-1.099568486213684,3.881871461868286,6.306736800296836,5.36639402463724,25.12525291209381,19.678182906423885,-0.0001942634553415,0.092138648033142,0,0,0
2010,69774.37217174654,2010-10-09 09:52:17,480.24318292397976,7,6,-1.099568486213684,3.874100923538208,6.306736800296836,5.375562579850163,25.12525291209381,19.7137382488385,-0.0002266406954731,0.092138648033142,0,0,0
2011,69804.38736494342,2010-10-09 09:52:47,510.258376075758,7,6,-1.0997490882873535,3.86681604385376,6.306736800296836,5.384731154923406,25.12525291209381,19.74922530779161,-0.0001942634553415,0.092138648033142,0,0,0
2012,69834.40258580928,2010-10-09 09:53:17,540.2735969466208,7,6,-1.0997490882873535,3.8593692779541016,6.306736800296836,5.393899744383402,25.12525291209381,19.78464481314137,-0.0002266406954731,0.092138648033142,0,0,0
2013,69864.41973378809,2010-10-09 09:53:47,570.2907449755544,7,6,-1.0997490882873535,3.8519225120544434,6.306736800296836,5.403068923554902,25.12525291209381,19.81999956734293,-0.0002590179501567,0.092138648033142,0,0,0
2014,69894.43309292894,2010-10-09 09:54:17,600.3041040763134,7,6,-1.0997490882873535,3.845123291015625,6.306736800296836,5.412236976935724,25.12525291209381,19.85528370261595,-0.0001618862152099,0.092138648033142,0,0,0
2015,69924.44845457566,2010-10-09 09:54:47,630.3194657430828,7,6,-1.0997490882873535,3.8378384113311768,6.306736800296836,5.421405625295605,25.12525291209381,19.890504520195368,-0.0001942634553415,0.092138648033142,0,0,0
2016,69954.46338800514,2010-10-09 09:55:17,660.3343991374657,7,6,-1.0997490882873535,3.8310394287109375,6.306736800296836,5.430574146739021,25.12525291209381,19.925660784884403,-0.0001942634553415,0.092138648033142,0,0,0
2017,69984.48088352011,2010-10-09 09:55:47,690.3518947827662,7,6,-1.099568486213684,3.824240207672119,6.306736800296836,5.439743442080549,25.12525291209381,19.960756696195524,-0.0001942634553415,0.092138648033142,0,0,0
2018,70014.49376489523,2010-10-09 09:56:17,720.3647760626484,7,6,-1.099568486213684,3.817440986633301,6.306736800296836,5.448911336348541,25.12525291209381,19.995785380647053,-0.0001618862152099,0.092138648033142,0,0,0
2019,70044.50932247026,2010-10-09 09:56:47,750.3803336276567,7,6,-1.099568486213684,3.8106417655944815,6.306736800296836,5.458079947458345,25.12525291209381,20.030755464728653,-0.0001942634553415,0.092138648033142,0,0,0
2020,70074.52419493279,2010-10-09 09:57:17,780.3952060701284,7,6,-1.0997490882873535,3.804328203201294,6.306736800296836,5.467248367823261,25.12525291209381,20.06566421286677,-0.0001295089750783,0.092138648033142,0,0,0
2021,70104.53948293597,2010-10-09 09:57:47,810.4104941134055,7,6,-1.099568486213684,3.797852754592896,6.306736800296836,5.476417022487335,25.12525291209381,20.100514998465005,-0.0001618862152099,0.092138648033142,0,0,0
2022,70134.55692817063,2010-10-09 09:58:17,840.4279393079676,7,6,-1.0997490882873535,3.791701078414917,6.306736800296836,5.485586398147707,25.12525291209381,20.13531058569833,-0.0001618862152099,0.092138648033142,0,0,0
2023,70164.56988515418,2010-10-09 09:58:47,870.4408963316265,7,6,-1.0997490882873535,3.7855494022369385,6.306736800296836,5.494754273749226,25.12525291209381,20.17004386688507,-0.0001618862152099,0.092138648033142,0,0,0
2024,70194.5849792591,2010-10-09 09:59:17,900.4559903964496,7,6,-1.099568486213684,3.77939772605896,6.306736800296836,5.503922901973387,25.12525291209381,20.20472441092848,-0.0001618862152099,0.092138648033142,0,0,0
2025,70224.6001482707,2010-10-09 09:59:47,930.4711594130756,7,6,-1.0997490882873535,3.773407936096192,6.306736800296836,5.513091531996329,25.12525291209381,20.23935012370817,-0.0001942634553415,0.092138648033142,0,0,0
2026,70254.61546857942,2010-10-09 10:00:17,960.4864797267804,7,6,-1.0997490882873535,3.7677419185638423,6.306736800296836,5.522260156449648,25.12525291209381,20.273921764604456,-0.0001618862152099,0.092138648033142,0,0,0
2027,70284.63057046874,2010-10-09 10:00:47,990.5015816211172,7,6,-1.0997490882873535,3.762075901031494,6.306736800296836,5.531428707166412,25.12525291209381,20.30844059261801,-0.0001618862152099,0.092138648033142,0,0,0
2028,70314.64576782098,2010-10-09 10:01:17,1020.5167789783768,7,6,-1.0997490882873535,3.756571769714356,6.306736800296836,5.540597304526096,25.12525291209381,20.34290833299588,-0.0001295089750783,0.092138648033142,0,0,0
2029,70344.66095351918,2010-10-09 10:01:47,1050.5319646565283,7,6,-1.099929690361023,3.750905990600586,6.306736800296836,5.54976594007719,25.12525291209381,20.37732573890721,-0.0001618862152099,0.092138648033142,0,0,0
2030,70374.67626598834,2010-10-09 10:02:17,1080.54727712067,7,6,-1.099568486213684,3.745725631713867,6.306736800296836,5.55893464534389,25.12525291209381,20.411693526618446,-0.0001295089750783,0.092138648033142,0,0,0
2031,70404.69134062975,2010-10-09 10:02:47,1110.562351762084,7,6,-1.099568486213684,3.7403833866119385,6.306736800296836,5.568103235673211,25.12525291209381,20.44601206896186,-0.0001618862152099,0.092138648033142,0,0,0
2032,70434.70667297344,2010-10-09 10:03:17,1140.5776841408588,7,6,-1.0997490882873535,3.73520302772522,6.306736800296836,5.577271901242413,25.12525291209381,20.480283078958784,-0.0001295089750783,0.092138648033142,0,0,0
2033,70464.72371011601,2010-10-09 10:03:47,1170.5947212834296,7,6,-1.0997490882873535,3.730022668838501,6.306736800296836,5.586441074304642,25.12525291209381,20.5145085388051,-0.0001295089750783,0.092138648033142,0,0,0
2034,70494.73696775388,2010-10-09 10:04:17,1200.6079788812117,7,6,-1.099929690361023,3.725004196166992,6.306736800296836,5.595609094535925,25.12525291209381,20.548683527914942,-0.0001618862152099,0.092138648033142,0,0,0
2035,70524.75225393251,2010-10-09 10:04:47,1230.623265079891,7,6,-1.099568486213684,3.7203094959259033,6.306736800296836,5.604777748971599,25.12525291209381,20.58281544887065,-0.0001295089750783,0.092138648033142,0,0,0
2036,70554.76736990194,2010-10-09 10:05:17,1260.6383810292575,7,6,-1.0997490882873535,3.7152910232543945,6.306736800296836,5.61394632094725,25.12525291209381,20.616901992020715,-0.0001295089750783,0.092138648033142,0,0,0
2037,70584.78253771557,2010-10-09 10:05:47,1290.6535488529105,7,6,-1.1001102924346924,3.710434436798096,6.306736800296836,5.623114947110851,25.12525291209381,20.650944074532877,-0.0001295089750783,0.092138648033142,0,0,0
2038,70614.79797453462,2010-10-09 10:06:17,1320.6689857922822,7,6,-1.099568486213684,3.705739736557007,6.306736800296836,5.632283648349006,25.12525291209381,20.68494258923765,-9.713172767078504e-05,0.092138648033142,0,0,0
2039,70644.81293341254,2010-10-09 10:06:47,1350.6839445448657,7,6,-1.099568486213684,3.701045036315918,6.306736800296836,5.641452242694466,25.12525291209381,20.7188976321792,-0.0001295089750783,0.092138648033142,0,0,0
2040,70674.8281582533,2010-10-09 10:07:17,1380.699169410685,7,6,-1.0997490882873535,3.696512222290039,6.306736800296836,5.650620967063247,25.12525291209381,20.752810749758677,-0.0001295089750783,0.092138648033142,0,0,0
2041,70704.84339611651,2010-10-09 10:07:47,1410.714407273898,7,6,-1.0997490882873535,3.69181752204895,6.306736800296836,5.659789601720135,25.12525291209381,20.78668170787146,-0.0001295089750783,0.092138648033142,0,0,0
2042,70734.8585362712,2010-10-09 10:08:17,1440.7295473985162,7,6,-1.099929690361023,3.687446594238281,6.306736800296836,5.668958210290439,25.12525291209381,20.820510831529635,-0.0001618862152099,0.092138648033142,0,0,0
2043,70764.87372977386,2010-10-09 10:08:48,1470.7447409111942,7,6,-1.099568486213684,3.6829137802124015,6.306736800296836,5.678126876464259,25.12525291209381,20.85429932853731,-0.0001295089750783,0.092138648033142,0,0,0
2044,70794.88894159216,2010-10-09 10:09:18,1500.7599527495447,7,6,-1.1001102924346924,3.678542852401733,6.306736800296836,5.687295520708944,25.12525291209381,20.888047453132025,-0.0001295089750783,0.092138648033142,0,0,0
2045,70824.9041326086,2010-10-09 10:09:48,1530.775143740939,7,6,-1.099929690361023,3.6743338108062735,6.306736800296836,5.696464192615357,25.12525291209381,20.921755720809777,-9.713172767078504e-05,0.092138648033142,0,0,0
2046,70854.91932698844,2010-10-09 10:10:18,1560.7903381458405,7,6,-1.099568486213684,3.669963121414185,6.306736800296836,5.705632890696012,25.12525291209381,20.95542479780882,-0.0001295089750783,0.092138648033142,0,0,0
2047,70884.93452314271,2010-10-09 10:10:48,1590.8055343051144,7,6,-1.0997490882873535,3.6657540798187256,6.306736800296836,5.714801576184916,25.12525291209381,20.989054986732583,-0.0001295089750783,0.092138648033142,0,0,0
2048,70914.94974866015,2010-10-09 10:11:18,1620.8207598426077,7,6,-1.0997490882873535,3.661706924438477,6.306736800296836,5.723970250513084,25.12525291209381,21.022646993926863,-0.0001295089750783,0.092138648033142,0,0,0
2049,70944.96512851726,2010-10-09 10:11:48,1650.8361396796631,7,6,-1.099568486213684,3.6574978828430176,6.306736800296836,5.733138995274688,25.12525291209381,21.056201573435924,-0.0001618862152099,0.092138648033142,0,0,0
2050,70974.98012556529,2010-10-09 10:12:18,1680.8511366976154,7,6,-1.099568486213684,3.653774499893189,6.306736800296836,5.74230753503408,25.12525291209381,21.089718487616103,-0.0001295089750783,0.092138648033142,0,0,0
2051,71004.99531975464,2010-10-09 10:12:48,1710.8663309270798,7,6,-1.0997490882873535,3.6495654582977295,6.306736800296836,5.75147624021353,25.12525291209381,21.12319993459525,-0.0001618862152099,0.092138648033142,0,0,0
2052,71035.01067341646,2010-10-09 10:13:18,1740.8816845638362,7,6,-1.0997490882873535,3.645842075347901,6.306736800296836,5.760644932588583,25.12525291209381,21.15664551197164,-6.47544875391759e-05,0.092138648033142,0,0,0
2053,71065.0276358729,2010-10-09 10:13:48,1770.898647020266,7,6,-1.0997490882873535,3.6421186923980713,6.306736800296836,5.769814068796482,25.12525291209381,21.19005787866025,-9.713172767078504e-05,0.092138648033142,0,0,0
2054,71095.0409362122,2010-10-09 10:14:18,1800.9119473445355,7,6,-1.099568486213684,3.638557195663452,6.306736800296836,5.778982059196172,25.12525291209381,21.223431947858945,-6.47544875391759e-05,0.092138648033142,0,0,0
2055,71125.05621825051,2010-10-09 10:14:48,1830.927229407909,7,6,-1.0997490882873535,3.634833812713623,6.306736800296836,5.788150722370451,25.12525291209381,21.256774989976808,-9.713172767078504e-05,0.092138648033142,0,0,0
2056,71155.07129438566,2010-10-09 10:15:18,1860.942305522996,7,6,-1.0997490882873535,3.631272315979004,6.306736800296836,5.797319865939297,25.12525291209381,21.29008687936089,-9.713172767078504e-05,0.092138648033142,0,0,0
2057,71185.086472114,2010-10-09 10:15:48,1890.9574832964463,7,6,-1.0997490882873535,3.6278727054595943,6.306736800296836,5.806489180067047,25.12525291209381,21.323367487544864,-9.713172767078504e-05,0.092138648033142,0,0,0
2058,71215.10181084358,2010-10-09 10:16:18,1920.972822011012,7,6,-1.0997490882873535,3.6247968673706055,6.306736800296836,5.815658415388162,25.12525291209381,21.356616786670312,-3.237724376958795e-05,0.092138648033142,0,0,0
2059,71245.11689767038,2010-10-09 10:16:48,1950.9879088578457,7,6,-1.099929690361023,3.6212353706359854,6.306736800296836,5.824827753091903,25.12525291209381,21.389836294873653,-9.713172767078504e-05,0.092138648033142,0,0,0
2060,71275.13210711777,2010-10-09 10:17:18,1981.003118285188,7,6,-1.099929690361023,3.617997646331787,6.306736800296836,5.833997101644346,25.12525291209381,21.423026452552964,-0.0001295089750783,0.092138648033142,0,0,0
2061,71305.14729159292,2010-10-09 10:17:48,2011.0183027603407,7,6,-1.0997490882873535,3.614921808242798,6.306736800296836,5.843166456372833,25.12525291209381,21.456187831622923,-9.713172767078504e-05,0.092138648033142,0,0,0
2062,71335.1625047245,2010-10-09 10:18:18,2041.0335158869027,7,6,-1.099568486213684,3.6120078563690186,6.306736800296836,5.85233532044342,25.12525291209381,21.48932007092469,-6.47544875391759e-05,0.092138648033142,0,0,0
2063,71365.1776848488,2010-10-09 10:18:48,2071.048695981138,7,6,-1.099568486213684,3.609255790710449,6.306736800296836,5.861503938209715,25.12525291209381,21.52242441063533,-6.47544875391759e-05,0.092138648033142,0,0,0
2064,71395.1929171732,2010-10-09 10:19:18,2101.063928340633,7,6,-1.0997490882873535,3.60634183883667,6.306736800296836,5.870672455847835,25.12525291209381,21.555501726107785,-6.47544875391759e-05,0.092138648033142,0,0,0
2065,71425.2080815182,2010-10-09 10:19:48,2131.0790926806044,7,6,-1.0997490882873535,3.6035897731781006,6.306736800296836,5.879840985665968,25.12525291209381,21.588553029910617,-3.237724376958795e-05,0.092138648033142,0,0,0
2066,71455.22329270992,2010-10-09 10:20:18,2161.094303867331,7,6,-1.0997490882873535,3.6006758213043213,6.306736800296836,5.889009562962834,25.12525291209381,21.6215791986852,-9.713172767078504e-05,0.092138648033142,0,0,0
2067,71485.23848617249,2010-10-09 10:20:48,2191.1094973348963,7,6,-1.0997490882873535,3.597923755645752,6.306736800296836,5.898178129788774,25.12525291209381,21.65458018504618,-6.47544875391759e-05,0.092138648033142,0,0,0
2068,71515.25369710357,2010-10-09 10:21:18,2221.124708245936,7,6,-1.0997490882873535,3.5951716899871826,6.306736800296836,5.907346701104112,25.12525291209381,21.687556238606824,-9.713172767078504e-05,0.092138648033142,0,0,0
2069,71545.26889638061,2010-10-09 10:21:48,2251.1399075129552,7,6,-1.0997490882873535,3.592743396759033,6.306736800296836,5.91651518589243,25.12525291209381,21.72050741124967,0.0,0.092138648033142,0,0,0
2070,71575.28420361172,2010-10-09 10:22:18,2281.1552147691173,7,6,-1.0997490882873535,3.589991569519043,6.306736800296836,5.925683718196202,25.12525291209381,21.75343436628268,-6.47544875391759e-05,0.092138648033142,0,0,0
2071,71605.29927612282,2010-10-09 10:22:48,2311.170287285234,7,6,-1.099568486213684,3.587401390075684,6.306736800296836,5.934852202077804,25.12525291209381,21.786336922754955,-6.47544875391759e-05,0.092138648033142,0,0,0
2072,71635.31449121429,2010-10-09 10:23:18,2341.185502381705,7,6,-1.099568486213684,3.5846493244171143,6.306736800296836,5.944020764752141,25.12525291209381,21.81921541293756,-9.713172767078504e-05,0.092138648033142,0,0,0
2073,71665.33164198004,2010-10-09 10:23:48,2371.20265316751,7,6,-1.0997490882873535,3.581897258758545,6.306736800296836,5.953189815230101,25.12525291209381,21.85207128249989,-9.713172767078504e-05,0.092138648033142,0,0,0
2074,71695.34490417429,2010-10-09 10:24:18,2401.215915361748,7,6,-1.099568486213684,3.579307079315185,6.306736800296836,5.96235763637285,25.12525291209381,21.884898170799406,-3.237724376958795e-05,0.092138648033142,0,0,0
2075,71725.36007976228,2010-10-09 10:24:48,2431.2310909146645,7,6,-1.0993878841400146,3.576716899871826,6.306736800296836,5.971526112871135,25.12525291209381,21.917702304313607,-6.47544875391759e-05,0.092138648033142,0,0,0
2076,71755.37546807546,2010-10-09 10:25:18,2461.246479252908,7,6,-1.099568486213684,3.573641061782837,6.306736800296836,5.980694684727623,25.12525291209381,21.95048145264252,-9.713172767078504e-05,0.092138648033142,0,0,0
2077,71785.39047861211,2010-10-09 10:25:48,2491.2614897494527,7,6,-1.0997490882873535,3.5707271099090576,6.306736800296836,5.989863208582232,25.12525291209381,21.983234832017637,-9.713172767078504e-05,0.092138648033142,0,0,0
2078,71815.4056751423,2010-10-09 10:26:18,2521.2766862746385,7,6,-1.0997490882873535,3.5679750442504883,6.306736800296836,5.999031762860319,25.12525291209381,22.015961933404903,-9.713172767078504e-05,0.092138648033142,0,0,0
2079,71845.42116503866,2010-10-09 10:26:48,2551.2921762060832,7,6,-1.0997490882873535,3.564899206161499,6.306736800296836,6.008200437755742,25.12525291209381,22.048662162498356,-0.0001295089750783,0.092138648033142,0,0,0
2080,71875.43609610223,2010-10-09 10:27:18,2581.3071072696566,7,6,-1.099568486213684,3.56198525428772,6.306736800296836,6.01736893452459,25.12525291209381,22.081333862453963,-6.47544875391759e-05,0.092138648033142,0,0,0
2081,71905.45380014693,2010-10-09 10:27:48,2611.324811419615,7,6,-1.0997490882873535,3.5585856437683105,6.306736800296836,6.026538226858706,25.12525291209381,22.11397992325888,-9.713172767078504e-05,0.092138648033142,0,0,0
2082,71935.4664927616,2010-10-09 10:28:18,2641.337503898948,7,6,-1.0997490882873535,3.5553479194641118,6.306736800296836,6.035706013000264,25.12525291209381,22.146590706757515,-9.713172767078504e-05,0.092138648033142,0,0,0
2083,71965.48171110117,2010-10-09 10:28:48,2671.3527222535395,7,6,-1.099568486213684,3.551948308944702,6.306736800296836,6.04487458792933,25.12525291209381,22.179173283758264,-9.713172767078504e-05,0.092138648033142,0,0,0
2084,71995.49702050268,2010-10-09 10:29:18,2701.3680316450227,7,6,-1.0997490882873535,3.548386812210083,6.306736800296836,6.054043173419761,25.12525291209381,22.21172406734984,-0.0001295089750783,0.092138648033142,0,0,0
2085,72025.51206739993,2010-10-09 10:29:48,2731.383078527253,7,6,-1.099568486213684,3.544825315475464,6.306736800296836,6.063211684823374,25.12525291209381,22.244241501647515,-9.713172767078504e-05,0.092138648033142,0,0,0
2086,72055.53034665824,2010-10-09 10:30:18,2761.401357900845,7,6,-1.0997490882873535,3.540940046310425,6.306736800296836,6.0723812304983,25.12525291209381,22.276728387234872,-9.713172767078504e-05,0.092138648033142,0,0,0
2087,72085.54251748745,2010-10-09 10:30:48,2791.413528740091,7,6,-1.0997490882873535,3.537216663360596,6.306736800296836,6.081548924296864,25.12525291209381,22.30917354742992,-9.713172767078504e-05,0.092138648033142,0,0,0
2088,72115.55767906555,2010-10-09 10:31:18,2821.4286901978776,7,6,-1.0997490882873535,3.5330076217651367,6.306736800296836,6.09071750457661,25.12525291209381,22.34158538700171,-0.0001295089750783,0.092138648033142,0,0,0
2089,72145.57286131014,2010-10-09 10:31:48,2851.443872447485,7,6,-1.099568486213684,3.5291223526000977,6.306736800296836,6.099886034524694,25.12525291209381,22.37396021620952,-9.713172767078504e-05,0.092138648033142,0,0,0
2090,72175.58821183916,2010-10-09 10:32:18,2881.45922298652,7,6,-1.099929690361023,3.5245895385742188,6.306736800296836,6.109054665429618,25.12525291209381,22.406297308281275,-0.0001618862152099,0.092138648033142,0,0,0
2091,72205.60326551832,2010-10-09 10:32:48,2911.474276680728,7,6,-1.0997490882873535,3.52021861076355,6.306736800296836,6.11822317421988,25.12525291209381,22.438594102964124,-0.0001618862152099,0.092138648033142,0,0,0
2092,72235.61849755702,2010-10-09 10:33:18,2941.4895087244363,7,6,-1.099568486213684,3.515685796737671,6.306736800296836,6.127391716912369,25.12525291209381,22.470849916294053,-0.0001618862152099,0.092138648033142,0,0,0
2093,72265.63366923027,2010-10-09 10:33:48,2971.5046803926707,7,6,-1.0997490882873535,3.510829448699951,6.306736800296836,6.136560378348671,25.12525291209381,22.5030624660533,-0.0001295089750783,0.092138648033142,0,0,0
2094,72295.63513872847,2010-10-09 10:34:18,3001.5061498608065,7,6,-1.099568486213684,3.5054872035980225,6.306736800296836,6.145724788794626,25.12525291209381,22.535213529949477,-0.0001618862152099,0.092138648033142,0,0,0
2095,72325.64860003897,2010-10-09 10:34:48,3031.519611196366,7,6,-1.0997490882873535,3.499821186065674,6.306736800296836,6.15489288985776,25.12525291209381,22.56732679695137,-0.0001942634553415,0.092138648033142,0,0,0
2096,72355.66366132209,2010-10-09 10:35:18,3061.5346724544247,7,6,-1.0997490882873535,3.4933457374572754,6.306736800296836,6.164061411209286,25.12525291209381,22.599386099130847,-0.0001942634553415,0.092138648033142,0,0,0
2097,72385.67898026739,2010-10-09 10:35:48,3091.549991509994,7,6,-1.0997490882873535,3.486060857772827,6.306736800296836,6.173230033320536,25.12525291209381,22.631383455471628,-0.0002266406954731,0.092138648033142,0,0,0
2098,72415.69403740017,2010-10-09 10:36:18,3121.565048537509,7,6,-1.099568486213684,3.477642774581909,6.306736800296836,6.182398526697718,25.12525291209381,22.663309103216623,-0.0002590179501567,0.092138648033142,0,0,0
2099,72445.70924170976,2010-10-09 10:36:48,3151.5802528571207,7,6,-1.099568486213684,3.468091487884521,6.306736800296836,6.191567061884744,25.12525291209381,22.69515147071956,-0.0002590179501567,0.092138648033142,0,0,0
2100,72475.72445533254,2010-10-09 10:37:18,3181.5954664698943,7,6,-1.0997490882873535,3.4557881355285645,6.306736800296836,6.200735102259012,25.12525291209381,22.72689255415143,-0.0003885269106831,0.092138648033142,0,0,0
2101,72505.73961665499,2010-10-09 10:37:48,3211.610627817406,7,6,-1.099568486213684,3.440408945083618,6.306736800296836,6.209902987480095,25.12525291209381,22.75850831973895,-0.0004532813909463,0.092138648033142,0,0,0
2102,72535.75482061371,2010-10-09 10:38:18,3241.625831776119,7,6,-1.099568486213684,3.419849634170532,6.306736800296836,6.219070967063111,25.12525291209381,22.789960985985285,-0.0006151676061563,0.092138648033142,0,0,0
2103,72565.77024260584,2010-10-09 10:38:48,3271.6412537732504,7,6,-1.099568486213684,3.391519546508789,6.306736800296836,6.228238932727596,25.12525291209381,22.8211913187419,-0.0008418083307333,0.092138648033142,0,0,0
2104,72595.785256967,2010-10-09 10:39:18,3301.6562682196395,7,6,-1.0997490882873535,3.350724458694458,6.306736800296836,6.237407207604132,25.12525291209381,22.85211006735779,-0.0012626647949218,0.092138648033142,0,0,0
2105,72625.8005907944,2010-10-09 10:39:48,3331.6716019417627,7,6,-1.0997490882873535,3.292931079864502,6.306736800296836,6.246575788041369,25.12525291209381,22.882583572292106,-0.0018131255637854,0.092138648033142,0,0,0
2106,72655.81565751106,2010-10-09 10:40:18,3361.686668648401,7,6,-1.0997490882873535,3.210693120956421,6.306736800296836,6.255744310858732,25.12525291209381,22.912421431225813,-0.0025578022468835,0.092138648033142,0,0,0
2107,72685.83085927929,2010-10-09 10:40:48,3391.7018704316915,7,6,-1.099929690361023,3.085879325866699,6.306736800296836,6.264912810172515,25.12525291209381,22.94133061404671,-0.004047155380249,0.092138648033142,0,0,0
2108,72711.45560112051,2010-10-09 10:41:14,3417.3266122829205,7,6,-1.099568486213684,2.8857884407043457,6.306736800296836,6.272740315934749,25.12525291209381,22.96481658552887,-0.0090008731931447,0.092138648033142,0,0,0
2109,72723.68969206448,2010-10-09 10:41:26,3429.5607032569637,7,6,-1.099568486213684,2.699620008468628,6.306736800296836,6.276477421129102,25.12525291209381,22.975273322121385,-0.0134365083649754,0.092138648033142,0,0,0
2110,72783.70725102564,2010-10-09 10:42:26,60.014800579135695,8,6,0.0,3.287750720977783,6.306736800296836,6.276477421129102,25.12525291209381,22.975273322121385,0.0011979580158367,0.092138648033142,0,0,0
2111,72783.89833882412,2010-10-09 10:42:27,0.187528303232672,9,6,-1.9243103452026844e-05,3.287912607192993,6.306736800296836,6.276477422131499,25.12525291209381,22.975273325417177,0.0,0.0899572893977165,0,0,0
2112,72788.72650794718,2010-10-09 10:42:32,5.015697431290293,9,6,0.0005225847125984,3.295359373092652,6.306737675183814,6.276477422285145,25.125255792473236,22.975273325922725,0.0011008263099938,0.0899572893977165,0,0,0
