Data_Point,Test_Time(s),Date_Time,Step_Time(s),Step_Index,Cycle_Index,Current(A),Voltage(V),Charge_Capacity(Ah),Discharge_Capacity(Ah),Charge_Energy(Wh),Discharge_Energy(Wh),dV/dt(V/s),Internal_Resistance(Ohm),Is_FC_Data,AC_Impedance(Ohm),ACI_Phase_Angle(Deg)
4583,156880.49324315926,2010-10-10 10:04:12,30.01521119173941,1,14,0.0,3.3073389530181885,13.631312290095972,13.600522614245536,54.25632578827528,49.839204531230855,0.0007122993702068,0.0891468673944473,0,0,0
4584,156910.51088527963,2010-10-10 10:04:42,60.03285332212592,1,14,0.0,3.329193592071533,13.631312290095972,13.600522614245536,54.25632578827528,49.839204531230855,0.0005180359003134,0.0891468673944473,0,0,0
4585,156940.5238186042,2010-10-10 10:05:12,90.045786651732,1,14,0.0,3.345867872238159,13.631312290095972,13.600522614245536,54.25632578827528,49.839204531230855,0.0003561496851034,0.0891468673944473,0,0,0
4586,156970.49198261992,2010-10-10 10:05:42,120.01395052708288,1,14,0.0,3.359466075897217,13.631312290095972,13.600522614245536,54.25632578827528,49.839204531230855,0.0003561496851034,0.0891468673944473,0,0,0
4587,157000.50639839587,2010-10-10 10:06:12,30.01528013356365,2,14,0.5499359965324402,3.51908540725708,13.63589890627844,13.600522614245536,54.27228216053874,49.839204531230855,0.0018130779499188,0.0891468673944473,0,0,0
4588,157030.52368715554,2010-10-10 10:06:42,60.0325689734415,2,14,0.5501165986061096,3.5750980377197266,13.640485844354227,13.600522614245536,54.288560202100975,49.839204531230855,0.0012950897216796,0.0891468673944473,0,0,0
4589,157060.5367771155,2010-10-10 10:07:12,90.04565880309386,2,14,0.5501165986061096,3.6167025566101074,13.645072103887726,13.600522614245536,54.30505564385926,49.839204531230855,0.0010036944877356,0.0891468673944473,0,0,0
4590,157090.5513375203,2010-10-10 10:07:42,120.06021921789691,2,14,0.550297200679779,3.6495654582977295,13.649632474978803,13.600522614245536,54.3216261339476,49.839204531230855,0.0008418083307333,0.0891468673944473,0,0,0
4591,157120.55175852534,2010-10-10 10:08:12,150.06064021792776,2,14,0.5501165986061096,3.677085876464844,13.654242933381544,13.600522614245536,54.338517348082384,49.839204531230855,0.0006799221155233,0.0891468673944473,0,0,0
4592,157150.5670444283,2010-10-10 10:08:42,180.07592613590796,2,14,0.550297200679779,3.700235605239868,13.658829538122822,13.600522614245536,54.355436740203416,49.839204531230855,0.0006151676061563,0.0891468673944473,0,0,0
4593,157180.58205878446,2010-10-10 10:09:12,210.09094046701009,2,14,0.5499359965324402,3.719661951065064,13.663416059632672,13.600522614245536,54.372453414560205,49.839204531230855,0.0004856586456298,0.0891468673944473,0,0,0
4594,157210.5975276534,2010-10-10 10:09:42,240.10640936603536,2,14,0.5501165986061096,3.7360124588012695,13.668002655693517,13.600522614245536,54.38955285292799,49.839204531230855,0.0003885269106831,0.0891468673944473,0,0,0
4595,157240.61252634053,2010-10-10 10:10:12,270.12140803309785,2,14,0.550297200679779,3.749125242233277,13.672589189888232,13.600522614245536,54.40671978592734,49.839204531230855,0.0003237724304199,0.0891468673944473,0,0,0
4596,157270.6279033405,2010-10-10 10:10:42,300.13678504812,2,14,0.5501165986061096,3.757381200790405,13.677175759293323,13.600522614245536,54.4239358344528,49.839204531230855,0.0001942634553415,0.0891468673944473,0,0,0
4597,157300.6429654657,2010-10-10 10:11:12,330.1518471833647,2,14,0.5501165986061096,3.762237787246704,13.681762295458086,13.600522614245536,54.44118095285934,49.839204531230855,9.713172767078504e-05,0.0891468673944473,0,0,0
4598,157330.65820221615,2010-10-10 10:11:42,360.1670838937043,2,14,0.5501165986061096,3.7654755115509033,13.686348816718116,13.600522614245536,54.45844410390298,49.839204531230855,9.713172767078504e-05,0.0891468673944473,0,0,0
4599,157360.67343874605,2010-10-10 10:12:13,390.1823204286067,2,14,0.5499359965324402,3.7683894634246826,13.690935392990912,13.600522614245536,54.47572201861512,49.839204531230855,3.237724376958795e-05,0.0891468673944473,0,0,0
4600,157390.6887827939,2010-10-10 10:12:43,420.19766448648943,2,14,0.5501165986061096,3.771465301513672,13.695521953735936,13.600522614245536,54.49301341589682,49.839204531230855,9.713172767078504e-05,0.0891468673944473,0,0,0
4601,157420.7038717911,2010-10-10 10:13:13,450.2127534736574,2,14,0.5501165986061096,3.774379253387451,13.700108428178558,13.600522614245536,54.51031784925235,49.839204531230855,9.713172767078504e-05,0.0891468673944473,0,0,0
4602,157450.71909558924,2010-10-10 10:13:43,480.2279772768284,2,14,0.5501165986061096,3.777131319046021,13.70469497946054,13.600522614245536,54.52763575691366,49.839204531230855,6.47544875391759e-05,0.0891468673944473,0,0,0
4603,157480.7343341843,2010-10-10 10:14:13,510.2432158869027,2,14,0.5499359965324402,3.7800452709198,13.709281551997467,13.600522614245536,54.54496665613017,49.839204531230855,9.713172767078504e-05,0.0891468673944473,0,0,0
4604,157510.74957773168,2010-10-10 10:14:43,540.2584594543324,2,14,0.5501165986061096,3.782797336578369,13.713868154657206,13.600522614245536,54.56231029974826,49.839204531230855,6.47544875391759e-05,0.0891468673944473,0,0,0
4605,157540.76501677127,2010-10-10 10:15:13,570.2738985791511,2,14,0.550297200679779,3.7855494022369385,13.718454761287632,13.600522614245536,54.579666475374445,49.839204531230855,6.47544875391759e-05,0.0891468673944473,0,0,0
4606,157570.7801580538,2010-10-10 10:15:43,600.2890397664178,2,14,0.550297200679779,3.788139581680298,13.723041352172883,13.600522614245536,54.59703494750987,49.839204531230855,6.47544875391759e-05,0.0891468673944473,0,0,0
4607,157600.7952440986,2010-10-10 10:16:13,630.3041258012277,2,14,0.5501165986061096,3.790729761123657,13.727627974049012,13.600522614245536,54.61441583730578,49.839204531230855,3.237724376958795e-05,0.0891468673944473,0,0,0
4608,157630.8104956259,2010-10-10 10:16:43,660.319377463833,2,14,0.5499359965324402,3.7933199405670166,13.73221457663182,13.600522614245536,54.631808764098565,49.839204531230855,3.237724376958795e-05,0.0891468673944473,0,0,0
4609,157660.82761408613,2010-10-10 10:17:13,690.33649579876,2,14,0.550297200679779,3.796233892440796,13.736801504448014,13.600522614245536,54.64921510468021,49.839204531230855,6.47544875391759e-05,0.0891468673944473,0,0,0
4610,157690.84106172257,2010-10-10 10:17:43,720.3499434151269,2,14,0.5501165986061096,3.798662185668945,13.741387822785448,13.600522614245536,54.66663126007492,49.839204531230855,0.0,0.0891468673944473,0,0,0
4611,157720.85616797273,2010-10-10 10:18:13,750.3650496853697,2,14,0.550297200679779,3.8015761375427246,13.745974352107922,13.600522614245536,54.68406050144634,49.839204531230855,6.47544875391759e-05,0.0891468673944473,0,0,0
4612,157750.8715287122,2010-10-10 10:18:43,780.380410424828,2,14,0.5501165986061096,3.804328203201294,13.75056094993065,13.600522614245536,54.701502525582434,49.839204531230855,0.0001295089750783,0.0891468673944473,0,0,0
4613,157780.8866297895,2010-10-10 10:19:13,810.3955115021283,2,14,0.550297200679779,3.807242155075073,13.755147524147878,13.600522614245536,54.71895740745442,49.839204531230855,9.713172767078504e-05,0.0891468673944473,0,0,0
4614,157810.90183974814,2010-10-10 10:19:43,840.4107214457571,2,14,0.5499359965324402,3.810156106948853,13.759734164842811,13.600522614245536,54.73642594120757,49.839204531230855,9.713172767078504e-05,0.0891468673944473,0,0,0
4615,157840.9170873406,2010-10-10 10:20:13,870.4259690682932,2,14,0.5501165986061096,3.813231945037842,13.76432084881758,13.600522614245536,54.75390859552657,49.839204531230855,6.47544875391759e-05,0.0891468673944473,0,0,0
4616,157870.93233078273,2010-10-10 10:20:43,900.4412125104105,2,14,0.550297200679779,3.816469669342041,13.768907450503638,13.600522614245536,54.77140568613547,49.839204531230855,6.47544875391759e-05,0.0891468673944473,0,0,0
4617,157900.94752921766,2010-10-10 10:21:13,930.4564108952312,2,14,0.5501165986061096,3.81970739364624,13.773494050189244,13.600522614245536,54.788917703103344,49.839204531230855,9.713172767078504e-05,0.0891468673944473,0,0,0
4618,157930.9628721778,2010-10-10 10:21:43,960.4717538603904,2,14,0.5501165986061096,3.8231070041656494,13.778080763008065,13.600522614245536,54.80644541312531,49.839204531230855,0.0001295089750783,0.0891468673944473,0,0,0
4619,157960.97797620247,2010-10-10 10:22:13,990.4868578750117,2,14,0.550297200679779,3.8265066146850586,13.782667361512404,13.600522614245536,54.82398807211066,49.839204531230855,6.47544875391759e-05,0.0891468673944473,0,0,0
4620,157990.99323387002,2010-10-10 10:22:43,1020.5021156077456,2,14,0.5501165986061096,3.829906225204468,13.787254018910147,13.600522614245536,54.84154646983308,49.839204531230855,6.47544875391759e-05,0.0891468673944473,0,0,0
4621,158021.0084361646,2010-10-10 10:23:13,1050.517317867223,2,14,0.550297200679779,3.833305597305298,13.791840692216017,13.600522614245536,54.85912021955586,49.839204531230855,0.0001294612884521,0.0891468673944473,0,0,0
4622,158051.0236743135,2010-10-10 10:23:43,1080.5325560161475,2,14,0.5499359965324402,3.836381435394287,13.796427283844244,13.600522614245536,54.876708703228765,49.839204531230855,6.47544875391759e-05,0.0891468673944473,0,0,0
4623,158081.0388925328,2010-10-10 10:24:13,1110.547774205327,2,14,0.5501165986061096,3.839781045913696,13.801013830873435,13.600522614245536,54.89431188991335,49.839204531230855,0.0001618862152099,0.0891468673944473,0,0,0
4624,158111.05425668578,2010-10-10 10:24:43,1140.563138378343,2,14,0.5501165986061096,3.842694997787476,13.805600382431455,13.600522614245536,54.911929712084216,49.839204531230855,6.47544875391759e-05,0.0891468673944473,0,0,0
4625,158141.06934223435,2010-10-10 10:25:13,1170.578223936966,2,14,0.5501165986061096,3.845932722091675,13.81018630471218,13.600522614245536,54.92955929463093,49.839204531230855,9.713172767078504e-05,0.0891468673944473,0,0,0
4626,158171.08472089848,2010-10-10 10:25:43,1200.5936026161355,2,14,0.5501165986061096,3.848846673965454,13.814772153227285,13.600522614245536,54.94720272812618,49.839204531230855,6.47544875391759e-05,0.0891468673944473,0,0,0
4627,158201.09984250195,2010-10-10 10:26:13,1230.6087242446558,2,14,0.5501165986061096,3.8519225120544434,13.819358516092786,13.600522614245536,54.96486213833868,49.839204531230855,6.47544875391759e-05,0.0891468673944473,0,0,0
4628,158231.11507562833,2010-10-10 10:26:43,1260.6239573359758,2,14,0.5501165986061096,3.854836463928223,13.823945112924276,13.600522614245536,54.982535913705306,49.839204531230855,9.713172767078504e-05,0.0891468673944473,0,0,0
4629,158261.13243002162,2010-10-10 10:27:13,1290.6413118395076,2,14,0.550297200679779,3.857588529586792,13.828532023732684,13.600522614245536,55.00022397763832,49.839204531230855,9.713172767078504e-05,0.0891468673944473,0,0,0
4630,158291.14551471343,2010-10-10 10:27:43,1320.6543964210805,2,14,0.5501165986061096,3.860178709030152,13.833118266620827,13.600522614245536,55.017921891494765,49.839204531230855,6.47544875391759e-05,0.0891468673944473,0,0,0
4631,158321.16074563435,2010-10-10 10:28:13,1350.6696273119155,2,14,0.5499359965324402,3.862768888473511,13.837704866914828,13.600522614245536,55.03563298268711,49.839204531230855,9.713172767078504e-05,0.0891468673944473,0,0,0
4632,158351.17597874574,2010-10-10 10:28:43,1380.684860508498,2,14,0.5501165986061096,3.86503529548645,13.842291442277672,13.600522614245536,55.05335500644106,49.839204531230855,9.713172767078504e-05,0.0891468673944473,0,0,0
4633,158381.1911879375,2010-10-10 10:29:13,1410.7000696150408,2,14,0.5499359965324402,3.86713981628418,13.846878006849604,13.600522614245536,55.07108736881317,49.839204531230855,3.237724376958795e-05,0.0891468673944473,0,0,0
4634,158411.20645000605,2010-10-10 10:29:43,1440.7153317086431,2,14,0.5501165986061096,3.869244337081909,13.851464616879968,13.600522614245536,55.0888296238881,49.839204531230855,3.237724376958795e-05,0.0891468673944473,0,0,0
4635,158441.22193845376,2010-10-10 10:30:13,1470.7308201664148,2,14,0.5499359965324402,3.8710250854492183,13.856051297230833,13.600522614245536,55.10658121671484,49.839204531230855,0.0,0.0891468673944473,0,0,0
4636,158471.237020644,2010-10-10 10:30:43,1500.7459023365927,2,14,0.5501165986061096,3.872805833816528,13.86063789918424,13.600522614245536,55.12434081360247,49.839204531230855,3.237724376958795e-05,0.0891468673944473,0,0,0
4637,158501.25447611418,2010-10-10 10:31:13,1530.763357922052,2,14,0.5501165986061096,3.874424695968628,13.865224874597065,13.600522614245536,55.14210950912466,49.839204531230855,6.47544875391759e-05,0.0891468673944473,0,0,0
4638,158531.26734981517,2010-10-10 10:31:43,1560.7762315227951,2,14,0.5501165986061096,3.876043558120728,13.869811173981825,13.600522614245536,55.15988267351887,49.839204531230855,6.47544875391759e-05,0.0891468673944473,0,0,0
4639,158561.28256976372,2010-10-10 10:32:13,1590.7914514713596,2,14,0.5501165986061096,3.8773386478424072,13.874397754833725,13.600522614245536,55.177663427698505,49.839204531230855,0.0,0.0891468673944473,0,0,0
4640,158591.29793850312,2010-10-10 10:32:43,1620.8068201957187,2,14,0.5499359965324402,3.878471851348877,13.878984403470588,13.600522614245536,55.19545060808397,49.839204531230855,-3.237724376958795e-05,0.0891468673944473,0,0,0
4641,158621.31304565055,2010-10-10 10:33:13,1650.82192734816,2,14,0.5499359965324402,3.879928827285767,13.88357102398114,13.600522614245536,55.213243383305326,49.839204531230855,6.47544875391759e-05,0.0891468673944473,0,0,0
4642,158651.33062430774,2010-10-10 10:33:43,1680.8395061406893,2,14,0.5501165986061096,3.8809001445770255,13.88815800218195,13.600522614245536,55.231043072172845,49.839204531230855,0.0,0.0891468673944473,0,0,0
4643,158681.34348016928,2010-10-10 10:34:13,1710.8523618468337,2,14,0.5501165986061096,3.882195234298706,13.892744254548424,13.600522614245536,55.24884524155917,49.839204531230855,0.0,0.0891468673944473,0,0,0
4644,158711.35872691966,2010-10-10 10:34:43,1740.867608597196,2,14,0.5501165986061096,3.883328437805176,13.897330874523467,13.600522614245536,55.26665397977508,49.839204531230855,3.237724376958795e-05,0.0891468673944473,0,0,0
4645,158741.37393612645,2010-10-10 10:35:13,1770.8828178039885,2,14,0.5499359965324402,3.884299755096436,13.9019175329246,13.600522614245536,55.28446796871042,49.839204531230855,0.0,0.0891468673944473,0,0,0
4646,158771.38916469648,2010-10-10 10:35:43,1800.89804637404,2,14,0.550297200679779,3.8855948448181152,13.906504223844262,13.600522614245536,55.30228691711518,49.839204531230855,9.713172767078504e-05,0.0891468673944473,0,0,0
4647,158801.40439391814,2010-10-10 10:36:13,1830.9132756257904,2,14,0.5501165986061096,3.886566162109375,13.91109086768029,13.600522614245536,55.32011071214596,49.839204531230855,3.237724376958795e-05,0.0891468673944473,0,0,0
4648,158831.4196438264,2010-10-10 10:36:43,1860.9285255290104,2,14,0.550297200679779,3.8875374794006343,13.915677585936765,13.600522614245536,55.33793971283432,49.839204531230855,3.237724376958795e-05,0.0891468673944473,0,0,0
4649,158861.4367624821,2010-10-10 10:37:13,1890.9456441947625,2,14,0.550297200679779,3.8888325691223145,13.920264602356571,13.600522614245536,55.35577483479576,49.839204531230855,3.237724376958795e-05,0.0891468673944473,0,0,0
4650,158891.45030437343,2010-10-10 10:37:43,1920.9591860660416,2,14,0.5499359965324402,3.889642000198364,13.924851025850003,13.600522614245536,55.37361260409248,49.839204531230855,0.0,0.0891468673944473,0,0,0
4651,158921.465284394,2010-10-10 10:38:13,1950.9741662219683,2,14,0.5501165986061096,3.890937089920044,13.929437742172668,13.600522614245536,55.3914564437321,49.839204531230855,3.237724376958795e-05,0.0891468673944473,0,0,0
4652,158951.48052683866,2010-10-10 10:38:43,1980.98940856635,2,14,0.5501165986061096,3.891908407211304,13.93402448693463,13.600522614245536,55.40930545357156,49.839204531230855,-3.237724376958795e-05,0.0891468673944473,0,0,0
4653,158981.49572984502,2010-10-10 10:39:13,2011.0046115275763,2,14,0.5499359965324402,3.893041610717773,13.938611180646294,13.600522614245536,55.42715926393641,49.839204531230855,3.237724376958795e-05,0.0891468673944473,0,0,0
4654,159011.51096278094,2010-10-10 10:39:43,2041.0198444835587,2,14,0.5501165986061096,3.894336700439453,13.9431978148549,13.600522614245536,55.445017909420535,49.839204531230855,6.47544875391759e-05,0.0891468673944473,0,0,0
4655,159041.52623372158,2010-10-10 10:40:13,2071.035115434236,2,14,0.550297200679779,3.894984245300293,13.947784519962289,13.600522614245536,55.46288166024073,49.839204531230855,0.0,0.0891468673944473,0,0,0
4656,159071.5414627929,2010-10-10 10:40:43,2101.050344495512,2,14,0.5501165986061096,3.896441221237183,13.952371248412703,13.600522614245536,55.48075045663373,49.839204531230855,3.237724376958795e-05,0.0891468673944473,0,0,0
4657,159101.5566534685,2010-10-10 10:41:13,2131.0655351711184,2,14,0.5501165986061096,3.897250652313232,13.95695795303557,13.600522614245536,55.4986244430594,49.839204531230855,-3.237724376958795e-05,0.0891468673944473,0,0,0
4658,159131.57200806262,2010-10-10 10:41:43,2161.080889865511,2,14,0.5501165986061096,3.898545742034912,13.961544690873165,13.600522614245536,55.51650375378538,49.839204531230855,3.237724376958795e-05,0.0891468673944473,0,0,0
4659,159161.58711619253,2010-10-10 10:42:13,2191.0959987272126,2,14,0.5504778623580933,3.899840831756592,13.966131504809733,13.600522614245536,55.5343887177105,49.839204531230855,3.237724376958795e-05,0.0891468673944473,0,0,0
4660,159191.60248033548,2010-10-10 10:42:43,2221.111362048104,2,14,0.550297200679779,3.901135921478272,13.970719051276498,13.600522614245536,55.55228182351525,49.839204531230855,6.47544875391759e-05,0.0891468673944473,0,0,0
4661,159221.6176040592,2010-10-10 10:43:13,2251.12648573676,2,14,0.5501165986061096,3.902269124984741,13.975306433268113,13.600522614245536,55.57017969879392,49.839204531230855,6.47544875391759e-05,0.0891468673944473,0,0,0
4662,159251.63285964157,2010-10-10 10:43:43,2281.1417413742715,2,14,0.5501165986061096,3.903240442276001,13.979893069774624,13.600522614245536,55.58808007421658,49.839204531230855,0.0,0.0891468673944473,0,0,0
4663,159281.64804657287,2010-10-10 10:44:14,2311.156928250409,2,14,0.5501165986061096,3.9045355319976807,13.98447983635306,13.600522614245536,55.60598658023304,49.839204531230855,3.237724376958795e-05,0.0891468673944473,0,0,0
4664,159311.66328401,2010-10-10 10:44:44,2341.17216568756,2,14,0.550297200679779,3.90583062171936,13.989066574028852,13.600522614245536,55.62389843580782,49.839204531230855,6.47544875391759e-05,0.0891468673944473,0,0,0
4665,159341.67860469964,2010-10-10 10:45:14,2371.187486392239,2,14,0.550297200679779,3.90696382522583,13.993653346907116,13.600522614245536,55.64181608203737,49.839204531230855,0.0,0.0891468673944473,0,0,0
4666,159371.69370834835,2010-10-10 10:45:44,2401.202590050973,2,14,0.5501165986061096,3.9082589149475098,13.998239997766095,13.600522614245536,55.65973899022904,49.839204531230855,3.237724376958795e-05,0.0891468673944473,0,0,0
4667,159401.70893788582,2010-10-10 10:46:14,2431.2178195633733,2,14,0.5501165986061096,3.9095540046691895,14.002826606541854,13.600522614245536,55.67766756274811,49.839204531230855,3.237724376958795e-05,0.0891468673944473,0,0,0
4668,159431.72430223427,2010-10-10 10:46:44,2461.233183946914,2,14,0.550297200679779,3.910849094390869,14.007413306418004,13.600522614245536,55.69560233401158,49.839204531230855,6.47544875391759e-05,0.0891468673944473,0,0,0
4669,159461.74159841746,2010-10-10 10:47:14,2491.2504802503936,2,14,0.5501165986061096,3.912144184112549,14.012000250745002,13.600522614245536,55.713543996345706,49.839204531230855,3.237724376958795e-05,0.0891468673944473,0,0,0
4670,159491.75463074882,2010-10-10 10:47:44,2521.2635124313674,2,14,0.5501165986061096,3.913439273834229,14.016586530782876,13.600522614245536,55.73148909403905,49.839204531230855,0.0,0.0891468673944473,0,0,0
4671,159521.7698581459,2010-10-10 10:48:14,2551.2787398485457,2,14,0.5501165986061096,3.914734125137329,14.02117315001932,13.600522614245536,55.749441595256826,49.839204531230855,6.47544875391759e-05,0.0891468673944473,0,0,0
4672,159551.78510211935,2010-10-10 10:48:44,2581.293983801937,2,14,0.550297200679779,3.9161911010742183,14.025759867959705,13.600522614245536,55.76740054043476,49.839204531230855,6.47544875391759e-05,0.0891468673944473,0,0,0
4673,159581.8003111858,2010-10-10 10:49:14,2611.309192863367,2,14,0.5501165986061096,3.917324304580689,14.030346490667686,13.600522614245536,55.78536531856837,49.839204531230855,0.0,0.0891468673944473,0,0,0
4674,159611.81554408165,2010-10-10 10:49:44,2641.3244257642123,2,14,0.5501165986061096,3.918781280517578,14.034933130688083,13.600522614245536,55.803336440504026,49.839204531230855,0.0,0.0891468673944473,0,0,0
4675,159641.83078305263,2010-10-10 10:50:14,2671.3396647602485,2,14,0.550297200679779,3.9204001426696777,14.039519786747666,13.600522614245536,55.82131400793927,49.839204531230855,9.713172767078504e-05,0.0891468673944473,0,0,0
4676,159671.8460284797,2010-10-10 10:50:44,2701.354910212376,2,14,0.5499359965324402,3.921533346176148,14.04410647776108,13.600522614245536,55.839298046372406,49.839204531230855,3.237724376958795e-05,0.0891468673944473,0,0,0
4677,159701.86123009757,2010-10-10 10:51:14,2731.370111865341,2,14,0.5501165986061096,3.923152208328247,14.048693131068106,13.600522614245536,55.85728842860942,49.839204531230855,6.47544875391759e-05,0.0891468673944473,0,0,0
4678,159731.87645281304,2010-10-10 10:51:44,2761.385334525664,2,14,0.550297200679779,3.924447298049927,14.053279848707966,13.600522614245536,55.87528556960598,49.839204531230855,3.237724376958795e-05,0.0891468673944473,0,0,0
4679,159761.8916836086,2010-10-10 10:52:14,2791.4005653162494,2,14,0.5501165986061096,3.925904273986816,14.05786653640663,13.600522614245536,55.89328920266792,49.839204531230855,3.237724376958795e-05,0.0891468673944473,0,0,0
4680,159791.90690710102,2010-10-10 10:52:44,2821.415788823684,2,14,0.5499359965324402,3.927199363708496,14.062453269629128,13.600522614245536,55.91129956380539,49.839204531230855,0.0,0.0891468673944473,0,0,0
4681,159821.92225273282,2010-10-10 10:53:14,2851.4311345306764,2,14,0.5501165986061096,3.928818225860596,14.06703992825233,13.600522614245536,55.9293163186494,49.839204531230855,3.237724376958795e-05,0.0891468673944473,0,0,0
4682,159851.93747610992,2010-10-10 10:53:44,2881.446357817561,2,14,0.5501165986061096,3.930275201797485,14.071626571965092,13.600522614245536,55.94733974830702,49.839204531230855,6.47544875391759e-05,0.0891468673944473,0,0,0
4683,159881.952724755,2010-10-10 10:54:14,2911.4616064927204,2,14,0.5501165986061096,3.931894063949585,14.076213270629928,13.600522614245536,55.965370223692034,49.839204531230855,3.237724376958795e-05,0.0891468673944473,0,0,0
4684,159911.96781522085,2010-10-10 10:54:44,2941.476696913461,2,14,0.5501165986061096,3.9333510398864746,14.08079993307978,13.600522614245536,55.9834074750888,49.839204531230855,3.237724376958795e-05,0.0891468673944473,0,0,0
4685,159941.9830464776,2010-10-10 10:55:14,2971.491928150159,2,14,0.5501165986061096,3.9346461296081534,14.085386663706284,13.600522614245536,56.00145191737366,49.839204531230855,0.0,0.0891468673944473,0,0,0
4686,159971.99826335855,2010-10-10 10:55:44,3001.5071450411024,2,14,0.5499359965324402,3.936264991760254,14.08997346801,13.600522614245536,56.01950367841496,49.839204531230855,0.0,0.0891468673944473,0,0,0
4687,160002.0136216068,2010-10-10 10:56:14,3031.522503289352,2,14,0.5501165986061096,3.9378838539123535,14.094560225968388,13.600522614245536,56.037562152205055,49.839204531230855,6.47544875391759e-05,0.0891468673944473,0,0,0
4688,160032.02874257366,2010-10-10 10:56:44,3061.537624286298,2,14,0.5501165986061096,3.939502716064453,14.099146973816405,13.600522614245536,56.05562779330213,49.839204531230855,6.47544875391759e-05,0.0891468673944473,0,0,0
4689,160062.04595334397,2010-10-10 10:57:14,3091.554835066628,2,14,0.5501165986061096,3.9411215782165527,14.103734010666082,13.600522614245536,56.07370178527366,49.839204531230855,9.713172767078504e-05,0.0891468673944473,0,0,0
4690,160092.0593532113,2010-10-10 10:57:44,3121.568235014189,2,14,0.5501165986061096,3.942740440368652,14.108320451649613,13.600522614245536,56.0917806276547,49.839204531230855,9.713172767078504e-05,0.0891468673944473,0,0,0
4691,160122.07442247937,2010-10-10 10:58:14,3151.5833041568985,2,14,0.5501165986061096,3.944197416305542,14.112907110976405,13.600522614245536,56.10986764808586,49.839204531230855,3.237724376958795e-05,0.0891468673944473,0,0,0
4692,160152.08965379625,2010-10-10 10:58:44,3181.598535478809,2,14,0.550297200679779,3.945978164672852,14.117493809134372,13.600522614245536,56.12796221633408,49.839204531230855,6.47544875391759e-05,0.0891468673944473,0,0,0
4693,160182.1048701408,2010-10-10 10:59:14,3211.61375184344,2,14,0.550297200679779,3.947597026824951,14.122080567378797,13.600522614245536,56.1460644191864,49.839204531230855,6.47544875391759e-05,0.0891468673944473,0,0,0
4694,160212.1201054226,2010-10-10 10:59:44,3241.628987130232,2,14,0.5501165986061096,3.949215888977051,14.126667262361773,13.600522614245536,56.16417389969624,49.839204531230855,6.47544875391759e-05,0.0891468673944473,0,0,0
4695,160242.13534778202,2010-10-10 11:00:14,3271.6442294595763,2,14,0.5501165986061096,3.950672864913941,14.131253972693754,13.600522614245536,56.18229103534301,49.839204531230855,0.0,0.0891468673944473,0,0,0
4696,160272.15057031202,2010-10-10 11:00:44,3301.6594519945866,2,14,0.5501165986061096,3.95245361328125,14.135840733177195,13.600522614245536,56.20041609996,49.839204531230855,3.237724376958795e-05,0.0891468673944473,0,0,0
4697,160302.1658014234,2010-10-10 11:01:14,3331.6746831560968,2,14,0.550297200679779,3.95423436164856,14.140427437736452,13.600522614245536,56.21854873317354,49.839204531230855,6.47544875391759e-05,0.0891468673944473,0,0,0
4698,160332.18101609382,2010-10-10 11:01:44,3361.6898977763813,2,14,0.5501165986061096,3.955853223800659,14.145014171960431,13.600522614245536,56.23668929523968,49.839204531230855,6.47544875391759e-05,0.0891468673944473,0,0,0
4699,160362.19663357816,2010-10-10 11:02:14,3391.7055152958146,2,14,0.5499359965324402,3.9576339721679688,14.149601001006832,13.600522614245536,56.254838095776456,49.839204531230855,6.47544875391759e-05,0.0891468673944473,0,0,0
4700,160392.21148783533,2010-10-10 11:02:44,3421.7203695178755,2,14,0.5501165986061096,3.959252834320069,14.154187690542134,13.600522614245536,56.27299433320171,49.839204531230855,0.0,0.0891468673944473,0,0,0
4701,160422.22938530205,2010-10-10 11:03:14,3451.738267109951,2,14,0.5501165986061096,3.961033582687378,14.15877482684448,13.600522614245536,56.29116039917703,49.839204531230855,3.237724376958795e-05,0.0891468673944473,0,0,0
4702,160452.24201544604,2010-10-10 11:03:44,3481.7508972038004,2,14,0.5501165986061096,3.962814331054688,14.163361204881308,13.600522614245536,56.30933164183181,49.839204531230855,3.237724376958795e-05,0.0891468673944473,0,0,0
4703,160482.25715672853,2010-10-10 11:04:14,3511.766038431167,2,14,0.5497553944587708,3.964595079421997,14.167947953698953,13.600522614245536,56.32751260479908,49.839204531230855,0.0,0.0891468673944473,0,0,0
4704,160512.27241598006,2010-10-10 11:04:44,3541.7812976676487,2,14,0.5501165986061096,3.966699600219727,14.172534732986476,13.600522614245536,56.345702039381415,49.839204531230855,6.47544875391759e-05,0.0891468673944473,0,0,0
4705,160542.28760870578,2010-10-10 11:05:14,3571.79649038334,2,14,0.5501165986061096,3.968480348587036,14.177121507037212,13.600522614245536,56.36389984397599,49.839204531230855,6.47544875391759e-05,0.0891468673944473,0,0,0
4706,160572.3053386099,2010-10-10 11:05:44,3601.8142204378605,2,14,0.5501165986061096,3.9702610969543457,14.181708592561092,13.600522614245536,56.382107391973896,49.839204531230855,3.237724376958795e-05,0.0891468673944473,0,0,0
4707,160602.31805438732,2010-10-10 11:06:14,3631.8269360648846,2,14,0.5499359965324402,3.972203731536865,14.186294991464257,13.600522614245536,56.4003208976766,49.839204531230855,6.47544875391759e-05,0.0891468673944473,0,0,0
4708,160632.33334376896,2010-10-10 11:06:44,3661.8422255768223,2,14,0.5499359965324402,3.973984479904175,14.190881747107,13.600522614245536,56.418544555610175,49.839204531230855,6.47544875391759e-05,0.0891468673944473,0,0,0
4709,160662.3504312971,2010-10-10 11:07:14,3691.8593131099815,2,14,0.5501165986061096,3.9759271144866943,14.195468846889367,13.600522614245536,56.43677850910736,49.839204531230855,3.237724376958795e-05,0.0891468673944473,0,0,0
4710,160692.363787651,2010-10-10 11:07:44,3721.872669323545,2,14,0.5501165986061096,3.977707862854004,14.200055362228396,13.600522614245536,56.45501903739456,49.839204531230855,3.237724376958795e-05,0.0891468673944473,0,0,0
4711,160722.37905036617,2010-10-10 11:08:14,3751.8879320637593,2,14,0.5499359965324402,3.980136156082153,14.204642025918874,13.600522614245536,56.473268997164105,49.839204531230855,9.713172767078504e-05,0.0891468673944473,0,0,0
4712,160752.39425877595,2010-10-10 11:08:44,3781.903140488602,2,14,0.5501165986061096,3.982078790664673,14.209228717573907,13.600522614245536,56.49152863856386,49.839204531230855,6.47544875391759e-05,0.0891468673944473,0,0,0
4713,160782.40948901017,2010-10-10 11:09:14,3811.9183707378384,2,14,0.550297200679779,3.9841833114624015,14.21381537460563,13.600522614245536,56.50979743692958,49.839204531230855,6.47544875391759e-05,0.0891468673944473,0,0,0
4714,160812.4248267122,2010-10-10 11:09:44,3841.9337084148174,2,14,0.5501165986061096,3.985964059829712,14.218402052626114,13.600522614245536,56.52807570210441,49.839204531230855,0.0,0.0891468673944473,0,0,0
4715,160842.4399387368,2010-10-10 11:10:14,3871.948820444415,2,14,0.5501165986061096,3.9880685806274414,14.222988685230296,13.600522614245536,56.54636332743,49.839204531230855,3.237724376958795e-05,0.0891468673944473,0,0,0
4716,160872.4551672517,2010-10-10 11:10:44,3901.964048929254,2,14,0.5501165986061096,3.990334987640381,14.227575393073684,13.600522614245536,56.564660776601485,49.839204531230855,3.237724376958795e-05,0.0891468673944473,0,0,0
4717,160902.4703849296,2010-10-10 11:11:14,3931.979266602146,2,14,0.5501165986061096,3.9924395084381104,14.232162114609691,13.600522614245536,56.582968020062886,49.839204531230855,6.47544875391759e-05,0.0891468673944473,0,0,0
4718,160932.48563540928,2010-10-10 11:11:44,3961.9945171068666,2,14,0.5501165986061096,3.994705677032471,14.236748772236329,13.600522614245536,56.60128476231293,49.839204531230855,9.713172767078504e-05,0.0891468673944473,0,0,0
4719,160962.50085405458,2010-10-10 11:12:14,3992.00973572712,2,14,0.550297200679779,3.9968101978302,14.241335426519266,13.600522614245536,56.619611352520415,49.839204531230855,6.47544875391759e-05,0.0891468673944473,0,0,0
4720,160992.51610226356,2010-10-10 11:12:44,4022.0249839712046,2,14,0.5501165986061096,3.9985909461975098,14.245922123500272,13.600522614245536,56.63794797767161,49.839204531230855,3.237724376958795e-05,0.0891468673944473,0,0,0
4721,161022.5313092498,2010-10-10 11:13:14,4052.040190922376,2,14,0.5501165986061096,4.001019477844238,14.250508824817077,13.600522614245536,56.65629456924239,49.839204531230855,3.24249267578125e-05,0.0891468673944473,0,0,0
4722,161052.54667915712,2010-10-10 11:13:44,4082.055560839708,2,14,0.5501165986061096,4.003447532653809,14.255095491791264,13.600522614245536,56.67465097116948,49.839204531230855,9.70840483205393e-05,0.0891468673944473,0,0,0
4723,161082.56176443005,2010-10-10 11:14:14,4112.070646102594,2,14,0.550297200679779,4.005390167236328,14.259682135700366,13.600522614245536,56.693017329199485,49.839204531230855,6.47544875391759e-05,0.0891468673944473,0,0,0
4724,161112.57701705003,2010-10-10 11:14:44,4142.085898757673,2,14,0.5501165986061096,4.007494926452637,14.264268844005535,13.600522614245536,56.71139410394121,49.839204531230855,3.24249267578125e-05,0.0891468673944473,0,0,0
4725,161142.59231682256,2010-10-10 11:15:14,4172.10119856527,2,14,0.550297200679779,4.009922981262207,14.268855558933474,13.600522614245536,56.72978107325432,49.839204531230855,6.47544875391759e-05,0.0891468673944473,0,0,0
4726,161172.607451273,2010-10-10 11:15:44,4202.116332955597,2,14,0.5501165986061096,4.012027740478516,14.2734422248189,13.600522614245536,56.74817809920387,49.839204531230855,3.24249267578125e-05,0.0891468673944473,0,0,0
4727,161202.6228238119,2010-10-10 11:16:15,4232.131705494464,2,14,0.5501165986061096,4.014294147491455,14.278028943190124,13.600522614245536,56.76658570090582,49.839204531230855,3.24249267578125e-05,0.0891468673944473,0,0,0
4728,161232.63807917372,2010-10-10 11:16:45,4262.146960896388,2,14,0.5501165986061096,4.016722202301025,14.282615664604496,13.600522614245536,56.78500371821711,49.839204531230855,6.47544875391759e-05,0.0891468673944473,0,0,0
4729,161262.65511679248,2010-10-10 11:17:15,4292.163998505121,2,14,0.5501165986061096,4.018988609313965,14.287202702482912,13.600522614245536,56.80343361006686,49.839204531230855,9.70840483205393e-05,0.0891468673944473,0,0,0
4730,161292.66838388392,2010-10-10 11:17:45,4322.177265556464,2,14,0.550297200679779,4.021417140960693,14.291789095156354,13.600522614245536,56.821871419669954,49.839204531230855,9.71794142969884e-05,0.0891468673944473,0,0,0
4731,161322.68360811818,2010-10-10 11:18:15,4352.192489795722,2,14,0.5499359965324402,4.023683547973633,14.29637573307688,13.600522614245536,56.84032107171592,49.839204531230855,9.71794142969884e-05,0.0891468673944473,0,0,0
4732,161352.69901885223,2010-10-10 11:18:45,4382.207900564869,2,14,0.5499359965324402,4.025949954986572,14.30096250374166,13.600522614245536,56.85878211997239,49.839204531230855,6.47544875391759e-05,0.0891468673944473,0,0,0
4733,161382.71427657994,2010-10-10 11:19:15,4412.223158377803,2,14,0.5501165986061096,4.028378009796143,14.30554910037138,13.600522614245536,56.87725340678429,49.839204531230855,3.23295607813634e-05,0.0891468673944473,0,0,0
4734,161412.72930915654,2010-10-10 11:19:45,4442.238190834079,2,14,0.5501165986061096,4.030806541442871,14.310135754489933,13.600522614245536,56.89573593724224,49.839204531230855,6.47544875391759e-05,0.0891468673944473,0,0,0
4735,161442.74454191202,2010-10-10 11:20:15,4472.253423624648,2,14,0.5501165986061096,4.033396720886231,14.314722455748605,13.600522614245536,56.9142298044554,49.839204531230855,9.71794142969884e-05,0.0891468673944473,0,0,0
4736,161472.75978560475,2010-10-10 11:20:45,4502.268667277292,2,14,0.5501165986061096,4.035824775695801,14.31930916897006,13.600522614245536,56.93273502374921,49.839204531230855,9.71794142969884e-05,0.0891468673944473,0,0,0
4737,161502.7749969218,2010-10-10 11:21:15,4532.283878599355,2,14,0.5501165986061096,4.038252830505371,14.323895878394852,13.600522614245536,56.95125156935452,49.839204531230855,9.70840483205393e-05,0.0891468673944473,0,0,0
4738,161532.7902340983,2010-10-10 11:21:45,4562.299115780869,2,14,0.5501165986061096,4.0408430099487305,14.328482633766132,13.600522614245536,56.96977973535604,49.839204531230855,6.47544875391759e-05,0.0891468673944473,0,0,0
4739,161562.80547791635,2010-10-10 11:22:15,4592.314359623986,2,14,0.5501165986061096,4.04343318939209,14.333069270549268,13.600522614245536,56.9883189992315,49.839204531230855,9.70840483205393e-05,0.0891468673944473,0,0,0
4740,161592.8206980153,2010-10-10 11:22:45,4622.329579697862,2,14,0.5501165986061096,4.046023368835449,14.337655893128971,13.600522614245536,57.006869947662345,49.839204531230855,0.0001295089750783,0.0891468673944473,0,0,0
4741,161622.8359161794,2010-10-10 11:23:15,4652.344797856967,2,14,0.550297200679779,4.048451900482178,14.342242504602272,13.600522614245536,57.02543272998114,49.839204531230855,6.47544875391759e-05,0.0891468673944473,0,0,0
4742,161652.85114637352,2010-10-10 11:23:45,4682.3600280510655,2,14,0.5501165986061096,4.051042079925537,14.346829212499731,13.600522614245536,57.044007931616434,49.839204531230855,6.47544875391759e-05,0.0891468673944473,0,0,0
4743,161682.8663877254,2010-10-10 11:24:15,4712.375269402974,2,14,0.550297200679779,4.053793907165527,14.35141577886453,13.600522614245536,57.0625946446764,49.839204531230855,6.47544875391759e-05,0.0891468673944473,0,0,0
4744,161712.8816308818,2010-10-10 11:24:45,4742.390512569405,2,14,0.5499359965324402,4.056546211242676,14.35600244252146,13.600522614245536,57.08119406942416,49.839204531230855,9.71794142969884e-05,0.0891468673944473,0,0,0
4745,161742.89685747694,2010-10-10 11:25:15,4772.405739249745,2,14,0.5499359965324402,4.059298038482666,14.36058910285743,13.600522614245536,57.09980583345869,49.839204531230855,9.70840483205393e-05,0.0891468673944473,0,0,0
4746,161772.91221753473,2010-10-10 11:25:45,4802.421099367655,2,14,0.5501165986061096,4.061888217926025,14.365175808685112,13.600522614245536,57.11842994861608,49.839204531230855,9.70840483205393e-05,0.0891468673944473,0,0,0
4747,161802.92731193535,2010-10-10 11:26:15,4832.436193627965,2,14,0.5501165986061096,4.064478397369385,14.3697624106242,13.600522614245536,57.13706611838856,49.839204531230855,3.23295607813634e-05,0.0891468673944473,0,0,0
4748,161832.94256251026,2010-10-10 11:26:45,4862.451444217897,2,14,0.5501165986061096,4.067392349243164,14.37434909239214,13.600522614245536,57.15571531915352,49.839204531230855,9.70840483205393e-05,0.0891468673944473,0,0,0
4749,161862.95975379198,2010-10-10 11:27:15,4892.468635514667,2,14,0.5501165986061096,4.0701446533203125,14.378936021873928,13.600522614245536,57.17437832746747,49.839204531230855,6.47544875391759e-05,0.0891468673944473,0,0,0
4750,161892.97299387612,2010-10-10 11:27:45,4922.4818755587,2,14,0.5499359965324402,4.072896480560303,14.383522373285851,13.600522614245536,57.193051878640645,49.839204531230855,9.70840483205393e-05,0.0891468673944473,0,0,0
4751,161922.9883597634,2010-10-10 11:28:15,4952.497241456013,2,14,0.5501165986061096,4.075810432434082,14.388109054130188,13.600522614245536,57.21173988952975,49.839204531230855,6.47544875391759e-05,0.0891468673944473,0,0,0
4752,161953.00360120056,2010-10-10 11:28:45,4982.512482888121,2,14,0.5501165986061096,4.078724384307861,14.39269564147902,13.600522614245536,57.23044067190476,49.839204531230855,9.70840483205393e-05,0.0891468673944473,0,0,0
4753,161983.01870849333,2010-10-10 11:29:15,5012.5275902260255,2,14,0.550297200679779,4.081638336181641,14.397282241350652,13.600522614245536,57.24915481186896,49.839204531230855,6.47544875391759e-05,0.0891468673944473,0,0,0
4754,162013.03420945728,2010-10-10 11:29:45,5042.5430911598905,2,14,0.5501165986061096,4.08455228805542,14.401868905958532,13.600522614245536,57.2678825641255,49.839204531230855,9.70840483205393e-05,0.0891468673944473,0,0,0
4755,162043.04918447038,2010-10-10 11:30:15,5072.558066183025,2,14,0.5501165986061096,4.087466239929199,14.40645554642542,13.600522614245536,57.28662378954325,49.839204531230855,6.47544875391759e-05,0.0891468673944473,0,0,0
4756,162073.06439843905,2010-10-10 11:30:45,5102.573280196798,2,14,0.5501165986061096,4.090542316436768,14.41104217063906,13.600522614245536,57.30537859892251,49.839204531230855,9.71794142969884e-05,0.0891468673944473,0,0,0
4757,162103.07961291898,2010-10-10 11:31:15,5132.588494596533,2,14,0.5499359965324402,4.093456268310547,14.415628799244228,13.600522614245536,57.3241471712956,49.839204531230855,3.24249267578125e-05,0.0891468673944473,0,0,0
4758,162133.09484203038,2010-10-10 11:31:45,5162.603723732996,2,14,0.5501165986061096,4.096531867980957,14.420215486614858,13.600522614245536,57.34292989250709,49.839204531230855,6.47544875391759e-05,0.0891468673944473,0,0,0
4759,162163.11007196884,2010-10-10 11:32:15,5192.618953676471,2,14,0.5501165986061096,4.099607944488525,14.424802113147711,13.600522614245536,57.36172633946016,49.839204531230855,9.71794142969884e-05,0.0891468673944473,0,0,0
4760,162193.1253235663,2010-10-10 11:32:45,5222.634205268901,2,14,0.5501165986061096,4.102683544158936,14.429388834912862,13.600522614245536,57.3805372951396,49.839204531230855,0.0001295089750783,0.0891468673944473,0,0,0
4761,162223.14053216155,2010-10-10 11:33:15,5252.649413894244,2,14,0.5501165986061096,4.105759620666504,14.433975410366694,13.600522614245536,57.399361956567525,49.839204531230855,3.24249267578125e-05,0.0891468673944473,0,0,0
4762,162253.1557551527,2010-10-10 11:33:45,5282.664636830254,2,14,0.5501165986061096,4.108997344970703,14.438562028671614,13.600522614245536,57.41820118562362,49.839204531230855,6.47544875391759e-05,0.0891468673944473,0,0,0
4763,162283.171412732,2010-10-10 11:34:15,5312.680294454641,2,14,0.5499359965324402,4.112235069274902,14.443148775823367,13.600522614245536,57.43705546639767,49.839204531230855,0.0001295089750783,0.0891468673944473,0,0,0
4764,162313.18639572998,2010-10-10 11:34:45,5342.695277437613,2,14,0.5499359965324402,4.1153106689453125,14.447735397961967,13.600522614245536,57.45592376233498,49.839204531230855,6.47544875391759e-05,0.0891468673944473,0,0,0
4765,162343.2039618008,2010-10-10 11:35:15,5372.712843608687,2,14,0.5499359965324402,4.118386268615723,14.452322429769149,13.600522614245536,57.47480844704928,49.839204531230855,3.23295607813634e-05,0.0891468673944473,0,0,0
4766,162373.21672404904,2010-10-10 11:35:45,5402.725605781718,2,14,0.5501165986061096,4.121947765350342,14.456908710082145,13.600522614245536,57.49370482827227,49.839204531230855,0.0001295089750783,0.0891468673944473,0,0,0
4767,162403.23196298492,2010-10-10 11:36:15,5432.740844697553,2,14,0.550297200679779,4.125185489654541,14.4614954287515,13.600522614245536,57.51261788829147,49.839204531230855,9.70840483205393e-05,0.0891468673944473,0,0,0
4768,162433.2471867129,2010-10-10 11:36:45,5462.756068395463,2,14,0.5499359965324402,4.12842321395874,14.466082096763994,13.600522614245536,57.531545810559685,49.839204531230855,6.47544875391759e-05,0.0891468673944473,0,0,0
4769,162463.26429812558,2010-10-10 11:37:15,5492.773179808137,2,14,0.5501165986061096,4.1318230628967285,14.470669084512757,13.600522614245536,57.55049032531766,49.839204531230855,9.71794142969884e-05,0.0891468673944473,0,0,0
4770,162493.27992984038,2010-10-10 11:37:45,5522.788811658286,2,14,0.5501165986061096,4.135060787200928,14.475255869327588,13.600522614245536,57.56944928046861,49.839204531230855,0.0001295089750783,0.0891468673944473,0,0,0
4771,162523.2928782175,2010-10-10 11:38:15,5552.801759895046,2,14,0.5501165986061096,4.138298511505127,14.479842238518394,13.600522614245536,57.58842196027343,49.839204531230855,3.24249267578125e-05,0.0891468673944473,0,0,0
4772,162553.30811314838,2010-10-10 11:38:45,5582.816994846001,2,14,0.5501165986061096,4.141860008239746,14.484429054560952,13.600522614245536,57.60741204352914,49.839204531230855,9.71794142969884e-05,0.0891468673944473,0,0,0
4773,162583.32332407447,2010-10-10 11:39:15,5612.832205752028,2,14,0.5501165986061096,4.145421504974365,14.489015779424046,13.600522614245536,57.626417494163775,49.839204531230855,9.71794142969884e-05,0.0891468673944473,0,0,0
4774,162613.33857376216,2010-10-10 11:39:45,5642.847455464774,2,14,0.5501165986061096,4.1486592292785645,14.493602443100476,13.600522614245536,57.64543869465096,49.839204531230855,6.47544875391759e-05,0.0891468673944473,0,0,0
4775,162643.35378842254,2010-10-10 11:40:15,5672.862670105108,2,14,0.5501165986061096,4.152220726013184,14.498189099892436,13.600522614245536,57.66447571984475,49.839204531230855,9.71794142969884e-05,0.0891468673944473,0,0,0
4776,162673.36915134746,2010-10-10 11:40:45,5702.878033030013,2,14,0.550297200679779,4.155782222747803,14.502775774342783,13.600522614245536,57.68352880702896,49.839204531230855,9.71794142969884e-05,0.0891468673944473,0,0,0
4777,162703.38424106143,2010-10-10 11:41:15,5732.89312273898,2,14,0.5501165986061096,4.159343719482422,14.50736242516252,13.600522614245536,57.70259787959926,49.839204531230855,6.47544875391759e-05,0.0891468673944473,0,0,0
4778,162733.39959665303,2010-10-10 11:41:45,5762.908478335621,2,14,0.5499359965324402,4.162743091583252,14.511949064221303,13.600522614245536,57.72168308961365,49.839204531230855,6.47544875391759e-05,0.0891468673944473,0,0,0
4779,162763.41470214634,2010-10-10 11:42:15,5792.923583823915,2,14,0.5501165986061096,4.16646671295166,14.516535778536996,13.600522614245536,57.74078486860856,49.839204531230855,9.71794142969884e-05,0.0891468673944473,0,0,0
4780,162793.43007100106,2010-10-10 11:42:45,5822.938952723712,2,14,0.5501165986061096,4.170028209686279,14.521122436462624,13.600522614245536,57.75990277323351,49.839204531230855,9.71794142969884e-05,0.0891468673944473,0,0,0
4781,162823.44518386273,2010-10-10 11:43:15,5852.95406556032,2,14,0.550297200679779,4.173751354217529,14.525709032891628,13.600522614245536,57.77903693189396,49.839204531230855,0.0001295089750783,0.0891468673944473,0,0,0
4782,162853.46039713462,2010-10-10 11:43:45,5882.969278822218,2,14,0.5499359965324402,4.1769890785217285,14.530295694842744,13.600522614245536,57.79818809423464,49.839204531230855,3.23295607813634e-05,0.0891468673944473,0,0,0
4783,162883.47569223048,2010-10-10 11:44:15,5912.984574825335,2,14,0.5499359965324402,4.180874347686768,14.534882336556304,13.600522614245536,57.81735598724346,49.839204531230855,9.70840483205393e-05,0.0891468673944473,0,0,0
4784,162913.49088088103,2010-10-10 11:44:45,5942.999762593695,2,14,0.5501165986061096,4.184597969055176,14.539469048290844,13.600522614245536,57.83654108627347,49.839204531230855,6.47544875391759e-05,0.0891468673944473,0,0,0
4785,162943.5062390441,2010-10-10 11:45:15,5973.015120726657,2,14,0.5501165986061096,4.188159465789795,14.54405574213748,13.600522614245536,57.85574306427919,49.839204531230855,6.47544875391759e-05,0.0891468673944473,0,0,0
4786,162973.52145097769,2010-10-10 11:45:45,6003.030332660246,2,14,0.5497553944587708,4.192044734954834,14.548642409410848,13.600522614245536,57.87496213836419,49.839204531230855,9.71794142969884e-05,0.0891468673944473,0,0,0
4787,163003.53656078674,2010-10-10 11:46:15,6033.045442489358,2,14,0.550297200679779,4.195767879486084,14.553229087296032,13.600522614245536,57.89419842076467,49.839204531230855,9.71794142969884e-05,0.0891468673944473,0,0,0
4788,163033.5518046098,2010-10-10 11:46:45,6063.060686317437,2,14,0.550297200679779,4.199814796447754,14.55781572650376,13.600522614245536,57.91345179170367,49.839204531230855,0.0001295089750783,0.0891468673944473,0,0,0
4789,163035.8800074426,2010-10-10 11:46:48,6065.388889135229,2,14,0.5501165986061096,4.200138568878174,14.558171514931638,13.600522614245536,57.91494602145545,49.839204531230855,0.0001295089750783,0.0891468673944473,0,0,0
4790,163065.89588825856,2010-10-10 11:47:18,30.015028065332057,3,14,0.0,4.122109889984131,14.558171514931638,13.600522614245536,57.91494602145545,49.839204531230855,-0.0003885269106831,0.0891468673944473,0,0,0
4791,163095.91126427607,2010-10-10 11:47:48,60.03040405780562,3,14,0.0,4.112558841705322,14.558171514931638,13.600522614245536,57.91494602145545,49.839204531230855,-0.0002265930233988,0.0891468673944473,0,0,0
4792,163125.92647450042,2010-10-10 11:48:18,90.04561428714642,3,14,0.0,4.107216358184815,14.558171514931638,13.600522614245536,57.91494602145545,49.839204531230855,-6.47544875391759e-05,0.0891468673944473,0,0,0
4793,163155.89482594826,2010-10-10 11:48:48,120.01396573498566,3,14,0.0,4.103654861450195,14.558171514931638,13.600522614245536,57.91494602145545,49.839204531230855,-9.71794142969884e-05,0.0891468673944473,0,0,0
4794,163155.89727346486,2010-10-10 11:48:48,2.832058361e-06,4,14,0.9870104789733888,4.199814796447754,14.558171515708104,13.600522614245536,57.91494602471646,49.839204531230855,0.0,0.0891468673944473,0,0,0
4795,163156.8504686706,2010-10-10 11:48:49,0.953198037801906,4,14,0.9369816780090332,4.199653148651123,14.558424813563182,13.600522614245536,57.91600977830258,49.839204531230855,-3.23295607813634e-05,0.0891468673944473,0,0,0
4796,163159.00672647852,2010-10-10 11:48:51,3.109455920910577,4,14,0.8867723345756531,4.199814796447754,14.558969791497592,13.600522614245536,57.91829848409139,49.839204531230855,0.0,0.0891468673944473,0,0,0
4797,163162.22544960192,2010-10-10 11:48:54,6.328178969123045,4,14,0.8365629315376282,4.199653148651123,14.55973900102328,13.600522614245536,57.9215288684508,49.839204531230855,0.0,0.0891468673944473,0,0,0
4798,163166.61583749444,2010-10-10 11:48:59,10.718566846602302,4,14,0.7865341305732727,4.199653148651123,14.560727490033717,13.600522614245536,57.92568014897255,49.839204531230855,0.0,0.0891468673944473,0,0,0
4799,163172.2877924464,2010-10-10 11:49:04,16.390521803571982,4,14,0.736505389213562,4.199491024017334,14.561925880791394,13.600522614245536,57.93071295473878,49.839204531230855,0.0,0.0891468673944473,0,0,0
4800,163179.6781909384,2010-10-10 11:49:12,23.780920305607825,4,14,0.6864766478538513,4.199653148651123,14.563384317951147,13.600522614245536,57.93683787281964,49.839204531230855,0.0,0.0891468673944473,0,0,0
4801,163189.39681418287,2010-10-10 11:49:22,33.49954353002868,4,14,0.6364478468894958,4.199491024017334,14.565167008982948,13.600522614245536,57.94432453215665,49.839204531230855,0.0,0.0891468673944473,0,0,0
4802,163202.9591542674,2010-10-10 11:49:35,47.06188363960949,4,14,0.586238443851471,4.199491024017334,14.567465381558916,13.600522614245536,57.95397688220035,49.839204531230855,-3.24249267578125e-05,0.0891468673944473,0,0,0
4803,163223.28891212933,2010-10-10 11:49:55,67.39164150652395,4,14,0.5362097024917603,4.199491024017334,14.570624588089924,13.600522614245536,57.96724442867488,49.839204531230855,-3.24249267578125e-05,0.0891468673944473,0,0,0
4804,163256.88049944077,2010-10-10 11:50:29,100.98322879291466,4,14,0.4861809313297272,4.199653148651123,14.575373676589614,13.600522614245536,57.98718889866171,49.839204531230855,3.24249267578125e-05,0.0891468673944473,0,0,0
4805,163315.5827717556,2010-10-10 11:51:28,159.68550116289828,4,14,0.4361521601676941,4.199814796447754,14.582859785782682,13.600522614245536,58.018627881814695,49.839204531230855,3.23295607813634e-05,0.0891468673944473,0,0,0
4806,163404.40981438724,2010-10-10 11:52:57,248.5125438296215,4,14,0.386123389005661,4.199653148651123,14.59297887152274,13.600522614245536,58.06112445939923,49.839204531230855,0.0,0.0891468673944473,0,0,0
4807,163518.76747315988,2010-10-10 11:54:51,362.8702024969925,4,14,0.3360946178436279,4.199653148651123,14.604432476663806,13.600522614245536,58.10922560636493,49.839204531230855,0.0,0.0891468673944473,0,0,0
4808,163654.60953753686,2010-10-10 11:57:07,498.71226691407816,4,14,0.2860658466815948,4.199491024017334,14.616153942915918,13.600522614245536,58.158451687026265,49.839204531230855,-3.24249267578125e-05,0.0891468673944473,0,0,0
4809,163820.46854166366,2010-10-10 11:59:53,664.5712710509268,4,14,0.2358564734458923,4.199491024017334,14.628161102851108,13.600522614245536,58.20887758715632,49.839204531230855,-6.47544875391759e-05,0.0891468673944473,0,0,0
4810,164029.12031107862,2010-10-10 12:03:21,873.2230404257534,4,14,0.1858277022838592,4.199491024017334,14.640341391318902,13.600522614245536,58.26003053829846,49.839204531230855,-3.24249267578125e-05,0.0891468673944473,0,0,0
4811,164304.413362779,2010-10-10 12:07:57,1148.51609217627,4,14,0.1357989311218261,4.199653148651123,14.652567999674387,13.600522614245536,58.31137803343739,49.839204531230855,-3.23295607813634e-05,0.0891468673944473,0,0,0
4812,164729.78281739278,2010-10-10 12:15:02,1573.8855468752893,4,14,0.085770159959793,4.199491024017334,14.665459733354648,13.600522614245536,58.36551885127616,49.839204531230855,-3.24249267578125e-05,0.0891468673944473,0,0,0
4813,165266.4943079994,2010-10-10 12:23:59,2110.597037451803,4,14,0.0498289167881011,4.199653148651123,14.675340531399865,13.600522614245536,58.40701465511156,49.839204531230855,3.24249267578125e-05,0.0891468673944473,0,0,0
4814,165296.50877097502,2010-10-10 12:24:29,30.01521408896017,5,14,0.0,4.192530155181885,14.675340531399865,13.600522614245536,58.40701465511156,49.839204531230855,-3.24249267578125e-05,0.0891468673944473,0,0,0
4815,165326.5083714701,2010-10-10 12:24:59,60.014814538927794,5,14,0.0,4.191397190093994,14.675340531399865,13.600522614245536,58.40701465511156,49.839204531230855,0.0,0.0891468673944473,0,0,0
4816,165326.69593697603,2010-10-10 12:24:59,0.187512127918813,6,14,-1.9243103452026844e-05,4.191397190093994,14.675340531399865,13.600522615247844,58.40701465511156,49.83920453543194,0.0,0.0875260159373283,0,0,0
4817,165331.52396725805,2010-10-10 12:25:04,5.015542384866899,6,14,0.0001613661734154,4.191235065460205,14.675341366189272,13.600522615344415,58.40701815408578,49.83920453583671,-3.24249267578125e-05,0.0875260159373283,0,0,0
4818,165361.5390555023,2010-10-10 12:25:34,30.014966822696564,7,14,-1.0997490882873535,4.031130313873291,14.675341366189272,13.609691771890326,58.40701815408578,49.876342772656365,-0.0008093834039755,0.0875260159373283,0,0,0
4819,165391.5567313417,2010-10-10 12:26:04,60.032642787408605,7,14,-1.0997490882873535,4.007818698883057,14.675341366189272,13.618861667808668,58.40701815408578,49.91319291901302,-0.0005180359003134,0.0875260159373283,0,0,0
4820,165421.56950880284,2010-10-10 12:26:34,90.04542015330517,7,14,-1.099929690361023,3.991953849792481,14.675341366189272,13.628030013547368,58.40701815408578,49.94986203189482,-0.0003561496851034,0.0875260159373283,0,0,0
4821,165451.5847251875,2010-10-10 12:27:04,120.06063651292452,7,14,-1.099929690361023,3.9794886112213135,14.675341366189272,13.637199173830911,58.40701815408578,49.9864059391358,-0.0003561496851034,0.0875260159373283,0,0,0
4822,165481.59998484503,2010-10-10 12:27:34,150.07589618549306,7,14,-1.0997490882873535,3.968642234802246,14.675341366189272,13.646368281901202,58.40701815408578,50.0228434305053,-0.0002913951757363,0.0875260159373283,0,0,0
4823,165511.615156804,2010-10-10 12:28:04,180.09106812941485,7,14,-1.0997490882873535,3.958929061889648,14.675341366189272,13.655537309827764,58.40701815408578,50.05918692975553,-0.0002590179501567,0.0875260159373283,0,0,0
4824,165541.63273096998,2010-10-10 12:28:34,210.10864241070053,7,14,-1.0997490882873535,3.9497015476226807,14.675341366189272,13.66470709050215,58.40701815408578,50.09544684947152,-0.0002590179501567,0.0875260159373283,0,0,0
4825,165571.6456107411,2010-10-10 12:29:04,240.1215221818224,7,14,-1.099568486213684,3.940959692001343,14.675341366189272,13.6738754287934,58.40701815408578,50.13161894440826,-0.0002590179501567,0.0875260159373283,0,0,0
4826,165601.66084813816,2010-10-10 12:29:34,270.1367594786236,7,14,-1.099929690361023,3.932379722595215,14.675341366189272,13.68304448768616,58.40701815408578,50.16771472057556,-0.0002266406954731,0.0875260159373283,0,0,0
4827,165631.67794305974,2010-10-10 12:30:04,300.15385442525985,7,14,-1.099929690361023,3.924123525619507,14.675341366189272,13.692214072586378,58.40701815408578,50.20373563096784,-0.0002590179501567,0.0875260159373283,0,0,0
4828,165661.69142378363,2010-10-10 12:30:34,330.1673352393658,7,14,-1.099929690361023,3.916029214859009,14.675341366189272,13.701382612678549,58.40701815408578,50.23967711542692,-0.0001942634553415,0.0875260159373283,0,0,0
4829,165691.70654014905,2010-10-10 12:31:04,360.182451474444,7,14,-1.0997490882873535,3.9080970287323,14.675341366189272,13.710551674612818,58.40701815408578,50.275546413682655,-0.0001618862152099,0.0875260159373283,0,0,0
4830,165721.7217537618,2010-10-10 12:31:34,390.1976650972423,7,14,-1.0997490882873535,3.9000027179718018,14.675341366189272,13.719720722309512,58.40701815408578,50.31134240003188,-0.0002266406954731,0.0875260159373283,0,0,0
4831,165751.7370886919,2010-10-10 12:32:04,420.2130001176008,7,14,-1.099568486213684,3.8923940658569336,14.675341366189272,13.72888977241784,58.40701815408578,50.34706665869379,-0.0001942634553415,0.0875260159373283,0,0,0
4832,165781.75231825444,2010-10-10 12:32:34,450.22822961496354,7,14,-1.0997490882873535,3.8847854137420654,14.675341366189272,13.738058864599395,58.40701815408578,50.3827207556159,-0.0001618862152099,0.0875260159373283,0,0,0
4833,165811.7674321537,2010-10-10 12:33:04,480.2433434991826,7,14,-1.0997490882873535,3.8770148754119873,14.675341366189272,13.747227886360076,58.40701815408578,50.41830485940165,-0.0002266406954731,0.0875260159373283,0,0,0
4834,165841.78268592156,2010-10-10 12:33:34,510.2585972369598,7,14,-1.0997490882873535,3.869568109512329,14.675341366189272,13.756397029190037,58.40701815408578,50.45381983296407,-0.0001942634553415,0.0875260159373283,0,0,0
4835,165871.79788235153,2010-10-10 12:34:04,540.2737936769332,7,14,-1.0997490882873535,3.862121343612671,14.675341366189272,13.765566106951166,58.40701815408578,50.48926566732048,-0.0001942634553415,0.0875260159373283,0,0,0
4836,165901.8131218538,2010-10-10 12:34:34,570.2890331942688,7,14,-1.0997490882873535,3.8549983501434326,14.675341366189272,13.774735224314494,58.40701815408578,50.52464396989797,-0.0001295089750783,0.0875260159373283,0,0,0
4837,165931.8283466695,2010-10-10 12:35:04,600.3042580851508,7,14,-1.0997490882873535,3.8475515842437744,14.675341366189272,13.78390424955882,58.40701815408578,50.559954957570525,-0.0001942634553415,0.0875260159373283,0,0,0
4838,165961.84355971086,2010-10-10 12:35:34,630.3194710262501,7,14,-1.0997490882873535,3.840428590774536,14.675341366189272,13.793073338598262,58.40701815408578,50.59520111647287,-0.0001942634553415,0.0875260159373283,0,0,0
4839,165991.85878359422,2010-10-10 12:36:04,660.3346949196459,7,14,-1.0997490882873535,3.8336293697357178,14.675341366189272,13.802242477594096,58.40701815408578,50.63038312827152,-0.0001618862152099,0.0875260159373283,0,0,0
4840,166021.87414408306,2010-10-10 12:36:34,690.3500554084796,7,14,-1.0997490882873535,3.8265066146850586,14.675341366189272,13.811411642958346,58.40701815408578,50.6655014151997,-0.0001942634553415,0.0875260159373283,0,0,0
4841,166051.88924376186,2010-10-10 12:37:04,720.3651550872945,7,14,-1.099929690361023,3.81970739364624,14.675341366189272,13.820580709474216,58.40701815408578,50.7005563008231,-0.0001942634553415,0.0875260159373283,0,0,0
4842,166081.9044735249,2010-10-10 12:37:34,750.3803848453067,7,14,-1.0997490882873535,3.813070058822632,14.675341366189272,13.82974983358718,58.40701815408578,50.7355498887245,-0.0001618862152099,0.0875260159373283,0,0,0
4843,166111.9197306411,2010-10-10 12:38:04,780.3956420166414,7,14,-1.099929690361023,3.806432723999024,14.675341366189272,13.838918859895015,58.40701815408578,50.770481855450925,-0.0001942634553415,0.0875260159373283,0,0,0
4844,166141.93491933175,2010-10-10 12:38:34,810.4108306571763,7,14,-1.099929690361023,3.799957275390625,14.675341366189272,13.848087870507268,58.40701815408578,50.805354037890375,-0.0001618862152099,0.0875260159373283,0,0,0
4845,166171.9501458467,2010-10-10 12:39:05,840.4260572272434,7,14,-1.0997490882873535,3.793643712997437,14.675341366189272,13.85725694319397,58.40701815408578,50.84016802775768,-0.0001618862152099,0.0875260159373283,0,0,0
4846,166201.96535387053,2010-10-10 12:39:35,870.441265216,7,14,-1.099568486213684,3.787653923034668,14.675341366189272,13.866425874998312,58.40701815408578,50.874924592850284,-0.0001295089750783,0.0875260159373283,0,0,0
4847,166231.9827066247,2010-10-10 12:40:05,900.4586180754343,7,14,-1.099568486213684,3.7816641330718994,14.675341366189272,13.875594836582428,58.40701815408578,50.90962552281046,-0.0001295089750783,0.0875260159373283,0,0,0
4848,166261.99573716155,2010-10-10 12:40:35,930.4716485070484,7,14,-1.099568486213684,3.775674343109131,14.675341366189272,13.884762639014614,58.40701815408578,50.944267164396855,-0.0001618862152099,0.0875260159373283,0,0,0
4849,166292.01104594654,2010-10-10 12:41:05,960.4869573972826,7,14,-1.0997490882873535,3.769846439361572,14.675341366189272,13.893931006405094,58.40701815408578,50.97885702400504,-0.0001295089750783,0.0875260159373283,0,0,0
4850,166322.02630953386,2010-10-10 12:41:35,990.5022208592956,7,14,-1.099568486213684,3.764180421829224,14.675341366189272,13.90309932543185,58.40701815408578,51.013394221353366,-0.0001618862152099,0.0875260159373283,0,0,0
4851,166352.04168825818,2010-10-10 12:42:05,1020.5175996738024,7,14,-1.0997490882873535,3.758514404296875,14.675341366189272,13.912267691986546,58.40701815408578,51.04787974504814,-0.0001618862152099,0.0875260159373283,0,0,0
4852,166382.05665291045,2010-10-10 12:42:35,1050.5325643762146,7,14,-1.0997490882873535,3.753010272979736,14.675341366189272,13.921436031058173,58.40701815408578,51.0823142879467,-0.0001618862152099,0.0875260159373283,0,0,0
4853,166412.07194490355,2010-10-10 12:43:05,1080.5478562540486,7,14,-1.099568486213684,3.7476682662963863,14.675341366189272,13.930605004241212,58.40701815408578,51.11670116240026,-0.0001295089750783,0.0875260159373283,0,0,0
4854,166442.0873268158,2010-10-10 12:43:35,1110.5632381362009,7,14,-1.099568486213684,3.742326021194458,14.675341366189272,13.939774080762952,58.40701815408578,51.151039687097146,-0.0001295089750783,0.0875260159373283,0,0,0
4855,166472.10239528684,2010-10-10 12:44:05,1140.5783066072363,7,14,-1.0993878841400146,3.7371456623077393,14.675341366189272,13.948942992668432,58.40701815408578,51.18532918728701,-0.0001618862152099,0.0875260159373283,0,0,0
4856,166502.1176304082,2010-10-10 12:44:35,1170.5935417637031,7,14,-1.099929690361023,3.731965303421021,14.675341366189272,13.958112041111876,58.40701815408578,51.21957206286484,-0.0001942634553415,0.0875260159373283,0,0,0
4857,166532.13287113857,2010-10-10 12:45:05,1200.6087824840372,7,14,-1.099568486213684,3.7271087169647217,14.675341366189272,13.967280981135591,58.40701815408578,51.2537682870361,-0.0001295089750783,0.0875260159373283,0,0,0
4858,166562.14808760845,2010-10-10 12:45:35,1230.623998958944,7,14,-1.099568486213684,3.722090244293213,14.675341366189272,13.9764499598859,58.40701815408578,51.28791909970128,-0.0001295089750783,0.0875260159373283,0,0,0
4859,166592.16330617358,2010-10-10 12:46:05,1260.6392174989974,7,14,-1.0997490882873535,3.717233657836914,14.675341366189272,13.985618935489391,58.40701815408578,51.32202510539694,-0.0001295089750783,0.0875260159373283,0,0,0
4860,166622.1785315256,2010-10-10 12:46:35,1290.6544428760913,7,14,-1.1001102924346924,3.712538957595825,14.675341366189272,13.994787979644064,58.40701815408578,51.35608714378815,-9.713172767078504e-05,0.0875260159373283,0,0,0
4861,166652.19376622094,2010-10-10 12:47:05,1320.6696775764212,7,14,-1.099568486213684,3.7076823711395264,14.675341366189272,14.003956969708709,58.40701815408578,51.390105141543,-0.0001295089750783,0.0875260159373283,0,0,0
4862,166682.2090040641,2010-10-10 12:47:35,1350.6849154847466,7,14,-1.0997490882873535,3.7029876708984375,14.675341366189272,14.013125922307449,58.40701815408578,51.424079957918025,-0.0001618862152099,0.0875260159373283,0,0,0
4863,166712.22422540613,2010-10-10 12:48:05,1380.7001367616213,7,14,-1.0997490882873535,3.698454856872559,14.675341366189272,14.022294959568828,58.40701815408578,51.45801237532975,-9.713172767078504e-05,0.0875260159373283,0,0,0
4864,166742.2394561917,2010-10-10 12:48:35,1410.7153675672444,7,14,-1.099929690361023,3.69392204284668,14.675341366189272,14.031463926308346,58.40701815408578,51.49190248045497,-9.713172767078504e-05,0.0875260159373283,0,0,0
4865,166772.25466440603,2010-10-10 12:49:05,1440.730575756501,7,14,-1.0997490882873535,3.689389228820801,14.675341366189272,14.04063290588716,58.40701815408578,51.52575093834975,-9.713172767078504e-05,0.0875260159373283,0,0,0
4866,166802.26990262012,2010-10-10 12:49:35,1470.7458139705882,7,14,-1.099568486213684,3.685018301010132,14.675341366189272,14.04980187513652,58.40701815408578,51.55955827344148,-9.713172767078504e-05,0.0875260159373283,0,0,0
4867,166832.28713635766,2010-10-10 12:50:05,1500.763047788334,7,14,-1.0997490882873535,3.680485486984253,14.675341366189272,14.05897148562318,58.40701815408578,51.593327281872185,-9.713172767078504e-05,0.0875260159373283,0,0,0
4868,166862.30035182042,2010-10-10 12:50:35,1530.7762631458404,7,14,-1.099929690361023,3.676114559173584,14.675341366189272,14.068139841528543,58.40701815408578,51.62705154463795,-0.0001295089750783,0.0875260159373283,0,0,0
4869,166892.31570135694,2010-10-10 12:51:05,1560.7916126823775,7,14,-1.099568486213684,3.671905755996704,14.675341366189272,14.07730890360772,58.40701815408578,51.66073908815424,-0.0001294612884521,0.0875260159373283,0,0,0
4870,166922.33081591284,2010-10-10 12:51:35,1590.8067272683456,7,14,-1.0997490882873535,3.667696714401245,14.675341366189272,14.08647796159696,58.40701815408578,51.69438797545366,-9.713172767078504e-05,0.0875260159373283,0,0,0
4871,166952.3460424077,2010-10-10 12:52:05,1620.8219537331504,7,14,-1.0997490882873535,3.663649559020996,14.675341366189272,14.095646979388867,58.40701815408578,51.72799875033656,-9.713172767078504e-05,0.0875260159373283,0,0,0
4872,166982.36139968358,2010-10-10 12:52:35,1650.8373110039638,7,14,-1.099929690361023,3.659440517425537,14.675341366189272,14.104816050580611,58.40701815408578,51.76157233885952,-0.0001618862152099,0.0875260159373283,0,0,0
4873,167012.37648122216,2010-10-10 12:53:05,1680.8523925425677,7,14,-1.0997490882873535,3.655555248260498,14.675341366189272,14.113985020198774,58.40701815408578,51.79510850885466,-0.0001295089750783,0.0875260159373283,0,0,0
4874,167042.3917964231,2010-10-10 12:53:35,1710.8677078838798,7,14,-1.099568486213684,3.651831865310669,14.675341366189272,14.123154072081572,58.40701815408578,51.82860878477451,-9.713172767078504e-05,0.0875260159373283,0,0,0
4875,167072.4069218912,2010-10-10 12:54:05,1740.8828332467072,7,14,-1.099929690361023,3.64794659614563,14.675341366189272,14.132323073931872,58.40701815408578,51.86207345686442,-9.713172767078504e-05,0.0875260159373283,0,0,0
4876,167102.4221465465,2010-10-10 12:54:35,1770.898057891977,7,14,-1.099929690361023,3.643899440765381,14.675341366189272,14.14149205365438,58.40701815408578,51.89550284842917,-0.0001295089750783,0.0875260159373283,0,0,0
4877,167132.437378114,2010-10-10 12:55:05,1800.9132894594993,7,14,-1.099568486213684,3.640499830245972,14.675341366189272,14.150660935845076,58.40701815408578,51.9288980891768,-9.713172767078504e-05,0.0875260159373283,0,0,0
4878,167162.45274836218,2010-10-10 12:55:35,1830.928659687606,7,14,-1.0997490882873535,3.636776447296143,14.675341366189272,14.159829923822096,58.40701815408578,51.9622604805549,-0.0001295089750783,0.0875260159373283,0,0,0
4879,167192.46796153387,2010-10-10 12:56:05,1860.9438728843425,7,14,-1.0997490882873535,3.633214950561523,14.675341366189272,14.168998847792608,58.40701815408578,51.99559028293661,-9.713172767078504e-05,0.0875260159373283,0,0,0
4880,167222.48307174395,2010-10-10 12:56:35,1890.9589830944044,7,14,-1.0997490882873535,3.629977226257324,14.675341366189272,14.178167801625287,58.40701815408578,52.02888849637425,-9.713172767078504e-05,0.0875260159373283,0,0,0
4881,167252.49855935958,2010-10-10 12:57:05,1920.9744706800025,7,14,-1.099929690361023,3.626577615737915,14.675341366189272,14.187336868239102,58.40701815408578,52.06215639761657,-9.713172767078504e-05,0.0875260159373283,0,0,0
4882,167282.5135286234,2010-10-10 12:57:35,1950.989439968845,7,14,-1.0997490882873535,3.623501777648926,14.675341366189272,14.196505758506904,58.40701815408578,52.09539378244588,-6.47544875391759e-05,0.0875260159373283,0,0,0
4883,167312.53122491876,2010-10-10 12:58:05,1981.00713636949,7,14,-1.0997490882873535,3.620264053344727,14.675341366189272,14.205675495998026,58.40701815408578,52.12860519016299,-6.47544875391759e-05,0.0875260159373283,0,0,0
4884,167342.54396529245,2010-10-10 12:58:35,2011.0198766429407,7,14,-1.0997490882873535,3.617188215255737,14.675341366189272,14.214843669317723,58.40701815408578,52.16178269105763,-9.713172767078504e-05,0.0875260159373283,0,0,0
4885,167372.55924772174,2010-10-10 12:59:05,2041.0351590822515,7,14,-1.0997490882873535,3.614274263381958,14.675341366189272,14.22401270232498,58.40701815408578,52.19493569824533,-9.713172767078504e-05,0.0875260159373283,0,0,0
4886,167402.5744260616,2010-10-10 12:59:35,2071.050337382014,7,14,-1.099929690361023,3.6111984252929688,14.675341366189272,14.233181640759248,58.40701815408578,52.22806159128434,-9.713172767078504e-05,0.0875260159373283,0,0,0
4887,167432.59154564966,2010-10-10 13:00:05,2101.067457210664,7,14,-1.0997490882873535,3.60860824584961,14.675341366189272,14.242351201106231,58.40701815408578,52.26116344491829,-6.47544875391759e-05,0.0875260159373283,0,0,0
4888,167462.60718025666,2010-10-10 13:00:35,2131.083091717434,7,14,-1.0997490882873535,3.60569429397583,14.675341366189272,14.251520312349523,58.40701815408578,52.2942377558552,-9.713172767078504e-05,0.0875260159373283,0,0,0
4889,167492.62010254877,2010-10-10 13:01:05,2161.0960138741943,7,14,-1.0997490882873535,3.6029422283172607,14.675341366189272,14.26068857670476,58.40701815408578,52.32728355892048,-9.713172767078504e-05,0.0875260159373283,0,0,0
4890,167522.63532832687,2010-10-10 13:01:35,2191.1112396773497,7,14,-1.099568486213684,3.6005139350891118,14.675341366189272,14.269857555471294,58.40701815408578,52.36030706782884,-3.237724376958795e-05,0.0875260159373283,0,0,0
4891,167552.65053600984,2010-10-10 13:02:05,2221.1264473352817,7,14,-1.0997490882873535,3.597599983215332,14.675341366189272,14.279026520401777,58.40701815408578,52.3933058824422,-6.47544875391759e-05,0.0875260159373283,0,0,0
4892,167582.66591136073,2010-10-10 13:02:35,2251.141822686156,7,14,-1.0997490882873535,3.5950098037719727,14.675341366189272,14.288195523957109,58.40701815408578,52.42628041137444,-3.237724376958795e-05,0.0875260159373283,0,0,0
4893,167612.68099828277,2010-10-10 13:03:05,2281.156909603165,7,14,-1.0997490882873535,3.5924196243286133,14.675341366189272,14.297364417952634,58.40701815408578,52.45923029768292,-6.47544875391759e-05,0.0875260159373283,0,0,0
4894,167642.6962330382,2010-10-10 13:03:35,2311.172144358632,7,14,-1.099929690361023,3.589667797088623,14.675341366189272,14.306533433839034,58.40701815408578,52.49215636547159,-9.713172767078504e-05,0.0875260159373283,0,0,0
4895,167672.71144498183,2010-10-10 13:04:05,2341.1873563072577,7,14,-1.099568486213684,3.587077617645264,14.675341366189272,14.31570242733836,58.40701815408578,52.5250582339104,-6.47544875391759e-05,0.0875260159373283,0,0,0
4896,167702.72679795194,2010-10-10 13:04:35,2371.202709297402,7,14,-1.099568486213684,3.5841636657714844,14.675341366189272,14.324871516765178,58.40701815408578,52.55793602862156,-0.0001295089750783,0.0875260159373283,0,0,0
4897,167732.7419027485,2010-10-10 13:05:05,2401.2178140739225,7,14,-1.0997490882873535,3.581897258758545,14.675341366189272,14.3340404584849,58.40701815408578,52.59078873861555,-3.237724376958795e-05,0.0875260159373283,0,0,0
4898,167762.75724169865,2010-10-10 13:05:35,2431.2331530190627,7,14,-1.0997490882873535,3.5789833068847656,14.675341366189272,14.34320944327707,58.40701815408578,52.62361675393024,-9.713172767078504e-05,0.0875260159373283,0,0,0
4899,167792.7723478436,2010-10-10 13:06:05,2461.248259169006,7,14,-1.0997490882873535,3.5760693550109863,14.675341366189272,14.352378428622076,58.40701815408578,52.65641950920544,-9.713172767078504e-05,0.0875260159373283,0,0,0
4900,167822.78762541577,2010-10-10 13:06:35,2491.263536946698,7,14,-1.099568486213684,3.573479175567627,14.675341366189272,14.361547496966296,58.40701815408578,52.689196759753344,-3.237724376958795e-05,0.0875260159373283,0,0,0
4901,167852.80284031175,2010-10-10 13:07:05,2521.2787516672324,7,14,-1.0997490882873535,3.570241451263428,14.675341366189272,14.370716495153856,58.40701815408578,52.72194743043724,-0.0001618862152099,0.0875260159373283,0,0,0
4902,167882.81806301215,2010-10-10 13:07:35,2551.293974327555,7,14,-1.0997490882873535,3.5674893856048584,14.675341366189272,14.379885505796528,58.40701815408578,52.75467088822988,-6.47544875391759e-05,0.0875260159373283,0,0,0
4903,167912.83328432412,2010-10-10 13:08:05,2581.3091956495414,7,14,-1.0997490882873535,3.564251661300659,14.675341366189272,14.389054582844032,58.40701815408578,52.78736628201616,-0.0001295089750783,0.0875260159373283,0,0,0
4904,167942.84863546968,2010-10-10 13:08:35,2611.324546795089,7,14,-1.099568486213684,3.56117582321167,14.675341366189272,14.398223668772603,58.40701815408578,52.820032962061184,-6.47544875391759e-05,0.0875260159373283,0,0,0
4905,167972.86373300815,2010-10-10 13:09:05,2641.3396443335696,7,14,-1.0997490882873535,3.5577762126922607,14.675341366189272,14.407392791711494,58.40701815408578,52.852669876513566,-6.47544875391759e-05,0.0875260159373283,0,0,0
4906,168002.87898852036,2010-10-10 13:09:35,2671.3548998557944,7,14,-1.099568486213684,3.554376602172852,14.675341366189272,14.416561835385895,58.40701815408578,52.885275356403895,-6.47544875391759e-05,0.0875260159373283,0,0,0
4907,168032.8961247549,2010-10-10 13:10:05,2701.372036120408,7,14,-1.0997490882873535,3.5506532192230225,14.675341366189272,14.425731446173383,58.40701815408578,52.91785046865246,-9.713172767078504e-05,0.0875260159373283,0,0,0
4908,168062.90941494892,2010-10-10 13:10:35,2731.3853262693174,7,14,-1.0997490882873535,3.5470917224884038,14.675341366189272,14.43489990448896,58.40701815408578,52.95038804925333,-9.713172767078504e-05,0.0875260159373283,0,0,0
4909,168092.92465686222,2010-10-10 13:11:06,2761.400568217712,7,14,-1.099568486213684,3.543368339538574,14.675341366189272,14.444069079468116,58.40701815408578,52.98289343991501,-6.47544875391759e-05,0.0875260159373283,0,0,0
4910,168122.9400140127,2010-10-10 13:11:36,2791.415925368225,7,14,-1.0997490882873535,3.5391592979431152,14.675341366189272,14.453238150443958,58.40701815408578,53.015362639921975,-9.713172767078504e-05,0.0875260159373283,0,0,0
4911,168152.95508881455,2010-10-10 13:12:06,2821.431000134952,7,14,-1.099929690361023,3.534950256347656,14.675341366189272,14.462407186544276,58.40701815408578,53.04779465642262,-9.713172767078504e-05,0.0875260159373283,0,0,0
4912,168182.97028792615,2010-10-10 13:12:36,2851.4461992766587,7,14,-1.0997490882873535,3.5309031009674072,14.675341366189272,14.471576239445168,58.40701815408578,53.08018846961633,-9.713172767078504e-05,0.0875260159373283,0,0,0
4913,168212.98560331762,2010-10-10 13:13:06,2881.461514668096,7,14,-1.0997490882873535,3.5263702869415283,14.675341366189272,14.480745346659736,58.40701815408578,53.11254304292712,-0.0001295089750783,0.0875260159373283,0,0,0
4914,168243.0007565148,2010-10-10 13:13:36,2911.4766678402325,7,14,-1.099568486213684,3.52199935913086,14.675341366189272,14.489914401905232,58.40701815408578,53.14485663253051,-0.0001295089750783,0.0875260159373283,0,0,0
4915,168273.0007720593,2010-10-10 13:14:06,2941.476683399781,7,14,-1.099568486213684,3.5169808864593506,14.675341366189272,14.499078842671535,58.40701815408578,53.177111399329696,-0.0001618862152099,0.0875260159373283,0,0,0
4916,168303.01587387346,2010-10-10 13:14:36,2971.4917853492548,7,14,-1.0997490882873535,3.512124300003052,14.675341366189272,14.508247949138092,58.40701815408578,53.20933761484184,-0.0001618862152099,0.0875260159373283,0,0,0
4917,168333.0308588113,2010-10-10 13:15:06,3001.506770131713,7,14,-1.0997490882873535,3.506620407104492,14.675341366189272,14.517417000081288,58.40701815408578,53.2415156572459,-0.0001618862152099,0.0875260159373283,0,0,0
4918,168363.04610506044,2010-10-10 13:15:36,3031.5220164058883,7,14,-1.099568486213684,3.500630617141724,14.675341366189272,14.526586141172883,58.40701815408578,53.2736417817539,-0.0001942634553415,0.0875260159373283,0,0,0
4919,168393.06132648265,2010-10-10 13:16:06,3061.537237833138,7,14,-1.0997490882873535,3.494155168533325,14.675341366189272,14.5357552580384,58.40701815408578,53.30571077076131,-0.0001618862152099,0.0875260159373283,0,0,0
4920,168423.0766522299,2010-10-10 13:16:36,3091.552563560335,7,14,-1.0997490882873535,3.486870288848877,14.675341366189272,14.544924403012278,58.40701815408578,53.33771588222238,-0.0001942634553415,0.0875260159373283,0,0,0
4921,168453.09175680092,2010-10-10 13:17:06,3121.567668156405,7,14,-1.0997490882873535,3.478128433227539,14.675341366189272,14.554093440128684,58.40701815408578,53.36964735897059,-0.0002266406954731,0.0875260159373283,0,0,0
4922,168483.10698666418,2010-10-10 13:17:36,3151.5828979845924,7,14,-1.0997490882873535,3.4679296016693115,14.675341366189272,14.563262504677208,58.40701815408578,53.40149263076492,-0.0003237724304199,0.0875260159373283,0,0,0
4923,168513.12223495336,2010-10-10 13:18:06,3181.5981462788027,7,14,-1.099568486213684,3.454978704452514,14.675341366189272,14.572431566186353,58.40701815408578,53.43323291643937,-0.0003885269106831,0.0875260159373283,0,0,0
4924,168543.1374409672,2010-10-10 13:18:36,3211.6133522876244,7,14,-1.0997490882873535,3.4383044242858887,14.675341366189272,14.581600656331284,58.40701815408578,53.46483925546194,-0.0005180359003134,0.0875260159373283,0,0,0
4925,168573.15268790306,2010-10-10 13:19:06,3241.628599253524,7,14,-1.0997490882873535,3.415154933929444,14.675341366189272,14.59076973169177,58.40701815408578,53.49626562894247,-0.0007446765666827,0.0875260159373283,0,0,0
4926,168603.16789563617,2010-10-10 13:19:36,3271.643806951556,7,14,-1.0997490882873535,3.382615804672241,14.675341366189272,14.59993884395004,58.40701815408578,53.527439773502536,-0.0010036944877356,0.0875260159373283,0,0,0
4927,168633.18324881178,2010-10-10 13:20:06,3301.6591601371883,7,14,-1.0997490882873535,3.335345268249512,14.675341366189272,14.609108016247813,58.40701815408578,53.55825238636709,-0.0014893531333655,0.0875260159373283,0,0,0
4928,168663.2003481293,2010-10-10 13:20:36,3331.676259464743,7,14,-1.0997490882873535,3.268000841140747,14.675341366189272,14.618277599325433,58.40701815408578,53.58854607299317,-0.0020720958709716,0.0875260159373283,0,0,0
4929,168693.21357410325,2010-10-10 13:21:06,3361.6894854537463,7,14,-1.0997490882873535,3.17038369178772,14.675341366189272,14.627446109467236,58.40701815408578,53.61809020788187,-0.0030758380889892,0.0875260159373283,0,0,0
4930,168723.22881256297,2010-10-10 13:21:36,3391.7047238833707,7,14,-1.0997490882873535,3.0141639709472656,14.675341366189272,14.63661521658717,58.40701815408578,53.646511290414765,-0.0053745745681226,0.0875260159373283,0,0,0
4931,168741.66605732992,2010-10-10 13:21:54,3410.141968655341,7,14,-1.0997490882873535,2.813911199569702,14.675341366189272,14.642247450595514,58.40701815408578,53.66300059581875,-0.0116881374269723,0.0875260159373283,0,0,0
4932,168748.29098207585,2010-10-10 13:22:01,3416.766893426309,7,14,-1.0997490882873535,2.699781894683838,14.675341366189272,14.644271255241858,58.40701815408578,53.66858292853399,-0.0141811845824122,0.0875260159373283,0,0,0
4933,168808.3043864768,2010-10-10 13:23:01,60.01482565663654,8,14,0.0,3.268972158432007,14.675341366189272,14.644271255241858,58.40701815408578,53.66858292853399,0.0012303352123126,0.0875260159373283,0,0,0
4934,168808.4914056452,2010-10-10 13:23:01,0.187621826320985,9,14,-1.9243103452026844e-05,3.268972158432007,14.675341369892864,14.644271255241858,58.40701816619273,53.66858292853399,0.0,0.0913304165005683,0,0,0
4935,168813.3193637373,2010-10-10 13:23:06,5.015579848237144,9,14,0.0005225847125984,3.276256799697876,14.675342184154657,14.644271255408215,58.40702083145592,53.6685829290778,0.0010036944877356,0.0913304165005683,0,0,0
