Data_Point,Test_Time(s),Date_Time,Step_Time(s),Step_Index,Cycle_Index,Current(A),Voltage(V),Charge_Capacity(Ah),Discharge_Capacity(Ah),Charge_Energy(Wh),Discharge_Energy(Wh),dV/dt(V/s),Internal_Resistance(Ohm),Is_FC_Data,AC_Impedance(Ohm),ACI_Phase_Angle(Deg)
9724,330230.6557042557,2010-10-12 10:13:41,30.01519639486104,1,29,0.0,3.38714861869812,28.85798239448547,28.81392383632088,114.85228613934548,105.42614890914324,0.0006799221155233,0.0917440429329872,0,0,0
9725,330260.67077105254,2010-10-12 10:14:11,60.030263086461645,1,29,0.0,3.408517599105835,28.85798239448547,28.81392383632088,114.85228613934548,105.42614890914324,0.0004856586456298,0.0917440429329872,0,0,0
9726,330290.68591273605,2010-10-12 10:14:41,90.04540474991518,1,29,0.0,3.424220561981201,28.85798239448547,28.81392383632088,114.85228613934548,105.42614890914324,0.0003561496851034,0.0917440429329872,0,0,0
9727,330320.6542042696,2010-10-12 10:15:11,120.01369627841696,1,29,0.0,3.437009334564209,28.85798239448547,28.81392383632088,114.85228613934548,105.42614890914324,0.0003237724304199,0.0917440429329872,0,0,0
9728,330350.6738435692,2010-10-12 10:15:41,30.015313316265157,2,29,0.5501165986061096,3.592743396759033,28.86256879574153,28.81392383632088,114.86860475380432,105.42614890914324,0.0015540600288659,0.0917440429329872,0,0,0
9729,330380.68884215096,2010-10-12 10:16:11,60.030311853002864,2,29,0.5499359965324402,3.640176057815552,28.86715508753253,28.81392383632088,114.88519785572716,105.42614890914324,0.0010684489971026,0.0917440429329872,0,0,0
9730,330410.7039820601,2010-10-12 10:16:41,90.04545176709645,2,29,0.5499359965324402,3.674981355667114,28.87174139411996,28.81392383632088,114.90197653534206,105.42614890914324,0.0008093834039755,0.0917440429329872,0,0,0
9731,330440.71912629495,2010-10-12 10:17:11,120.06059603203369,2,29,0.5499359965324402,3.7023401260375977,28.87632730677126,28.81392383632088,114.91889491347236,105.42614890914324,0.0006799221155233,0.0917440429329872,0,0,0
9732,330470.73468227603,2010-10-12 10:17:41,150.07615202311916,2,29,0.5497553944587708,3.724680423736572,28.88091274448463,28.81392383632088,114.9359252393916,105.42614890914324,0.0005180359003134,0.0917440429329872,0,0,0
9733,330500.7494746339,2010-10-12 10:18:11,180.09094433588328,2,29,0.5501165986061096,3.743782997131348,28.88549846500569,28.81392383632088,114.9530507339554,105.42614890914324,0.0004856586456298,0.0917440429329872,0,0,0
9734,330530.76739847136,2010-10-12 10:18:41,210.1088683287578,2,29,0.5501165986061096,3.758514404296875,28.89008521684892,28.81392383632088,114.97025741853976,105.42614890914324,0.0003561496851034,0.0917440429329872,0,0,0
9735,330560.7798022211,2010-10-12 10:19:11,240.1212719481631,2,29,0.5499359965324402,3.7685513496398926,28.894671061840427,28.81392383632088,114.98751850556708,105.42614890914324,0.0001618862152099,0.0917440429329872,0,0,0
9736,330590.7949098347,2010-10-12 10:19:41,270.13637954170395,2,29,0.5501165986061096,3.774703025817871,28.899257337008457,28.81392383632088,115.00481764311988,105.42614890914324,9.713172767078504e-05,0.0917440429329872,0,0,0
9737,330620.8101376328,2010-10-12 10:20:11,300.1516073398316,2,29,0.5499359965324402,3.77891206741333,28.90384364815492,28.81392383632088,115.02213954423902,105.42614890914324,9.713172767078504e-05,0.0917440429329872,0,0,0
9738,330650.8252106903,2010-10-12 10:20:41,330.1666803972979,2,29,0.5501165986061096,3.782473564147949,28.908429949376337,28.81392383632088,115.03947881135258,105.42614890914324,9.713172767078504e-05,0.0917440429329872,0,0,0
9739,330680.84287723154,2010-10-12 10:21:11,360.18434704378603,2,29,0.5499359965324402,3.785711288452149,28.913016628223705,28.81392383632088,115.05683543349944,105.42614890914324,9.713172767078504e-05,0.0917440429329872,0,0,0
9740,330710.8555934099,2010-10-12 10:21:41,390.1970632422345,2,29,0.5501165986061096,3.7891108989715576,28.917602566297624,28.81392383632088,115.07420477771078,105.42614890914324,6.47544875391759e-05,0.0917440429329872,0,0,0
9741,330740.8706882567,2010-10-12 10:22:11,420.2121579586816,2,29,0.5501165986061096,3.792510509490967,28.92218885237921,28.81392383632088,115.09159059868374,105.42614890914324,9.713172767078504e-05,0.0917440429329872,0,0,0
9742,330770.8858516593,2010-10-12 10:22:41,450.2273214966532,2,29,0.5501165986061096,3.795748233795166,28.926775177562043,28.81392383632088,115.10899130975596,105.42614890914324,9.713172767078504e-05,0.0917440429329872,0,0,0
9743,330800.9009667666,2010-10-12 10:23:11,480.2424364635707,2,29,0.5499359965324402,3.7988240718841553,28.931361438944727,28.81392383632088,115.1264064878231,105.42614890914324,9.713172767078504e-05,0.0917440429329872,0,0,0
9744,330830.916119232,2010-10-12 10:23:41,510.257588969046,2,29,0.5501165986061096,3.801899909973145,28.93594776259254,28.81392383632088,115.1438363994823,105.42614890914324,3.237724376958795e-05,0.0917440429329872,0,0,0
9745,330860.9312832912,2010-10-12 10:24:11,540.2727529932293,2,29,0.5499359965324402,3.804975748062134,28.940534030327505,28.81392383632088,115.16128030462178,105.42614890914324,9.713172767078504e-05,0.0917440429329872,0,0,0
9746,330890.9464223081,2010-10-12 10:24:41,570.2878920401616,2,29,0.5499359965324402,3.808051586151123,28.94512035270368,28.81392383632088,115.17873837553766,105.42614890914324,9.713172767078504e-05,0.0917440429329872,0,0,0
9747,330920.9616705171,2010-10-12 10:25:11,600.303140224097,2,29,0.5501165986061096,3.8109655380249023,28.949706708455825,28.81392383632088,115.19621034441217,105.42614890914324,6.47544875391759e-05,0.0917440429329872,0,0,0
9748,330950.9767023268,2010-10-12 10:25:41,630.318172033761,2,29,0.5501165986061096,3.814041376113892,28.95429298239502,28.81392383632088,115.21369566155808,105.42614890914324,9.713172767078504e-05,0.0917440429329872,0,0,0
9749,330980.9919531623,2010-10-12 10:26:11,660.3334228843424,2,29,0.5501165986061096,3.817117214202881,28.958879287197608,28.81392383632088,115.23119484490002,105.42614890914324,0.0001295089750783,0.0917440429329872,0,0,0
9750,331011.007053598,2010-10-12 10:26:41,690.3485233050063,2,29,0.5501165986061096,3.81970739364624,28.963465554856917,28.81392383632088,115.24870740983468,105.42614890914324,3.237724376958795e-05,0.0917440429329872,0,0,0
9751,331041.0221506904,2010-10-12 10:27:11,720.3636203923625,2,29,0.5501165986061096,3.8227832317352295,28.96805212755452,28.81392383632088,115.26623486006568,105.42614890914324,6.47544875391759e-05,0.0917440429329872,0,0,0
9752,331071.03731371707,2010-10-12 10:27:41,750.3787834240724,2,29,0.550297200679779,3.8260209560394287,28.972639210279645,28.81392383632088,115.28377819129216,105.42614890914324,9.713172767078504e-05,0.0917440429329872,0,0,0
9753,331101.0525015255,2010-10-12 10:28:11,780.3939712325333,2,29,0.550297200679779,3.829258680343628,28.977226213941503,28.81392383632088,115.30133541447282,105.42614890914324,9.713172767078504e-05,0.0917440429329872,0,0,0
9754,331131.06957555504,2010-10-12 10:28:41,810.4110452921126,2,29,0.5501165986061096,3.832334518432617,28.9818136594853,28.81392383632088,115.31890886789276,105.42614890914324,6.47544875391759e-05,0.0917440429329872,0,0,0
9755,331161.08294521214,2010-10-12 10:29:11,840.4244149191061,2,29,0.5501165986061096,3.835572004318237,28.986400522946457,28.81392383632088,115.33649486358829,105.42614890914324,6.47544875391759e-05,0.0917440429329872,0,0,0
9756,331191.09796403936,2010-10-12 10:29:41,870.4394337363891,2,29,0.550297200679779,3.839133501052856,28.990987614644315,28.81392383632088,115.3540969936797,105.42614890914324,9.713172767078504e-05,0.0917440429329872,0,0,0
9757,331221.1131023996,2010-10-12 10:30:11,900.4545721116475,2,29,0.5499359965324402,3.8422093391418457,28.9955746470355,28.81392383632088,115.37171422746464,105.42614890914324,6.47544875391759e-05,0.0917440429329872,0,0,0
9758,331251.1283613604,2010-10-12 10:30:41,930.4698310774546,2,29,0.550297200679779,3.845770835876465,29.0001611608973,28.81392383632088,115.3893447293252,105.42614890914324,9.713172767078504e-05,0.0917440429329872,0,0,0
9759,331281.14339011745,2010-10-12 10:31:11,960.4848598194732,2,29,0.5501165986061096,3.848846673965454,29.004747549675244,28.81392383632088,115.40698986019012,105.42614890914324,6.47544875391759e-05,0.0917440429329872,0,0,0
9760,331311.1585494149,2010-10-12 10:31:42,990.500019116876,2,29,0.5499359965324402,3.852084398269653,29.009334067592416,28.81392383632088,115.4246504294482,105.42614890914324,9.713172767078504e-05,0.0917440429329872,0,0,0
9761,331341.17371062207,2010-10-12 10:32:12,1020.5151803541132,2,29,0.5499359965324402,3.855322122573853,29.01392050491185,28.81392383632088,115.4423252660665,105.42614890914324,6.47544875391759e-05,0.0917440429329872,0,0,0
9762,331371.1888471226,2010-10-12 10:32:42,1050.5303168246246,2,29,0.5499359965324402,3.858397960662842,29.018506930808677,28.81392383632088,115.46001448745515,105.42614890914324,9.713172767078504e-05,0.0917440429329872,0,0,0
9763,331401.2040336028,2010-10-12 10:33:12,1080.5455033298374,2,29,0.550297200679779,3.861473798751831,29.023093418384445,28.81392383632088,115.47771804830636,105.42614890914324,6.47544875391759e-05,0.0917440429329872,0,0,0
9764,331431.2191464294,2010-10-12 10:33:42,1110.560616131358,2,29,0.5501165986061096,3.86454963684082,29.02767984432516,28.81392383632088,115.4954352659512,105.42614890914324,0.0001295089750783,0.0917440429329872,0,0,0
9765,331461.2343163733,2010-10-12 10:34:12,1140.5757861003578,2,29,0.5501165986061096,3.8673017024993896,29.03226627445504,28.81392383632088,115.51316593631076,105.42614890914324,3.237724376958795e-05,0.0917440429329872,0,0,0
9766,331491.2494610543,2010-10-12 10:34:42,1170.5909307963695,2,29,0.550297200679779,3.870053768157959,29.03685273699724,28.81392383632088,115.53090979597314,105.42614890914324,6.47544875391759e-05,0.0917440429329872,0,0,0
9767,331521.26473390975,2010-10-12 10:35:12,1200.6062036267313,2,29,0.5501165986061096,3.872805833816528,29.04143919746076,28.81392383632088,115.54866621471504,105.42614890914324,9.713172767078504e-05,0.0917440429329872,0,0,0
9768,331551.27976009034,2010-10-12 10:35:42,1230.6212297923284,2,29,0.5499359965324402,3.875396013259888,29.04602566232311,28.81392383632088,115.56643454706489,105.42614890914324,6.47544875391759e-05,0.0917440429329872,0,0,0
9769,331581.2950350861,2010-10-12 10:36:12,1260.6365047931,2,29,0.550297200679779,3.877824306488037,29.05061215970421,28.81392383632088,115.58421433965414,105.42614890914324,6.47544875391759e-05,0.0917440429329872,0,0,0
9770,331611.31008947705,2010-10-12 10:36:42,1290.6515592040932,2,29,0.5501165986061096,3.8802525997161865,29.055198638718085,28.81392383632088,115.602004842526,105.42614890914324,9.713172767078504e-05,0.0917440429329872,0,0,0
9771,331641.325336468,2010-10-12 10:37:12,1320.6668061950554,2,29,0.5499359965324402,3.882033348083496,29.05978511829236,28.81392383632088,115.61980543064682,105.42614890914324,3.237724376958795e-05,0.0917440429329872,0,0,0
9772,331671.3403657464,2010-10-12 10:37:42,1350.6818354483482,2,29,0.5499359965324402,3.883975982666016,29.06437158191192,28.81392383632088,115.63761538156358,105.42614890914324,3.237724376958795e-05,0.0917440429329872,0,0,0
9773,331701.35552713904,2010-10-12 10:38:12,1380.6969968409728,2,29,0.5501165986061096,3.885918617248535,29.06895811545398,28.81392383632088,115.65543429038016,105.42614890914324,0.0,0.0917440429329872,0,0,0
9774,331731.3725973339,2010-10-12 10:38:42,1410.7140670359202,2,29,0.5501165986061096,3.8875374794006343,29.073544850817317,28.81392383632088,115.6732621029637,105.42614890914324,0.0,0.0917440429329872,0,0,0
9775,331761.3859612818,2010-10-12 10:39:12,1440.727430998797,2,29,0.5501165986061096,3.889318227767944,29.07813101807436,28.81392383632088,115.69109526945223,105.42614890914324,6.47544875391759e-05,0.0917440429329872,0,0,0
9776,331791.4009908008,2010-10-12 10:39:42,1470.742460527777,2,29,0.5501165986061096,3.890613317489624,29.082717480644828,28.81392383632088,115.70893653550723,105.42614890914324,3.237724376958795e-05,0.0917440429329872,0,0,0
9777,331821.41622959124,2010-10-12 10:40:12,1500.7576993233135,2,29,0.550297200679779,3.892232179641724,29.087304065631702,28.81392383632088,115.72678476750792,105.42614890914324,6.47544875391759e-05,0.0917440429329872,0,0,0
9778,331851.4312525138,2010-10-12 10:40:42,1530.7727222307906,2,29,0.5499359965324402,3.893203496932984,29.09189054823465,28.81392383632088,115.74463864390566,105.42614890914324,0.0,0.0917440429329872,0,0,0
9779,331881.4463911547,2010-10-12 10:41:12,1560.7878608867484,2,29,0.5501165986061096,3.894498586654663,29.096476998667782,28.81392383632088,115.76249816743136,105.42614890914324,6.47544875391759e-05,0.0917440429329872,0,0,0
9780,331911.4617251325,2010-10-12 10:41:42,1590.8031948494713,2,29,0.5501165986061096,3.895631790161133,29.101063571909556,28.81392383632088,115.7803631530602,105.42614890914324,3.237724376958795e-05,0.0917440429329872,0,0,0
9781,331941.4767817088,2010-10-12 10:42:12,1620.8182514208488,2,29,0.5501165986061096,3.8967649936676025,29.1056500335082,28.81392383632088,115.79823320252562,105.42614890914324,0.0,0.0917440429329872,0,0,0
9782,331971.4920370205,2010-10-12 10:42:42,1650.8335067375613,2,29,0.5499359965324402,3.897898197174072,29.11023651919981,28.81392383632088,115.81610854502654,105.42614890914324,3.237724376958795e-05,0.0917440429329872,0,0,0
9783,332001.50706330145,2010-10-12 10:43:12,1680.8485330635583,2,29,0.5501165986061096,3.899193286895752,29.11482295414653,28.81392383632088,115.83398893007264,105.42614890914324,3.237724376958795e-05,0.0917440429329872,0,0,0
9784,332031.52222703985,2010-10-12 10:43:42,1710.8636967970172,2,29,0.5501165986061096,3.900164604187012,29.119409374926192,28.81392383632088,115.85187433849276,105.42614890914324,3.237724376958795e-05,0.0917440429329872,0,0,0
9785,332061.5373718111,2010-10-12 10:44:12,1740.8788415431536,2,29,0.5501165986061096,3.9012978076934814,29.12399583908654,28.81392383632088,115.8697650073741,105.42614890914324,0.0,0.0917440429329872,0,0,0
9786,332091.55250569514,2010-10-12 10:44:42,1770.893975422206,2,29,0.550297200679779,3.902431011199951,29.12858225461126,28.81392383632088,115.88766071376664,105.42614890914324,3.237724376958795e-05,0.0917440429329872,0,0,0
9787,332121.5679192112,2010-10-12 10:45:12,1800.9093891136372,2,29,0.5501165986061096,3.903402328491211,29.13316881848473,28.81392383632088,115.905562172414,105.42614890914324,-3.237724376958795e-05,0.0917440429329872,0,0,0
9788,332151.5828887456,2010-10-12 10:45:42,1830.9243584726548,2,29,0.550297200679779,3.90469741821289,29.137755305403,28.81392383632088,115.92346865819988,105.42614890914324,3.237724376958795e-05,0.0917440429329872,0,0,0
9789,332181.5979868254,2010-10-12 10:46:12,1860.93945658256,2,29,0.5501165986061096,3.90583062171936,29.14234183059687,28.81392383632088,115.94138042917452,105.42614890914324,3.237724376958795e-05,0.0917440429329872,0,0,0
9790,332211.6131193812,2010-10-12 10:46:42,1890.954589113252,2,29,0.5501165986061096,3.90696382522583,29.14692823416456,28.81392383632088,115.95929702784514,105.42614890914324,0.0,0.0917440429329872,0,0,0
9791,332241.62829348043,2010-10-12 10:47:12,1920.969763237608,2,29,0.5501165986061096,3.9080970287323,29.15151467866433,28.81392383632088,115.97721905855752,105.42614890914324,3.237724376958795e-05,0.0917440429329872,0,0,0
9792,332271.6435018953,2010-10-12 10:47:42,1950.984971602301,2,29,0.5501165986061096,3.90939211845398,29.15610115489721,28.81392383632088,115.99514654812874,105.42614890914324,3.237724376958795e-05,0.0917440429329872,0,0,0
9793,332301.6587290869,2010-10-12 10:48:12,1981.000198803942,2,29,0.5499359965324402,3.910525321960449,29.160687605052487,28.81392383632088,116.01307939028575,105.42614890914324,3.237724376958795e-05,0.0917440429329872,0,0,0
9794,332331.67583410867,2010-10-12 10:48:42,2011.0173038557632,2,29,0.5499359965324402,3.911820411682129,29.165274314832693,28.81392383632088,116.03101869359682,105.42614890914324,3.237724376958795e-05,0.0917440429329872,0,0,0
9795,332361.6888853321,2010-10-12 10:49:12,2041.030355034085,2,29,0.550297200679779,3.912953615188599,29.16986050739401,28.81392383632088,116.04896162001567,105.42614890914324,6.47544875391759e-05,0.0917440429329872,0,0,0
9796,332391.7043073443,2010-10-12 10:49:42,2071.045777171566,2,29,0.5499359965324402,3.914086580276489,29.17444704231552,28.81392383632088,116.06691142655316,105.42614890914324,0.0,0.0917440429329872,0,0,0
9797,332421.71920720505,2010-10-12 10:50:12,2101.0606769070605,2,29,0.5501165986061096,3.915381669998169,29.179033506099124,28.81392383632088,116.08486665186592,105.42614890914324,0.0,0.0917440429329872,0,0,0
9798,332451.7345538494,2010-10-12 10:50:42,2131.0760236716897,2,29,0.5501165986061096,3.9166767597198486,29.18362005248932,28.81392383632088,116.10282774334216,105.42614890914324,3.237724376958795e-05,0.0917440429329872,0,0,0
9799,332481.73630916496,2010-10-12 10:51:12,2161.077779022333,2,29,0.5499359965324402,3.917971849441528,29.18820444100215,28.81392383632088,116.120786236423,105.42614890914324,3.237724376958795e-05,0.0917440429329872,0,0,0
9800,332511.74903631565,2010-10-12 10:51:42,2191.09050611794,2,29,0.5501165986061096,3.919266939163208,29.192790516378967,28.81392383632088,116.13875712809256,105.42614890914324,6.47544875391759e-05,0.0917440429329872,0,0,0
9801,332541.7641740894,2010-10-12 10:52:12,2221.1056438215246,2,29,0.550297200679779,3.920562028884888,29.19737696352739,28.81392383632088,116.1567353942578,105.42614890914324,3.237724376958795e-05,0.0917440429329872,0,0,0
9802,332571.77933459985,2010-10-12 10:52:42,2251.120804306888,2,29,0.5501165986061096,3.921857118606568,29.201963482464,28.81392383632088,116.1747197833789,105.42614890914324,6.47544875391759e-05,0.0917440429329872,0,0,0
9803,332601.7944916667,2010-10-12 10:53:12,2281.135961373732,2,29,0.5501165986061096,3.923152208328247,29.20654995619975,28.81392383632088,116.1927099493509,105.42614890914324,3.237724376958795e-05,0.0917440429329872,0,0,0
9804,332631.81207891536,2010-10-12 10:53:42,2311.1535487326105,2,29,0.5499359965324402,3.924447298049927,29.21113677101346,28.81392383632088,116.21070749017292,105.42614890914324,3.237724376958795e-05,0.0917440429329872,0,0,0
9805,332661.82478232693,2010-10-12 10:54:12,2341.166252058977,2,29,0.550297200679779,3.925904273986816,29.215722884663823,28.81392383632088,116.22870848945398,105.42614890914324,6.47544875391759e-05,0.0917440429329872,0,0,0
9806,332691.8399516593,2010-10-12 10:54:42,2371.181421361316,2,29,0.5501165986061096,3.927037477493286,29.22030939816157,28.81392383632088,116.24671714043016,105.42614890914324,3.237724376958795e-05,0.0917440429329872,0,0,0
9807,332721.8551960789,2010-10-12 10:55:12,2401.196665856057,2,29,0.5501165986061096,3.928494453430176,29.224895860197595,28.81392383632088,116.26473189515328,105.42614890914324,3.237724376958795e-05,0.0917440429329872,0,0,0
9808,332751.8702379136,2010-10-12 10:55:42,2431.211707705744,2,29,0.5499359965324402,3.929789543151856,29.229482296757592,28.81392383632088,116.28275274373802,105.42614890914324,3.237724376958795e-05,0.0917440429329872,0,0,0
9809,332781.8860373764,2010-10-12 10:56:12,2461.227507113498,2,29,0.5501165986061096,3.931246519088745,29.234068854131856,28.81392383632088,116.3007804012952,105.42614890914324,6.47544875391759e-05,0.0917440429329872,0,0,0
9810,332811.9005626587,2010-10-12 10:56:42,2491.24203239574,2,29,0.550297200679779,3.9327034950256343,29.23865525722969,28.81392383632088,116.31881379690029,105.42614890914324,3.237724376958795e-05,0.0917440429329872,0,0,0
9811,332841.9160864896,2010-10-12 10:57:12,2521.2575562216603,2,29,0.5501165986061096,3.9339985847473145,29.243241861516044,28.81392383632088,116.33685429568474,105.42614890914324,6.47544875391759e-05,0.0917440429329872,0,0,0
9812,332871.93110049487,2010-10-12 10:57:42,2551.272570211913,2,29,0.5501165986061096,3.935293674468994,29.247828272163,28.81392383632088,116.35490046007943,105.42614890914324,0.0,0.0917440429329872,0,0,0
9813,332901.9461282695,2010-10-12 10:58:12,2581.287598202058,2,29,0.5501165986061096,3.936750650405884,29.2524147987084,28.81392383632088,116.3729534406084,105.42614890914324,3.237724376958795e-05,0.0917440429329872,0,0,0
9814,332931.94649575115,2010-10-12 10:58:42,2611.2879656085165,2,29,0.5501165986061096,3.938207626342773,29.256999007036995,28.81392383632088,116.39100385087217,105.42614890914324,3.237724376958795e-05,0.0917440429329872,0,0,0
9815,332961.9606925647,2010-10-12 10:59:12,2641.3021622968013,2,29,0.5499359965324402,3.939664602279663,29.26158530586874,28.81392383632088,116.40906917424,105.42614890914324,0.0,0.0917440429329872,0,0,0
9816,332991.97581352154,2010-10-12 10:59:42,2671.3172832536475,2,29,0.5499359965324402,3.940959692001343,29.26617172147296,28.81392383632088,116.4271417334642,105.42614890914324,0.0,0.0917440429329872,0,0,0
9817,333021.99099800177,2010-10-12 11:00:12,2701.332467738826,2,29,0.5501165986061096,3.9425785541534415,29.2707581941092,28.81392383632088,116.4452212012372,105.42614890914324,0.0,0.0917440429329872,0,0,0
9818,333052.0061380061,2010-10-12 11:00:42,2731.347607738132,2,29,0.5499359965324402,3.944035530090332,29.27534470065437,28.81392383632088,116.46330763585075,105.42614890914324,3.237724376958795e-05,0.0917440429329872,0,0,0
9819,333082.0087501421,2010-10-12 11:01:12,2761.350219869136,2,29,0.5499359965324402,3.945654392242432,29.27992915177268,28.81392383632088,116.48139280435856,105.42614890914324,6.47544875391759e-05,0.0917440429329872,0,0,0
9820,333112.0208745155,2010-10-12 11:01:42,2791.3623442576118,2,29,0.5501165986061096,3.947111368179321,29.284515166952783,28.81392383632088,116.49949105923528,105.42614890914324,3.237724376958795e-05,0.0917440429329872,0,0,0
9821,333142.03590030514,2010-10-12 11:02:12,2821.3773700572965,2,29,0.5499359965324402,3.948568344116211,29.289101493679944,28.81392383632088,116.51759746874396,105.42614890914324,3.227733395760879e-05,0.0917440429329872,0,0,0
9822,333172.0531783431,2010-10-12 11:02:42,2851.394648175453,2,29,0.5501165986061096,3.9500253200531006,29.29368821787416,28.81392383632088,116.53571239354716,105.42614890914324,3.237724376958795e-05,0.0917440429329872,0,0,0
9823,333202.0662583433,2010-10-12 11:03:12,2881.407728080369,2,29,0.5499359965324402,3.9516441822052,29.298274267665395,28.81392383632088,116.55383177379632,105.42614890914324,0.0,0.0917440429329872,0,0,0
9824,333232.0815309631,2010-10-12 11:03:42,2911.4230006801563,2,29,0.5501165986061096,3.9532630443573,29.302860734383795,28.81392383632088,116.5719598753541,105.42614890914324,3.237724376958795e-05,0.0917440429329872,0,0,0
9825,333262.09658713354,2010-10-12 11:04:12,2941.4380568856222,2,29,0.5501165986061096,3.9548819065094,29.307447170232464,28.81392383632088,116.5900951183706,105.42614890914324,6.47544875391759e-05,0.0917440429329872,0,0,0
9826,333292.11175743834,2010-10-12 11:04:42,2971.4532272004844,2,29,0.5501165986061096,3.956500768661499,29.312033649015653,28.81392383632088,116.60823778134336,105.42614890914324,3.237724376958795e-05,0.0917440429329872,0,0,0
9827,333322.1268637286,2010-10-12 11:05:13,3001.4683334556894,2,29,0.5501165986061096,3.9579577445983887,29.31662011571652,28.81392383632088,116.62638756931904,105.42614890914324,0.0,0.0917440429329872,0,0,0
9828,333352.14201647474,2010-10-12 11:05:43,3031.483486236852,2,29,0.5499359965324402,3.959576606750488,29.32120654532397,28.81392383632088,116.6445445234278,105.42614890914324,0.0,0.0917440429329872,0,0,0
9829,333382.1571905991,2010-10-12 11:06:13,3061.4986602960457,2,29,0.5501165986061096,3.961195468902588,29.325793027360444,28.81392383632088,116.66270915358884,105.42614890914324,0.0,0.0917440429329872,0,0,0
9830,333412.17267419974,2010-10-12 11:06:43,3091.514143931799,2,29,0.5501165986061096,3.9629762172698975,29.330379607408823,28.81392383632088,116.68088178736132,105.42614890914324,3.237724376958795e-05,0.0917440429329872,0,0,0
9831,333442.1876242156,2010-10-12 11:07:13,3121.529093977683,2,29,0.5499359965324402,3.964595079421997,29.334966019467387,28.81392383632088,116.69906138660112,105.42614890914324,0.0,0.0917440429329872,0,0,0
9832,333472.2026843458,2010-10-12 11:07:43,3151.544154072843,2,29,0.550297200679779,3.966375827789306,29.339552475062156,28.81392383632088,116.71724888723176,105.42614890914324,3.237724376958795e-05,0.0917440429329872,0,0,0
9833,333502.2177994781,2010-10-12 11:08:13,3181.5592691801107,2,29,0.5501165986061096,3.968156576156616,29.344139031930265,28.81392383632088,116.73544463593367,105.42614890914324,6.47544875391759e-05,0.0917440429329872,0,0,0
9834,333532.2329347557,2010-10-12 11:08:43,3211.574404467673,2,29,0.5499359965324402,3.969775438308716,29.348725504188693,28.81392383632088,116.75364801507033,105.42614890914324,6.47544875391759e-05,0.0917440429329872,0,0,0
9835,333562.24809326103,2010-10-12 11:09:13,3241.589562963077,2,29,0.5501165986061096,3.9715561866760254,29.353311931436902,28.81392383632088,116.77185926257587,105.42614890914324,3.237724376958795e-05,0.0917440429329872,0,0,0
9836,333592.2632621975,2010-10-12 11:09:43,3271.6047319345907,2,29,0.5501165986061096,3.973336935043335,29.357898413118765,28.81392383632088,116.79007880751831,105.42614890914324,6.47544875391759e-05,0.0917440429329872,0,0,0
9837,333622.2784009537,2010-10-12 11:10:13,3301.6198706807736,2,29,0.5499359965324402,3.9749557971954346,29.362484842712657,28.81392383632088,116.80830622843638,105.42614890914324,3.237724376958795e-05,0.0917440429329872,0,0,0
9838,333652.2935677799,2010-10-12 11:10:43,3331.635037476866,2,29,0.5499359965324402,3.976898431777954,29.36707135022177,28.81392383632088,116.82654208459776,105.42614890914324,6.47544875391759e-05,0.0917440429329872,0,0,0
9839,333682.30883183336,2010-10-12 11:11:13,3361.6503015504027,2,29,0.5499359965324402,3.978679180145264,29.37165790409417,28.81392383632088,116.84478586441868,105.42614890914324,0.0001295089750783,0.0917440429329872,0,0,0
9840,333712.32388772804,2010-10-12 11:11:43,3391.665357455119,2,29,0.5501165986061096,3.980459928512573,29.37624425967921,28.81392383632088,116.86303759398226,105.42614890914324,3.237724376958795e-05,0.0917440429329872,0,0,0
9841,333742.3390086097,2010-10-12 11:12:13,3421.680478316728,2,29,0.5499359965324402,3.982240676879883,29.38083066077546,28.81392383632088,116.8812978142666,105.42614890914324,6.47544875391759e-05,0.0917440429329872,0,0,0
9842,333772.3542036462,2010-10-12 11:12:43,3451.6956733832785,2,29,0.5501165986061096,3.984021425247192,29.38541703568241,28.81392383632088,116.89956624008474,105.42614890914324,3.237724376958795e-05,0.0917440429329872,0,0,0
9843,333802.36930835753,2010-10-12 11:13:13,3481.7107780896235,2,29,0.5499359965324402,3.985964059829712,29.39000339692444,28.81392383632088,116.91784310321984,105.42614890914324,3.237724376958795e-05,0.0917440429329872,0,0,0
9844,333832.3846575483,2010-10-12 11:13:43,3511.726127285311,2,29,0.5501165986061096,3.987906694412232,29.39458988238992,28.81392383632088,116.936129156853,105.42614890914324,3.237724376958795e-05,0.0917440429329872,0,0,0
9845,333862.3996563957,2010-10-12 11:14:13,3541.741126102748,2,29,0.5499359965324402,3.989849328994751,29.399176239875388,28.81392383632088,116.95442334206604,105.42614890914324,6.47544875391759e-05,0.0917440429329872,0,0,0
9846,333892.4148927552,2010-10-12 11:14:43,3571.756362497301,2,29,0.5501165986061096,3.991630077362061,29.4037626549088,28.81392383632088,116.97272669176093,105.42614890914324,3.237724376958795e-05,0.0917440429329872,0,0,0
9847,333922.4299371061,2010-10-12 11:15:13,3601.771406828172,2,29,0.5501165986061096,3.99357271194458,29.40834900526161,28.81392383632088,116.99103870197088,105.42614890914324,0.0,0.0917440429329872,0,0,0
9848,333952.4450886041,2010-10-12 11:15:43,3631.786558331148,2,29,0.5501165986061096,3.9956769943237305,29.412935432565003,28.81392383632088,117.00936017931096,105.42614890914324,3.237724376958795e-05,0.0917440429329872,0,0,0
9849,333982.4602235909,2010-10-12 11:16:13,3661.8016932878863,2,29,0.5501165986061096,3.99778151512146,29.41752184081649,28.81392383632088,117.02769081548864,105.42614890914324,6.47544875391759e-05,0.0917440429329872,0,0,0
9850,334012.47550405026,2010-10-12 11:16:43,3691.816973797387,2,29,0.5501165986061096,3.99972414970398,29.42210820581956,28.81392383632088,117.0460304246402,105.42614890914324,3.237724376958795e-05,0.0917440429329872,0,0,0
9851,334042.49052860687,2010-10-12 11:17:13,3721.8319983088622,2,29,0.5501165986061096,4.001828670501709,29.4266945030046,28.81392383632088,117.06437919276708,105.42614890914324,6.47544875391759e-05,0.0917440429329872,0,0,0
9852,334072.5058236676,2010-10-12 11:17:43,3751.8472933946914,2,29,0.5501165986061096,4.003933429718018,29.43128088225287,28.81392383632088,117.082737878591,105.42614890914324,6.47544875391759e-05,0.0917440429329872,0,0,0
9853,334102.52084642975,2010-10-12 11:18:13,3781.862316156806,2,29,0.5499359965324402,4.005876064300537,29.43586718598643,28.81392383632088,117.10110599741974,105.42614890914324,6.47544875391759e-05,0.0917440429329872,0,0,0
9854,334132.53616121464,2010-10-12 11:18:43,3811.877630981832,2,29,0.5501165986061096,4.008304119110107,29.440453612060328,28.81392383632088,117.11948443602168,105.42614890914324,6.47544875391759e-05,0.0917440429329872,0,0,0
9855,334162.55115201214,2010-10-12 11:19:13,3841.8926218394304,2,29,0.5499359965324402,4.010246753692627,29.445039946872,28.81392383632088,117.13787226525436,105.42614890914324,3.23295607813634e-05,0.0917440429329872,0,0,0
9856,334192.5663094649,2010-10-12 11:19:43,3871.907779171936,2,29,0.5501165986061096,4.012675285339356,29.449626328772407,28.81392383632088,117.15627020197851,105.42614890914324,9.71794142969884e-05,0.0917440429329872,0,0,0
9857,334222.5814504016,2010-10-12 11:20:13,3901.9229201336407,2,29,0.5501165986061096,4.014617919921875,29.454212681528176,28.81392383632088,117.17467792052588,105.42614890914324,6.47544875391759e-05,0.0917440429329872,0,0,0
9858,334252.5966069672,2010-10-12 11:20:43,3931.93807666916,2,29,0.5499359965324402,4.016884326934815,29.45879904639605,28.81392383632088,117.1930956651974,105.42614890914324,6.47544875391759e-05,0.0917440429329872,0,0,0
9859,334282.61174267577,2010-10-12 11:21:13,3961.953212377772,2,29,0.5499359965324402,4.018826961517334,29.46338550966778,28.81392383632088,117.21152394291526,105.42614890914324,0.0,0.0917440429329872,0,0,0
9860,334312.62690062984,2010-10-12 11:21:43,3991.968370346865,2,29,0.5501165986061096,4.021417140960693,29.46797188703623,28.81392383632088,117.22996190043784,105.42614890914324,9.71794142969884e-05,0.0917440429329872,0,0,0
9861,334342.64206680434,2010-10-12 11:22:13,4021.983536501358,2,29,0.5501165986061096,4.023521423339844,29.472558228844832,28.81392383632088,117.24841008926413,105.42614890914324,3.23295607813634e-05,0.0917440429329872,0,0,0
9862,334372.6574638944,2010-10-12 11:22:43,4051.998933646551,2,29,0.5499359965324402,4.025787830352783,29.47714467124921,28.81392383632088,117.2668688922253,105.42614890914324,6.47544875391759e-05,0.0917440429329872,0,0,0
9863,334402.6726406353,2010-10-12 11:23:13,4082.014110377402,2,29,0.5501165986061096,4.028054237365723,29.4817310793786,28.81392383632088,117.28533786161906,105.42614890914324,3.23295607813634e-05,0.0917440429329872,0,0,0
9864,334432.6875622954,2010-10-12 11:23:43,4112.02903203754,2,29,0.5501165986061096,4.030482769012451,29.48631745225121,28.81392383632088,117.30381705208003,105.42614890914324,9.71794142969884e-05,0.0917440429329872,0,0,0
9865,334462.7026888212,2010-10-12 11:24:13,4142.044158523166,2,29,0.5501165986061096,4.032749176025391,29.490903837431965,28.81392383632088,117.32230678568858,105.42614890914324,9.71794142969884e-05,0.0917440429329872,0,0,0
9866,334492.717839878,2010-10-12 11:24:43,4172.059309585043,2,29,0.5501165986061096,4.034853458404541,29.495490314535225,28.81392383632088,117.34080757923574,105.42614890914324,6.47544875391759e-05,0.0917440429329872,0,0,0
9867,334522.73299286474,2010-10-12 11:25:13,4202.07446259678,2,29,0.5501165986061096,4.037281513214111,29.500076696429907,28.81392383632088,117.35931863328652,105.42614890914324,6.47544875391759e-05,0.0917440429329872,0,0,0
9868,334552.748219916,2010-10-12 11:25:43,4232.089689627996,2,29,0.550297200679779,4.03971004486084,29.504663164051152,28.81392383632088,117.37784090449334,105.42614890914324,6.47544875391759e-05,0.0917440429329872,0,0,0
9869,334582.763304412,2010-10-12 11:26:13,4262.104774144021,2,29,0.5501165986061096,4.04181432723999,29.50924953795945,28.81392383632088,117.39637355596332,105.42614890914324,0.0,0.0917440429329872,0,0,0
9870,334612.7784642708,2010-10-12 11:26:43,4292.119933982773,2,29,0.5501165986061096,4.044566631317139,29.513835964448617,28.81392383632088,117.41491750030352,105.42614890914324,9.71794142969884e-05,0.0917440429329872,0,0,0
9871,334642.7936287962,2010-10-12 11:27:13,4322.135098528255,2,29,0.5499359965324402,4.046994686126709,29.518422390517507,28.81392383632088,117.43347259853324,105.42614890914324,6.47544875391759e-05,0.0917440429329872,0,0,0
9872,334672.8087924194,2010-10-12 11:27:43,4352.150262126377,2,29,0.5501165986061096,4.049261093139648,29.523008847429395,28.81392383632088,117.45203911576648,105.42614890914324,0.0,0.0917440429329872,0,0,0
9873,334702.8240571445,2010-10-12 11:28:13,4382.165526851538,2,29,0.5501165986061096,4.051689624786377,29.527595298768176,28.81392383632088,117.47061694316196,105.42614890914324,3.24249267578125e-05,0.0917440429329872,0,0,0
9874,334732.8390901973,2010-10-12 11:28:43,4412.180559929362,2,29,0.5501165986061096,4.054441452026367,29.532181699188552,28.81392383632088,117.4892060709761,105.42614890914324,6.47544875391759e-05,0.0917440429329872,0,0,0
9875,334762.8542763416,2010-10-12 11:29:13,4442.19574606365,2,29,0.5499359965324402,4.056869983673096,29.53676808999008,28.81392383632088,117.5078068206912,105.42614890914324,6.47544875391759e-05,0.0917440429329872,0,0,0
9876,334792.8694158547,2010-10-12 11:29:43,4472.210885561707,2,29,0.5501165986061096,4.059460163116455,29.541354580158696,28.81392383632088,117.5264196414742,105.42614890914324,6.47544875391759e-05,0.0917440429329872,0,0,0
9877,334822.8845772122,2010-10-12 11:30:13,4502.226046944307,2,29,0.5501165986061096,4.061888217926025,29.545941089322422,28.81392383632088,117.54504404259995,105.42614890914324,9.70840483205393e-05,0.0917440429329872,0,0,0
9878,334852.89986369165,2010-10-12 11:30:43,4532.241333398624,2,29,0.5499359965324402,4.064640522003174,29.550527517925545,28.81392383632088,117.56368002154184,105.42614890914324,9.71794142969884e-05,0.0917440429329872,0,0,0
9879,334882.91488009284,2010-10-12 11:31:13,4562.256349824948,2,29,0.5501165986061096,4.067230701446533,29.555113901450145,28.81392383632088,117.58232797736775,105.42614890914324,6.47544875391759e-05,0.0917440429329872,0,0,0
9880,334912.93006809684,2010-10-12 11:31:43,4592.271537838922,2,29,0.5501165986061096,4.069982528686523,29.559700353691515,28.81392383632088,117.60098850786184,105.42614890914324,9.70840483205393e-05,0.0917440429329872,0,0,0
9881,334942.9452042415,2010-10-12 11:32:13,4622.286673938508,2,29,0.5499359965324402,4.072572708129883,29.56428673889813,28.81392383632088,117.6196610813661,105.42614890914324,6.47544875391759e-05,0.0917440429329872,0,0,0
9882,334972.96036997496,2010-10-12 11:32:43,4652.301839702027,2,29,0.5501165986061096,4.075325012207031,29.56887307400804,28.81392383632088,117.6383458175265,105.42614890914324,6.47544875391759e-05,0.0917440429329872,0,0,0
9883,335002.9755244704,2010-10-12 11:33:13,4682.316994172399,2,29,0.5501165986061096,4.0780768394470215,29.573459519413092,28.81392383632088,117.65704353402236,105.42614890914324,6.47544875391759e-05,0.0917440429329872,0,0,0
9884,335032.9906916675,2010-10-12 11:33:43,4712.332161374503,2,29,0.5501165986061096,4.080990791320801,29.578045940267813,28.81392383632088,117.67575394197638,105.42614890914324,3.23295607813634e-05,0.0917440429329872,0,0,0
9885,335063.005931235,2010-10-12 11:34:13,4742.347400941963,2,29,0.5499359965324402,4.083743095397949,29.582632371345724,28.81392383632088,117.69447713420988,105.42614890914324,9.71794142969884e-05,0.0917440429329872,0,0,0
9886,335093.0210906326,2010-10-12 11:34:43,4772.362560339616,2,29,0.550297200679779,4.08649492263794,29.587218727155964,28.81392383632088,117.71321303673604,105.42614890914324,3.23295607813634e-05,0.0917440429329872,0,0,0
9887,335123.03614422155,2010-10-12 11:35:13,4802.3776140137725,2,29,0.5501165986061096,4.089408874511719,29.59180504032583,28.81392383632088,117.73196180917196,105.42614890914324,9.70840483205393e-05,0.0917440429329872,0,0,0
9888,335153.0513807765,2010-10-12 11:35:43,4832.3928505988,2,29,0.5499359965324402,4.092161178588867,29.596391511898403,28.81392383632088,117.75072443160596,105.42614890914324,6.47544875391759e-05,0.0917440429329872,0,0,0
9889,335183.06647323235,2010-10-12 11:36:13,4862.407942984439,2,29,0.5501165986061096,4.095236778259277,29.60097789532556,28.81392383632088,117.76949994947402,105.42614890914324,6.47544875391759e-05,0.0917440429329872,0,0,0
9890,335213.0816024748,2010-10-12 11:36:43,4892.423072181823,2,29,0.5501165986061096,4.098150730133057,29.605564403434915,28.81392383632088,117.78828940506826,105.42614890914324,9.70840483205393e-05,0.0917440429329872,0,0,0
9891,335243.0967653261,2010-10-12 11:37:14,4922.43823502807,2,29,0.550297200679779,4.101226806640625,29.61015092079056,28.81392383632088,117.80709249916076,105.42614890914324,9.71794142969884e-05,0.0917440429329872,0,0,0
9892,335273.11450288433,2010-10-12 11:37:44,4952.455972736667,2,29,0.5501165986061096,4.104140758514404,29.61473778129299,28.81392383632088,117.82591058012518,105.42614890914324,9.71794142969884e-05,0.0917440429329872,0,0,0
9893,335303.1272215088,2010-10-12 11:38:14,4982.4686912158,2,29,0.5501165986061096,4.107054710388184,29.619323857306515,28.81392383632088,117.84473925047376,105.42614890914324,6.47544875391759e-05,0.0917440429329872,0,0,0
9894,335333.1424401391,2010-10-12 11:38:44,5012.483909901216,2,29,0.5501165986061096,4.110130310058594,29.62391028794098,28.81392383632088,117.8635831905258,105.42614890914324,6.47544875391759e-05,0.0917440429329872,0,0,0
9895,335363.15753221395,2010-10-12 11:39:14,5042.499001925954,2,29,0.5499359965324402,4.113206386566162,29.62849673219869,28.81392383632088,117.88244112848682,105.42614890914324,9.71794142969884e-05,0.0917440429329872,0,0,0
9896,335393.1726177676,2010-10-12 11:39:44,5072.514087474552,2,29,0.5501165986061096,4.116281986236572,29.63308319944262,28.81392383632088,117.9013132690577,105.42614890914324,0.0001295089750783,0.0917440429329872,0,0,0
9897,335423.187740554,2010-10-12 11:40:14,5102.529210255946,2,29,0.5499359965324402,4.119357585906982,29.637669601811844,28.81392383632088,117.92019931854512,105.42614890914324,6.47544875391759e-05,0.0917440429329872,0,0,0
9898,335453.20301455725,2010-10-12 11:40:44,5132.544484264244,2,29,0.5501165986061096,4.122595310211182,29.64225607599242,28.81392383632088,117.9391000491573,105.42614890914324,9.70840483205393e-05,0.0917440429329872,0,0,0
9899,335483.21803843713,2010-10-12 11:41:14,5162.559508134119,2,29,0.550297200679779,4.125833034515381,29.64684255556267,28.81392383632088,117.95801525490356,105.42614890914324,9.70840483205393e-05,0.0917440429329872,0,0,0
9900,335513.23321916297,2010-10-12 11:41:44,5192.574688869953,2,29,0.550297200679779,4.128909111022949,29.6514290200752,28.81392383632088,117.97694511373815,105.42614890914324,6.47544875391759e-05,0.0917440429329872,0,0,0
9901,335543.2483601046,2010-10-12 11:42:14,5222.589829806595,2,29,0.5501165986061096,4.132308483123779,29.656015519715023,28.81392383632088,117.99588990851632,105.42614890914324,9.70840483205393e-05,0.0917440429329872,0,0,0
9902,335573.26351750223,2010-10-12 11:42:44,5252.604987209275,2,29,0.5501165986061096,4.1355462074279785,29.66060202373261,28.81392383632088,118.0148496803521,105.42614890914324,9.70840483205393e-05,0.0917440429329872,0,0,0
9903,335603.2786989348,2010-10-12 11:43:14,5282.620168696983,2,29,0.5499359965324402,4.138783931732178,29.665188509730555,28.81392383632088,118.0338244409064,105.42614890914324,9.70840483205393e-05,0.0917440429329872,0,0,0
9904,335633.29385629745,2010-10-12 11:43:44,5312.635326004426,2,29,0.5501165986061096,4.142183780670166,29.669775016707497,28.81392383632088,118.0528144597592,105.42614890914324,9.71794142969884e-05,0.0917440429329872,0,0,0
9905,335663.3090118656,2010-10-12 11:44:14,5342.650481602609,2,29,0.5499359965324402,4.145421504974365,29.67436154136885,28.81392383632088,118.07181995486772,105.42614890914324,6.47544875391759e-05,0.0917440429329872,0,0,0
9906,335693.3242209169,2010-10-12 11:44:44,5372.66569062394,2,29,0.5501165986061096,4.148820877075195,29.678948020395797,28.81392383632088,118.09084097379048,105.42614890914324,9.70840483205393e-05,0.0917440429329872,0,0,0
9907,335723.3393012576,2010-10-12 11:45:14,5402.68077098962,2,29,0.550297200679779,4.152220726013184,29.68353451715681,28.81392383632088,118.10987759680002,105.42614890914324,9.71794142969884e-05,0.0917440429329872,0,0,0
9908,335753.35467091925,2010-10-12 11:45:44,5432.6961406262535,2,29,0.5501165986061096,4.155620098114014,29.68812101149394,28.81392383632088,118.12892988620342,105.42614890914324,6.47544875391759e-05,0.0917440429329872,0,0,0
9909,335783.3697945026,2010-10-12 11:46:14,5462.711264219671,2,29,0.5501165986061096,4.159181594848633,29.692707410186184,28.81392383632088,118.14799754475176,105.42614890914324,9.70840483205393e-05,0.0917440429329872,0,0,0
9910,335813.38485388603,2010-10-12 11:46:44,5492.726323618094,2,29,0.5499359965324402,4.162581443786621,29.697293817806077,28.81392383632088,118.167081092422,105.42614890914324,6.47544875391759e-05,0.0917440429329872,0,0,0
9911,335843.4001413579,2010-10-12 11:47:14,5522.741611099972,2,29,0.550297200679779,4.16614294052124,29.70188024441606,28.81392383632088,118.18618065153132,105.42614890914324,0.0001295089750783,0.0917440429329872,0,0,0
9912,335873.41516206984,2010-10-12 11:47:44,5552.756631801953,2,29,0.5501165986061096,4.169704437255859,29.70646665884065,28.81392383632088,118.20529622230072,105.42614890914324,9.71794142969884e-05,0.0917440429329872,0,0,0
9913,335903.4303024301,2010-10-12 11:48:14,5582.771772162158,2,29,0.5501165986061096,4.173265933990479,29.711053036595075,28.81392383632088,118.22442795440632,105.42614890914324,0.0001295089750783,0.0917440429329872,0,0,0
9914,335933.445465156,2010-10-12 11:48:44,5612.786934893118,2,29,0.5499359965324402,4.176665306091309,29.715639464593004,28.81392383632088,118.24357631136904,105.42614890914324,9.70840483205393e-05,0.0917440429329872,0,0,0
9915,335963.4606339672,2010-10-12 11:49:14,5642.802103669144,2,29,0.5501165986061096,4.180388927459717,29.72022591772601,28.81392383632088,118.26274124826767,105.42614890914324,9.71794142969884e-05,0.0917440429329872,0,0,0
9916,335993.475807104,2010-10-12 11:49:44,5672.817276811052,2,29,0.5501165986061096,4.183950424194336,29.724812371409225,28.81392383632088,118.28192275108916,105.42614890914324,6.47544875391759e-05,0.0917440429329872,0,0,0
9917,336023.4909800104,2010-10-12 11:50:14,5702.832449762485,2,29,0.5501165986061096,4.187673568725586,29.72939874711405,28.81392383632088,118.30112050230366,105.42614890914324,9.70840483205393e-05,0.0917440429329872,0,0,0
9918,336053.5062461641,2010-10-12 11:50:44,5732.847715866082,2,29,0.5501165986061096,4.191397190093994,29.733985139860064,28.81392383632088,118.32033511999146,105.42614890914324,9.71794142969884e-05,0.0917440429329872,0,0,0
9919,336083.5212662094,2010-10-12 11:51:14,5762.86273592145,2,29,0.550297200679779,4.194958209991455,29.73857156351525,28.81392383632088,118.33956675559833,105.42614890914324,9.70840483205393e-05,0.0917440429329872,0,0,0
9920,336113.5364453112,2010-10-12 11:51:44,5792.877915018199,2,29,0.550297200679779,4.198681831359863,29.74315793889055,28.81392383632088,118.35881508668795,105.42614890914324,9.71794142969884e-05,0.0917440429329872,0,0,0
9921,336122.7706603514,2010-10-12 11:51:53,5802.112130083439,2,29,0.5501165986061096,4.200138568878174,29.744568946719955,28.81392383632088,118.36474034967954,105.42614890914324,0.0001295089750783,0.0917440429329872,0,0,0
9922,336152.787515058,2010-10-12 11:52:23,30.01527272509948,3,29,0.0,4.115148544311523,29.744568946719955,28.81392383632088,118.36474034967954,105.42614890914324,-0.0003561973571777,0.0917440429329872,0,0,0
9923,336182.8025321409,2010-10-12 11:52:53,60.03028975292267,3,29,0.0,4.104464530944824,29.744568946719955,28.81392383632088,118.36474034967954,105.42614890914324,-0.0001942634553415,0.0917440429329872,0,0,0
9924,336212.8177152477,2010-10-12 11:53:23,90.04547289475308,3,29,0.0,4.097989082336426,29.744568946719955,28.81392383632088,118.36474034967954,105.42614890914324,-9.70840483205393e-05,0.0917440429329872,0,0,0
9925,336242.78622913035,2010-10-12 11:53:53,120.01398677742992,3,29,0.0,4.093780040740967,29.744568946719955,28.81392383632088,118.36474034967954,105.42614890914324,-9.70840483205393e-05,0.0917440429329872,0,0,0
9926,336242.78954491083,2010-10-12 11:53:53,0.015747758259046,4,29,0.9969439506530762,4.199653148651123,29.74457330772879,28.81392383632088,118.36475866440404,105.42614890914324,0.0,0.0917440429329872,0,0,0
9927,336243.77377801255,2010-10-12 11:53:54,0.99998085497702,4,29,0.9463733434677124,4.199653148651123,29.744837378736964,28.81392383632088,118.3658676966988,105.42614890914324,0.0,0.0917440429329872,0,0,0
9928,336245.9457773081,2010-10-12 11:53:57,3.171980155541503,4,29,0.8963446021080017,4.199814796447754,29.745392200817363,28.81392383632088,118.36819780635764,105.42614890914324,3.23295607813634e-05,0.0917440429329872,0,0,0
9929,336249.2112051541,2010-10-12 11:54:00,6.437408001480613,4,29,0.8463158011436462,4.199491024017334,29.746181455689463,28.81392383632088,118.3715124829568,105.42614890914324,-3.24249267578125e-05,0.0917440429329872,0,0,0
9930,336253.6331237257,2010-10-12 11:54:04,10.859326698463864,4,29,0.7961064577102661,4.199814796447754,29.747188966594468,28.81392383632088,118.37574378688052,105.42614890914324,0.0,0.0917440429329872,0,0,0
9931,336259.3829578215,2010-10-12 11:54:10,16.609160698972826,4,29,0.7458970546722412,4.199491024017334,29.74841911995217,28.81392383632088,118.38091015623456,105.42614890914324,-9.71794142969884e-05,0.0917440429329872,0,0,0
9932,336266.8828382762,2010-10-12 11:54:18,24.109041123646627,4,29,0.6955071091651917,4.199653148651123,29.74991860010916,28.81392383632088,118.38720764285291,105.42614890914324,0.0,0.0917440429329872,0,0,0
9933,336276.6951654848,2010-10-12 11:54:27,33.92136833222801,4,29,0.6454783082008362,4.199814796447754,29.751742903702368,28.81392383632088,118.39486928769875,105.42614890914324,0.0,0.0917440429329872,0,0,0
9934,336290.3043241607,2010-10-12 11:54:41,47.53052702311916,4,29,0.5954495668411255,4.199814796447754,29.75408314929533,28.81392383632088,118.40469782275066,105.42614890914324,0.0,0.0917440429329872,0,0,0
9935,336310.7885175986,2010-10-12 11:55:01,68.01472047603256,4,29,0.54542076587677,4.199653148651123,29.757318350226058,28.81392383632088,118.41828496374391,105.42614890914324,0.0,0.0917440429329872,0,0,0
9936,336345.33473469614,2010-10-12 11:55:36,102.56093757364508,4,29,0.4953919947147369,4.199653148651123,29.762289866812957,28.81392383632088,118.43916422612467,105.42614890914324,-3.23295607813634e-05,0.0917440429329872,0,0,0
9937,336407.89625999186,2010-10-12 11:56:39,165.1224628342947,4,29,0.4451826214790344,4.199653148651123,29.77042975369995,28.81392383632088,118.47334993686889,105.42614890914324,-3.23295607813634e-05,0.0917440429329872,0,0,0
9938,336507.16032366134,2010-10-12 11:58:18,264.3865265037478,4,29,0.3951538503170013,4.199814796447754,29.78199130570881,28.81392383632088,118.52190590162314,105.42614890914324,0.0,0.0917440429329872,0,0,0
9939,336630.6273013997,2010-10-12 12:00:21,387.8535042421111,4,29,0.3451250791549682,4.199491024017334,29.794676236171384,28.81392383632088,118.5751798618455,105.42614890914324,-6.47544875391759e-05,0.0917440429329872,0,0,0
9940,336780.60930897086,2010-10-12 12:02:51,537.835511838351,4,29,0.2950963079929352,4.199653148651123,29.807999023355023,28.81392383632088,118.63113266173625,105.42614890914324,-6.47544875391759e-05,0.0917440429329872,0,0,0
9941,336960.637546858,2010-10-12 12:05:51,717.863749820707,4,29,0.2450675517320633,4.199976921081543,29.821480088753223,28.81392383632088,118.68775044590588,105.42614890914324,3.24249267578125e-05,0.0917440429329872,0,0,0
9942,337182.024862578,2010-10-12 12:09:33,939.2510654404052,4,29,0.1950387805700302,4.199653148651123,29.834967277823136,28.81392383632088,118.74439363077212,105.42614890914324,-3.23295607813634e-05,0.0917440429329872,0,0,0
9943,337474.3171372726,2010-10-12 12:14:25,1231.5433401149787,4,29,0.1450100094079971,4.199491024017334,29.84870012833808,28.81392383632088,118.8020683715456,105.42614890914324,-3.24249267578125e-05,0.0917440429329872,0,0,0
9944,337907.6853815765,2010-10-12 12:21:38,1664.9115844288842,4,29,0.094800628721714,4.199653148651123,29.86295969294425,28.81392383632088,118.8619552152654,105.42614890914324,0.0,0.0917440429329872,0,0,0
9945,338616.9399260685,2010-10-12 12:33:28,2374.166128930951,4,29,0.0496483072638511,4.199653148651123,29.876759795608216,28.81392383632088,118.9199125963002,105.42614890914324,0.0,0.0917440429329872,0,0,0
9946,338646.9486434916,2010-10-12 12:33:58,30.015152420262808,5,29,0.0,4.191882610321045,29.876759795608216,28.81392383632088,118.9199125963002,105.42614890914324,-3.24249267578125e-05,0.0917440429329872,0,0,0
9947,338676.94817608246,2010-10-12 12:34:28,60.01468500107961,5,29,0.0,4.190587520599365,29.876759795608216,28.81392383632088,118.9199125963002,105.42614890914324,-3.24249267578125e-05,0.0917440429329872,0,0,0
9948,338677.13015163766,2010-10-12 12:34:28,0.187471356303402,6,29,-1.9243103452026844e-05,4.190749645233154,29.876759795608216,28.81392383732297,118.9199125963002,105.42614891334274,0.0,0.0955438911914825,0,0,0
9949,338681.95804988564,2010-10-12 12:34:33,5.015369609256917,6,29,0.0008838032954372,4.190587520599365,29.87676077343039,28.81392383748934,118.91991669409931,105.42614891403996,-6.47544875391759e-05,0.0955438911914825,0,0,0
9950,338711.98339834914,2010-10-12 12:35:03,30.01514142786637,7,29,-1.099568486213684,4.014779567718506,29.87676077343039,28.82309143502599,118.91991669409931,105.46315233783535,-0.0009065627818927,0.0955438911914825,0,0,0
9951,338741.9988506318,2010-10-12 12:35:33,60.03059374055338,7,29,-1.099568486213684,3.9880685806274414,29.87676077343039,28.83225906570925,118.91991669409931,105.49982801614,-0.0006151676061563,0.0955438911914825,0,0,0
9952,338772.01399033034,2010-10-12 12:36:03,90.04573351429717,7,29,-1.099568486213684,3.969775438308716,29.87676077343039,28.84142655669256,118.91991669409931,105.53630115778464,-0.0004209041653666,0.0955438911914825,0,0,0
9953,338802.0288855245,2010-10-12 12:36:33,120.0606285831611,7,29,-1.099568486213684,3.955691337585449,29.87676077343039,28.85059392069415,118.91991669409931,105.57262668877785,-0.0003237724304199,0.0955438911914825,0,0,0
9954,338832.0440707515,2010-10-12 12:37:03,150.0758138603134,7,29,-1.099568486213684,3.943873643875122,29.87676077343039,28.859761390372928,118.91991669409931,105.60883492881452,-0.0002913951757363,0.0955438911914825,0,0,0
9955,338862.0591804804,2010-10-12 12:37:33,180.09092354907617,7,29,-1.099568486213684,3.9331891536712646,29.87676077343039,28.868928839692625,118.91991669409931,105.64494133565375,-0.0003237724304199,0.0955438911914825,0,0,0
9956,338892.07433914626,2010-10-12 12:38:03,210.1060822299423,7,29,-1.0993878841400146,3.923799753189087,29.87676077343039,28.87809627079274,118.91991669409931,105.68095542083172,-0.0001942634553415,0.0955438911914825,0,0,0
9957,338922.0895193708,2010-10-12 12:38:33,240.1212624695395,7,29,-1.0993878841400146,3.914572238922119,29.87676077343039,28.88726367767188,118.91991669409931,105.71688339617567,-0.0002266406954731,0.0955438911914825,0,0,0
9958,338952.10474951484,2010-10-12 12:39:03,270.1364925984762,7,29,-1.099568486213684,3.905506849288941,29.87676077343039,28.89643109929466,118.91991669409931,105.75272915718604,-0.0002913951757363,0.0955438911914825,0,0,0
9959,338982.1197810588,2010-10-12 12:39:33,300.1515241224282,7,29,-1.0993878841400146,3.897250652313232,29.87676077343039,28.90559849390061,118.91991669409931,105.788495508574,-0.0002266406954731,0.0955438911914825,0,0,0
9960,339012.13492873724,2010-10-12 12:40:03,330.16667181591043,7,29,-1.099568486213684,3.888994455337525,29.87676077343039,28.91476586674856,118.91991669409931,105.82418488435523,-0.0002266406954731,0.0955438911914825,0,0,0
9961,339042.1501197136,2010-10-12 12:40:33,360.1818628223418,7,29,-1.0993878841400146,3.8809001445770255,29.87676077343039,28.92393329306407,118.91991669409931,105.85979874366905,-0.0001942634553415,0.0955438911914825,0,0,0
9962,339072.1652458484,2010-10-12 12:41:03,390.196988957093,7,29,-1.0993878841400146,3.872805833816528,29.87676077343039,28.933100683322472,118.91991669409931,105.8953381780475,-0.0001942634553415,0.0955438911914825,0,0,0
9963,339102.18040472973,2010-10-12 12:41:33,420.212147788334,7,29,-1.0993878841400146,3.86503529548645,29.87676077343039,28.942268091379965,118.91991669409931,105.93080481054749,-0.0001942634553415,0.0955438911914825,0,0,0
9964,339132.19556908973,2010-10-12 12:42:03,450.2273121533669,7,29,-1.099568486213684,3.857102870941162,29.87676077343039,28.951435462037985,118.91991669409931,105.96619983089406,-0.0002266406954731,0.0955438911914825,0,0,0
9965,339162.2107532541,2010-10-12 12:42:33,480.2424963227583,7,29,-1.0993878841400146,3.849656105041504,29.87676077343039,28.960602823041725,118.91991669409931,106.00152415608932,-0.0001618862152099,0.0955438911914825,0,0,0
9966,339192.2258812435,2010-10-12 12:43:03,510.25762433218176,7,29,-1.0993878841400146,3.842047452926636,29.87676077343039,28.96977018373936,118.91991669409931,106.03677901915869,-0.0001942634553415,0.0955438911914825,0,0,0
9967,339222.2411735925,2010-10-12 12:43:33,540.2729167814399,7,29,-1.099568486213684,3.834438800811768,29.87676077343039,28.97893760366686,118.91991669409931,106.07196626759388,-0.0001942634553415,0.0955438911914825,0,0,0
9968,339252.2562048057,2010-10-12 12:44:03,570.287947889355,7,29,-1.0993878841400146,3.827316045761109,29.87676077343039,28.988104970277423,118.91991669409931,106.10708570021866,-0.0001942634553415,0.0955438911914825,0,0,0
9969,339282.2713545643,2010-10-12 12:44:33,600.3030976479841,7,29,-1.099568486213684,3.82003116607666,29.87676077343039,28.997272360129163,118.91991669409931,106.14213868257738,-0.0001942634553415,0.0955438911914825,0,0,0
9970,339312.28650464374,2010-10-12 12:45:03,630.3182477474629,7,29,-1.0993878841400146,3.813070058822632,29.87676077343039,29.00643974582623,118.91991669409931,106.17712608144645,-0.0001942634553415,0.0955438911914825,0,0,0
9971,339342.30167238216,2010-10-12 12:45:33,660.333415480891,7,29,-1.099568486213684,3.8059470653533936,29.87676077343039,29.01560702363784,118.91991669409931,106.21204795414232,-0.0001942634553415,0.0955438911914825,0,0,0
9972,339372.3168379703,2010-10-12 12:46:03,690.348581028872,7,29,-1.0993878841400146,3.799147844314575,29.87676077343039,29.024774370581788,118.91991669409931,106.2469069989928,-0.0001942634553415,0.0955438911914825,0,0,0
9973,339402.3321008859,2010-10-12 12:46:33,720.3638439595608,7,29,-1.099568486213684,3.792510509490967,29.87676077343039,29.033941739984865,118.91991669409931,106.28170455296876,-0.0001942634553415,0.0955438911914825,0,0,0
9974,339432.34711576835,2010-10-12 12:47:03,750.3788588420372,7,29,-1.099568486213684,3.786035060882568,29.87676077343039,29.043109031005656,118.91991669409931,106.31644118757954,-0.0001618862152099,0.0955438911914825,0,0,0
9975,339462.3624180221,2010-10-12 12:47:33,780.3941610806935,7,29,-1.099568486213684,3.77939772605896,29.87676077343039,29.052276441076017,118.91991669409931,106.35111909204436,-0.0002266406954731,0.0955438911914825,0,0,0
9976,339492.37743082934,2010-10-12 12:48:03,810.4091738829853,7,29,-1.099568486213684,3.773407936096192,29.87676077343039,29.061443804003076,118.91991669409931,106.38573855842104,-0.0001295089750783,0.0955438911914825,0,0,0
9977,339522.392595044,2010-10-12 12:48:33,840.4243381076683,7,29,-1.099568486213684,3.766932487487793,29.87676077343039,29.070611167689837,118.91991669409931,106.42030093860562,-0.0001942634553415,0.0955438911914825,0,0,0
9978,339552.40774254705,2010-10-12 12:49:03,870.4394856006509,7,29,-1.0993878841400146,3.760942697525024,29.87676077343039,29.07977856573834,118.91991669409931,106.4548069324785,-0.0001295089750783,0.0955438911914825,0,0,0
9979,339582.422892847,2010-10-12 12:49:33,900.4546359056416,7,29,-1.099568486213684,3.754952907562256,29.87676077343039,29.08894596471551,118.91991669409931,106.48925712332854,-0.0001295089750783,0.0955438911914825,0,0,0
9980,339612.4380806053,2010-10-12 12:50:04,930.4698236990654,7,29,-1.099568486213684,3.749125242233277,29.87676077343039,29.098113379729543,118.91991669409931,106.52365304349532,-0.0001295089750783,0.0955438911914825,0,0,0
9981,339642.4559329697,2010-10-12 12:50:34,960.487676268932,7,29,-1.099568486213684,3.7432973384857178,29.87676077343039,29.107281606342,118.91991669409931,106.55799896956268,-0.0001618862152099,0.0955438911914825,0,0,0
9982,339672.4683917917,2010-10-12 12:51:04,990.5001348703692,7,29,-1.0993878841400146,3.737631320953369,29.87676077343039,29.11644819177928,118.91991669409931,106.59228644517368,-0.0001618862152099,0.0955438911914825,0,0,0
9983,339702.48387131724,2010-10-12 12:51:34,1020.5156144961288,7,29,-1.0993878841400146,3.73228907585144,29.87676077343039,29.12561568672352,118.91991669409931,106.62652625704416,-9.713172767078504e-05,0.0955438911914825,0,0,0
9984,339732.4986782514,2010-10-12 12:52:04,1050.5304213000093,7,29,-1.099568486213684,3.726946830749512,29.87676077343039,29.1347829328204,118.91991669409931,106.6607154441941,-0.0001295089750783,0.0955438911914825,0,0,0
9985,339762.5138501051,2010-10-12 12:52:34,1080.5455931637312,7,29,-1.099568486213684,3.721604585647583,29.87676077343039,29.14395028450053,118.91991669409931,106.694856381387,-0.0001295089750783,0.0955438911914825,0,0,0
9986,339792.52898856555,2010-10-12 12:53:04,1110.5607316191893,7,29,-1.099568486213684,3.716424226760864,29.87676077343039,29.153117589888662,118.91991669409931,106.7289487675488,-9.713172767078504e-05,0.0955438911914825,0,0,0
9987,339822.5441444796,2010-10-12 12:53:34,1140.575887558222,7,29,-1.099568486213684,3.711081981658936,29.87676077343039,29.16228500934763,118.91991669409931,106.7629936313348,-9.713172767078504e-05,0.0955438911914825,0,0,0
9988,339852.5592935214,2010-10-12 12:54:04,1170.5910366100898,7,29,-1.099568486213684,3.7062253952026367,29.87676077343039,29.17145240110276,118.91991669409931,106.7969914378231,-9.713172767078504e-05,0.0955438911914825,0,0,0
9989,339882.5744846632,2010-10-12 12:54:34,1200.6062277618837,7,29,-1.099568486213684,3.701045036315918,29.87676077343039,29.180619830723256,118.91991669409931,106.83094362127724,-0.0001295089750783,0.0955438911914825,0,0,0
9990,339912.58960937435,2010-10-12 12:55:04,1230.6213524680743,7,29,-1.099568486213684,3.696188449859619,29.87676077343039,29.18978728698886,118.91991669409931,106.86485058060924,-0.0001618862152099,0.0955438911914825,0,0,0
9991,339942.6047714888,2010-10-12 12:55:34,1260.6365145474103,7,29,-1.0997490882873535,3.69133186340332,29.87676077343039,29.19895477037123,118.91991669409931,106.89871280662942,-9.713172767078504e-05,0.0955438911914825,0,0,0
9992,339972.6199195181,2010-10-12 12:56:04,1290.6516625817424,7,29,-1.099568486213684,3.686637163162232,29.87676077343039,29.208122214152645,118.91991669409931,106.932530642123,-0.0001295089750783,0.0955438911914825,0,0,0
9993,340002.6350916074,2010-10-12 12:56:34,1320.666834676039,7,29,-1.0993878841400146,3.6817805767059326,29.87676077343039,29.217289538135766,118.91991669409931,106.96630439485968,-0.0001295089750783,0.0955438911914825,0,0,0
9994,340032.6502154113,2010-10-12 12:57:04,1350.6819584649434,7,29,-1.099568486213684,3.6772477626800537,29.87676077343039,29.22645676067865,118.91991669409931,107.00003474595565,-6.47544875391759e-05,0.0955438911914825,0,0,0
9995,340062.66540429747,2010-10-12 12:57:34,1380.6971473811652,7,29,-1.0993878841400146,3.672553062438965,29.87676077343039,29.235623890716763,118.91991669409931,107.03372274202212,-0.0001295089750783,0.0955438911914825,0,0,0
9996,340092.6805351991,2010-10-12 12:58:04,1410.7122782827971,7,29,-1.0997490882873535,3.667858600616455,29.87676077343039,29.244790956222467,118.91991669409931,107.06736896551928,-0.0001618862152099,0.0955438911914825,0,0,0
9997,340122.69584477606,2010-10-12 12:58:34,1440.7275878497178,7,29,-1.099568486213684,3.663649559020996,29.87676077343039,29.253958014541137,118.91991669409931,107.1009738614112,-9.713172767078504e-05,0.0955438911914825,0,0,0
9998,340152.71086374373,2010-10-12 12:59:04,1470.7426069226378,7,29,-1.099568486213684,3.659116744995117,29.87676077343039,29.26312520762474,118.91991669409931,107.1345383716998,-0.0001295089750783,0.0955438911914825,0,0,0
9999,340182.72599749244,2010-10-12 12:59:34,1500.7577406262533,7,29,-1.099568486213684,3.654745817184448,29.87676077343039,29.27229261090816,118.91991669409931,107.168063300454,-0.0001295089750783,0.0955438911914825,0,0,0
10000,340212.7412763278,2010-10-12 13:00:04,1530.7730193863938,7,29,-1.099568486213684,3.6503748893737793,29.87676077343039,29.281459986092862,118.91991669409931,107.2015487844348,-0.0001295089750783,0.0955438911914825,0,0,0
10001,340242.7563225734,2010-10-12 13:00:34,1560.7880656420616,7,29,-1.0993878841400146,3.64616584777832,29.87676077343039,29.290627342206903,118.91991669409931,107.23499457043134,-0.0001295089750783,0.0955438911914825,0,0,0
10002,340272.7715857397,2010-10-12 13:01:04,1590.8033288534502,7,29,-1.0993878841400146,3.6421186923980713,29.87676077343039,29.29979469823273,118.91991669409931,107.2684017909979,-6.47544875391759e-05,0.0955438911914825,0,0,0
10003,340302.7866477496,2010-10-12 13:01:34,1620.818390808245,7,29,-1.099929690361023,3.6380715370178223,29.87676077343039,29.30896198397486,118.91991669409931,107.3017712246836,-6.47544875391759e-05,0.0955438911914825,0,0,0
10004,340332.8018013128,2010-10-12 13:02:04,1650.8335444014313,7,29,-1.0993878841400146,3.634186267852783,29.87676077343039,29.318129333067205,118.91991669409931,107.33510412838169,-6.47544875391759e-05,0.0955438911914825,0,0,0
10005,340362.8169473672,2010-10-12 13:02:34,1680.848690450816,7,29,-1.0993878841400146,3.630139112472534,29.87676077343039,29.32729667264553,118.91991669409931,107.36840095891948,-0.0001295089750783,0.0955438911914825,0,0,0
10006,340392.8321015167,2010-10-12 13:03:04,1710.863844575326,7,29,-1.0993878841400146,3.626415729522705,29.87676077343039,29.33646405431,118.91991669409931,107.40166226749808,-9.713172767078504e-05,0.0955438911914825,0,0,0
10007,340422.8473751992,2010-10-12 13:03:34,1740.8791182678367,7,29,-1.099568486213684,3.622692346572876,29.87676077343039,29.345631466733582,118.91991669409931,107.43488916389389,-9.713172767078504e-05,0.0955438911914825,0,0,0
10008,340452.8624417555,2010-10-12 13:04:04,1770.8941848391376,7,29,-1.099568486213684,3.618968963623047,29.87676077343039,29.35479887078492,118.91991669409931,107.46808225267765,-9.713172767078504e-05,0.0955438911914825,0,0,0
10009,340482.8775737297,2010-10-12 13:04:34,1800.9093168084305,7,29,-1.099568486213684,3.6152455806732178,29.87676077343039,29.363966266690287,118.91991669409931,107.50124217841542,-0.0001295089750783,0.0955438911914825,0,0,0
10010,340512.8927002304,2010-10-12 13:05:04,1830.9244433090928,7,29,-1.0993878841400146,3.6120078563690186,29.87676077343039,29.3731336107425,118.91991669409931,107.53436971852102,-3.237724376958795e-05,0.0955438911914825,0,0,0
10011,340542.9078701443,2010-10-12 13:05:34,1860.9396132329807,7,29,-1.0993878841400146,3.6082844734191895,29.87676077343039,29.382300232417904,118.91991669409931,107.56746228220946,-9.713172767078504e-05,0.0955438911914825,0,0,0
10012,340572.923137105,2010-10-12 13:06:04,1890.9548802037384,7,29,-1.099568486213684,3.60456109046936,29.87676077343039,29.3914669075458,118.91991669409931,107.60052199635491,-0.0001295089750783,0.0955438911914825,0,0,0
10013,340602.9382121023,2010-10-12 13:06:34,1920.96995516094,7,29,-1.0993878841400146,3.601161479949951,29.87676077343039,29.400634238909173,118.91991669409931,107.63355171085622,-9.713172767078504e-05,0.0955438911914825,0,0,0
10014,340632.9534772686,2010-10-12 13:07:04,1950.9852203673,7,29,-1.099568486213684,3.597761869430542,29.87676077343039,29.40980157939246,118.91991669409931,107.6665493018012,-6.47544875391759e-05,0.0955438911914825,0,0,0
10015,340662.96870474087,2010-10-12 13:07:34,1981.000447799516,7,29,-1.0993878841400146,3.594362258911133,29.87676077343039,29.418968989401897,118.91991669409931,107.69951536904796,-6.47544875391759e-05,0.0955438911914825,0,0,0
10016,340692.9840652648,2010-10-12 13:08:04,2011.015808378574,7,29,-1.099568486213684,3.5911247730255127,29.87676077343039,29.42813642425696,118.91991669409931,107.73245119980474,-6.47544875391759e-05,0.0955438911914825,0,0,0
10017,340722.99884754256,2010-10-12 13:08:34,2041.030590651316,7,29,-1.099568486213684,3.5877251625061035,29.87676077343039,29.43730371229132,118.91991669409931,107.76535742848657,-0.0001295089750783,0.0955438911914825,0,0,0
10018,340753.0141164782,2010-10-12 13:09:04,2071.045859576945,7,29,-1.0993878841400146,3.584973096847534,29.87676077343039,29.446471141980805,118.91991669409931,107.79823535974316,-6.47544875391759e-05,0.0955438911914825,0,0,0
10019,340783.0291263131,2010-10-12 13:09:34,2101.0608693717422,7,29,-1.0997490882873535,3.581411600112915,29.87676077343039,29.455638361024256,118.91991669409931,107.83108339794424,-0.0001618862152099,0.0955438911914825,0,0,0
10020,340813.0443049788,2010-10-12 13:10:04,2131.076048052454,7,29,-1.0997490882873535,3.578497648239136,29.87676077343039,29.464805745672805,118.91991669409931,107.86390310581125,-9.713172767078504e-05,0.0955438911914825,0,0,0
10021,340843.0594685218,2010-10-12 13:10:34,2161.0912117007,7,29,-1.099568486213684,3.5752599239349365,29.87676077343039,29.473973133321227,118.91991669409931,107.89669412046382,-9.713172767078504e-05,0.0955438911914825,0,0,0
10022,340873.074593649,2010-10-12 13:11:04,2191.1063366976155,7,29,-1.099568486213684,3.5720221996307373,29.87676077343039,29.48314052614481,118.91991669409931,107.92945598130716,-9.713172767078504e-05,0.0955438911914825,0,0,0
10023,340903.0897437786,2010-10-12 13:11:34,2221.121486957494,7,29,-1.099568486213684,3.568946361541748,29.87676077343039,29.49230789922224,118.91991669409931,107.96218888389106,-9.713172767078504e-05,0.0955438911914825,0,0,0
10024,340933.104935597,2010-10-12 13:12:04,2251.136678806024,7,29,-1.099929690361023,3.565708637237549,29.87676077343039,29.501475275692787,118.91991669409931,107.99489262631543,-0.0001618862152099,0.0955438911914825,0,0,0
10025,340963.120067817,2010-10-12 13:12:34,2281.151810960779,7,29,-1.099568486213684,3.56263279914856,29.87676077343039,29.510642541338708,118.91991669409931,108.02756725748516,-0.0001295089750783,0.0955438911914825,0,0,0
10026,340993.135195696,2010-10-12 13:13:04,2311.1669387496527,7,29,-1.099568486213684,3.5597188472747803,29.87676077343039,29.51980980863265,118.91991669409931,108.0602140974798,-6.47544875391759e-05,0.0955438911914825,0,0,0
10027,341023.1503522867,2010-10-12 13:13:34,2341.182095345322,7,29,-1.099568486213684,3.556481122970581,29.87676077343039,29.528977102256484,118.91991669409931,108.09283276521784,-9.713172767078504e-05,0.0955438911914825,0,0,0
10028,341053.16550465685,2010-10-12 13:14:04,2371.1972477355102,7,29,-1.099568486213684,3.553405284881592,29.87676077343039,29.53814441365015,118.91991669409931,108.12542308806051,-9.713172767078504e-05,0.0955438911914825,0,0,0
10029,341083.1806669667,2010-10-12 13:14:34,2401.212410030384,7,29,-1.0993878841400146,3.5503294467926025,29.87676077343039,29.54731167196512,118.91991669409931,108.15798467836288,-9.713172767078504e-05,0.0955438911914825,0,0,0
10030,341113.1958320335,2010-10-12 13:15:04,2431.227575112203,7,29,-1.099568486213684,3.5470917224884038,29.87676077343039,29.55647902790225,118.91991669409931,108.19051719785304,-6.47544875391759e-05,0.0955438911914825,0,0,0
10031,341143.2111082573,2010-10-12 13:15:34,2461.2428513460472,7,29,-1.099568486213684,3.543853998184204,29.87676077343039,29.565646424350373,118.91991669409931,108.2230203887904,-9.713172767078504e-05,0.0955438911914825,0,0,0
10032,341173.22613356577,2010-10-12 13:16:04,2491.257876644483,7,29,-1.0992072820663452,3.540778160095215,29.87676077343039,29.57481373709781,118.91991669409931,108.2554934360388,-6.47544875391759e-05,0.0955438911914825,0,0,0
10033,341203.2412766779,2010-10-12 13:16:34,2521.273019766572,7,29,-1.099568486213684,3.537216663360596,29.87676077343039,29.583981111966096,118.91991669409931,108.28793607510036,-9.713172767078504e-05,0.0955438911914825,0,0,0
10034,341233.25640771486,2010-10-12 13:17:04,2551.288150773466,7,29,-1.099568486213684,3.5339789390563965,29.87676077343039,29.593148508513263,118.91991669409931,108.32034786537,-6.47544875391759e-05,0.0955438911914825,0,0,0
10035,341263.2715599045,2010-10-12 13:17:34,2581.3033030834545,7,29,-1.099568486213684,3.5304174423217773,29.87676077343039,29.602315881752578,118.91991669409931,108.35272827406578,-9.713172767078504e-05,0.0955438911914825,0,0,0
10036,341293.28673060035,2010-10-12 13:18:04,2611.318473653953,7,29,-1.0993878841400146,3.527017831802368,29.87676077343039,29.61148323290117,118.91991669409931,108.38507633549727,-3.237724376958795e-05,0.0955438911914825,0,0,0
10037,341323.3019005192,2010-10-12 13:18:34,2641.33364357784,7,29,-1.099568486213684,3.522970676422119,29.87676077343039,29.620650616903458,118.91991669409931,108.41739064704892,-9.713172767078504e-05,0.0955438911914825,0,0,0
10038,341353.317028278,2010-10-12 13:19:04,2671.3487713516765,7,29,-1.099568486213684,3.51924729347229,29.87676077343039,29.629817947987785,118.91991669409931,108.44966933316545,-9.713172767078504e-05,0.0955438911914825,0,0,0
10039,341383.3322956648,2010-10-12 13:19:34,2701.364038863784,7,29,-1.0993878841400146,3.515038251876831,29.87676077343039,29.638985412425235,118.91991669409931,108.48191210733954,-0.0001295089750783,0.0955438911914825,0,0,0
10040,341413.3473130636,2010-10-12 13:20:04,2731.379056147244,7,29,-1.0993878841400146,3.510991334915161,29.87676077343039,29.64815275182037,118.91991669409931,108.5141168587477,-9.713172767078504e-05,0.0955438911914825,0,0,0
10041,341443.3625059497,2010-10-12 13:20:34,2761.394249860421,7,29,-1.099568486213684,3.5064585208892822,29.87676077343039,29.65732017606596,118.91991669409931,108.54628258280398,-0.0001295089750783,0.0955438911914825,0,0,0
10042,341473.3776125357,2010-10-12 13:21:04,2791.40935561939,7,29,-1.0993878841400146,3.5017638206481934,29.87676077343039,29.666487611263385,118.91991669409931,108.57840650865953,-0.0001295089750783,0.0955438911914825,0,0,0
10043,341503.3927669459,2010-10-12 13:21:34,2821.4245100346247,7,29,-1.099568486213684,3.496745347976685,29.87676077343039,29.67565496988568,118.91991669409931,108.6104858226835,-0.0001618862152099,0.0955438911914825,0,0,0
10044,341533.4079181281,2010-10-12 13:22:05,2851.4396612067767,7,29,-1.099568486213684,3.491241216659546,29.87676077343039,29.68482241161051,118.91991669409931,108.64251766150925,-0.0001618862152099,0.0955438911914825,0,0,0
10045,341563.42565454845,2010-10-12 13:22:35,2881.4573977324253,7,29,-1.099568486213684,3.4854133129119877,29.87676077343039,29.69399060559259,118.91991669409931,108.6745003439094,-0.0001618862152099,0.0955438911914825,0,0,0
10046,341593.4382279611,2010-10-12 13:23:05,2911.469971099895,7,29,-1.099568486213684,3.478937864303589,29.87676077343039,29.703157224017502,118.91991669409931,108.70642094280088,-0.0001618862152099,0.0955438911914825,0,0,0
10047,341623.4535648661,2010-10-12 13:23:35,2941.485307949813,7,29,-1.0993878841400146,3.4719767570495605,29.87676077343039,29.712324647589902,118.91991669409931,108.738281320965,-9.713172767078504e-05,0.0955438911914825,0,0,0
10048,341653.4685210523,2010-10-12 13:24:05,2971.500264105925,7,29,-1.099568486213684,3.4637205600738525,29.87676077343039,29.721491897582272,118.91991669409931,108.77007225281363,-0.0002266406954731,0.0955438911914825,0,0,0
10049,341683.48368691606,2010-10-12 13:24:35,3001.5154299747064,7,29,-1.099568486213684,3.4548168182373047,29.87676077343039,29.73065927832588,118.91991669409931,108.80178605993918,-0.0002590179501567,0.0955438911914825,0,0,0
10050,341713.4988859325,2010-10-12 13:25:05,3031.530629101376,7,29,-1.099568486213684,3.4441323280334477,29.87676077343039,29.739826663149064,118.91991669409931,108.83341001829014,-0.0003237724304199,0.0955438911914825,0,0,0
10051,341743.5139747592,2010-10-12 13:25:35,3061.545717847944,7,29,-1.099568486213684,3.4313435554504395,29.87676077343039,29.74899405044569,118.91991669409931,108.86492693616584,-0.0003561019839253,0.0955438911914825,0,0,0
10052,341773.5292712837,2010-10-12 13:26:05,3091.5610144425336,7,29,-1.099568486213684,3.416126251220703,29.87676077343039,29.758161499742204,118.91991669409931,108.89631682104024,-0.0004209041653666,0.0955438911914825,0,0,0
10053,341803.5442922563,2010-10-12 13:26:35,3121.576035314939,7,29,-1.099568486213684,3.3968617916107178,29.87676077343039,29.767328871203997,118.91991669409931,108.92754858621488,-0.0005504131549969,0.0955438911914825,0,0,0
10054,341833.5595560592,2010-10-12 13:27:05,3151.5912991278265,7,29,-1.099568486213684,3.371283769607544,29.87676077343039,29.776496421678825,118.91991669409931,108.95857730119609,-0.0007446765666827,0.0955438911914825,0,0,0
10055,341863.57458664075,2010-10-12 13:27:35,3181.60632984978,7,29,-1.0993878841400146,3.3363165855407715,29.87676077343039,29.78566384838259,118.91991669409931,108.98933162505296,-0.0010684489971026,0.0955438911914825,0,0,0
10056,341893.589729031,2010-10-12 13:28:05,3211.6214720796443,7,29,-1.099568486213684,3.2862937450408936,29.87676077343039,29.794831270250064,118.91991669409931,109.01970223577698,-0.0015864849556237,0.0955438911914825,0,0,0
10057,341923.60490621807,2010-10-12 13:28:35,3241.636649271646,7,29,-1.099568486213684,3.21490216255188,29.87676077343039,29.803998677301777,118.91991669409931,109.04952304758498,-0.0022987842094153,0.0955438911914825,0,0,0
10058,341953.6200503226,2010-10-12 13:29:05,3271.651793496484,7,29,-1.099568486213684,3.107733964920044,29.87676077343039,29.81316612334089,118.91991669409931,109.07853807568452,-0.0033995627891272,0.0955438911914825,0,0,0
10059,341983.63521793066,2010-10-12 13:29:35,3301.666961044449,7,29,-1.099568486213684,2.925126791000366,29.87676077343039,29.82233355613888,118.91991669409931,109.10628723303302,-0.006572532467544,0.0955438911914825,0,0,0
10060,342000.9317954288,2010-10-12 13:29:52,3318.963538517536,7,29,-1.099568486213684,2.7248740196228027,29.87676077343039,29.827616362146927,118.91991669409931,109.12125587685738,-0.0110730174928903,0.0955438911914825,0,0,0
10061,342002.6192688268,2010-10-12 13:29:54,3320.6510119154664,7,29,-1.0993878841400146,2.699781894683838,29.87676077343039,29.828131756841245,118.91991669409931,109.12265383436409,-0.0114614963531494,0.0955438911914825,0,0,0
10062,342062.6337781293,2010-10-12 13:30:54,60.01469690073724,8,29,0.0,3.3482961654663086,29.87676077343039,29.828131756841245,118.91991669409931,109.12265383436409,0.0012303352123126,0.0955438911914825,0,0,0
10063,342062.80652625894,2010-10-12 13:30:54,0.187637024198772,9,29,-1.9243103452026844e-05,3.3486199378967285,29.87676077343039,29.828131757844226,118.91991669409931,109.12265383772268,0.0,0.0915781408548355,0,0,0
10064,342067.6345785659,2010-10-12 13:30:59,5.015689321077146,9,29,0.0007031940040178,3.356066465377808,29.876761689590573,29.828131757928183,118.91991976609772,109.1226538380038,0.0010360240703448,0.0915781408548355,0,0,0
