Data_Point,Test_Time(s),Date_Time,Step_Time(s),Step_Index,Cycle_Index,Current(A),Voltage(V),Charge_Capacity(Ah),Discharge_Capacity(Ah),Charge_Energy(Wh),Discharge_Energy(Wh),dV/dt(V/s),Internal_Resistance(Ohm),Is_FC_Data,AC_Impedance(Ohm),ACI_Phase_Angle(Deg)
3172,108903.714566484,2010-10-09 20:44:30,30.0132640037478,1,10,0.0,3.3107385635375977,9.448769942348852,9.419001826786968,37.62349776138302,34.50048107834362,0.0007770538213662,0.0897949114441871,0,0,0
3173,108933.72974754064,2010-10-09 20:45:01,60.02844494509393,1,10,0.0,3.3327550888061523,9.448769942348852,9.419001826786968,37.62349776138302,34.50048107834362,0.0005180359003134,0.0897949114441871,0,0,0
3174,108963.7450974832,2010-10-09 20:45:31,90.04379490268053,1,10,0.0,3.3497531414031982,9.448769942348852,9.419001826786968,37.62349776138302,34.50048107834362,0.0004209041653666,0.0897949114441871,0,0,0
3175,108993.71333646572,2010-10-09 20:46:00,120.01203408572133,1,10,0.0,3.363189458847046,9.448769942348852,9.419001826786968,37.62349776138302,34.50048107834362,0.0003561496851034,0.0897949114441871,0,0,0
3176,109023.72737796415,2010-10-09 20:46:31,30.015213998735312,2,10,0.5501165986061096,3.5221612453460693,9.453356642048728,9.419001826786968,37.63947029520103,34.50048107834362,0.0017807483673095,0.0897949114441871,0,0,0
3177,109053.74257155704,2010-10-09 20:47:01,60.03040759662544,2,10,0.5499359965324402,3.577688217163086,9.457943319024938,9.419001826786968,37.655760694190135,34.50048107834362,0.0012627125252038,0.0897949114441871,0,0,0
3178,109083.75778043804,2010-10-09 20:47:31,90.04561646758074,2,10,0.5501165986061096,3.618968963623047,9.462529900777296,9.419001826786968,37.67226872278473,34.50048107834362,0.0009713172912597,0.0897949114441871,0,0,0
3179,109113.7729974994,2010-10-09 20:48:01,120.06083356904902,2,10,0.5501165986061096,3.651669979095459,9.467116595982404,9.419001826786968,37.6889454063606,34.50048107834362,0.0007770538213662,0.0897949114441871,0,0,0
3180,109143.78823088144,2010-10-09 20:48:31,150.07606691099355,2,10,0.5501165986061096,3.678866624832153,9.47170320403665,9.419001826786968,37.70575859483656,34.50048107834362,0.0006475448608398,0.0897949114441871,0,0,0
3181,109173.80342430389,2010-10-09 20:49:01,180.09126034848393,2,10,0.5501165986061096,3.701692581176758,9.47628980509139,9.419001826786968,37.72268629152298,34.50048107834362,0.0005504131549969,0.0897949114441871,0,0,0
3182,109203.81865565087,2010-10-09 20:49:31,210.1064916954564,2,10,0.5499359965324402,3.721118927001953,9.48087636560616,9.419001826786968,37.739710746580194,34.50048107834362,0.0004532813909463,0.0897949114441871,0,0,0
3183,109233.83384864723,2010-10-09 20:50:01,240.12168466177243,2,10,0.5501165986061096,3.737469434738159,9.48546290485435,9.419001826786968,37.75681674484398,34.50048107834362,0.0004209041653666,0.0897949114441871,0,0,0
3184,109263.84908058068,2010-10-09 20:50:31,270.13691664031893,2,10,0.5501165986061096,3.750096559524536,9.490049462138185,9.419001826786968,37.77398926370999,34.50048107834362,0.0002913951757363,0.0897949114441871,0,0,0
3185,109293.86427436906,2010-10-09 20:51:01,300.1521104387088,2,10,0.5501165986061096,3.758028745651245,9.494636012471696,9.419001826786968,37.791209148864986,34.50048107834362,0.0001618862152099,0.0897949114441871,0,0,0
3186,109323.86582899943,2010-10-09 20:51:31,330.15366505907025,2,10,0.5501165986061096,3.762723445892334,9.499220477264515,9.419001826786968,37.808449156195465,34.50048107834362,9.713172767078504e-05,0.0897949114441871,0,0,0
3187,109353.87907869252,2010-10-09 20:52:01,360.16691476217653,2,10,0.550297200679779,3.765961170196533,9.503806767957894,9.419001826786968,37.82571352579208,34.50048107834362,9.713172767078504e-05,0.0897949114441871,0,0,0
3188,109383.89429568872,2010-10-09 20:52:31,390.18213169823247,2,10,0.5501165986061096,3.768875122070313,9.508393335958768,9.419001826786968,37.8429930891182,34.50048107834362,9.713172767078504e-05,0.0897949114441871,0,0,0
3189,109413.90952375252,2010-10-09 20:53:01,420.19735979710975,2,10,0.5501165986061096,3.771789073944092,9.512979910487989,9.419001826786968,37.86028597177514,34.50048107834362,6.47544875391759e-05,0.0897949114441871,0,0,0
3190,109443.9247157815,2010-10-09 20:53:31,450.2125518160646,2,10,0.5499359965324402,3.774541139602661,9.517566453973688,9.419001826786968,37.87759192120362,34.50048107834362,6.47544875391759e-05,0.0897949114441871,0,0,0
3191,109473.93996434138,2010-10-09 20:54:01,480.22780039598695,2,10,0.550297200679779,3.77745509147644,9.522153070819918,9.419001826786968,37.89491118767785,34.50048107834362,6.47544875391759e-05,0.0897949114441871,0,0,0
3192,109503.95517495164,2010-10-09 20:54:31,510.24301099123966,2,10,0.550297200679779,3.7802071571350098,9.526740339191925,9.419001826786968,37.91224576533278,34.50048107834362,6.47544875391759e-05,0.0897949114441871,0,0,0
3193,109533.9703661536,2010-10-09 20:55:01,540.2582022232333,2,10,0.5501165986061096,3.782797336578369,9.531327758089452,9.419001826786968,37.92959351348996,34.50048107834362,3.237724376958795e-05,0.0897949114441871,0,0,0
3194,109563.9855933402,2010-10-09 20:55:31,570.2734293747494,2,10,0.5501165986061096,3.785711288452149,9.53591445164569,9.419001826786968,37.94695095426774,34.50048107834362,6.47544875391759e-05,0.0897949114441871,0,0,0
3195,109594.00104237972,2010-10-09 20:56:01,600.2888784293161,2,10,0.5501165986061096,3.7884633541107178,9.540501026231238,9.419001826786968,37.964320250580975,34.50048107834362,9.713172767078504e-05,0.0897949114441871,0,0,0
3196,109624.01604007436,2010-10-09 20:56:31,630.3038763044049,2,10,0.5499359965324402,3.790891647338867,9.545087537254444,9.419001826786968,37.98170156295459,34.50048107834362,3.237724376958795e-05,0.0897949114441871,0,0,0
3197,109654.0312451709,2010-10-09 20:57:01,660.3190811854159,2,10,0.5501165986061096,3.7938055992126474,9.549674109222002,9.419001826786968,37.99909515846882,34.50048107834362,9.713172767078504e-05,0.0897949114441871,0,0,0
3198,109684.04644408704,2010-10-09 20:57:31,690.3342801216107,2,10,0.5499359965324402,3.796072006225586,9.554260622258418,9.419001826786968,38.01650070379223,34.50048107834362,3.237724376958795e-05,0.0897949114441871,0,0,0
3199,109714.06168892766,2010-10-09 20:58:01,720.3495249973009,2,10,0.5501165986061096,3.798985958099365,9.558847173048516,9.419001826786968,38.03391856338318,34.50048107834362,6.47544875391759e-05,0.0897949114441871,0,0,0
3200,109744.07683125277,2010-10-09 20:58:31,750.364667287316,2,10,0.550297200679779,3.801738023757935,9.56343371913265,9.419001826786968,38.05134874252569,34.50048107834362,9.713172767078504e-05,0.0897949114441871,0,0,0
3201,109774.09209194286,2010-10-09 20:59:01,780.3799279874456,2,10,0.5501165986061096,3.804328203201294,9.568020351380833,9.419001826786968,38.06879173590461,34.50048107834362,6.47544875391759e-05,0.0897949114441871,0,0,0
3202,109804.1072725584,2010-10-09 20:59:31,810.3951085929547,2,10,0.5499359965324402,3.807242155075073,9.572606926326026,9.419001826786968,38.086247412136025,34.50048107834362,6.47544875391759e-05,0.0897949114441871,0,0,0
3203,109834.1224904017,2010-10-09 21:00:01,840.4103264212343,2,10,0.5501165986061096,3.810156106948853,9.577193530176473,9.419001826786968,38.10371655901957,34.50048107834362,3.237724376958795e-05,0.0897949114441871,0,0,0
3204,109864.13798656368,2010-10-09 21:00:31,870.4258226233073,2,10,0.550297200679779,3.813393831253052,9.581780180192755,9.419001826786968,38.1211998245832,34.50048107834362,9.713172767078504e-05,0.0897949114441871,0,0,0
3205,109894.15294273484,2010-10-09 21:01:01,900.4407788896945,2,10,0.5499359965324402,3.816631555557251,9.586366781581978,9.419001826786968,38.138697711628886,34.50048107834362,9.713172767078504e-05,0.0897949114441871,0,0,0
3206,109924.17071107976,2010-10-09 21:01:31,930.4585472196088,2,10,0.5501165986061096,3.82003116607666,9.590953861040337,9.419001826786968,38.15621233528008,34.50048107834362,0.0001295089750783,0.0897949114441871,0,0,0
3207,109954.18335622114,2010-10-09 21:02:01,960.4711922607114,2,10,0.550297200679779,3.8232688903808594,9.595540183750538,9.419001826786968,38.173739358618064,34.50048107834362,9.713172767078504e-05,0.0897949114441871,0,0,0
3208,109984.19855944302,2010-10-09 21:02:31,990.4863954775748,2,10,0.5499359965324402,3.8265066146850586,9.60012680088869,9.419001826786968,38.19128299712662,34.50048107834362,6.47544875391759e-05,0.0897949114441871,0,0,0
3209,110014.2137881885,2010-10-09 21:03:01,1020.5016242030138,2,10,0.550297200679779,3.8300681114196777,9.604713395670498,9.419001826786968,38.20884215469216,34.50048107834362,9.713172767078504e-05,0.0897949114441871,0,0,0
3210,110044.2291127478,2010-10-09 21:03:31,1050.51694882245,2,10,0.5501165986061096,3.833305597305298,9.609300108358456,9.419001826786968,38.22641723964632,34.50048107834362,6.470680091297254e-05,0.0897949114441871,0,0,0
3211,110074.24659285936,2010-10-09 21:04:01,1080.534428999198,2,10,0.5501165986061096,3.836705207824707,9.61388709596206,9.419001826786968,38.24400862912176,34.50048107834362,9.713172767078504e-05,0.0897949114441871,0,0,0
3212,110104.25942619477,2010-10-09 21:04:31,1110.547262234338,2,10,0.5499359965324402,3.839942932128906,9.61847334355548,9.419001826786968,38.261612294054174,34.50048107834362,6.47544875391759e-05,0.0897949114441871,0,0,0
3213,110134.27466221336,2010-10-09 21:05:01,1140.562498247941,2,10,0.5501165986061096,3.843018770217896,9.623059979312728,9.419001826786968,38.2792323137772,34.50048107834362,6.47544875391759e-05,0.0897949114441871,0,0,0
3214,110164.28984480385,2010-10-09 21:05:31,1170.5776808133348,2,10,0.5501165986061096,3.846256494522095,9.627646617924777,9.419001826786968,38.29686688174365,34.50048107834362,6.47544875391759e-05,0.0897949114441871,0,0,0
3215,110194.30506994532,2010-10-09 21:06:01,1200.5929060149913,2,10,0.5501165986061096,3.849332332611084,9.63223330545238,9.419001826786968,38.31451601507096,34.50048107834362,3.237724376958795e-05,0.0897949114441871,0,0,0
3216,110224.32027060082,2010-10-09 21:06:31,1230.608106610321,2,10,0.5501165986061096,3.852570056915283,9.636819943236627,9.419001826786968,38.33217908031012,34.50048107834362,0.0001295089750783,0.0897949114441871,0,0,0
3217,110254.33550464452,2010-10-09 21:07:01,1260.623340689102,2,10,0.5501165986061096,3.8554840087890634,9.64140668171962,9.419001826786968,38.34985627197208,34.50048107834362,6.47544875391759e-05,0.0897949114441871,0,0,0
3218,110284.35077168045,2010-10-09 21:07:31,1290.63860772001,2,10,0.5501165986061096,3.858397960662842,9.645993291889203,9.419001826786968,38.367546346130815,34.50048107834362,9.713172767078504e-05,0.0897949114441871,0,0,0
3219,110314.36602936806,2010-10-09 21:08:01,1320.653865412644,2,10,0.550297200679779,3.861150026321411,9.650579931813638,9.419001826786968,38.38524930543871,34.50048107834362,9.713172767078504e-05,0.0897949114441871,0,0,0
3220,110344.38127127636,2010-10-09 21:08:31,1350.6691074161758,2,10,0.5501165986061096,3.863578319549561,9.655166620821236,9.419001826786968,38.4029646513158,34.50048107834362,6.47544875391759e-05,0.0897949114441871,0,0,0
3221,110374.39635076484,2010-10-09 21:09:01,1380.6841868094327,2,10,0.5501165986061096,3.86600661277771,9.659753178938807,9.419001826786968,38.42069082454181,34.50048107834362,6.47544875391759e-05,0.0897949114441871,0,0,0
3222,110404.41154597174,2010-10-09 21:09:31,1410.6993819812456,2,10,0.550297200679779,3.8684349060058594,9.664339736509362,9.419001826786968,38.43842773991937,34.50048107834362,0.0001295089750783,0.0897949114441871,0,0,0
3223,110434.42676488771,2010-10-09 21:10:01,1440.7146009222986,2,10,0.5501165986061096,3.870215654373169,9.668926420571204,9.419001826786968,38.45617516603724,34.50048107834362,3.237724376958795e-05,0.0897949114441871,0,0,0
3224,110464.44200958296,2010-10-09 21:10:31,1470.7298456526266,2,10,0.5501165986061096,3.8723201751708975,9.673513059901383,9.419001826786968,38.47393177508576,34.50048107834362,6.47544875391759e-05,0.0897949114441871,0,0,0
3225,110494.45732788164,2010-10-09 21:11:01,1500.7451639011845,2,10,0.5501165986061096,3.874100923538208,9.678099733249724,9.419001826786968,38.4916971415903,34.50048107834362,3.237724376958795e-05,0.0897949114441871,0,0,0
3226,110524.47435861826,2010-10-09 21:11:31,1530.7621946578397,2,10,0.5501165986061096,3.875719785690308,9.682686666063171,9.419001826786968,38.50947127414359,34.50048107834362,3.237724376958795e-05,0.0897949114441871,0,0,0
3227,110554.487897873,2010-10-09 21:12:01,1560.7757339927973,2,10,0.5501165986061096,3.877176761627197,9.687273139606711,9.419001826786968,38.52725097826354,34.50048107834362,3.237724376958795e-05,0.0897949114441871,0,0,0
3228,110584.50282261084,2010-10-09 21:12:31,1590.790658615318,2,10,0.5501165986061096,3.878633737564087,9.691859722201906,9.419001826786968,38.54503776711644,34.50048107834362,3.237724376958795e-05,0.0897949114441871,0,0,0
3229,110614.51828220164,2010-10-09 21:13:01,1620.8061183063944,2,10,0.5501165986061096,3.879928827285767,9.696446395980354,9.419001826786968,38.562831076846656,34.50048107834362,3.237724376958795e-05,0.0897949114441871,0,0,0
3230,110644.53328271832,2010-10-09 21:13:31,1650.821118722817,2,10,0.5501165986061096,3.8812239170074463,9.701033025406472,9.419001826786968,38.58063007843454,34.50048107834362,3.237724376958795e-05,0.0897949114441871,0,0,0
3231,110674.54850181978,2010-10-09 21:14:01,1680.8363378242698,2,10,0.5501165986061096,3.882195234298706,9.705619671282216,9.419001826786968,38.59843469970651,34.50048107834362,-3.237724376958795e-05,0.0897949114441871,0,0,0
3232,110704.56372551266,2010-10-09 21:14:32,1710.8515615472406,2,10,0.5501165986061096,3.8834903240203857,9.710206313275506,9.419001826786968,38.61624464483381,34.50048107834362,3.237724376958795e-05,0.0897949114441871,0,0,0
3233,110734.57901073892,2010-10-09 21:15:02,1740.8668468687342,2,10,0.550297200679779,3.884623527526856,9.714793034893706,9.419001826786968,38.63406007570709,34.50048107834362,3.237724376958795e-05,0.0897949114441871,0,0,0
3234,110764.59419307877,2010-10-09 21:15:32,1770.882029138391,2,10,0.5501165986061096,3.885756731033325,9.719379718557551,9.419001826786968,38.65188033845916,34.50048107834362,0.0,0.0897949114441871,0,0,0
3235,110794.60935424082,2010-10-09 21:16:02,1800.8971902753783,2,10,0.5499359965324402,3.886889934539795,9.723966396551049,9.419001826786968,38.669705648657065,34.50048107834362,3.237724376958795e-05,0.0897949114441871,0,0,0
3236,110824.62469643404,2010-10-09 21:16:32,1830.9125324435515,2,10,0.5501165986061096,3.8880231380462646,9.728553131827535,9.419001826786968,38.68753611263866,34.50048107834362,6.47544875391759e-05,0.0897949114441871,0,0,0
3237,110854.63979734092,2010-10-09 21:17:02,1860.92763335544,2,10,0.5501165986061096,3.888994455337525,9.733139806080764,9.419001826786968,38.70537130072708,34.50048107834362,3.237724376958795e-05,0.0897949114441871,0,0,0
3238,110884.65527791904,2010-10-09 21:17:32,1890.9431140588847,2,10,0.550297200679779,3.890127658843994,9.737726580797084,9.419001826786968,38.72321181380744,34.50048107834362,0.0,0.0897949114441871,0,0,0
3239,110914.67022273692,2010-10-09 21:18:02,1920.9580587714763,2,10,0.5501165986061096,3.891098976135254,9.742313235259916,9.419001826786968,38.74105681545247,34.50048107834362,0.0,0.0897949114441871,0,0,0
3240,110944.68544254512,2010-10-09 21:18:32,1950.9732785847032,2,10,0.5501165986061096,3.892232179641724,9.746899926348174,9.419001826786968,38.75890695183544,34.50048107834362,3.237724376958795e-05,0.0897949114441871,0,0,0
3241,110974.7007983122,2010-10-09 21:19:02,1980.988634381844,2,10,0.5501165986061096,3.893365383148194,9.75148668620159,9.419001826786968,38.776762297089846,34.50048107834362,3.237724376958795e-05,0.0897949114441871,0,0,0
3242,111004.71585772563,2010-10-09 21:19:32,2011.003693740168,2,10,0.5501165986061096,3.894498586654663,9.75607341245996,9.419001826786968,38.79462257486807,34.50048107834362,6.47544875391759e-05,0.0897949114441871,0,0,0
3243,111034.73106447632,2010-10-09 21:20:02,2041.018900505876,2,10,0.5501165986061096,3.895469903945923,9.760660177707816,9.419001826786968,38.81248755954471,34.50048107834362,6.47544875391759e-05,0.0897949114441871,0,0,0
3244,111064.746278861,2010-10-09 21:20:32,2071.034114865511,2,10,0.5501165986061096,3.8966031074523926,9.765246862186434,9.419001826786968,38.83035736585651,34.50048107834362,0.0,0.0897949114441871,0,0,0
3245,111094.76150227322,2010-10-09 21:21:02,2101.0493383077824,2,10,0.5501165986061096,3.8977363109588623,9.769833513218556,9.419001826786968,38.8482321985616,34.50048107834362,0.0,0.0897949114441871,0,0,0
3246,111124.77869585568,2010-10-09 21:21:32,2131.066531985487,2,10,0.5501165986061096,3.898869514465332,9.774420488812456,9.419001826786968,38.866113462828686,34.50048107834362,6.47544875391759e-05,0.0897949114441871,0,0,0
3247,111154.79191934848,2010-10-09 21:22:02,2161.079755383032,2,10,0.5499359965324402,3.9000027179718018,9.779006476209304,9.419001826786968,38.88399606634977,34.50048107834362,6.47544875391759e-05,0.0897949114441871,0,0,0
3248,111184.80715606382,2010-10-09 21:22:32,2191.0949920983835,2,10,0.5501165986061096,3.901135921478272,9.783592281927032,9.419001826786968,38.90188299869024,34.50048107834362,3.237724376958795e-05,0.0897949114441871,0,0,0
3249,111214.82251290356,2010-10-09 21:23:02,2221.1103489180728,2,10,0.5499359965324402,3.9021072387695312,9.788178464936468,9.419001826786968,38.91977692262087,34.50048107834362,-3.237724376958795e-05,0.0897949114441871,0,0,0
3250,111244.83757869792,2010-10-09 21:23:32,2251.1254147024124,2,10,0.5501165986061096,3.903726100921631,9.792765135313244,9.419001826786968,38.93767820538735,34.50048107834362,3.237724376958795e-05,0.0897949114441871,0,0,0
3251,111274.85279278689,2010-10-09 21:24:02,2281.1406287963846,2,10,0.5497553944587708,3.9045355319976807,9.797351708157493,9.419001826786968,38.95558455881944,34.50048107834362,-3.237724376958795e-05,0.0897949114441871,0,0,0
3252,111304.86801035953,2010-10-09 21:24:32,2311.155846364015,2,10,0.550297200679779,3.9059925079345694,9.80193835080676,9.419001826786968,38.97349658392353,34.50048107834362,3.237724376958795e-05,0.0897949114441871,0,0,0
3253,111334.8832381727,2010-10-09 21:25:02,2341.171074212268,2,10,0.5501165986061096,3.90712571144104,9.806524949437785,9.419001826786968,38.99141403517345,34.50048107834362,3.237724376958795e-05,0.0897949114441871,0,0,0
3254,111364.89843757004,2010-10-09 21:25:32,2371.1862736296616,2,10,0.5501165986061096,3.90842080116272,9.811111635616486,9.419001826786968,39.00933749855627,34.50048107834362,6.47544875391759e-05,0.0897949114441871,0,0,0
3255,111394.91380117663,2010-10-09 21:26:02,2401.201637246291,2,10,0.550297200679779,3.9097158908844,9.815698315161429,9.419001826786968,39.02726662596866,34.50048107834362,3.237724376958795e-05,0.0897949114441871,0,0,0
3256,111424.92889156732,2010-10-09 21:26:32,2431.2167276068817,2,10,0.5501165986061096,3.910849094390869,9.820284954421409,9.419001826786968,39.045201345142,34.50048107834362,3.237724376958795e-05,0.0897949114441871,0,0,0
3257,111454.94411538552,2010-10-09 21:27:02,2461.2319514200776,2,10,0.5499359965324402,3.912144184112549,9.824871602309688,9.419001826786968,39.06314196536078,34.50048107834362,0.0,0.0897949114441871,0,0,0
3258,111484.9593133593,2010-10-09 21:27:32,2491.2471493688117,2,10,0.550297200679779,3.9136011600494394,9.829458246838152,9.419001826786968,39.0810884649524,34.50048107834362,0.0001295089750783,0.0897949114441871,0,0,0
3259,111514.9746790812,2010-10-09 21:28:02,2521.2625151207626,2,10,0.5501165986061096,3.914734125137329,9.834044919132372,9.419001826786968,39.09904107529978,34.50048107834362,3.237724376958795e-05,0.0897949114441871,0,0,0
3260,111544.98976252956,2010-10-09 21:28:32,2551.2775985390517,2,10,0.5499359965324402,3.916029214859009,9.838631637667344,9.419001826786968,39.11699981430359,34.50048107834362,3.237724376958795e-05,0.0897949114441871,0,0,0
3261,111575.00491219296,2010-10-09 21:29:02,2581.292748202443,2,10,0.550297200679779,3.917324304580689,9.843218271660822,9.419001826786968,39.134964349316505,34.50048107834362,0.0,0.0897949114441871,0,0,0
3262,111605.0201655648,2010-10-09 21:29:32,2611.308001599371,2,10,0.5501165986061096,3.918781280517578,9.847804941456946,9.419001826786968,39.15293517618228,34.50048107834362,6.47544875391759e-05,0.0897949114441871,0,0,0
3263,111635.03535949351,2010-10-09 21:30:02,2641.3231955180604,2,10,0.5501165986061096,3.920076370239258,9.852391624540118,9.419001826786968,39.17091228270845,34.50048107834362,3.237724376958795e-05,0.0897949114441871,0,0,0
3264,111665.0505760035,2010-10-09 21:30:32,2671.338412058129,2,10,0.5501165986061096,3.921533346176148,9.856978281887203,9.419001826786968,39.18889557479608,34.50048107834362,6.47544875391759e-05,0.0897949114441871,0,0,0
3265,111695.0659179812,2010-10-09 21:31:02,2701.35375400074,2,10,0.5501165986061096,3.922990322113037,9.861564886007328,9.419001826786968,39.20688502591722,34.50048107834362,0.0,0.0897949114441871,0,0,0
3266,111725.08293232197,2010-10-09 21:31:32,2731.3707683565194,2,10,0.550297200679779,3.924285411834717,9.866151864373052,9.419001826786968,39.224882389574816,34.50048107834362,3.237724376958795e-05,0.0897949114441871,0,0,0
3267,111755.09639246452,2010-10-09 21:32:02,2761.3842285091305,2,10,0.5501165986061096,3.925580501556397,9.870738258412176,9.419001826786968,39.242883987611336,34.50048107834362,0.0,0.0897949114441871,0,0,0
3268,111785.11170157533,2010-10-09 21:32:32,2791.3995376199146,2,10,0.5501165986061096,3.927199363708496,9.875324961588896,9.419001826786968,39.26089322483927,34.50048107834362,3.237724376958795e-05,0.0897949114441871,0,0,0
3269,111815.12680251728,2010-10-09 21:33:02,2821.4146385568647,2,10,0.5501165986061096,3.9286563396453857,9.879911634257256,9.419001826786968,39.27890903523812,34.50048107834362,3.237724376958795e-05,0.0897949114441871,0,0,0
3270,111845.144346879,2010-10-09 21:33:32,2851.432183043894,2,10,0.550297200679779,3.9301133155822754,9.884498685430948,9.419001826786968,39.29693298700565,34.50048107834362,6.47544875391759e-05,0.0897949114441871,0,0,0
3271,111875.15720619916,2010-10-09 21:34:02,2881.445042223696,2,10,0.5499359965324402,3.931570291519165,9.889085018355,9.419001826786968,39.3149608498004,34.50048107834362,3.237724376958795e-05,0.0897949114441871,0,0,0
3272,111905.17228949213,2010-10-09 21:34:32,2911.460125501635,2,10,0.5499359965324402,3.9328653812408447,9.893671676563732,9.419001826786968,39.33299678671804,34.50048107834362,3.237724376958795e-05,0.0897949114441871,0,0,0
3273,111935.18764945466,2010-10-09 21:35:02,2941.475485479194,2,10,0.5501165986061096,3.9343223571777344,9.898258345909287,9.419001826786968,39.351039590541575,34.50048107834362,0.0,0.0897949114441871,0,0,0
3274,111965.2027258354,2010-10-09 21:35:32,2971.4905618499183,2,10,0.550297200679779,3.935941219329834,9.902845035056686,9.419001826786968,39.36908943272906,34.50048107834362,0.0,0.0897949114441871,0,0,0
3275,111995.21846842657,2010-10-09 21:36:02,3001.506304566381,2,10,0.5501165986061096,3.9375600814819336,9.907431786136158,9.419001826786968,39.387146294448,34.50048107834362,6.47544875391759e-05,0.0897949114441871,0,0,0
3276,112025.21988566453,2010-10-09 21:36:32,3031.507721679031,2,10,0.550297200679779,3.939178943634033,9.912016438030046,9.419001826786968,39.40520199097439,34.50048107834362,6.47544875391759e-05,0.0897949114441871,0,0,0
3277,112055.23274253856,2010-10-09 21:37:02,3061.520578548074,2,10,0.5501165986061096,3.940635919570923,9.916602712278468,9.419001826786968,39.42327117096775,34.50048107834362,6.47544875391759e-05,0.0897949114441871,0,0,0
3278,112085.24796441192,2010-10-09 21:37:32,3091.535800426447,2,10,0.5501165986061096,3.9422547817230233,9.921189477204845,9.419001826786968,39.44134943530921,34.50048107834362,6.47544875391759e-05,0.0897949114441871,0,0,0
3279,112115.26317786932,2010-10-09 21:38:02,3121.5510139139087,2,10,0.5501165986061096,3.943711757659912,9.925776082881653,9.419001826786968,39.45943425560141,34.50048107834362,3.237724376958795e-05,0.0897949114441871,0,0,0
3280,112145.2783851463,2010-10-09 21:38:32,3151.566221150791,2,10,0.550297200679779,3.945330619812012,9.9303626367986,9.419001826786968,39.47752611104302,34.50048107834362,0.0,0.0897949114441871,0,0,0
3281,112175.29362452328,2010-10-09 21:39:02,3181.5814605327896,2,10,0.5501165986061096,3.946787595748901,9.934949323644426,9.419001826786968,39.495625859236405,34.50048107834362,0.0,0.0897949114441871,0,0,0
3282,112205.30881788058,2010-10-09 21:39:32,3211.596653920155,2,10,0.5499359965324402,3.948730230331421,9.939535988231274,9.419001826786968,39.51373285910265,34.50048107834362,6.47544875391759e-05,0.0897949114441871,0,0,0
3283,112235.32401238572,2010-10-09 21:40:02,3241.611848400244,2,10,0.5499359965324402,3.9500253200531006,9.944122662988203,9.419001826786968,39.53184735488109,34.50048107834362,3.237724376958795e-05,0.0897949114441871,0,0,0
3284,112265.33947501412,2010-10-09 21:40:32,3271.627311058716,2,10,0.5501165986061096,3.95180606842041,9.948709365180925,9.419001826786968,39.54996952819146,34.50048107834362,3.237724376958795e-05,0.0897949114441871,0,0,0
3285,112295.3544566788,2010-10-09 21:41:02,3301.6422926933283,2,10,0.550297200679779,3.9534249305725098,9.953295965485664,9.419001826786968,39.568098828411394,34.50048107834362,3.237724376958795e-05,0.0897949114441871,0,0,0
3286,112325.36968801577,2010-10-09 21:41:32,3331.657524025263,2,10,0.5501165986061096,3.9552056789398193,9.957882679806763,9.419001826786968,39.586236294459816,34.50048107834362,3.237724376958795e-05,0.0897949114441871,0,0,0
3287,112355.386771168,2010-10-09 21:42:02,3361.6746071825164,2,10,0.550297200679779,3.956824541091919,9.962469653984098,9.419001826786968,39.604382550218354,34.50048107834362,6.47544875391759e-05,0.0897949114441871,0,0,0
3288,112385.40010234417,2010-10-09 21:42:32,3391.687938373716,2,10,0.5501165986061096,3.958605289459229,9.967056065683824,9.419001826786968,39.62253426591127,34.50048107834362,6.47544875391759e-05,0.0897949114441871,0,0,0
3289,112415.4154324573,2010-10-09 21:43:02,3421.7032684818314,2,10,0.5499359965324402,3.960386037826538,9.971642770619448,9.419001826786968,39.640695092159646,34.50048107834362,6.47544875391759e-05,0.0897949114441871,0,0,0
3290,112445.4306891023,2010-10-09 21:43:32,3451.7185251469045,2,10,0.5499359965324402,3.9620048999786377,9.976229525800957,9.419001826786968,39.65886415068093,34.50048107834362,6.47544875391759e-05,0.0897949114441871,0,0,0
3291,112475.44572668638,2010-10-09 21:44:02,3481.733562695873,2,10,0.5499359965324402,3.9637856483459473,9.980816191673243,9.419001826786968,39.677040813101385,34.50048107834362,0.0,0.0897949114441871,0,0,0
3292,112505.46107769157,2010-10-09 21:44:32,3511.7489137161074,2,10,0.5501165986061096,3.965566396713257,9.985402906296075,9.419001826786968,39.695225885673096,34.50048107834362,3.237724376958795e-05,0.0897949114441871,0,0,0
3293,112535.47615582169,2010-10-09 21:45:02,3541.763991856242,2,10,0.550297200679779,3.967509031295776,9.989989527826202,9.419001826786968,39.713418874278304,34.50048107834362,6.47544875391759e-05,0.0897949114441871,0,0,0
3294,112565.49150235573,2010-10-09 21:45:32,3571.7793383802705,2,10,0.550297200679779,3.969289779663086,9.994576222737738,9.419001826786968,39.73162038291503,34.50048107834362,6.47544875391759e-05,0.0897949114441871,0,0,0
3295,112595.50659952828,2010-10-09 21:46:02,3601.794435572889,2,10,0.5499359965324402,3.971070528030396,9.99916290990548,9.419001826786968,39.74983032939148,34.50048107834362,3.237724376958795e-05,0.0897949114441871,0,0,0
3296,112625.52179600336,2010-10-09 21:46:32,3631.80963200785,2,10,0.5501165986061096,3.973013162612915,10.003749613344285,9.419001826786968,39.76804887415133,34.50048107834362,6.47544875391759e-05,0.0897949114441871,0,0,0
3297,112655.53700521516,2010-10-09 21:47:03,3661.824841224667,2,10,0.5501165986061096,3.9747939109802246,10.008336337592535,9.419001826786968,39.78627615530787,34.50048107834362,6.47544875391759e-05,0.0897949114441871,0,0,0
3298,112685.55235640082,2010-10-09 21:47:33,3691.8401924253526,2,10,0.5501165986061096,3.976898431777954,10.012923127348673,9.419001826786968,39.80451243298428,34.50048107834362,9.713172767078504e-05,0.0897949114441871,0,0,0
3299,112715.56743810484,2010-10-09 21:48:03,3721.8552741393937,2,10,0.5501165986061096,3.978679180145264,10.017509900688554,9.419001826786968,39.82275714126399,34.50048107834362,9.713172767078504e-05,0.0897949114441871,0,0,0
3300,112745.58283604198,2010-10-09 21:48:33,3751.870672086585,2,10,0.5499359965324402,3.980459928512573,10.022096553252837,9.419001826786968,39.84101074057682,34.50048107834362,0.0,0.0897949114441871,0,0,0
3301,112775.59786998195,2010-10-09 21:49:03,3781.8857060165337,2,10,0.5501165986061096,3.9827263355255127,10.026683156304832,9.419001826786968,39.85927328638997,34.50048107834362,6.47544875391759e-05,0.0897949114441871,0,0,0
3302,112805.61310819104,2010-10-09 21:49:33,3811.900944260696,2,10,0.5501165986061096,3.984668970108032,10.031269783614386,9.419001826786968,39.87754509697424,34.50048107834362,6.47544875391759e-05,0.0897949114441871,0,0,0
3303,112835.62849195288,2010-10-09 21:50:03,3841.9163279874456,2,10,0.5501165986061096,3.986935377120972,10.035856387080244,9.419001826786968,39.89582610339886,34.50048107834362,9.713172767078504e-05,0.0897949114441871,0,0,0
3304,112865.64352397808,2010-10-09 21:50:33,3871.93136001766,2,10,0.5501165986061096,3.988878011703491,10.040442973718717,9.419001826786968,39.91411643707778,34.50048107834362,9.713172767078504e-05,0.0897949114441871,0,0,0
3305,112895.6589356194,2010-10-09 21:51:03,3901.946771643943,2,10,0.550297200679779,3.9908206462860103,10.045029623839923,9.419001826786968,39.93241654006586,34.50048107834362,3.237724376958795e-05,0.0897949114441871,0,0,0
3306,112925.67398519834,2010-10-09 21:51:33,3931.9618213331696,2,10,0.5501165986061096,3.99292516708374,10.04961623377126,9.419001826786968,39.950726100261285,34.50048107834362,3.237724376958795e-05,0.0897949114441871,0,0,0
3307,112955.69126059471,2010-10-09 21:52:03,3961.9790967345534,2,10,0.5501165986061096,3.9951913356781006,10.054203217982282,9.419001826786968,39.96904685449677,34.50048107834362,9.713172767078504e-05,0.0897949114441871,0,0,0
3308,112985.70437566728,2010-10-09 21:52:33,3991.992211701857,2,10,0.5501165986061096,3.99729585647583,10.05878954177812,9.419001826786968,39.987374781664485,34.50048107834362,6.47544875391759e-05,0.0897949114441871,0,0,0
3309,113015.7196147736,2010-10-09 21:53:03,4022.0074508131806,2,10,0.5499359965324402,3.99940037727356,10.06337625494071,9.419001826786968,40.00571409174908,34.50048107834362,3.237724376958795e-05,0.0897949114441871,0,0,0
3310,113045.73481318347,2010-10-09 21:53:33,4052.022649208026,2,10,0.5501165986061096,4.001667022705078,10.067962858713836,9.419001826786968,40.02406289130889,34.50048107834362,9.71794142969884e-05,0.0897949114441871,0,0,0
3311,113075.75001448057,2010-10-09 21:54:03,4082.037850490068,2,10,0.5499359965324402,4.0037713050842285,10.072549480850952,9.419001826786968,40.04242176578303,34.50048107834362,6.47544875391759e-05,0.0897949114441871,0,0,0
3312,113105.76523477,2010-10-09 21:54:33,4112.053070814569,2,10,0.5501165986061096,4.005876064300537,10.077136067559522,9.419001826786968,40.060790545552365,34.50048107834362,3.24249267578125e-05,0.0897949114441871,0,0,0
3313,113135.78046191148,2010-10-09 21:55:03,4142.06829795606,2,10,0.5501165986061096,4.008142471313477,10.081722653998032,9.419001826786968,40.079169486504846,34.50048107834362,3.24249267578125e-05,0.0897949114441871,0,0,0
3314,113165.79579920247,2010-10-09 21:55:33,4172.083635227027,2,10,0.5501165986061096,4.010408878326416,10.086309298827103,9.419001826786968,40.09755877931117,34.50048107834362,6.47544875391759e-05,0.0897949114441871,0,0,0
3315,113195.8108689968,2010-10-09 21:56:03,4202.098705046424,2,10,0.5499359965324402,4.012513160705566,10.090895920252889,9.419001826786968,40.1159582712303,34.50048107834362,3.23295607813634e-05,0.0897949114441871,0,0,0
3316,113225.8261212509,2010-10-09 21:56:33,4232.113957285465,2,10,0.5499359965324402,4.014941692352295,10.095482606947211,9.419001826786968,40.13436832474951,34.50048107834362,6.47544875391759e-05,0.0897949114441871,0,0,0
3317,113255.84130126494,2010-10-09 21:57:03,4262.12913731955,2,10,0.5501165986061096,4.017208099365234,10.100069191904703,9.419001826786968,40.15278840433864,34.50048107834362,6.47544875391759e-05,0.0897949114441871,0,0,0
3318,113285.8565408324,2010-10-09 21:57:33,4292.144376851923,2,10,0.5501165986061096,4.019312381744385,10.104655836382854,9.419001826786968,40.17121914702231,34.50048107834362,3.23295607813634e-05,0.0897949114441871,0,0,0
3319,113315.87175380356,2010-10-09 21:58:03,4322.1595898581845,2,10,0.5501165986061096,4.021902561187744,10.10924244430478,9.419001826786968,40.18966023556934,34.50048107834362,6.47544875391759e-05,0.0897949114441871,0,0,0
3320,113345.88695174229,2010-10-09 21:58:33,4352.174787786868,2,10,0.5501165986061096,4.024168968200684,10.113829080720306,9.419001826786968,40.20811214630167,34.50048107834362,3.23295607813634e-05,0.0897949114441871,0,0,0
3321,113375.90216061824,2010-10-09 21:59:03,4382.189996632761,2,10,0.550297200679779,4.026597499847412,10.118415741161524,9.419001826786968,40.22657489659991,34.50048107834362,9.71794142969884e-05,0.0897949114441871,0,0,0
3322,113405.91738195528,2010-10-09 21:59:33,4412.205217999862,2,10,0.5501165986061096,4.029025554656982,10.123002407175012,9.419001826786968,40.24504857328139,34.50048107834362,6.47544875391759e-05,0.0897949114441871,0,0,0
3323,113435.9326197934,2010-10-09 22:00:03,4442.220455817962,2,10,0.550297200679779,4.031291961669922,10.127589091907248,9.419001826786968,40.26353320614728,34.50048107834362,9.70840483205393e-05,0.0897949114441871,0,0,0
3324,113465.94806490316,2010-10-09 22:00:33,4472.235901053009,2,10,0.550297200679779,4.03372049331665,10.13217579618552,9.419001826786968,40.28202900473565,34.50048107834362,6.47544875391759e-05,0.0897949114441871,0,0,0
3325,113495.9630334652,2010-10-09 22:01:03,4502.250869499753,2,10,0.550297200679779,4.035986423492432,10.136762384526316,9.419001826786968,40.300535509840415,34.50048107834362,3.23295607813634e-05,0.0897949114441871,0,0,0
3326,113525.97824608548,2010-10-09 22:01:33,4532.266082135091,2,10,0.550297200679779,4.03873872756958,10.141349051579455,9.419001826786968,40.31905365412448,34.50048107834362,9.71794142969884e-05,0.0897949114441871,0,0,0
3327,113555.99541024464,2010-10-09 22:02:03,4562.2832462791885,2,10,0.5499359965324402,4.04116678237915,10.145936021685388,9.419001826786968,40.33758437386639,34.50048107834362,9.70840483205393e-05,0.0897949114441871,0,0,0
3328,113586.0086678775,2010-10-09 22:02:33,4592.296503881983,2,10,0.5501165986061096,4.043595314025879,10.150522380818254,9.419001826786968,40.3561241833515,34.50048107834362,6.47544875391759e-05,0.0897949114441871,0,0,0
3329,113616.02389196136,2010-10-09 22:03:03,4622.311727965854,2,10,0.550297200679779,4.046347141265869,10.155109026758064,9.419001826786968,40.374676804116994,34.50048107834362,9.70840483205393e-05,0.0897949114441871,0,0,0
3330,113646.03912412036,2010-10-09 22:03:33,4652.326960154925,2,10,0.5501165986061096,4.048613548278809,10.1596957326531,9.419001826786968,40.39324143260479,34.50048107834362,3.23295607813634e-05,0.0897949114441871,0,0,0
3331,113676.05428165336,2010-10-09 22:04:03,4682.342117692942,2,10,0.550297200679779,4.051365852355957,10.164282379879737,9.419001826786968,40.41181766801443,34.50048107834362,6.47544875391759e-05,0.0897949114441871,0,0,0
3332,113706.06960054854,2010-10-09 22:04:33,4712.357436578087,2,10,0.5501165986061096,4.053956031799316,10.168869052392717,9.419001826786968,40.4304060144637,34.50048107834362,3.24249267578125e-05,0.0897949114441871,0,0,0
3333,113736.0850307912,2010-10-09 22:05:03,4742.372866830793,2,10,0.5501165986061096,4.056546211242676,10.173455829496396,9.419001826786968,40.44900693023929,34.50048107834362,6.47544875391759e-05,0.0897949114441871,0,0,0
3334,113766.0999881804,2010-10-09 22:05:33,4772.387824230004,2,10,0.5499359965324402,4.059298038482666,10.178042440796998,9.419001826786968,40.46761939462056,34.50048107834362,6.47544875391759e-05,0.0897949114441871,0,0,0
3335,113796.11766851602,2010-10-09 22:06:03,4802.405504675885,2,10,0.5501165986061096,4.062050342559815,10.18262949053966,9.419001826786968,40.48624576006691,34.50048107834362,9.71794142969884e-05,0.0897949114441871,0,0,0
3336,113826.13041239846,2010-10-09 22:06:33,4832.418248433018,2,10,0.5501165986061096,4.064802169799805,10.187215758152602,9.419001826786968,40.504881378935046,34.50048107834362,9.70840483205393e-05,0.0897949114441871,0,0,0
3337,113856.14564884311,2010-10-09 22:07:03,4862.4334848576445,2,10,0.5501165986061096,4.067392349243164,10.191802338811131,9.419001826786968,40.52353089975024,34.50048107834362,3.23295607813634e-05,0.0897949114441871,0,0,0
3338,113886.16085496724,2010-10-09 22:07:33,4892.448691107067,2,10,0.5501165986061096,4.070306301116943,10.196389010568645,9.419001826786968,40.54219358510097,34.50048107834362,6.47544875391759e-05,0.0897949114441871,0,0,0
3339,113916.1760580237,2010-10-09 22:08:03,4922.463894058268,2,10,0.5501165986061096,4.073058605194092,10.20097569837684,9.419001826786968,40.560869107550886,34.50048107834362,6.47544875391759e-05,0.0897949114441871,0,0,0
3340,113946.19127563645,2010-10-09 22:08:33,4952.479111671011,2,10,0.5501165986061096,4.075972557067871,10.205562366470282,9.419001826786968,40.57955755387286,34.50048107834362,6.47544875391759e-05,0.0897949114441871,0,0,0
3341,113976.19319991813,2010-10-09 22:09:03,4982.481036057944,2,10,0.5501165986061096,4.078724384307861,10.210147006236324,9.419001826786968,40.59825079232216,34.50048107834362,6.47544875391759e-05,0.0897949114441871,0,0,0
3342,114006.20610717274,2010-10-09 22:09:33,5012.493943187252,2,10,0.5501165986061096,4.08180046081543,10.214733281710377,9.419001826786968,40.61696387696297,34.50048107834362,0.0001295089750783,0.0897949114441871,0,0,0
3343,114036.22127659536,2010-10-09 22:10:03,5042.50911260989,2,10,0.5501165986061096,4.08455228805542,10.219319926888296,9.419001826786968,40.63569174777194,34.50048107834362,6.47544875391759e-05,0.0897949114441871,0,0,0
3344,114066.23647179724,2010-10-09 22:10:33,5072.524307801752,2,10,0.5499359965324402,4.087628364562988,10.223906524582082,9.419001826786968,40.654432866747165,34.50048107834362,6.47544875391759e-05,0.0897949114441871,0,0,0
3345,114096.25169239745,2010-10-09 22:11:03,5102.5395284019405,2,10,0.5501165986061096,4.090542316436768,10.228493096955807,9.419001826786968,40.67318741578554,34.50048107834362,9.71794142969884e-05,0.0897949114441871,0,0,0
3346,114126.26690809542,2010-10-09 22:11:33,5132.554744104923,2,10,0.5501165986061096,4.093456268310547,10.233079693530284,9.419001826786968,40.69195562651687,34.50048107834362,6.47544875391759e-05,0.0897949114441871,0,0,0
3347,114156.28225811815,2010-10-09 22:12:03,5162.570094142709,2,10,0.5497553944587708,4.096370220184326,10.237666355857002,9.419001826786968,40.71073789045282,34.50048107834362,3.24249267578125e-05,0.0897949114441871,0,0,0
3348,114186.29924020352,2010-10-09 22:12:33,5192.587076228061,2,10,0.550297200679779,4.099445819854736,10.242253280894731,9.419001826786968,40.72953504264199,34.50048107834362,3.23295607813634e-05,0.0897949114441871,0,0,0
3349,114216.31283353304,2010-10-09 22:13:03,5222.60066955759,2,10,0.5501165986061096,4.102521896362305,10.24683971891767,9.419001826786968,40.748344217894605,34.50048107834362,6.47544875391759e-05,0.0897949114441871,0,0,0
3350,114246.32791013437,2010-10-09 22:13:33,5252.615746254126,2,10,0.5501165986061096,4.105759620666504,10.251426336995266,9.419001826786968,40.76716830732664,34.50048107834362,0.0001295089750783,0.0897949114441871,0,0,0
3351,114276.34312994256,2010-10-09 22:14:03,5282.630965967103,2,10,0.5501165986061096,4.108835220336914,10.256012941408075,9.419001826786968,40.78600661105133,34.50048107834362,9.70840483205393e-05,0.0897949114441871,0,0,0
3352,114306.35820341106,2010-10-09 22:14:33,5312.6460394556425,2,10,0.5501165986061096,4.111911296844482,10.26059954504961,9.419001826786968,40.80485926641644,34.50048107834362,9.71794142969884e-05,0.0897949114441871,0,0,0
3353,114336.37342861271,2010-10-09 22:15:03,5342.661264622212,2,10,0.5501165986061096,4.114986896514893,10.265186223661454,9.419001826786968,40.82372666138016,34.50048107834362,3.24249267578125e-05,0.0897949114441871,0,0,0
3354,114366.3886886512,2010-10-09 22:15:33,5372.67652469578,2,10,0.5501165986061096,4.118224620819092,10.269772862999965,9.419001826786968,40.84260849476556,34.50048107834362,9.71794142969884e-05,0.0897949114441871,0,0,0
3355,114396.40402342592,2010-10-09 22:16:03,5402.691859445464,2,10,0.5501165986061096,4.121462345123291,10.274359448555815,9.419001826786968,40.86150484797136,34.50048107834362,6.47544875391759e-05,0.0897949114441871,0,0,0
3356,114426.41910622768,2010-10-09 22:16:33,5432.706942302354,2,10,0.5501165986061096,4.12470006942749,10.278946070110416,9.419001826786968,40.880416206027576,34.50048107834362,3.24249267578125e-05,0.0897949114441871,0,0,0
3357,114456.43441284224,2010-10-09 22:17:03,5462.722248896866,2,10,0.550297200679779,4.1279377937316895,10.283532697874133,9.419001826786968,40.89934259365356,34.50048107834362,3.24249267578125e-05,0.0897949114441871,0,0,0
3358,114486.44963000888,2010-10-09 22:17:33,5492.737466033422,2,10,0.5501165986061096,4.13133716583252,10.288119383333637,9.419001826786968,40.91828430833077,34.50048107834362,6.47544875391759e-05,0.0897949114441871,0,0,0
3359,114516.4647198181,2010-10-09 22:18:03,5522.752555822589,2,10,0.5501165986061096,4.134737014770508,10.29270601266512,9.419001826786968,40.93724103363009,34.50048107834362,9.71794142969884e-05,0.0897949114441871,0,0,0
3360,114546.48005549009,2010-10-09 22:18:33,5552.767891524646,2,10,0.550297200679779,4.138136386871338,10.297292690634974,9.419001826786968,40.95621330485057,34.50048107834362,9.70840483205393e-05,0.0897949114441871,0,0,0
3361,114576.49514002114,2010-10-09 22:19:03,5582.782976045683,2,10,0.550297200679779,4.141374111175537,10.301879376177348,9.419001826786968,40.97520105839826,34.50048107834362,9.70840483205393e-05,0.0897949114441871,0,0,0
3362,114606.51026489776,2010-10-09 22:19:34,5612.798100937336,2,10,0.5501165986061096,4.144935607910156,10.306466025953304,9.419001826786968,40.99420421722776,34.50048107834362,9.70840483205393e-05,0.0897949114441871,0,0,0
3363,114636.52557808367,2010-10-09 22:20:04,5642.813414148339,2,10,0.5499359965324402,4.1483354568481445,10.311052696293691,9.419001826786968,41.01322341438392,34.50048107834362,9.71794142969884e-05,0.0897949114441871,0,0,0
3364,114666.54076511522,2010-10-09 22:20:34,5672.828601129739,2,10,0.5501165986061096,4.151734828948975,10.315639317298118,9.419001826786968,41.032258193012986,34.50048107834362,6.47544875391759e-05,0.0897949114441871,0,0,0
3365,114696.55611078712,2010-10-09 22:21:04,5702.843946801644,2,10,0.5499359965324402,4.155134677886963,10.32022597260959,9.419001826786968,41.051309033232016,34.50048107834362,6.47544875391759e-05,0.0897949114441871,0,0,0
3366,114726.57114493262,2010-10-09 22:21:34,5732.85898096718,2,10,0.5501165986061096,4.158696174621582,10.324812519859814,9.419001826786968,41.07037540658035,34.50048107834362,6.47544875391759e-05,0.0897949114441871,0,0,0
3367,114756.58643222904,2010-10-09 22:22:04,5762.874268243546,2,10,0.5499359965324402,4.162095546722412,10.329399170097789,9.419001826786968,41.089458284831686,34.50048107834362,6.47544875391759e-05,0.0897949114441871,0,0,0
3368,114786.60357432818,2010-10-09 22:22:34,5792.8914103828,2,10,0.550297200679779,4.16614294052124,10.333986073535389,9.419001826786968,41.10855841363074,34.50048107834362,0.0001942634553415,0.0897949114441871,0,0,0
3369,114816.61686055233,2010-10-09 22:23:04,5822.904696596903,2,10,0.5501165986061096,4.16938066482544,10.338572422600148,9.419001826786968,41.12767255808814,34.50048107834362,9.71794142969884e-05,0.0897949114441871,0,0,0
3370,114846.6321058691,2010-10-09 22:23:34,5852.919941913692,2,10,0.5501165986061096,4.172942161560059,10.343159016161362,9.419001826786968,41.14680404101605,34.50048107834362,9.71794142969884e-05,0.0897949114441871,0,0,0
3371,114876.6473249806,2010-10-09 22:24:04,5882.935161025171,2,10,0.5501165986061096,4.176503658294678,10.347745626290424,9.419001826786968,41.1659520982561,34.50048107834362,9.71794142969884e-05,0.0897949114441871,0,0,0
3372,114906.66249435308,2010-10-09 22:24:34,5912.950330397684,2,10,0.5499359965324402,4.180226802825928,10.352332259510776,9.419001826786968,41.18511694834064,34.50048107834362,9.70840483205393e-05,0.0897949114441871,0,0,0
3373,114936.67771088817,2010-10-09 22:25:04,5942.965546902665,2,10,0.550297200679779,4.184112071990967,10.356918902543743,9.419001826786968,41.204298598331285,34.50048107834362,0.0001295089750783,0.0897949114441871,0,0,0
3374,114966.69292867632,2010-10-09 22:25:34,5972.980764730945,2,10,0.5501165986061096,4.187511920928955,10.361505574611536,9.419001826786968,41.22349721382774,34.50048107834362,9.71794142969884e-05,0.0897949114441871,0,0,0
3375,114996.70816954203,2010-10-09 22:26:04,6002.996005586616,2,10,0.5497553944587708,4.191235065460205,10.366092269473745,9.419001826786968,41.24271295337727,34.50048107834362,9.70840483205393e-05,0.0897949114441871,0,0,0
3376,115026.72335959108,2010-10-09 22:26:34,6033.011195635661,2,10,0.5501165986061096,4.194958209991455,10.370678958435471,9.419001826786968,41.26194576706565,34.50048107834362,9.70840483205393e-05,0.0897949114441871,0,0,0
3377,115056.7385939706,2010-10-09 22:27:04,6063.026430015191,2,10,0.5501165986061096,4.199005603790283,10.375265649692084,9.419001826786968,41.28119568635922,34.50048107834362,0.0001295089750783,0.0897949114441871,0,0,0
3378,115065.5822130204,2010-10-09 22:27:13,6071.87004902989,2,10,0.550297200679779,4.200138568878174,10.376617074614988,9.419001826786968,41.28687081642334,34.50048107834362,0.0001295089750783,0.0897949114441871,0,0,0
3379,115095.60124958008,2010-10-09 22:27:43,30.015242239119036,3,10,0.0,4.121623992919922,10.376617074614988,9.419001826786968,41.28687081642334,34.50048107834362,-0.0003885269106831,0.0897949114441871,0,0,0
3380,115125.61643673692,2010-10-09 22:28:13,60.03042947114346,3,10,0.0,4.112072944641113,10.376617074614988,9.419001826786968,41.28687081642334,34.50048107834362,-0.0001619339018361,0.0897949114441871,0,0,0
3381,115155.63176780242,2010-10-09 22:28:43,90.0457604514328,3,10,0.0,4.106407165527344,10.376617074614988,9.419001826786968,41.28687081642334,34.50048107834362,-0.0001295089750783,0.0897949114441871,0,0,0
3382,115185.60002201793,2010-10-09 22:29:13,120.01401467696412,3,10,0.0,4.102683544158936,10.376617074614988,9.419001826786968,41.28687081642334,34.50048107834362,-9.71794142969884e-05,0.0897949114441871,0,0,0
3383,115185.6132485444,2010-10-09 22:29:13,0.01562965390666,4,10,0.9837594628334044,4.199653148651123,10.376621360576996,9.419001826786968,41.28688881632261,34.50048107834362,-3.23295607813634e-05,0.0897949114441871,0,0,0
3384,115186.70696793968,2010-10-09 22:29:14,1.109349144406058,4,10,0.9330082535743712,4.199491024017334,10.376911056726993,9.419001826786968,41.28810542812984,34.50048107834362,-6.47544875391759e-05,0.0897949114441871,0,0,0
3385,115188.97256091949,2010-10-09 22:29:16,3.374942003917456,4,10,0.8826183080673218,4.199653148651123,10.37748129446541,9.419001826786968,41.29050021698169,34.50048107834362,-3.23295607813634e-05,0.0897949114441871,0,0,0
3386,115192.3319056502,2010-10-09 22:29:20,6.734286729618434,4,10,0.8324089050292969,4.199653148651123,10.37828044041342,9.419001826786968,41.29385632311089,34.50048107834362,3.24249267578125e-05,0.0897949114441871,0,0,0
3387,115196.84745574545,2010-10-09 22:29:24,11.249836829868288,4,10,0.7823801636695862,4.199491024017334,10.37929218742194,9.419001826786968,41.29810529670086,34.50048107834362,-3.24249267578125e-05,0.0897949114441871,0,0,0
3388,115202.73800828484,2010-10-09 22:29:30,17.140389379299176,4,10,0.7323513627052307,4.199653148651123,10.380530009073048,9.419001826786968,41.30330371375601,34.50048107834362,-3.23295607813634e-05,0.0897949114441871,0,0,0
3389,115210.28477306975,2010-10-09 22:29:38,24.68715415921219,4,10,0.6821420192718506,4.199491024017334,10.382010716627445,9.419001826786968,41.30952218708677,34.50048107834362,0.0,0.0897949114441871,0,0,0
3390,115220.42526983283,2010-10-09 22:29:48,34.82765094234862,4,10,0.6321132183074951,4.199491024017334,10.38385881636998,9.419001826786968,41.31728357524007,34.50048107834362,-6.47544875391759e-05,0.0897949114441871,0,0,0
3391,115234.40945878957,2010-10-09 22:30:02,48.8118399040686,4,10,0.5820844769477844,4.199653148651123,10.38621198460595,9.419001826786968,41.32716608996844,34.50048107834362,0.0,0.0897949114441871,0,0,0
3392,115255.56540311234,2010-10-09 22:30:23,69.96778422182979,4,10,0.5318750739097595,4.199653148651123,10.389475413682804,9.419001826786968,41.34087139293381,34.50048107834362,-3.23295607813634e-05,0.0897949114441871,0,0,0
3393,115291.50242776531,2010-10-09 22:30:59,105.90480889987352,4,10,0.4818463027477264,4.199653148651123,10.394513639786574,9.419001826786968,41.36203020116477,34.50048107834362,0.0,0.0897949114441871,0,0,0
3394,115353.7359603924,2010-10-09 22:32:01,168.13834149187204,4,10,0.4318175315856933,4.199491024017334,10.40237705242521,9.419001826786968,41.39505384875172,34.50048107834362,-3.24249267578125e-05,0.0897949114441871,0,0,0
3395,115447.31311014254,2010-10-09 22:33:35,261.7154913522934,4,10,0.3817887604236603,4.199653148651123,10.412927378700692,9.419001826786968,41.43936159271226,34.50048107834362,0.0,0.0897949114441871,0,0,0
3396,115565.04558315066,2010-10-09 22:35:32,379.44796422506863,4,10,0.3317599892616272,4.199653148651123,10.424574911157878,9.419001826786968,41.48827735618271,34.50048107834362,0.0,0.0897949114441871,0,0,0
3397,115705.65302054348,2010-10-09 22:37:53,520.0554016479534,4,10,0.2817312180995941,4.199653148651123,10.436534310320924,9.419001826786968,41.53850279256424,34.50048107834362,3.24249267578125e-05,0.0897949114441871,0,0,0
3398,115877.10381819532,2010-10-09 22:40:44,691.5061993048058,4,10,0.2317024618387222,4.199653148651123,10.448732480062628,9.419001826786968,41.589730921274175,34.50048107834362,0.0,0.0897949114441871,0,0,0
3399,116092.36650299048,2010-10-09 22:44:20,906.7688840699128,4,10,0.1816736906766891,4.199653148651123,10.461046590932924,9.419001826786968,41.641446019982254,34.50048107834362,0.0,0.0897949114441871,0,0,0
3400,116383.65941888548,2010-10-09 22:49:11,1198.061799989975,4,10,0.1314643174409866,4.199653148651123,10.473634277175345,9.419001826786968,41.69431004915458,34.50048107834362,0.0,0.0897949114441871,0,0,0
3401,116835.2157560832,2010-10-09 22:56:43,1649.6181371977082,4,10,0.0814355388283729,4.199653148651123,10.486773589809642,9.419001826786968,41.74949091529131,34.50048107834362,-3.23295607813634e-05,0.0897949114441871,0,0,0
3402,117329.91210528968,2010-10-09 23:04:57,2144.3144863691045,4,10,0.0498289167881011,4.199653148651123,10.495637214737611,9.419001826786968,41.78671524006483,34.50048107834362,0.0,0.0897949114441871,0,0,0
3403,117359.93073288006,2010-10-09 23:05:27,30.015182149356857,5,10,0.0,4.192530155181885,10.495637214737611,9.419001826786968,41.78671524006483,34.50048107834362,0.0,0.0897949114441871,0,0,0
3404,117389.93032823736,2010-10-09 23:05:57,60.01477753169437,5,10,0.0,4.191397190093994,10.495637214737611,9.419001826786968,41.78671524006483,34.50048107834362,0.0,0.0897949114441871,0,0,0
3405,117390.1241889934,2010-10-09 23:05:58,0.189620998874117,6,10,-1.9243103452026844e-05,4.191235065460205,10.495637214737611,9.41900182780055,41.78671524006483,34.500481082591776,0.0,0.0898760333657264,0,0,0
3406,117394.950095778,2010-10-09 23:06:02,5.015527778463247,6,10,0.0007031940040178,4.191235065460205,10.495638062424298,9.419001827956384,41.78671879308707,34.500481083244914,-3.24249267578125e-05,0.0898760333657264,0,0,0
3407,117424.96185874632,2010-10-09 23:06:33,30.01524166769487,7,10,-1.0997490882873535,4.030482769012451,10.495638062424298,9.428170818746535,41.78671879308707,34.53761274668662,-0.000841712928377,0.0898760333657264,0,0,0
3408,117454.97725566094,2010-10-09 23:07:03,60.03063864747524,7,10,-1.099929690361023,4.007009029388428,10.495638062424298,9.437339839361895,41.78671879308707,34.57445326945026,-0.0005504608270712,0.0898760333657264,0,0,0
3409,117484.9922618668,2010-10-09 23:07:33,90.04564479818933,7,10,-1.0997490882873535,3.991144418716431,10.495638062424298,9.446508674308358,41.78671879308707,34.61111777556343,-0.0004209041653666,0.0898760333657264,0,0,0
3410,117515.00750445176,2010-10-09 23:08:03,120.06088739820784,7,10,-1.0997490882873535,3.9785172939300537,10.495638062424298,9.455677569749726,41.78671879308707,34.6476536909941,-0.0003561496851034,0.0898760333657264,0,0,0
3411,117545.02272890156,2010-10-09 23:08:33,150.0761118229279,7,10,-1.099568486213684,3.967832803726196,10.495638062424298,9.464846399292387,41.78671879308707,34.68408296591727,-0.0002913951757363,0.0898760333657264,0,0,0
3412,117575.03988528631,2010-10-09 23:09:03,180.09326825279928,7,10,-1.099568486213684,3.9582815170288086,10.495638062424298,9.474015843263093,41.78671879308707,34.720421192063576,-0.0002590179501567,0.0898760333657264,0,0,0
3413,117605.05319245264,2010-10-09 23:09:33,210.10657536899657,7,10,-1.0997490882873535,3.949054002761841,10.495638062424298,9.48318404228675,41.78671879308707,34.75666810836755,-0.0001942634553415,0.0898760333657264,0,0,0
3414,117635.06839363943,2010-10-09 23:10:03,240.1217765608131,7,10,-1.099568486213684,3.940312147140503,10.495638062424298,9.492352878147232,41.78671879308707,34.792835376004035,-0.0002266406954731,0.0898760333657264,0,0,0
3415,117665.08360481614,2010-10-09 23:10:33,270.1369877425275,7,10,-1.0997490882873535,3.931732177734375,10.495638062424298,9.501521733087262,41.78671879308707,34.82892377115878,-0.0002266406954731,0.0898760333657264,0,0,0
3416,117695.09878567228,2010-10-09 23:11:03,300.1521685685864,7,10,-1.099929690361023,3.923314094543457,10.495638062424298,9.510690602886882,41.78671879308707,34.86493563679187,-0.0002590179501567,0.0898760333657264,0,0,0
3417,117725.11401295912,2010-10-09 23:11:33,330.1673958905272,7,10,-1.0997490882873535,3.915219783782959,10.495638062424298,9.519859499049655,41.78671879308707,34.90087219370084,-0.0002266406954731,0.0898760333657264,0,0,0
3418,117755.1292282912,2010-10-09 23:12:03,360.18261122258554,7,10,-1.0997490882873535,3.90728759765625,10.495638062424298,9.529028342670037,41.78671879308707,34.93673430257995,-0.0002266406954731,0.0898760333657264,0,0,0
3419,117785.14445414949,2010-10-09 23:12:33,390.197837055816,7,10,-1.0997490882873535,3.899517059326172,10.495638062424298,9.538197158545588,41.78671879308707,34.9725238283717,-0.0001942634553415,0.0898760333657264,0,0,0
3420,117815.15965331624,2010-10-09 23:13:03,420.21303625266046,7,10,-1.0997490882873535,3.8917465209960938,10.495638062424298,9.54736594333786,41.78671879308707,35.00824171735285,-0.0001942634553415,0.0898760333657264,0,0,0
3421,117845.17488715444,2010-10-09 23:13:33,450.2282701058793,7,10,-1.0997490882873535,3.883975982666016,10.495638062424298,9.556534777765243,41.78671879308707,35.04388960089717,-0.0002590179501567,0.0898760333657264,0,0,0
3422,117875.1900896194,2010-10-09 23:14:03,480.243472520744,7,10,-1.099568486213684,3.876691102981568,10.495638062424298,9.565703648561682,41.78671879308707,35.07946761705264,-0.0001295089750783,0.0898760333657264,0,0,0
3423,117905.20545544656,2010-10-09 23:14:33,510.25883835790745,7,10,-1.0997490882873535,3.869082450866699,10.495638062424298,9.574872544208633,41.78671879308707,35.114976211897826,-0.0001618862152099,0.0898760333657264,0,0,0
3424,117935.22054353647,2010-10-09 23:15:03,540.2739264378142,7,10,-1.0997490882873535,3.861473798751831,10.495638062424298,9.584041361164982,41.78671879308707,35.15041600149004,-0.0001618862152099,0.0898760333657264,0,0,0
3425,117965.23593790476,2010-10-09 23:15:33,570.2893208110985,7,10,-1.099568486213684,3.854027032852173,10.495638062424298,9.593210283538076,41.78671879308707,35.18578841712108,-0.0002266406954731,0.0898760333657264,0,0,0
3426,117995.25095633107,2010-10-09 23:16:03,600.3043392374071,7,10,-1.0997490882873535,3.846904039382935,10.495638062424298,9.602379134855342,41.78671879308707,35.221093776599304,-0.0001942634553415,0.0898760333657264,0,0,0
3427,118025.26631846902,2010-10-09 23:16:33,630.3197013853758,7,10,-1.099568486213684,3.839942932128906,10.495638062424298,9.61154809333927,41.78671879308707,35.25633411696619,-0.0001942634553415,0.0898760333657264,0,0,0
3428,118055.28140237353,2010-10-09 23:17:03,660.3347852999012,7,10,-1.099568486213684,3.832820177078247,10.495638062424298,9.620717007209812,41.78671879308707,35.291509535381195,-0.0002265930233988,0.0898760333657264,0,0,0
3429,118085.29682445586,2010-10-09 23:17:33,690.3502073672075,7,10,-1.099568486213684,3.826182842254639,10.495638062424298,9.62988596293964,41.78671879308707,35.32662174430769,-0.0001618862152099,0.0898760333657264,0,0,0
3430,118115.31183171434,2010-10-09 23:18:03,720.365214610645,7,10,-1.099568486213684,3.81938362121582,10.495638062424298,9.639054812547958,41.78671879308707,35.3616715130078,-0.0001942634553415,0.0898760333657264,0,0,0
3431,118145.32694093192,2010-10-09 23:18:33,750.3803238532959,7,10,-1.099929690361023,3.812746286392212,10.495638062424298,9.648223762155585,41.78671879308707,35.39666047615455,-0.0001942634553415,0.0898760333657264,0,0,0
3432,118175.3443600916,2010-10-09 23:19:03,780.3977430530707,7,10,-1.0997490882873535,3.8062708377838135,10.495638062424298,9.65739406477616,41.78671879308707,35.43159314481654,-0.0001295089750783,0.0898760333657264,0,0,0
3433,118205.35737526018,2010-10-09 23:19:33,810.4107581915697,7,10,-1.099568486213684,3.799795389175415,10.495638062424298,9.666562980320451,41.78671879308707,35.4664611493445,-0.0001618862152099,0.0898760333657264,0,0,0
3434,118235.37266619064,2010-10-09 23:20:03,840.4260490969801,7,10,-1.0997490882873535,3.7934818267822266,10.495638062424298,9.675732561237696,41.78671879308707,35.501273712293504,-0.0001295089750783,0.0898760333657264,0,0,0
3435,118265.38790906635,2010-10-09 23:20:33,870.4412919676732,7,10,-1.0997490882873535,3.787168264389038,10.495638062424298,9.684902208569143,41.78671879308707,35.53602955837154,-0.0001942634553415,0.0898760333657264,0,0,0
3436,118295.40322479865,2010-10-09 23:21:03,900.4566077250222,7,10,-1.099929690361023,3.7811784744262695,10.495638062424298,9.69407187469427,41.78671879308707,35.57072985197596,-0.0001942634553415,0.0898760333657264,0,0,0
3437,118325.41832492856,2010-10-09 23:21:33,930.4717078349116,7,10,-1.099929690361023,3.775350570678711,10.495638062424298,9.703241520074494,41.78671879308707,35.60537545133291,-0.0001942634553415,0.0898760333657264,0,0,0
3438,118355.43376399323,2010-10-09 23:22:03,960.487146934668,7,10,-1.0997490882873535,3.769522666931152,10.495638062424298,9.712410473125832,41.78671879308707,35.63996483707185,-0.0001618862152099,0.0898760333657264,0,0,0
3439,118385.448775773,2010-10-09 23:22:33,990.5021587043864,7,10,-1.099929690361023,3.7636947631835938,10.495638062424298,9.721579293222067,41.78671879308707,35.67450098848248,-0.0001942634553415,0.0898760333657264,0,0,0
3440,118415.46623175444,2010-10-09 23:23:03,1020.5196147860822,7,10,-1.099568486213684,3.758190631866455,10.495638062424298,9.73074884561282,41.78671879308707,35.708988460537306,-0.0001618862152099,0.0898760333657264,0,0,0
3441,118445.47920425668,2010-10-09 23:23:33,1050.5325871579937,7,10,-1.099568486213684,3.7528486251831055,10.495638062424298,9.739916969499973,41.78671879308707,35.743419920466906,-0.0001294612884521,0.0898760333657264,0,0,0
3442,118475.4944387214,2010-10-09 23:24:03,1080.5478216528118,7,10,-1.099568486213684,3.7475063800811768,10.495638062424298,9.749085779948338,41.78671879308707,35.77780435436356,-0.0001295089750783,0.0898760333657264,0,0,0
3443,118505.5096697576,2010-10-09 23:24:33,1110.563052774222,7,10,-1.099929690361023,3.742164134979248,10.495638062424298,9.758254613062746,41.78671879308707,35.81214037543966,-0.0001295089750783,0.0898760333657264,0,0,0
3444,118535.52485407738,2010-10-09 23:25:03,1140.578237008776,7,10,-1.0997490882873535,3.736983776092529,10.495638062424298,9.76742346846523,41.78671879308707,35.84642852124728,-0.0001618862152099,0.0898760333657264,0,0,0
3445,118565.54244621316,2010-10-09 23:25:33,1170.5958292548353,7,10,-1.0997490882873535,3.7321271896362314,10.495638062424298,9.77659303175794,41.78671879308707,35.88067237068369,-9.713172767078504e-05,0.0898760333657264,0,0,0
3446,118595.55529774392,2010-10-09 23:26:03,1200.6086806702858,7,10,-1.099568486213684,3.726946830749512,10.495638062424298,9.78576109148791,41.78671879308707,35.914864509352334,-0.0001295089750783,0.0898760333657264,0,0,0
3447,118625.57051027396,2010-10-09 23:26:33,1230.6238931752982,7,10,-1.099568486213684,3.722090244293213,10.495638062424298,9.794929826668488,41.78671879308707,35.94901395443394,-0.0001618862152099,0.0898760333657264,0,0,0
3448,118655.58571930032,2010-10-09 23:27:03,1260.6391022317162,7,10,-1.099568486213684,3.717395544052124,10.495638062424298,9.804098578529992,41.78671879308707,35.983118493248185,-9.713172767078504e-05,0.0898760333657264,0,0,0
3449,118685.60095355452,2010-10-09 23:27:33,1290.6543365109965,7,10,-1.099568486213684,3.7123770713806152,10.495638062424298,9.813267451035117,41.78671879308707,36.01717894708859,-9.713172767078504e-05,0.0898760333657264,0,0,0
3450,118715.61616430516,2010-10-09 23:28:03,1320.669547236574,7,10,-1.099568486213684,3.7076823711395264,10.495638062424298,9.822436383603955,41.78671879308707,36.05119558114208,-6.47544875391759e-05,0.0898760333657264,0,0,0
3451,118745.6313655772,2010-10-09 23:28:33,1350.684748563728,7,10,-1.099929690361023,3.702825784683228,10.495638062424298,9.831605152889436,41.78671879308707,36.08516839962703,-0.0001295089750783,0.0898760333657264,0,0,0
3452,118775.64844698008,2010-10-09 23:29:03,1380.7018299465592,7,10,-1.099568486213684,3.6982929706573486,10.495638062424298,9.840774586013502,41.78671879308707,36.11910096686402,-0.0001295089750783,0.0898760333657264,0,0,0
3453,118805.66194733788,2010-10-09 23:29:33,1410.715330264274,7,10,-1.0997490882873535,3.6937601566314697,10.495638062424298,9.84994284712486,41.78671879308707,36.15298713086692,-0.0001618862152099,0.0898760333657264,0,0,0
3454,118835.67704042527,2010-10-09 23:30:03,1440.7304233566736,7,10,-1.0997490882873535,3.689227342605591,10.495638062424298,9.859111681106755,41.78671879308707,36.18683396781016,-9.713172767078504e-05,0.0898760333657264,0,0,0
3455,118865.69239471866,2010-10-09 23:30:33,1470.7457776350288,7,10,-1.099568486213684,3.685018301010132,10.495638062424298,9.868280610606028,41.78671879308707,36.22064002305929,-9.713172767078504e-05,0.0898760333657264,0,0,0
3456,118895.70749964056,2010-10-09 23:31:03,1500.760882566936,7,10,-1.0997490882873535,3.680323600769043,10.495638062424298,9.877449484675155,41.78671879308707,36.25440558478385,-0.0001618862152099,0.0898760333657264,0,0,0
3457,118925.72273324314,2010-10-09 23:31:33,1530.7761161795552,7,10,-1.0997490882873535,3.675952672958374,10.495638062424298,9.886618349286453,41.78671879308707,36.28813144470574,-0.0001618862152099,0.0898760333657264,0,0,0
3458,118955.73795295112,2010-10-09 23:32:03,1560.791335857445,7,10,-1.0997490882873535,3.671905755996704,10.495638062424298,9.895787295018284,41.78671879308707,36.32181847001498,-9.713172767078504e-05,0.0898760333657264,0,0,0
3459,118985.75313786234,2010-10-09 23:32:33,1590.8065208037724,7,10,-1.099568486213684,3.667858600616455,10.495638062424298,9.904956202829318,41.78671879308707,36.35546667383521,-9.713172767078504e-05,0.0898760333657264,0,0,0
3460,119015.7683406682,2010-10-09 23:33:03,1620.8217235644993,7,10,-1.0997490882873535,3.663649559020996,10.495638062424298,9.914125088438745,41.78671879308707,36.38907667194805,-9.713172767078504e-05,0.0898760333657264,0,0,0
3461,119045.78368966338,2010-10-09 23:33:33,1650.8370725747247,7,10,-1.0997490882873535,3.659602403640747,10.495638062424298,9.923294065438297,41.78671879308707,36.4226495063148,-0.0001295089750783,0.0898760333657264,0,0,0
3462,119075.7988019486,2010-10-09 23:34:03,1680.8521848599587,7,10,-1.099929690361023,3.655555248260498,10.495638062424298,9.932462999364931,41.78671879308707,36.45618539573943,-9.713172767078504e-05,0.0898760333657264,0,0,0
3463,119105.81415519438,2010-10-09 23:34:33,1710.867538100728,7,10,-1.0997490882873535,3.651508092880249,10.495638062424298,9.94163196966873,41.78671879308707,36.48968539817,-0.0001295089750783,0.0898760333657264,0,0,0
3464,119135.82921007655,2010-10-09 23:35:03,1740.8825929778834,7,10,-1.099568486213684,3.64778470993042,10.495638062424298,9.950800811732304,41.78671879308707,36.52314947961466,-0.0001295089750783,0.0898760333657264,0,0,0
3465,119165.84443244616,2010-10-09 23:35:33,1770.8978153725438,7,10,-1.0997490882873535,3.643899440765381,10.495638062424298,9.959969673587215,41.78671879308707,36.55657836543045,-0.0001295089750783,0.0898760333657264,0,0,0
3466,119195.85965726186,2010-10-09 23:36:04,1800.9130401882385,7,10,-1.099568486213684,3.640499830245972,10.495638062424298,9.969138515516011,41.78671879308707,36.58997317930409,-6.47544875391759e-05,0.0898760333657264,0,0,0
3467,119225.87491261867,2010-10-09 23:36:34,1830.928295514976,7,10,-1.0997490882873535,3.636776447296143,10.495638062424298,9.978307465412517,41.78671879308707,36.62333501298991,-9.713172767078504e-05,0.0898760333657264,0,0,0
3468,119255.8900848082,2010-10-09 23:37:04,1860.9434677095223,7,10,-1.099929690361023,3.633214950561523,10.495638062424298,9.987476267019012,41.78671879308707,36.656663892096205,-0.0001295089750783,0.0898760333657264,0,0,0
3469,119285.90529846106,2010-10-09 23:37:34,1890.9586813623955,7,10,-1.099929690361023,3.629815340042114,10.495638062424298,9.996645162675618,41.78671879308707,36.68996153273166,-9.713172767078504e-05,0.0898760333657264,0,0,0
3470,119315.92053679546,2010-10-09 23:38:04,1920.9739197168328,7,10,-1.0997490882873535,3.626577615737915,10.495638062424298,10.005814120014016,41.78671879308707,36.72322853348347,-6.47544875391759e-05,0.0898760333657264,0,0,0
3471,119345.93574789196,2010-10-09 23:38:34,1950.9891307932849,7,10,-1.099568486213684,3.623501777648926,10.495638062424298,10.014982995431025,41.78671879308707,36.75646498300306,-3.237724376958795e-05,0.0898760333657264,0,0,0
3472,119375.95310936286,2010-10-09 23:39:04,1981.006492269194,7,10,-1.099568486213684,3.620264053344727,10.495638062424298,10.02415254033282,41.78671879308707,36.78967451128737,-6.47544875391759e-05,0.0898760333657264,0,0,0
3473,119405.966300901,2010-10-09 23:39:34,2011.019683812348,7,10,-1.099929690361023,3.6170263290405273,10.495638062424298,10.033320836358504,41.78671879308707,36.82285098613323,-9.713172767078504e-05,0.0898760333657264,0,0,0
3474,119435.98139274029,2010-10-09 23:40:04,2041.0347756816989,7,10,-1.0997490882873535,3.614112377166748,10.495638062424298,10.042489647045626,41.78671879308707,36.85600160818998,-3.237724376958795e-05,0.0898760333657264,0,0,0
3475,119465.99668696897,2010-10-09 23:40:34,2071.050069990592,7,10,-1.0997490882873535,3.6111984252929688,10.495638062424298,10.051658629818338,41.78671879308707,36.88912591369599,-9.713172767078504e-05,0.0898760333657264,0,0,0
3476,119496.01182575524,2010-10-09 23:41:04,2101.065208691662,7,10,-1.0997490882873535,3.6082844734191895,10.495638062424298,10.060827494206364,41.78671879308707,36.92222338692213,-9.713172767078504e-05,0.0898760333657264,0,0,0
3477,119526.02707267104,2010-10-09 23:41:34,2131.080455607437,7,10,-1.0997490882873535,3.60537052154541,10.495638062424298,10.069996379711249,41.78671879308707,36.95529532371872,-9.713172767078504e-05,0.0898760333657264,0,0,0
3478,119556.0422567552,2010-10-09 23:42:04,2161.095639686604,7,10,-1.099929690361023,3.602780342102051,10.495638062424298,10.079165232616432,41.78671879308707,36.98834154533721,-6.47544875391759e-05,0.0898760333657264,0,0,0
3479,119586.05750133014,2010-10-09 23:42:34,2191.110884256532,7,10,-1.099568486213684,3.6001901626586914,10.495638062424298,10.088334171953782,41.78671879308707,37.021363229813645,-6.47544875391759e-05,0.0898760333657264,0,0,0
3480,119616.0726861662,2010-10-09 23:43:04,2221.1260690675226,7,10,-1.0997490882873535,3.597599983215332,10.495638062424298,10.09750307970743,41.78671879308707,37.05436016841621,-3.237724376958795e-05,0.0898760333657264,0,0,0
3481,119646.08802656496,2010-10-09 23:43:34,2251.141409481323,7,10,-1.0997490882873535,3.5948479175567627,10.495638062424298,10.10667205509608,41.78671879308707,37.08733297056706,-6.47544875391759e-05,0.0898760333657264,0,0,0
3482,119676.1031346798,2010-10-09 23:44:04,2281.156517606188,7,10,-1.0997490882873535,3.5920960903167725,10.495638062424298,10.115840941366091,41.78671879308707,37.12028155139658,-9.70840483205393e-05,0.0898760333657264,0,0,0
3483,119706.11837090895,2010-10-09 23:44:34,2311.171753930565,7,10,-1.0997490882873535,3.589505910873413,10.495638062424298,10.1250098928503,41.78671879308707,37.15320633872474,-6.47544875391759e-05,0.0898760333657264,0,0,0
3484,119736.13360024088,2010-10-09 23:45:04,2341.186983192341,7,10,-1.0997490882873535,3.587077617645264,10.495638062424298,10.134178792647216,41.78671879308707,37.18610672507174,-3.237724376958795e-05,0.0898760333657264,0,0,0
3485,119766.14877978376,2010-10-09 23:45:34,2371.202162685077,7,10,-1.099568486213684,3.5841636657714844,10.495638062424298,10.143347744208135,41.78671879308707,37.21898300663416,-6.47544875391759e-05,0.0898760333657264,0,0,0
3486,119796.16400647412,2010-10-09 23:46:04,2401.217389405518,7,10,-1.0997490882873535,3.581573486328125,10.495638062424298,10.152516642012486,41.78671879308707,37.25183489394701,-6.47544875391759e-05,0.0898760333657264,0,0,0
3487,119826.17922661317,2010-10-09 23:46:34,2431.232609514482,7,10,-1.099568486213684,3.578821420669556,10.495638062424298,10.161685615096918,41.78671879308707,37.28466233704761,-0.0001295089750783,0.0898760333657264,0,0,0
3488,119856.19442995531,2010-10-09 23:47:04,2461.2478128566586,7,10,-1.0997490882873535,3.5760693550109863,10.495638062424298,10.170854592802444,41.78671879308707,37.31746462351712,-9.713172767078504e-05,0.0898760333657264,0,0,0
3489,119886.20965765824,2010-10-09 23:47:34,2491.263040559548,7,10,-1.0997490882873535,3.573317289352417,10.495638062424298,10.180023535194048,41.78671879308707,37.35024111898535,-6.47544875391759e-05,0.0898760333657264,0,0,0
3490,119916.22489260416,2010-10-09 23:48:04,2521.2782755054905,7,10,-1.099568486213684,3.5704033374786377,10.495638062424298,10.189192454951144,41.78671879308707,37.38299157087896,-9.713172767078504e-05,0.0898760333657264,0,0,0
3491,119946.2401077608,2010-10-09 23:48:34,2551.293490677149,7,10,-1.099568486213684,3.5674893856048584,10.495638062424298,10.198361386972127,41.78671879308707,37.41571515277395,-9.713172767078504e-05,0.0898760333657264,0,0,0
3492,119976.25725287246,2010-10-09 23:49:04,2581.310635808862,7,10,-1.0997490882873535,3.564575433731079,10.495638062424298,10.20753095584126,41.78671879308707,37.44841311151323,-3.237724376958795e-05,0.0898760333657264,0,0,0
3493,120006.27067693512,2010-10-09 23:49:34,2611.3240598665134,7,10,-1.099568486213684,3.56133770942688,10.495638062424298,10.216699304437178,41.78671879308707,37.48107819726952,-6.47544875391759e-05,0.0898760333657264,0,0,0
3494,120036.28587587632,2010-10-09 23:50:04,2641.3392588227584,7,10,-1.099568486213684,3.5579380989074707,10.495638062424298,10.225868190425691,41.78671879308707,37.51371575410913,-9.713172767078504e-05,0.0898760333657264,0,0,0
3495,120066.30097078324,2010-10-09 23:50:34,2671.3543536895804,7,10,-1.0997490882873535,3.554376602172852,10.495638062424298,10.235037076134438,41.78671879308707,37.54632230462204,-0.0001295089750783,0.0898760333657264,0,0,0
3496,120096.31616884726,2010-10-09 23:51:04,2701.369551778664,7,10,-1.099568486213684,3.5511388778686523,10.495638062424298,10.244205986807094,41.78671879308707,37.57889685184768,-3.237724376958795e-05,0.0898760333657264,0,0,0
3497,120126.33139100632,2010-10-09 23:51:34,2731.384773912675,7,10,-1.099568486213684,3.5474154949188232,10.495638062424298,10.253374843917944,41.78671879308707,37.61143792981984,-6.47544875391759e-05,0.0898760333657264,0,0,0
3498,120156.34664757617,2010-10-09 23:52:04,2761.40003050256,7,10,-1.0997490882873535,3.5432064533233643,10.495638062424298,10.262543644085836,41.78671879308707,37.643944426168446,-0.0001618862152099,0.0898760333657264,0,0,0
3499,120186.36184826172,2010-10-09 23:52:34,2791.4152311630523,7,10,-1.099568486213684,3.539644956588745,10.495638062424298,10.2717125073032,41.78671879308707,37.67641565430291,-6.47544875391759e-05,0.0898760333657264,0,0,0
3500,120216.37702526827,2010-10-09 23:53:04,2821.43040816458,7,10,-1.0997490882873535,3.535597801208496,10.495638062424298,10.280881322000347,41.78671879308707,37.7088503514478,-9.713172767078504e-05,0.0898760333657264,0,0,0
3501,120246.39224847496,2010-10-09 23:53:34,2851.445631391314,7,10,-1.0997490882873535,3.531226873397827,10.495638062424298,10.290050177306735,41.78671879308707,37.74124740158934,-0.0001295089750783,0.0898760333657264,0,0,0
3502,120276.40778331332,2010-10-09 23:54:04,2881.461166360005,7,10,-1.0993878841400146,3.527179718017578,10.495638062424298,10.299219239521864,41.78671879308707,37.773606416051216,-9.713172767078504e-05,0.0898760333657264,0,0,0
3503,120306.42286261132,2010-10-09 23:54:34,2911.476245542737,7,10,-1.099929690361023,3.5223231315612797,10.495638062424298,10.308388195705728,41.78671879308707,37.80592489977183,-0.0001618862152099,0.0898760333657264,0,0,0
3504,120336.44043892768,2010-10-09 23:55:04,2941.49382192927,7,10,-1.099568486213684,3.5177903175354004,10.495638062424298,10.317557838333263,41.78671879308707,37.838204038950096,-0.0001618862152099,0.0898760333657264,0,0,0
3505,120366.45332915988,2010-10-09 23:55:34,2971.5067120762515,7,10,-1.099568486213684,3.5129337310791016,10.495638062424298,10.3267260849084,41.78671879308707,37.87043457164189,-0.0001295089750783,0.0898760333657264,0,0,0
3506,120396.4683828942,2010-10-09 23:56:04,3001.521765795521,7,10,-1.0997490882873535,3.507753610610962,10.495638062424298,10.33589501775952,41.78671879308707,37.90262074190305,-9.713172767078504e-05,0.0898760333657264,0,0,0
3507,120426.48361990027,2010-10-09 23:56:34,3031.5370028066104,7,10,-1.099568486213684,3.5020875930786133,10.495638062424298,10.345063988291251,41.78671879308707,37.93475651520687,-9.713172767078504e-05,0.0898760333657264,0,0,0
3508,120456.49880928264,2010-10-09 23:57:04,3061.552192188994,7,10,-1.0997490882873535,3.495612144470215,10.495638062424298,10.354232926108295,41.78671879308707,37.96683704486876,-0.0001618862152099,0.0898760333657264,0,0,0
3509,120486.51636583476,2010-10-09 23:57:34,3091.569748781193,7,10,-1.099568486213684,3.488489151000977,10.495638062424298,10.36340261626676,41.78671879308707,37.99885893480173,-0.0001942634553415,0.0898760333657264,0,0,0
3510,120516.5294563762,2010-10-09 23:58:04,3121.5828393426696,7,10,-1.0997490882873535,3.480232954025269,10.495638062424298,10.372571000483,41.78671879308707,38.03080648164383,-0.0002590179501567,0.0898760333657264,0,0,0
3511,120546.544478216,2010-10-09 23:58:34,3151.597861117323,7,10,-1.0997490882873535,3.470681667327881,10.495638062424298,10.381739888123118,41.78671879308707,38.06267408857181,-0.0002913951757363,0.0898760333657264,0,0,0
3512,120576.56178643418,2010-10-09 23:59:04,3181.615169410685,7,10,-1.0997490882873535,3.458540201187134,10.495638062424298,10.390909480100827,41.78671879308707,38.09444584211892,-0.0003885269106831,0.0898760333657264,0,0,0
3513,120606.57490031877,2010-10-09 23:59:34,3211.6282832201027,7,10,-1.0997490882873535,3.443322896957397,10.495638062424298,10.400077779241627,41.78671879308707,38.126089099925046,-0.0004209041653666,0.0898760333657264,0,0,0
3514,120636.59011955556,2010-10-10 00:00:04,3241.6435024568927,7,10,-1.099568486213684,3.4222779273986816,10.495638062424298,10.409246784925433,41.78671879308707,38.15757016142616,-0.0006799221155233,0.0898760333657264,0,0,0
3515,120666.605346271,2010-10-10 00:00:34,3271.658729172322,7,10,-1.0997490882873535,3.3928146362304688,10.495638062424298,10.41841574407172,41.78671879308707,38.1888228796845,-0.0009389400365762,0.0898760333657264,0,0,0
3516,120696.62055867576,2010-10-10 00:01:04,3301.673941612172,7,10,-1.0997490882873535,3.350724458694458,10.495638062424298,10.427584673715309,41.78671879308707,38.21975103700897,-0.0012950419913977,0.0898760333657264,0,0,0
3517,120726.63589726,2010-10-10 00:01:34,3331.689280186388,7,10,-1.0997490882873535,3.2903409004211426,10.495638062424298,10.436753675436703,41.78671879308707,38.2502138984417,-0.0018455028766766,0.0898760333657264,0,0,0
3518,120756.65098717448,2010-10-10 00:02:04,3361.704370080817,7,10,-1.099929690361023,3.2038938999176025,10.495638062424298,10.445922558135512,41.78671879308707,38.28001130319766,-0.0027520656585693,0.0898760333657264,0,0,0
3519,120786.66633489648,2010-10-10 00:02:34,3391.719717807844,7,10,-1.0997490882873535,3.0722808837890625,10.495638062424298,10.455091598179935,41.78671879308707,38.30883386308944,-0.0043061734177172,0.0898760333657264,0,0,0
3520,120810.4783855485,2010-10-10 00:02:58,3415.531768479904,7,10,-1.0997490882873535,2.871866226196289,10.495638062424298,10.46236565720806,41.78671879308707,38.33056214424016,-0.0097779277712106,0.0898760333657264,0,0,0
3521,120821.16572925245,2010-10-10 00:03:09,3426.21911214874,7,10,-1.0997490882873535,2.699620008468628,10.495638062424298,10.46563037986653,41.78671879308707,38.3396711419318,-0.0140516757965087,0.0898760333657264,0,0,0
3522,120881.18456051256,2010-10-10 00:04:09,60.014865285403616,8,10,0.0,3.2702672481536865,10.495638062424298,10.46563037986653,41.78671879308707,38.3396711419318,0.0012303352123126,0.0898760333657264,0,0,0
3523,120881.36877911986,2010-10-10 00:04:09,0.187295813797464,9,10,-1.9243103452026844e-05,3.2702672481536865,10.495638062424298,10.465630380867683,41.78671879308707,38.33967114520584,0.0,0.0913304165005683,0,0,0
3524,120886.1836854279,2010-10-10 00:04:14,5.002202232101546,9,10,0.0005225847125984,3.277551889419556,10.495638887470507,10.46563038095289,41.78672149467916,38.33967114548448,0.0010684489971026,0.0913304165005683,0,0,0
