Data_Point,Test_Time(s),Date_Time,Step_Time(s),Step_Index,Cycle_Index,Current(A),Voltage(V),Charge_Capacity(Ah),Discharge_Capacity(Ah),Charge_Energy(Wh),Discharge_Energy(Wh),dV/dt(V/s),Internal_Resistance(Ohm),Is_FC_Data,AC_Impedance(Ohm),ACI_Phase_Angle(Deg)
6665,226058.67445824217,2010-10-11 05:17:18,30.017079468058856,1,20,0.0,3.350886344909668,19.773059653703747,19.734432004308736,78.64807623767213,72.3096266672913,0.0006799221155233,0.0899572893977165,0,0,0
6666,226088.68780094708,2010-10-11 05:17:48,60.03042214789166,1,20,0.0,3.373064517974853,19.773059653703747,19.734432004308736,78.64807623767213,72.3096266672913,0.0005504131549969,0.0899572893977165,0,0,0
6667,226118.70282875173,2010-10-11 05:18:18,90.04544994254913,1,20,0.0,3.38909125328064,19.773059653703747,19.734432004308736,78.64807623767213,72.3096266672913,0.0003561496851034,0.0899572893977165,0,0,0
6668,226148.67308376383,2010-10-11 05:18:48,120.01570499475616,1,20,0.0,3.4020421504974365,19.773059653703747,19.734432004308736,78.64807623767213,72.3096266672913,0.0002913951757363,0.0899572893977165,0,0,0
6669,226178.682839456,2010-10-11 05:19:18,30.01530668974984,2,20,0.5501165986061096,3.5595569610595703,19.77764591199397,19.734432004308736,78.66422974630504,72.3096266672913,0.0017159938579425,0.0899572893977165,0,0,0
6670,226208.6978409451,2010-10-11 05:19:48,60.03030825904562,2,20,0.5501165986061096,3.6113603115081783,19.78223216826928,19.734432004308736,78.68068005834243,72.3096266672913,0.0012303352123126,0.0899572893977165,0,0,0
6671,226238.71309915904,2010-10-11 05:20:18,90.04556651809125,2,20,0.550297200679779,3.64940357208252,19.786818458277665,19.734432004308736,78.6973332463354,72.3096266672913,0.0009389400365762,0.0899572893977165,0,0,0
6672,226268.7281625574,2010-10-11 05:20:48,120.06062979117183,2,20,0.5501165986061096,3.679514169692993,19.79140463694432,19.734432004308736,78.71414122863413,72.3096266672913,0.0007446765666827,0.0899572893977165,0,0,0
6673,226298.7433256493,2010-10-11 05:21:18,150.07579288303157,2,20,0.5501165986061096,3.704282760620117,19.79599084124389,19.734432004308736,78.73107443977838,72.3096266672913,0.0006151676061563,0.0899572893977165,0,0,0
6674,226328.75851480613,2010-10-11 05:21:48,180.0909820348407,2,20,0.5501165986061096,3.725004196166992,19.800577102293108,19.734432004308736,78.74811175372301,72.3096266672913,0.0005180359003134,0.0899572893977165,0,0,0
6675,226358.773667472,2010-10-11 05:22:18,210.10613470572807,2,20,0.5499359965324402,3.742002248764038,19.805163364883462,19.734432004308736,78.76523580892315,72.3096266672913,0.0003885269106831,0.0899572893977165,0,0,0
6676,226388.78881443868,2010-10-11 05:22:48,240.12128166738643,2,20,0.5501165986061096,3.755600452423096,19.809749653145342,19.734432004308736,78.78243109741739,72.3096266672913,0.0002590179501567,0.0899572893977165,0,0,0
6677,226418.8042191477,2010-10-11 05:23:18,270.136686391468,2,20,0.5501165986061096,3.7646660804748535,19.81433588565946,19.734432004308736,78.79967758871712,72.3096266672913,0.0002266406954731,0.0899572893977165,0,0,0
6678,226448.8192757742,2010-10-11 05:23:48,300.1517430480582,2,20,0.5501165986061096,3.769846439361572,19.81892211588872,19.734432004308736,78.81695509482114,72.3096266672913,0.0001295089750783,0.0899572893977165,0,0,0
6679,226478.83432508752,2010-10-11 05:24:18,330.1667923312718,2,20,0.5501165986061096,3.773084163665772,19.823508305787424,19.734432004308736,78.83425198960953,72.3096266672913,3.237724376958795e-05,0.0899572893977165,0,0,0
6680,226508.85161507025,2010-10-11 05:24:48,360.1840823440729,2,20,0.5501165986061096,3.776645660400391,19.828094836336856,19.734432004308736,78.8515659022991,72.3096266672913,9.713172767078504e-05,0.0899572893977165,0,0,0
6681,226538.86466428367,2010-10-11 05:25:18,390.1971316427096,2,20,0.5499359965324402,3.77972149848938,19.83268076845537,19.734432004308736,78.86889224789046,72.3096266672913,6.47544875391759e-05,0.0899572893977165,0,0,0
6682,226568.87983962605,2010-10-11 05:25:48,420.2123068898639,2,20,0.5499359965324402,3.782797336578369,19.83726700660208,19.734432004308736,78.88623411878724,72.3096266672913,9.713172767078504e-05,0.0899572893977165,0,0,0
6683,226598.89510502288,2010-10-11 05:26:18,450.2275722666492,2,20,0.5499359965324402,3.786035060882568,19.841853237072616,19.734432004308736,78.90359016169381,72.3096266672913,6.47544875391759e-05,0.0899572893977165,0,0,0
6684,226628.9101234993,2010-10-11 05:26:48,480.2425907280453,2,20,0.550297200679779,3.7891108989715576,19.846439539544008,19.734432004308736,78.92096054878859,72.3096266672913,0.0001295089750783,0.0899572893977165,0,0,0
6685,226658.9254284096,2010-10-11 05:27:18,510.2578956533978,2,20,0.5501165986061096,3.792024850845337,19.85102582964302,19.734432004308736,78.93834482607984,72.3096266672913,9.713172767078504e-05,0.0899572893977165,0,0,0
6686,226688.9407373049,2010-10-11 05:27:48,540.2732045636817,2,20,0.5499359965324402,3.794938802719116,19.855612062166237,19.734432004308736,78.95574262047826,72.3096266672913,9.713172767078504e-05,0.0899572893977165,0,0,0
6687,226718.9556574362,2010-10-11 05:28:18,570.2881246799716,2,20,0.5501165986061096,3.7980146408081055,19.860198284644305,19.734432004308736,78.9731539397413,72.3096266672913,0.0001295089750783,0.0899572893977165,0,0,0
6688,226748.97332986208,2010-10-11 05:28:48,600.3057972211511,2,20,0.550297200679779,3.8009285926818848,19.864784917997987,19.734432004308736,78.9905801746399,72.3096266672913,9.713172767078504e-05,0.0899572893977165,0,0,0
6689,226778.9860073441,2010-10-11 05:29:18,630.3184746229063,2,20,0.550297200679779,3.803680658340454,19.86937082589973,19.734432004308736,79.0080167835378,72.3096266672913,9.713172767078504e-05,0.0899572893977165,0,0,0
6690,226809.00111691756,2010-10-11 05:29:48,660.3335841612943,2,20,0.5499359965324402,3.8062708377838135,19.873957140068956,19.734432004308736,79.02546803828197,72.3096266672913,3.237724376958795e-05,0.0899572893977165,0,0,0
6691,226839.01642810347,2010-10-11 05:30:18,690.348895337225,2,20,0.5499359965324402,3.8093466758728023,19.878543426836917,19.734432004308736,79.04293231887628,72.3096266672913,6.47544875391759e-05,0.0899572893977165,0,0,0
6692,226869.0315712155,2010-10-11 05:30:48,720.3640384593141,2,20,0.5501165986061096,3.812098741531372,19.883129755987287,19.734432004308736,79.0604098776263,72.3096266672913,3.237724376958795e-05,0.0899572893977165,0,0,0
6693,226899.0475702859,2010-10-11 05:31:18,750.3800375196644,2,20,0.550297200679779,3.815498352050781,19.887716102360105,19.734432004308736,79.07790113276661,72.3096266672913,0.0001295089750783,0.0899572893977165,0,0,0
6694,226929.04920353225,2010-10-11 05:31:48,780.3816707709984,2,20,0.5499359965324402,3.8180885314941406,19.89230025419016,19.734432004308736,79.09539769456975,72.3096266672913,3.237724376958795e-05,0.0899572893977165,0,0,0
6695,226959.06144498248,2010-10-11 05:32:18,810.3939122563157,2,20,0.5501165986061096,3.82148814201355,19.896886077851008,19.734432004308736,79.1129146907232,72.3096266672913,0.0001295089750783,0.0899572893977165,0,0,0
6696,226989.07648662163,2010-10-11 05:32:48,840.408953885453,2,20,0.5499359965324402,3.824563980102539,19.901472267445676,19.734432004308736,79.13044747592147,72.3096266672913,6.47544875391759e-05,0.0899572893977165,0,0,0
6697,227019.09163833017,2010-10-11 05:33:18,870.424105553842,2,20,0.5501165986061096,3.8278017044067374,19.906058533027508,19.734432004308736,79.14799543952621,72.3096266672913,6.47544875391759e-05,0.0899572893977165,0,0,0
6698,227049.1068045347,2010-10-11 05:33:48,900.4392717885344,2,20,0.5501165986061096,3.831201314926148,19.91064480820008,19.734432004308736,79.16555866150819,72.3096266672913,6.47544875391759e-05,0.0899572893977165,0,0,0
6699,227079.1219674762,2010-10-11 05:34:18,930.454434795182,2,20,0.5501165986061096,3.8346006870269775,19.915231084255872,19.734432004308736,79.18313733128765,72.3096266672913,9.713172767078504e-05,0.0899572893977165,0,0,0
6700,227109.1371941215,2010-10-11 05:34:48,960.4696614905612,2,20,0.5499359965324402,3.8380002975463863,19.919817287912547,19.734432004308736,79.20073123759755,72.3096266672913,0.0001295089750783,0.0899572893977165,0,0,0
6701,227139.1541797206,2010-10-11 05:35:18,990.4866469944324,2,20,0.5499359965324402,3.841399908065796,19.924403797959627,19.734432004308736,79.2183417571985,72.3096266672913,6.47544875391759e-05,0.0899572893977165,0,0,0
6702,227169.16758436983,2010-10-11 05:35:48,1020.500051603612,2,20,0.5501165986061096,3.844637632369995,19.928989822688077,19.734432004308736,79.23596566518971,72.3096266672913,6.47544875391759e-05,0.0899572893977165,0,0,0
6703,227199.18275757696,2010-10-11 05:36:18,1050.515224850782,2,20,0.5499359965324402,3.8478753566741934,19.93357603453019,19.734432004308736,79.25360530180606,72.3096266672913,9.713172767078504e-05,0.0899572893977165,0,0,0
6704,227229.19780125617,2010-10-11 05:36:48,1080.5302684849164,2,20,0.5501165986061096,3.850951194763184,19.93816228892628,19.734432004308736,79.27125983121104,72.3096266672913,6.47544875391759e-05,0.0899572893977165,0,0,0
6705,227259.2130623473,2010-10-11 05:37:18,1110.5455295910576,2,20,0.5501165986061096,3.8543508052825928,19.94274856730112,19.734432004308736,79.28892892274834,72.3096266672913,0.0001618862152099,0.0899572893977165,0,0,0
6706,227289.22810602657,2010-10-11 05:37:48,1140.5605732552667,2,20,0.5499359965324402,3.857102870941162,19.94733474288005,19.734432004308736,79.30661192839143,72.3096266672913,3.237724376958795e-05,0.0899572893977165,0,0,0
6707,227319.2433318999,2010-10-11 05:38:18,1170.5757992789722,2,20,0.5501165986061096,3.860340595245361,19.95192101481784,19.734432004308736,79.32430924955342,72.3096266672913,9.713172767078504e-05,0.0899572893977165,0,0,0
6708,227349.2584591173,2010-10-11 05:38:48,1200.590926386147,2,20,0.5501165986061096,3.8632545471191406,19.956507264401104,19.734432004308736,79.34202010972061,72.3096266672913,6.47544875391759e-05,0.0899572893977165,0,0,0
6709,227379.27359225453,2010-10-11 05:39:18,1230.6060595133256,2,20,0.550297200679779,3.86600661277771,19.96109347116082,19.734432004308736,79.35974387171053,72.3096266672913,9.713172767078504e-05,0.0899572893977165,0,0,0
6710,227409.2888775359,2010-10-11 05:39:48,1260.6213447796815,2,20,0.5501165986061096,3.8687586784362793,19.96567969725947,19.734432004308736,79.3774802761833,72.3096266672913,0.0001295089750783,0.0899572893977165,0,0,0
6711,227439.30391410243,2010-10-11 05:40:18,1290.6363813462012,2,20,0.5499359965324402,3.8711869716644287,19.97026593588441,19.734432004308736,79.39522873700125,72.3096266672913,6.47544875391759e-05,0.0899572893977165,0,0,0
6712,227469.31921319323,2010-10-11 05:40:48,1320.651680547287,2,20,0.5501165986061096,3.873615264892578,19.97485224033409,19.734432004308736,79.4129887956735,72.3096266672913,6.47544875391759e-05,0.0899572893977165,0,0,0
6713,227499.3342373839,2010-10-11 05:41:18,1350.6667046176626,2,20,0.5501165986061096,3.8758816719055176,19.97943852694976,19.734432004308736,79.43075934224917,72.3096266672913,9.713172767078504e-05,0.0899572893977165,0,0,0
6714,227529.3494255683,2010-10-11 05:41:48,1380.6818928221105,2,20,0.5501165986061096,3.877986192703247,19.984024753872166,19.734432004308736,79.4485396848427,72.3096266672913,6.47544875391759e-05,0.0899572893977165,0,0,0
6715,227559.36456792348,2010-10-11 05:42:19,1410.6970351522257,2,20,0.5501165986061096,3.879928827285767,19.988610943033144,19.734432004308736,79.46632920582422,72.3096266672913,3.237724376958795e-05,0.0899572893977165,0,0,0
6716,227589.379740494,2010-10-11 05:42:49,1440.7122077176964,2,20,0.5501165986061096,3.881547689437866,19.99319719616809,19.734432004308736,79.48412763152061,72.3096266672913,3.237724376958795e-05,0.0899572893977165,0,0,0
6717,227619.39489608715,2010-10-11 05:43:19,1470.7273633108673,2,20,0.5499359965324402,3.883328437805176,19.997783400784964,19.734432004308736,79.50193379149452,72.3096266672913,0.0,0.0899572893977165,0,0,0
6718,227649.41004716908,2010-10-11 05:43:49,1500.7425143978069,2,20,0.5501165986061096,3.8847854137420654,20.002369665101902,19.734432004308736,79.5197475047238,72.3096266672913,3.237724376958795e-05,0.0899572893977165,0,0,0
6719,227679.4251740808,2010-10-11 05:44:19,1530.7576413295444,2,20,0.5501165986061096,3.886404275894165,20.006955812223083,19.734432004308736,79.53756749667228,72.3096266672913,3.237724376958795e-05,0.0899572893977165,0,0,0
6720,227709.440365012,2010-10-11 05:44:49,1560.7728322658013,2,20,0.5499359965324402,3.8875374794006343,20.011541239266737,19.734432004308736,79.55539080802141,72.3096266672913,3.237724376958795e-05,0.0899572893977165,0,0,0
6721,227739.4576379272,2010-10-11 05:45:19,1590.7901053113144,2,20,0.5499359965324402,3.8888325691223145,20.016127177798797,19.734432004308736,79.57322206204017,72.3096266672913,0.0,0.0899572893977165,0,0,0
6722,227769.47069035863,2010-10-11 05:45:49,1620.8031576074216,2,20,0.5499359965324402,3.890127658843994,20.02071228063614,19.734432004308736,79.59105561672317,72.3096266672913,6.47544875391759e-05,0.0899572893977165,0,0,0
6723,227799.48584011727,2010-10-11 05:46:19,1650.818307401138,2,20,0.5497553944587708,3.891098976135254,20.025297642920204,19.734432004308736,79.60889556119582,72.3096266672913,-3.237724376958795e-05,0.0899572893977165,0,0,0
6724,227829.5010588829,2010-10-11 05:46:49,1680.8335262720163,2,20,0.5499359965324402,3.8923940658569336,20.029883010846497,19.734432004308736,79.62674082138625,72.3096266672913,3.237724376958795e-05,0.0899572893977165,0,0,0
6725,227859.5160785974,2010-10-11 05:47:19,1710.8485458562109,2,20,0.5499359965324402,3.8935272693634033,20.03446837686625,19.734432004308736,79.64459124422942,72.3096266672913,6.47544875391759e-05,0.0899572893977165,0,0,0
6726,227889.53133303687,2010-10-11 05:47:49,1740.8638002957373,2,20,0.5501165986061096,3.894660472869873,20.0390547487883,19.734432004308736,79.66245095781204,72.3096266672913,3.237724376958795e-05,0.0899572893977165,0,0,0
6727,227919.54661692985,2010-10-11 05:48:19,1770.8790841736327,2,20,0.5497553944587708,3.895469903945923,20.04364109572632,19.734432004308736,79.68031513478644,72.3096266672913,3.237724376958795e-05,0.0899572893977165,0,0,0
6728,227949.561680644,2010-10-11 05:48:49,1800.8941479279126,2,20,0.550297200679779,3.896926879882813,20.04822751761027,19.734432004308736,79.69818486817024,72.3096266672913,6.47544875391759e-05,0.0899572893977165,0,0,0
6729,227979.57688112409,2010-10-11 05:49:19,1830.9093483828929,2,20,0.5501165986061096,3.897898197174072,20.052813873655104,19.734432004308736,79.71605944801217,72.3096266672913,3.237724376958795e-05,0.0899572893977165,0,0,0
6730,228009.5920179956,2010-10-11 05:49:49,1860.9244852293407,2,20,0.5499359965324402,3.898869514465332,20.05740017727726,19.734432004308736,79.7339389716153,72.3096266672913,0.0,0.0899572893977165,0,0,0
6731,228039.60713390488,2010-10-11 05:50:19,1890.9396011386068,2,20,0.5499359965324402,3.9000027179718018,20.061986561135345,19.734432004308736,79.75182397525543,72.3096266672913,3.237724376958795e-05,0.0899572893977165,0,0,0
6732,228069.62231070088,2010-10-11 05:50:49,1920.954777959684,2,20,0.5501165986061096,3.9012978076934814,20.06657287958884,19.734432004308736,79.76971382062786,72.3096266672913,6.47544875391759e-05,0.0899572893977165,0,0,0
6733,228099.6374539533,2010-10-11 05:51:19,1950.9699211870352,2,20,0.5499359965324402,3.902431011199951,20.071159207463182,19.734432004308736,79.7876089591038,72.3096266672913,3.237724376958795e-05,0.0899572893977165,0,0,0
6734,228129.65261211284,2010-10-11 05:51:49,1980.9850793466023,2,20,0.5501165986061096,3.903564214706421,20.07574560019588,19.734432004308736,79.80550958337638,72.3096266672913,3.237724376958795e-05,0.0899572893977165,0,0,0
6735,228159.66794378485,2010-10-11 05:52:19,2011.0004110186155,2,20,0.5501165986061096,3.9048593044281006,20.080331952455616,19.734432004308736,79.82341538092732,72.3096266672913,6.47544875391759e-05,0.0899572893977165,0,0,0
6736,228189.68295048692,2010-10-11 05:52:49,2041.015417715692,2,20,0.5501165986061096,3.90583062171936,20.084918303615837,19.734432004308736,79.84132638779876,72.3096266672913,0.0,0.0899572893977165,0,0,0
6737,228219.69810527813,2010-10-11 05:53:19,2071.030572516888,2,20,0.5499359965324402,3.90712571144104,20.089504630225463,19.734432004308736,79.85924273220563,72.3096266672913,3.237724376958795e-05,0.0899572893977165,0,0,0
6738,228249.7132609014,2010-10-11 05:53:49,2101.0457281301087,2,20,0.5497553944587708,3.9082589149475098,20.09409087865142,19.734432004308736,79.87716416039255,72.3096266672913,3.237724376958795e-05,0.0899572893977165,0,0,0
6739,228279.7284268053,2010-10-11 05:54:19,2131.0608940339766,2,20,0.5501165986061096,3.9095540046691895,20.09867712257756,19.734432004308736,79.89509106565319,72.3096266672913,6.47544875391759e-05,0.0899572893977165,0,0,0
6740,228309.743591857,2010-10-11 05:54:49,2161.076059090734,2,20,0.5499359965324402,3.910687208175659,20.103263396898058,19.734432004308736,79.91302366340406,72.3096266672913,6.47544875391759e-05,0.0899572893977165,0,0,0
6741,228339.7606162528,2010-10-11 05:55:19,2191.093083541673,2,20,0.5501165986061096,3.911982297897339,20.10785006868204,19.734432004308736,79.93096342791314,72.3096266672913,6.47544875391759e-05,0.0899572893977165,0,0,0
6742,228369.774035298,2010-10-11 05:55:49,2221.10650254172,2,20,0.5499359965324402,3.9131155014038086,20.11243623530824,19.734432004308736,79.94890683088572,72.3096266672913,3.237724376958795e-05,0.0899572893977165,0,0,0
6743,228399.7891738487,2010-10-11 05:56:19,2251.1216412026897,2,20,0.5501165986061096,3.914248466491699,20.117022650388087,19.734432004308736,79.96685692957648,72.3096266672913,0.0,0.0899572893977165,0,0,0
6744,228429.80421987377,2010-10-11 05:56:49,2281.136687137558,2,20,0.5499359965324402,3.915543556213379,20.12160907602353,19.734432004308736,79.98481287022479,72.3096266672913,0.0,0.0899572893977165,0,0,0
6745,228459.8193653868,2010-10-11 05:57:19,2311.151832645593,2,20,0.5497553944587708,3.9168386459350586,20.126195445588543,19.734432004308736,80.00277427974568,72.3096266672913,6.47544875391759e-05,0.0899572893977165,0,0,0
6746,228489.83452800248,2010-10-11 05:57:49,2341.1669952612665,2,20,0.5501165986061096,3.918295621871948,20.130781895882087,19.734432004308736,80.02074205214855,72.3096266672913,6.47544875391759e-05,0.0899572893977165,0,0,0
6747,228519.8496966833,2010-10-11 05:58:19,2371.182163947068,2,20,0.5501165986061096,3.919428825378418,20.13536833209687,19.734432004308736,80.03871575869296,72.3096266672913,0.0,0.0899572893977165,0,0,0
6748,228549.86489001548,2010-10-11 05:58:49,2401.1973572843085,2,20,0.550297200679779,3.920885801315308,20.139954765210728,19.734432004308736,80.05669553257077,72.3096266672913,3.237724376958795e-05,0.0899572893977165,0,0,0
6749,228579.8800346864,2010-10-11 05:59:19,2431.212501950245,2,20,0.550297200679779,3.9221808910369873,20.14454119350748,19.734432004308736,80.0746813859531,72.3096266672913,3.237724376958795e-05,0.0899572893977165,0,0,0
6750,228609.89514843028,2010-10-11 05:59:49,2461.22761570414,2,20,0.5501165986061096,3.923475980758667,20.14912764722791,19.734432004308736,80.09267351823931,72.3096266672913,3.237724376958795e-05,0.0899572893977165,0,0,0
6751,228639.91058411656,2010-10-11 06:00:19,2491.243051385376,2,20,0.5499359965324402,3.9249329566955566,20.15371409861969,19.734432004308736,80.11067188765551,72.3096266672913,6.47544875391759e-05,0.0899572893977165,0,0,0
6752,228669.92552498457,2010-10-11 06:00:49,2521.257992218298,2,20,0.5501165986061096,3.926228046417236,20.158300506190376,19.734432004308736,80.1286763557669,72.3096266672913,3.237724376958795e-05,0.0899572893977165,0,0,0
6753,228699.94324957547,2010-10-11 06:01:19,2551.2757169345136,2,20,0.5501165986061096,3.927685022354126,20.162887287672525,19.734432004308736,80.14668863670579,72.3096266672913,3.237724376958795e-05,0.0899572893977165,0,0,0
6754,228729.95587125333,2010-10-11 06:01:49,2581.288338532188,2,20,0.5501165986061096,3.929141998291016,20.167473316176604,19.734432004308736,80.16470444674275,72.3096266672913,6.47544875391759e-05,0.0899572893977165,0,0,0
6755,228759.97099236056,2010-10-11 06:02:19,2611.303459594297,2,20,0.5499359965324402,3.930598974227905,20.172059782478613,19.734432004308736,80.18272852719501,72.3096266672913,3.237724376958795e-05,0.0899572893977165,0,0,0
6756,228789.98619048973,2010-10-11 06:02:49,2641.31865772348,2,20,0.550297200679779,3.932055950164795,20.17664627815745,19.734432004308736,80.2007592478826,72.3096266672913,6.47544875391759e-05,0.0899572893977165,0,0,0
6757,228820.0013071559,2010-10-11 06:03:19,2671.333774394645,2,20,0.5501165986061096,3.9333510398864746,20.181232710790788,19.734432004308736,80.21879637655027,72.3096266672913,-3.237724376958795e-05,0.0899572893977165,0,0,0
6758,228850.0188127359,2010-10-11 06:03:49,2701.3512800950057,2,20,0.5499359965324402,3.934808015823364,20.18581951967112,19.734432004308736,80.23684165009145,72.3096266672913,3.237724376958795e-05,0.0899572893977165,0,0,0
6759,228880.0316400714,2010-10-11 06:04:19,2731.36410732518,2,20,0.5499359965324402,3.936264991760254,20.19040562830004,19.734432004308736,80.25489096139063,72.3096266672913,0.0,0.0899572893977165,0,0,0
6760,228910.0468139451,2010-10-11 06:04:49,2761.3792811688363,2,20,0.5501165986061096,3.938045740127564,20.194992108076384,19.734432004308736,80.27294850840106,72.3096266672913,3.237724376958795e-05,0.0899572893977165,0,0,0
6761,228940.063838762,2010-10-11 06:05:19,2791.3963060257875,2,20,0.5501165986061096,3.939340829849243,20.19957885072348,19.734432004308736,80.29101406525686,72.3096266672913,0.0,0.0899572893977165,0,0,0
6762,228970.07711164284,2010-10-11 06:05:49,2821.409578871572,2,20,0.5501165986061096,3.940959692001343,20.2041650372067,19.734432004308736,80.3090844258801,72.3096266672913,6.47544875391759e-05,0.0899572893977165,0,0,0
6763,229000.09229282985,2010-10-11 06:06:19,2851.424760083593,2,20,0.5501165986061096,3.942416667938232,20.208751510584637,19.734432004308736,80.32716290307326,72.3096266672913,0.0,0.0899572893977165,0,0,0
6764,229030.1075686426,2010-10-11 06:06:49,2881.440035886363,2,20,0.550297200679779,3.944035530090332,20.213337930657257,19.734432004308736,80.34524829616517,72.3096266672913,3.237724376958795e-05,0.0899572893977165,0,0,0
6765,229060.12258562533,2010-10-11 06:07:19,2911.455052864061,2,20,0.5501165986061096,3.945654392242432,20.217924339654424,19.734432004308736,80.3633407802269,72.3096266672913,6.47544875391759e-05,0.0899572893977165,0,0,0
6766,229090.13786357344,2010-10-11 06:07:49,2941.47033081719,2,20,0.5501165986061096,3.947111368179321,20.22251086144705,19.734432004308736,80.38144091009138,72.3096266672913,3.237724376958795e-05,0.0899572893977165,0,0,0
6767,229120.15294974355,2010-10-11 06:08:19,2971.4854169723,2,20,0.5501165986061096,3.948892116546631,20.227097304229705,19.734432004308736,80.39954801246195,72.3096266672913,9.713172767078504e-05,0.0899572893977165,0,0,0
6768,229150.1680967403,2010-10-11 06:08:49,3001.500563979071,2,20,0.5501165986061096,3.950349092483521,20.231683683194884,19.734432004308736,80.41766221479114,72.3096266672913,3.237724376958795e-05,0.0899572893977165,0,0,0
6769,229180.1833550796,2010-10-11 06:09:19,3031.515822423579,2,20,0.5501165986061096,3.95180606842041,20.236270146364888,19.734432004308736,80.4357841648168,72.3096266672913,3.237724376958795e-05,0.0899572893977165,0,0,0
6770,229210.1984044931,2010-10-11 06:09:49,3061.53087178198,2,20,0.5499359965324402,3.95358681678772,20.240856568005206,19.734432004308736,80.45391339963399,72.3096266672913,3.237724376958795e-05,0.0899572893977165,0,0,0
6771,229240.21369393988,2010-10-11 06:10:19,3091.546161183642,2,20,0.550297200679779,3.955367565155029,20.24544304399953,19.734432004308736,80.47205042721484,72.3096266672913,6.47544875391759e-05,0.0899572893977165,0,0,0
6772,229270.2287100304,2010-10-11 06:10:49,3121.561177269117,2,20,0.5501165986061096,3.956986427307129,20.250029514139545,19.734432004308736,80.49019504252188,72.3096266672913,3.237724376958795e-05,0.0899572893977165,0,0,0
6773,229300.2438646411,2010-10-11 06:11:19,3151.576332005151,2,20,0.5501165986061096,3.958605289459229,20.254615987176923,19.734432004308736,80.5083471309393,72.3096266672913,6.47544875391759e-05,0.0899572893977165,0,0,0
6774,229330.25915898508,2010-10-11 06:11:49,3181.591626258907,2,20,0.5501165986061096,3.960224151611328,20.259202457065093,19.734432004308736,80.5265069647158,72.3096266672913,0.0,0.0899572893977165,0,0,0
6775,229360.27417688005,2010-10-11 06:12:19,3211.6066441388534,2,20,0.5501165986061096,3.962166786193848,20.26378890064825,19.734432004308736,80.54467443960475,72.3096266672913,6.47544875391759e-05,0.0899572893977165,0,0,0
6776,229390.2893549342,2010-10-11 06:12:49,3241.621822203029,2,20,0.5501165986061096,3.963623762130737,20.268375402204995,19.734432004308736,80.56284990014082,72.3096266672913,6.47544875391759e-05,0.0899572893977165,0,0,0
6777,229420.3045112542,2010-10-11 06:13:19,3271.636978543061,2,20,0.5501165986061096,3.965404510498047,20.272961886069982,19.734432004308736,80.58103324137961,72.3096266672913,3.237724376958795e-05,0.0899572893977165,0,0,0
6778,229450.31979676613,2010-10-11 06:13:49,3301.6522640049043,2,20,0.5499359965324402,3.967185258865357,20.27754838964061,19.734432004308736,80.59922463054929,72.3096266672913,3.237724376958795e-05,0.0899572893977165,0,0,0
6779,229480.33481134285,2010-10-11 06:14:20,3331.667278566581,2,20,0.5499359965324402,3.968804121017456,20.2821348649314,19.734432004308736,80.61742381619862,72.3096266672913,3.237724376958795e-05,0.0899572893977165,0,0,0
6780,229510.3499916677,2010-10-11 06:14:50,3361.6824589264784,2,20,0.5499359965324402,3.9705848693847656,20.28672136008135,19.734432004308736,80.63563117106489,72.3096266672913,0.0,0.0899572893977165,0,0,0
6781,229540.36710273952,2010-10-11 06:15:20,3391.699570108578,2,20,0.5499359965324402,3.972527503967285,20.29130813015901,19.734432004308736,80.65384776186558,72.3096266672913,6.47544875391759e-05,0.0899572893977165,0,0,0
6782,229570.3802889594,2010-10-11 06:15:50,3421.7127561881152,2,20,0.550297200679779,3.9741463661193848,20.295894289036145,19.734432004308736,80.6720700721983,72.3096266672913,3.237724376958795e-05,0.0899572893977165,0,0,0
6783,229600.39546769523,2010-10-11 06:16:20,3451.7279349540395,2,20,0.5499359965324402,3.9759271144866943,20.30048078902036,19.734432004308736,80.69030209013941,72.3096266672913,3.237724376958795e-05,0.0899572893977165,0,0,0
6784,229630.41063955892,2010-10-11 06:16:50,3481.743106822774,2,20,0.550297200679779,3.977707862854004,20.305067295007436,19.734432004308736,80.7085425386044,72.3096266672913,3.237724376958795e-05,0.0899572893977165,0,0,0
6785,229660.42577164856,2010-10-11 06:17:20,3511.7582388923165,2,20,0.5501165986061096,3.979812383651733,20.309653749989188,19.734432004308736,80.72679090694665,72.3096266672913,3.237724376958795e-05,0.0899572893977165,0,0,0
6786,229690.44093701107,2010-10-11 06:17:50,3541.7734042648603,2,20,0.550297200679779,3.981755018234253,20.31424012185953,19.734432004308736,80.7450479516232,72.3096266672913,6.47544875391759e-05,0.0899572893977165,0,0,0
6787,229720.4563819554,2010-10-11 06:18:20,3571.7888492392576,2,20,0.5499359965324402,3.9835357666015625,20.31882665063925,19.734432004308736,80.76331430372943,72.3096266672913,0.0,0.0899572893977165,0,0,0
6788,229750.4712548991,2010-10-11 06:18:50,3601.803722122829,2,20,0.5499359965324402,3.985316514968872,20.323412949907272,19.734432004308736,80.78158857700426,72.3096266672913,3.237724376958795e-05,0.0899572893977165,0,0,0
6789,229780.48638865788,2010-10-11 06:19:20,3631.8188558916063,2,20,0.5501165986061096,3.987582921981812,20.32799933904679,19.734432004308736,80.79987207058552,72.3096266672913,6.47544875391759e-05,0.0899572893977165,0,0,0
6790,229810.5015611933,2010-10-11 06:19:50,3661.83402848214,2,20,0.5501165986061096,3.989525556564331,20.332585688364333,19.734432004308736,80.81816436710197,72.3096266672913,9.713172767078504e-05,0.0899572893977165,0,0,0
6791,229840.51675158812,2010-10-11 06:20:20,3691.849218872034,2,20,0.5499359965324402,3.9913063049316406,20.33717202817895,19.734432004308736,80.83646581540374,72.3096266672913,3.237724376958795e-05,0.0899572893977165,0,0,0
6792,229870.531884585,2010-10-11 06:20:50,3721.864351914001,2,20,0.5501165986061096,3.99341082572937,20.341758389214263,19.734432004308736,80.8547766571305,72.3096266672913,6.47544875391759e-05,0.0899572893977165,0,0,0
6793,229900.54704305533,2010-10-11 06:21:20,3751.879510309155,2,20,0.5501165986061096,3.995353221893311,20.346344832315552,19.734432004308736,80.87309717315097,72.3096266672913,3.237724376958795e-05,0.0899572893977165,0,0,0
6794,229930.5621786637,2010-10-11 06:21:50,3781.8946458974674,2,20,0.5501165986061096,3.99778151512146,20.350931195871272,19.734432004308736,80.89142679339803,72.3096266672913,9.713172767078504e-05,0.0899572893977165,0,0,0
6795,229960.5773398709,2010-10-11 06:22:20,3811.9098070996174,2,20,0.5501165986061096,3.99972414970398,20.3555175985834,19.734432004308736,80.90976606157687,72.3096266672913,9.713172767078504e-05,0.0899572893977165,0,0,0
6796,229990.59250618075,2010-10-11 06:22:50,3841.9249734094974,2,20,0.5499359965324402,4.001828670501709,20.360103970593403,19.734432004308736,80.92811487482196,72.3096266672913,6.47544875391759e-05,0.0899572893977165,0,0,0
6797,230020.6076499094,2010-10-11 06:23:20,3871.940117193235,2,20,0.5501165986061096,4.003933429718018,20.364690300203566,19.734432004308736,80.94647326582282,72.3096266672913,6.47544875391759e-05,0.0899572893977165,0,0,0
6798,230050.62282894595,2010-10-11 06:23:50,3901.955296194747,2,20,0.5499359965324402,4.006037712097168,20.36927665335841,19.734432004308736,80.9648415919895,72.3096266672913,0.0,0.0899572893977165,0,0,0
6799,230080.6379673112,2010-10-11 06:24:20,3931.970434554968,2,20,0.5499359965324402,4.008304119110107,20.373863020809228,19.734432004308736,80.98321989649246,72.3096266672913,6.47544875391759e-05,0.0899572893977165,0,0,0
6800,230110.65326206625,2010-10-11 06:24:50,3961.985729299948,2,20,0.5499359965324402,4.010408878326416,20.378449449092383,19.734432004308736,81.0016083541082,72.3096266672913,6.47544875391759e-05,0.0899572893977165,0,0,0
6801,230140.67026965512,2010-10-11 06:25:20,3992.002736888862,2,20,0.5501165986061096,4.012675285339356,20.383036107277317,19.734432004308736,81.02000784314167,72.3096266672913,6.47544875391759e-05,0.0899572893977165,0,0,0
6802,230170.68343964452,2010-10-11 06:25:50,4022.015906878297,2,20,0.550297200679779,4.014941692352295,20.387622245957488,19.734432004308736,81.03841544198661,72.3096266672913,6.47544875391759e-05,0.0899572893977165,0,0,0
6803,230200.69872247984,2010-10-11 06:26:20,4052.0311897236193,2,20,0.5501165986061096,4.017045974731445,20.392208674620186,19.734432004308736,81.05683444392524,72.3096266672913,3.23295607813634e-05,0.0899572893977165,0,0,0
6804,230230.7138046901,2010-10-11 06:26:50,4082.046271923872,2,20,0.5499359965324402,4.019150733947754,20.39679507748365,19.734432004308736,81.07526369080045,72.3096266672913,3.24249267578125e-05,0.0899572893977165,0,0,0
6805,230260.7289265392,2010-10-11 06:27:20,4112.061393823066,2,20,0.5501165986061096,4.021740913391113,20.401381474852467,19.734432004308736,81.09370327378257,72.3096266672913,9.71794142969884e-05,0.0899572893977165,0,0,0
6806,230290.74429925857,2010-10-11 06:27:50,4142.076766612558,2,20,0.5501165986061096,4.024007320404053,20.40596787977594,19.734432004308736,81.11215338517381,72.3096266672913,9.71794142969884e-05,0.0899572893977165,0,0,0
6807,230320.75922550508,2010-10-11 06:28:20,4172.091692748852,2,20,0.5499359965324402,4.026111602783203,20.41055419761964,19.734432004308736,81.13061366358151,72.3096266672913,6.47544875391759e-05,0.0899572893977165,0,0,0
6808,230350.7745112877,2010-10-11 06:28:50,4202.106978531494,2,20,0.5499359965324402,4.028540134429932,20.41514065196748,19.734432004308736,81.14908510935541,72.3096266672913,6.47544875391759e-05,0.0899572893977165,0,0,0
6809,230380.78953937817,2010-10-11 06:29:20,4232.122006611863,2,20,0.5501165986061096,4.030806541442871,20.41972697765389,19.734432004308736,81.16756668048863,72.3096266672913,6.47544875391759e-05,0.0899572893977165,0,0,0
6810,230410.804684004,2010-10-11 06:29:50,4262.137151232688,2,20,0.5501165986061096,4.0330729484558105,20.424313323138566,19.734432004308736,81.18605910494857,72.3096266672913,0.0,0.0899572893977165,0,0,0
6811,230440.8199711851,2010-10-11 06:30:20,4292.152438443891,2,20,0.5501165986061096,4.035662651062012,20.42889970732181,19.734432004308736,81.20456255022796,72.3096266672913,3.23295607813634e-05,0.0899572893977165,0,0,0
6812,230470.83502487428,2010-10-11 06:30:50,4322.167492158149,2,20,0.5501165986061096,4.03809118270874,20.43348610807285,19.734432004308736,81.22307709253629,72.3096266672913,9.71794142969884e-05,0.0899572893977165,0,0,0
6813,230500.85028815587,2010-10-11 06:31:20,4352.182755429686,2,20,0.5501165986061096,4.040519237518311,20.43807244828731,19.734432004308736,81.24160237469769,72.3096266672913,9.70840483205393e-05,0.0899572893977165,0,0,0
6814,230530.86531242676,2010-10-11 06:31:50,4382.197779680511,2,20,0.5501165986061096,4.042947769165039,20.442658828052835,19.734432004308736,81.26013896215446,72.3096266672913,9.71794142969884e-05,0.0899572893977165,0,0,0
6815,230560.8807484538,2010-10-11 06:32:20,4412.213215737685,2,20,0.5499359965324402,4.0452141761779785,20.44724520669565,19.734432004308736,81.27868688817765,72.3096266672913,6.47544875391759e-05,0.0899572893977165,0,0,0
6816,230590.89578241383,2010-10-11 06:32:50,4442.228249657609,2,20,0.5501165986061096,4.047804355621338,20.4518315475541,19.734432004308736,81.29724612114629,72.3096266672913,3.24249267578125e-05,0.0899572893977165,0,0,0
6817,230620.91330454007,2010-10-11 06:33:20,4472.2457719242575,2,20,0.5501165986061096,4.050232410430908,20.45641825167019,19.734432004308736,81.3158184498616,72.3096266672913,3.23295607813634e-05,0.0899572893977165,0,0,0
6818,230650.92599425252,2010-10-11 06:33:50,4502.258461516394,2,20,0.5499359965324402,4.052984714508057,20.461004223573877,19.734432004308736,81.33439951362809,72.3096266672913,6.47544875391759e-05,0.0899572893977165,0,0,0
6819,230680.9411309286,2010-10-11 06:34:20,4532.273598167355,2,20,0.5501165986061096,4.055574893951416,20.46559059234611,19.734432004308736,81.35299404908194,72.3096266672913,6.47544875391759e-05,0.0899572893977165,0,0,0
6820,230710.95628289276,2010-10-11 06:34:50,4562.288750166569,2,20,0.5501165986061096,4.058326721191406,20.47017695184676,19.734432004308736,81.37160048637017,72.3096266672913,6.47544875391759e-05,0.0899572893977165,0,0,0
6821,230740.97330267204,2010-10-11 06:35:20,4592.30576993584,2,20,0.5499359965324402,4.060755252838135,20.47476367142984,19.734432004308736,81.39022043637101,72.3096266672913,6.47544875391759e-05,0.0899572893977165,0,0,0
6822,230770.98901812057,2010-10-11 06:35:50,4622.321485479581,2,20,0.5499359965324402,4.063507080078125,20.479350135682893,19.734432004308736,81.40885109475614,72.3096266672913,6.47544875391759e-05,0.0899572893977165,0,0,0
6823,230801.00174465976,2010-10-11 06:36:20,4652.334211923563,2,20,0.5501165986061096,4.066097259521484,20.48393616491524,19.734432004308736,81.42749238971533,72.3096266672913,6.47544875391759e-05,0.0899572893977165,0,0,0
6824,230831.0170183673,2010-10-11 06:36:50,4682.349485641137,2,20,0.550297200679779,4.069011211395264,20.48852257812933,19.734432004308736,81.44614766677603,72.3096266672913,9.70840483205393e-05,0.0899572893977165,0,0,0
6825,230861.0320334152,2010-10-11 06:37:20,4712.364500744162,2,20,0.5499359965324402,4.071601390838623,20.49310897972128,19.734432004308736,81.4648154156139,72.3096266672913,9.70840483205393e-05,0.0899572893977165,0,0,0
6826,230891.04721951945,2010-10-11 06:37:50,4742.379686773188,2,20,0.5501165986061096,4.074353694915772,20.4976953208559,19.734432004308736,81.48349547171327,72.3096266672913,9.71794142969884e-05,0.0899572893977165,0,0,0
6827,230921.06233540864,2010-10-11 06:38:20,4772.394802682455,2,20,0.550297200679779,4.077267646789551,20.50228173841724,19.734432004308736,81.50218857567195,72.3096266672913,0.0001295089750783,0.0899572893977165,0,0,0
6828,230951.077517558,2010-10-11 06:38:50,4802.409984786699,2,20,0.5499359965324402,4.07985782623291,20.506868119328008,19.734432004308736,81.5208943200414,72.3096266672913,3.24249267578125e-05,0.0899572893977165,0,0,0
6829,230981.09264602856,2010-10-11 06:39:20,4832.4251133525095,2,20,0.5501165986061096,4.0827717781066895,20.51145448037981,19.734432004308736,81.53961292161048,72.3096266672913,9.71794142969884e-05,0.0899572893977165,0,0,0
6830,231011.1080511085,2010-10-11 06:39:50,4862.440518352278,2,20,0.550297200679779,4.0858473777771,20.516040864388028,19.734432004308736,81.55834477037808,72.3096266672913,0.0001618385285837,0.0899572893977165,0,0,0
6831,231041.1229579918,2010-10-11 06:40:20,4892.455425250624,2,20,0.5501165986061096,4.088599681854248,20.52062715724052,19.734432004308736,81.57708949572023,72.3096266672913,6.47544875391759e-05,0.0899572893977165,0,0,0
6832,231071.1382490426,2010-10-11 06:40:50,4922.4707163064095,2,20,0.5499359965324402,4.091513633728027,20.525213583513377,19.734432004308736,81.59584814752279,72.3096266672913,9.71794142969884e-05,0.0899572893977165,0,0,0
6833,231101.15330139844,2010-10-11 06:41:20,4952.485768652256,2,20,0.5501165986061096,4.094427585601807,20.52979996062096,19.734432004308736,81.61462002962807,72.3096266672913,9.71794142969884e-05,0.0899572893977165,0,0,0
6834,231131.16844079125,2010-10-11 06:41:50,4982.500908145301,2,20,0.5499359965324402,4.097503185272217,20.53438636186445,19.734432004308736,81.63340561794305,72.3096266672913,6.47544875391759e-05,0.0899572893977165,0,0,0
6835,231161.18371242363,2010-10-11 06:42:20,5012.516179697476,2,20,0.5501165986061096,4.100417137145996,20.538972842635747,19.734432004308736,81.65220529363958,72.3096266672913,6.47544875391759e-05,0.0899572893977165,0,0,0
6836,231191.1987405842,2010-10-11 06:42:50,5042.531207812935,2,20,0.5501165986061096,4.103654861450195,20.54355921218762,19.734432004308736,81.67101832538269,72.3096266672913,0.0001295089750783,0.0899572893977165,0,0,0
6837,231221.21401801603,2010-10-11 06:43:20,5072.546485289877,2,20,0.550297200679779,4.106568813323975,20.548145574802472,19.734432004308736,81.6898453545386,72.3096266672913,9.70840483205393e-05,0.0899572893977165,0,0,0
6838,231251.22918093743,2010-10-11 06:43:50,5102.561648296524,2,20,0.5501165986061096,4.109482765197754,20.552731929331888,19.734432004308736,81.7086863693577,72.3096266672913,3.23295607813634e-05,0.0899572893977165,0,0,0
6839,231281.2441949077,2010-10-11 06:44:20,5132.576662171488,2,20,0.5501165986061096,4.112720489501953,20.55731826802361,19.734432004308736,81.72754146689145,72.3096266672913,6.47544875391759e-05,0.0899572893977165,0,0,0
6840,231311.25938138785,2010-10-11 06:44:50,5162.591848616552,2,20,0.5501165986061096,4.115958213806152,20.56190460053707,19.734432004308736,81.746410884963,72.3096266672913,9.71794142969884e-05,0.0899572893977165,0,0,0
6841,231341.27648186823,2010-10-11 06:45:20,5192.608949222293,2,20,0.5499359965324402,4.1190338134765625,20.56649124109912,19.734432004308736,81.76529609223934,72.3096266672913,9.70840483205393e-05,0.0899572893977165,0,0,0
6842,231371.28966156187,2010-10-11 06:45:50,5222.622128825688,2,20,0.5499359965324402,4.122271537780762,20.57107734439006,19.734432004308736,81.78419368679718,72.3096266672913,9.70840483205393e-05,0.0899572893977165,0,0,0
6843,231401.30493776564,2010-10-11 06:46:21,5252.637405009408,2,20,0.5501165986061096,4.12534761428833,20.575663792484097,19.734432004308736,81.80310734171157,72.3096266672913,6.47544875391759e-05,0.0899572893977165,0,0,0
6844,231431.3199851792,2010-10-11 06:46:51,5282.652452412937,2,20,0.5501165986061096,4.128585338592529,20.58025012581709,19.734432004308736,81.82203529953338,72.3096266672913,3.24249267578125e-05,0.0899572893977165,0,0,0
6845,231461.33523834555,2010-10-11 06:47:21,5312.667705604352,2,20,0.5499359965324402,4.131984710693359,20.584836399935533,19.734432004308736,81.84097800205636,72.3096266672913,9.70840483205393e-05,0.0899572893977165,0,0,0
6846,231491.3502841752,2010-10-11 06:47:51,5342.682751459021,2,20,0.5501165986061096,4.135222434997559,20.58942270465917,19.734432004308736,81.8599359387494,72.3096266672913,9.70840483205393e-05,0.0899572893977165,0,0,0
6847,231521.3654787154,2010-10-11 06:48:21,5372.697946054397,2,20,0.5501165986061096,4.138622283935547,20.594009012841365,19.734432004308736,81.87890908260475,72.3096266672913,9.71794142969884e-05,0.0899572893977165,0,0,0
6848,231551.3806034316,2010-10-11 06:48:51,5402.713070710463,2,20,0.5499359965324402,4.141860008239746,20.59859532148057,19.734432004308736,81.89789752433178,72.3096266672913,9.71794142969884e-05,0.0899572893977165,0,0,0
6849,231581.39597801052,2010-10-11 06:49:21,5432.728445274376,2,20,0.550297200679779,4.145421504974365,20.60318178581495,19.734432004308736,81.9169021732913,72.3096266672913,9.71794142969884e-05,0.0899572893977165,0,0,0
6850,231611.41089989623,2010-10-11 06:49:51,5462.743367240276,2,20,0.5501165986061096,4.148820877075195,20.607768093286307,19.734432004308736,81.93592202412182,72.3096266672913,9.70840483205393e-05,0.0899572893977165,0,0,0
6851,231641.42605032653,2010-10-11 06:50:21,5492.758517565317,2,20,0.550297200679779,4.152382373809815,20.612354385729333,19.734432004308736,81.95495744431469,72.3096266672913,0.0001295089750783,0.0899572893977165,0,0,0
6852,231671.44138041465,2010-10-11 06:50:51,5522.7738476834575,2,20,0.5501165986061096,4.155782222747803,20.61694070814876,19.734432004308736,81.97400879084888,72.3096266672913,6.47544875391759e-05,0.0899572893977165,0,0,0
6853,231701.45640180836,2010-10-11 06:51:21,5552.788869067136,2,20,0.5501165986061096,4.159181594848633,20.62152702927245,19.734432004308736,81.99307616143324,72.3096266672913,6.47544875391759e-05,0.0899572893977165,0,0,0
6854,231731.47153287035,2010-10-11 06:51:51,5582.804000149218,2,20,0.5501165986061096,4.162743091583252,20.62611337400733,19.734432004308736,82.01215968463639,72.3096266672913,9.70840483205393e-05,0.0899572893977165,0,0,0
6855,231761.4866619274,2010-10-11 06:52:21,5612.819129156128,2,20,0.5501165986061096,4.166304588317871,20.63069972952613,19.734432004308736,82.03125937467352,72.3096266672913,9.70840483205393e-05,0.0899572893977165,0,0,0
6856,231791.5018323676,2010-10-11 06:52:51,5642.834299631389,2,20,0.5501165986061096,4.169704437255859,20.63528610904568,19.734432004308736,82.05037548709643,72.3096266672913,6.47544875391759e-05,0.0899572893977165,0,0,0
6857,231821.51704810065,2010-10-11 06:53:21,5672.849515389509,2,20,0.550297200679779,4.173427581787109,20.63987247422756,19.734432004308736,82.0695079219044,72.3096266672913,9.70840483205393e-05,0.0899572893977165,0,0,0
6858,231851.53210110817,2010-10-11 06:53:51,5702.86456842708,2,20,0.5501165986061096,4.1769890785217285,20.644458824235087,19.734432004308736,82.08865679256289,72.3096266672913,0.0001295089750783,0.0899572893977165,0,0,0
6859,231881.54724698208,2010-10-11 06:54:21,5732.879714240877,2,20,0.5501165986061096,4.180550575256348,20.64904518144076,19.734432004308736,82.10782229877384,72.3096266672913,9.70840483205393e-05,0.0899572893977165,0,0,0
6860,231911.56240724187,2010-10-11 06:54:51,5762.894874505691,2,20,0.5499359965324402,4.184112071990967,20.65363155721136,19.734432004308736,82.12700457788553,72.3096266672913,6.47544875391759e-05,0.0899572893977165,0,0,0
6861,231941.57770117983,2010-10-11 06:55:21,5792.910168438647,2,20,0.5501165986061096,4.187997341156006,20.65821790488468,19.734432004308736,82.1462035006258,72.3096266672913,0.0001295089750783,0.0899572893977165,0,0,0
6862,231971.5790810747,2010-10-11 06:55:51,5822.911548338551,2,20,0.550297200679779,4.191720962524414,20.662802093120785,19.734432004308736,82.16541040869659,72.3096266672913,6.47544875391759e-05,0.0899572893977165,0,0,0
6863,232001.5923523917,2010-10-11 06:56:21,5852.924819625451,2,20,0.5499359965324402,4.195281982421875,20.66738817189537,19.734432004308736,82.18464231153757,72.3096266672913,6.47544875391759e-05,0.0899572893977165,0,0,0
6864,232031.6073879758,2010-10-11 06:56:51,5882.939855209522,2,20,0.5501165986061096,4.199167251586914,20.67197444136593,19.734432004308736,82.20389211260932,72.3096266672913,0.0001295089750783,0.0899572893977165,0,0,0
6865,232037.29474459344,2010-10-11 06:56:57,5888.627211827169,2,20,0.5499359965324402,4.200138568878174,20.6728435089605,19.734432004308736,82.20754179003636,72.3096266672913,0.0001942634553415,0.0899572893977165,0,0,0
6866,232067.30395591995,2010-10-11 06:57:27,30.01501434613961,3,20,0.0,4.115958213806152,20.6728435089605,19.734432004308736,82.20754179003636,72.3096266672913,-0.0003885269106831,0.0899572893977165,0,0,0
6867,232097.31922588812,2010-10-11 06:57:57,60.03028430935562,3,20,0.0,4.105597496032715,20.6728435089605,19.734432004308736,82.20754179003636,72.3096266672913,-0.0001942634553415,0.0899572893977165,0,0,0
6868,232127.33426575796,2010-10-11 06:58:27,90.04532415404546,3,20,0.0,4.099122047424316,20.6728435089605,19.734432004308736,82.20754179003636,72.3096266672913,-0.0001295089750783,0.0899572893977165,0,0,0
6869,232157.30254569257,2010-10-11 06:58:57,120.01360408363922,3,20,0.0,4.094913005828857,20.6728435089605,19.734432004308736,82.20754179003636,72.3096266672913,-0.0001295089750783,0.0899572893977165,0,0,0
6870,232157.31413613225,2010-10-11 06:58:57,0.015607914725932,4,20,0.9929705858230592,4.199653148651123,20.67284783163768,19.734432004308736,82.20755994412959,72.3096266672913,-3.23295607813634e-05,0.0899572893977165,0,0,0
6871,232158.37661856532,2010-10-11 06:58:58,1.078090352879484,4,20,0.9425805807113647,4.199653148651123,20.67313203286407,19.734432004308736,82.20875352375857,72.3096266672913,-3.23295607813634e-05,0.0899572893977165,0,0,0
6872,232160.6110112244,2010-10-11 06:59:00,3.312483041966131,4,20,0.8925517797470093,4.199653148651123,20.673700539121068,19.734432004308736,82.21114111850885,72.3096266672913,-3.23295607813634e-05,0.0899572893977165,0,0,0
6873,232163.93903126937,2010-10-11 06:59:03,6.640503071886856,4,20,0.8425230383872986,4.199653148651123,20.67450148397359,19.734432004308736,82.21450490686826,72.3096266672913,-3.23295607813634e-05,0.0899572893977165,0,0,0
6874,232168.4233459413,2010-10-11 06:59:08,11.124817728801013,4,20,0.7924942374229431,4.199814796447754,20.67551842090477,19.734432004308736,82.2187758148503,72.3096266672913,0.0,0.0899572893977165,0,0,0
6875,232174.22011842692,2010-10-11 06:59:14,16.92159023450754,4,20,0.742284893989563,4.199653148651123,20.67675229511535,19.734432004308736,82.22395783313351,72.3096266672913,-6.47544875391759e-05,0.0899572893977165,0,0,0
6876,232181.57938199115,2010-10-11 06:59:21,24.28085377363583,4,20,0.6922560930252075,4.199814796447754,20.678216891659787,19.734432004308736,82.23010882240523,72.3096266672913,0.0,0.0899572893977165,0,0,0
6877,232191.4698500107,2010-10-11 06:59:31,34.171321823236376,4,20,0.6422273516654968,4.199653148651123,20.680047804596388,19.734432004308736,82.23779827156585,72.3096266672913,0.0,0.0899572893977165,0,0,0
6878,232205.21959250967,2010-10-11 06:59:45,47.92106432223388,4,20,0.5920179486274719,4.199653148651123,20.68240060460163,19.734432004308736,82.24767958114518,72.3096266672913,-3.23295607813634e-05,0.0899572893977165,0,0,0
6879,232225.92251932345,2010-10-11 07:00:05,68.6239911109226,4,20,0.5418086051940918,4.199814796447754,20.68565165663823,19.734432004308736,82.26133341222918,72.3096266672913,-3.24249267578125e-05,0.0899572893977165,0,0,0
6880,232260.59394225752,2010-10-11 07:00:40,103.29541408009192,4,20,0.4917798042297363,4.199814796447754,20.690609894334816,19.734432004308736,82.28215710314409,72.3096266672913,0.0,0.0899572893977165,0,0,0
6881,232324.2960000612,2010-10-11 07:01:44,166.99747187374686,4,20,0.4417510628700256,4.199814796447754,20.69883498363304,19.734432004308736,82.31670100233679,72.3096266672913,-3.24249267578125e-05,0.0899572893977165,0,0,0
6882,232422.4194642658,2010-10-11 07:03:22,265.12093606334247,4,20,0.3917222917079925,4.199653148651123,20.71016637351272,19.734432004308736,82.3642906370638,72.3096266672913,-3.23295607813634e-05,0.0899572893977165,0,0,0
6883,232546.1205585697,2010-10-11 07:05:26,388.8220303822604,4,20,0.3416935205459595,4.199814796447754,20.72275266119983,19.734432004308736,82.41715044529874,72.3096266672913,-3.24249267578125e-05,0.0899572893977165,0,0,0
6884,232695.37014212488,2010-10-11 07:07:55,538.0716139123662,4,20,0.2916647493839264,4.199814796447754,20.73586968771225,19.734432004308736,82.47223921145947,72.3096266672913,0.0,0.0899572893977165,0,0,0
6885,232876.36533777328,2010-10-11 07:10:56,719.0668095858139,4,20,0.2416359633207321,4.199814796447754,20.749256984196457,19.734432004308736,82.52846309163998,72.3096266672913,3.23295607813634e-05,0.0899572893977165,0,0,0
6886,233099.14312589823,2010-10-11 07:14:39,941.8445976857709,4,20,0.1916072070598602,4.199976921081543,20.76261752931639,19.734432004308736,82.58457481713752,72.3096266672913,3.24249267578125e-05,0.0899572893977165,0,0,0
6887,233395.1228408887,2010-10-11 07:19:35,1237.824312671196,4,20,0.1415784358978271,4.199653148651123,20.776225197892277,19.734432004308736,82.64172440063375,72.3096266672913,0.0,0.0899572893977165,0,0,0
6888,233834.41477006293,2010-10-11 07:26:54,1677.1162418755205,4,20,0.0913690477609634,4.199653148651123,20.790236359540742,19.734432004308736,82.70056857265728,72.3096266672913,-3.23295607813634e-05,0.0899572893977165,0,0,0
6889,234491.33992134576,2010-10-11 07:37:51,2334.041393158333,4,20,0.0496483072638511,4.199491024017334,20.80278724544694,19.734432004308736,82.75327968252088,72.3096266672913,-3.24249267578125e-05,0.0899572893977165,0,0,0
6890,234521.3565362169,2010-10-11 07:38:21,30.01515837009161,5,20,0.0,4.191882610321045,20.80278724544694,19.734432004308736,82.75327968252088,72.3096266672913,-6.47544875391759e-05,0.0899572893977165,0,0,0
6891,234551.3560657401,2010-10-11 07:38:51,60.01468786321293,5,20,0.0,4.190587520599365,20.80278724544694,19.734432004308736,82.75327968252088,72.3096266672913,-6.47544875391759e-05,0.0899572893977165,0,0,0
6892,234551.54346297664,2010-10-11 07:38:51,0.185010097088127,6,20,-1.9243103452026844e-05,4.190749645233154,20.80278724544694,19.73443200529767,82.75327968252088,72.30962667143568,0.0,0.0931989923119545,0,0,0
6893,234556.3713921366,2010-10-11 07:38:56,5.012939257071471,6,20,0.0008838032954372,4.190587520599365,20.802788215694456,19.734432005464157,82.75328374863608,72.30962667213336,-3.24249267578125e-05,0.0931989923119545,0,0,0
6894,234586.38899526323,2010-10-11 07:39:26,30.01513496676332,7,20,-1.099568486213684,4.0163984298706055,20.802788215694456,19.743599589357217,82.75328374863608,72.34664230143139,-0.0009713172912597,0.0931989923119545,0,0,0
6895,234616.4041273528,2010-10-11 07:39:56,60.030267061368335,7,20,-1.099568486213684,3.990334987640381,20.802788215694456,19.75276714317044,82.75328374863608,72.38333518368337,-0.0005180359003134,0.0931989923119545,0,0,0
6896,234646.4192771315,2010-10-11 07:40:26,90.04541683503501,7,20,-1.099568486213684,3.972365617752075,20.802788215694456,19.761934546696523,82.75328374863608,72.41982962070453,-0.0004532813909463,0.0931989923119545,0,0,0
6897,234676.43445378213,2010-10-11 07:40:56,120.0605934906999,7,20,-1.0993878841400146,3.958605289459229,20.802788215694456,19.77110191178992,82.75328374863608,72.45617991823595,-0.0003237724304199,0.0931989923119545,0,0,0
6898,234706.4497193544,2010-10-11 07:41:26,150.0758591531972,7,20,-1.099568486213684,3.9466257095336914,20.802788215694456,19.78026932655565,82.75328374863608,72.49241409180878,-0.0002913951757363,0.0931989923119545,0,0,0
6899,234736.46473453264,2010-10-11 07:41:56,180.0908742712607,7,20,-1.0993878841400146,3.936426877975464,20.802788215694456,19.78943671425682,82.75328374863608,72.52854796368064,-0.0002913951757363,0.0931989923119545,0,0,0
6900,234766.4800087865,2010-10-11 07:42:26,210.10614849509545,7,20,-1.099568486213684,3.926875591278076,20.802788215694456,19.79860405676596,82.75328374863608,72.56459055506211,-0.0002266406954731,0.0931989923119545,0,0,0
6901,234796.49503981427,2010-10-11 07:42:56,240.1211795278232,7,20,-1.099568486213684,3.917648077011109,20.802788215694456,19.80777144863132,82.75328374863608,72.60054742486811,-0.0002266406954731,0.0931989923119545,0,0,0
6902,234826.51022173304,2010-10-11 07:43:26,270.13636153683024,7,20,-1.0997490882873535,3.9089064598083496,20.802788215694456,19.816938886561317,82.75328374863608,72.63642297670022,-0.0002590179501567,0.0931989923119545,0,0,0
6903,234856.52532667492,2010-10-11 07:43:56,300.1514663885376,7,20,-1.099568486213684,3.9003264904022217,20.802788215694456,19.82610621220595,82.75328374863608,72.67221880303849,-0.0002913951757363,0.0931989923119545,0,0,0
6904,234886.54048913525,2010-10-11 07:44:26,330.1666288337857,7,20,-1.0997490882873535,3.8920702934265137,20.802788215694456,19.83527362667608,82.75328374863608,72.70793759734606,-0.0002266406954731,0.0931989923119545,0,0,0
6905,234916.5556144279,2010-10-11 07:44:56,360.18175416152565,7,20,-1.0993878841400146,3.8841378688812256,20.802788215694456,19.84444101080157,82.75328374863608,72.74358096492703,-0.0001942634553415,0.0931989923119545,0,0,0
6906,234946.5708998095,2010-10-11 07:45:26,390.1970395431691,7,20,-1.099568486213684,3.876043558120728,20.802788215694456,19.85360848697924,82.75328374863608,72.77915027689207,-0.0001942634553415,0.0931989923119545,0,0,0
6907,234976.58787694256,2010-10-11 07:45:56,420.21401670124,7,20,-1.099568486213684,3.86811113357544,20.802788215694456,19.862776446207707,82.75328374863608,72.8146484198066,-0.0001618862152099,0.0931989923119545,0,0,0
6908,235006.6012305797,2010-10-11 07:46:26,450.2273702932694,7,20,-1.0993878841400146,3.860340595245361,20.802788215694456,19.87194333752031,82.75328374863608,72.85007100706405,-0.0001942634553415,0.0931989923119545,0,0,0
6909,235036.61627279027,2010-10-11 07:46:56,480.2424125890682,7,20,-1.099568486213684,3.852570056915283,20.802788215694456,19.881110772230567,82.75328374863608,72.88542497324794,-0.0001942634553415,0.0931989923119545,0,0,0
6910,235066.6314200176,2010-10-11 07:47:26,510.25755975122615,7,20,-1.099568486213684,3.844961404800415,20.802788215694456,19.890278225112056,82.75328374863608,72.92070900221006,-0.0001942634553415,0.0931989923119545,0,0,0
6911,235096.64657069356,2010-10-11 07:47:56,540.2727104171165,7,20,-1.099568486213684,3.837676525115967,20.802788215694456,19.899445646798707,82.75328374863608,72.95592403575833,-0.0001942634553415,0.0931989923119545,0,0,0
6912,235126.66170372543,2010-10-11 07:48:26,570.2878434540702,7,20,-1.0997490882873535,3.830229997634888,20.802788215694456,19.908613077526702,82.75328374863608,72.99107111842575,-0.0002266406954731,0.0931989923119545,0,0,0
6913,235156.6768625868,2010-10-11 07:48:57,600.303002315386,7,20,-1.099568486213684,3.8231070041656494,20.802788215694456,19.9177805733436,82.75328374863608,73.02615187950975,-0.0001618862152099,0.0931989923119545,0,0,0
6914,235186.69201485167,2010-10-11 07:49:27,630.3181545652241,7,20,-1.099568486213684,3.815822124481201,20.802788215694456,19.9269480269316,82.75328374863608,73.06116714097236,-0.0002266406954731,0.0931989923119545,0,0,0
6915,235216.707156064,2010-10-11 07:49:57,660.3332957725409,7,20,-1.099568486213684,3.808861017227173,20.802788215694456,19.93611545845068,82.75328374863608,73.09611742000703,-0.0001942634553415,0.0931989923119545,0,0,0
6916,235246.72230744665,2010-10-11 07:50:27,690.3484471552176,7,20,-1.099568486213684,3.801899909973145,20.802788215694456,19.94528293171245,82.75328374863608,73.13100415970472,-0.0001942634553415,0.0931989923119545,0,0,0
6917,235276.7374732954,2010-10-11 07:50:57,720.3636129989359,7,20,-1.099568486213684,3.795262575149536,20.802788215694456,19.95445038354196,82.75328374863608,73.16582809720943,-0.0001942634553415,0.0931989923119545,0,0,0
6918,235306.75284088196,2010-10-11 07:51:27,750.378980615534,7,20,-1.0997490882873535,3.788625240325928,20.802788215694456,19.963617877948643,82.75328374863608,73.20059068658662,-0.0001618862152099,0.0931989923119545,0,0,0
6919,235336.76798814436,2010-10-11 07:51:57,780.3941279932293,7,20,-1.099568486213684,3.782149791717529,20.802788215694456,19.972785372575377,82.75328374863608,73.2352929560988,-0.0001942634553415,0.0931989923119545,0,0,0
6920,235366.78293516263,2010-10-11 07:52:27,810.4090749012925,7,20,-1.0993878841400146,3.775674343109131,20.802788215694456,19.981952845188083,82.75328374863608,73.26993632899067,-0.0001618862152099,0.0931989923119545,0,0,0
6921,235396.7980668663,2010-10-11 07:52:57,840.4242065698355,7,20,-1.099568486213684,3.769522666931152,20.802788215694456,19.99112030431551,82.75328374863608,73.30452182844124,-0.0001618862152099,0.0931989923119545,0,0,0
6922,235426.8132435821,2010-10-11 07:53:27,870.4393832956754,7,20,-1.0993878841400146,3.763370990753174,20.802788215694456,20.000287817981786,82.75328374863608,73.33905034754527,-0.0001295089750783,0.0931989923119545,0,0,0
6923,235456.8284989389,2010-10-11 07:53:57,900.4546386524878,7,20,-1.0997490882873535,3.7572193145751953,20.802788215694456,20.009455351447283,82.75328374863608,73.37352306295054,-0.0001942634553415,0.0931989923119545,0,0,0
6924,235486.8435265882,2010-10-11 07:54:27,930.4696662967704,7,20,-1.0993878841400146,3.751229763031006,20.802788215694456,20.0186229114926,82.75328374863608,73.40794104451707,-0.0001942634553415,0.0931989923119545,0,0,0
6925,235516.8588391576,2010-10-11 07:54:57,960.4849789964992,7,20,-1.0993878841400146,3.745725631713867,20.802788215694456,20.02779052348881,82.75328374863608,73.44230622816073,-0.0001618862152099,0.0931989923119545,0,0,0
6926,235546.8738594085,2010-10-11 07:55:27,990.4999991471052,7,20,-1.0993878841400146,3.740059614181519,20.802788215694456,20.036958059733585,82.75328374863608,73.4766193346034,-0.0001618862152099,0.0931989923119545,0,0,0
6927,235576.8909569566,2010-10-11 07:55:57,1020.5170967102624,7,20,-1.099568486213684,3.73439359664917,20.802788215694456,20.04612617340297,82.75328374863608,73.51088327482128,-0.0001618862152099,0.0931989923119545,0,0,0
6928,235606.90413690585,2010-10-11 07:56:27,1050.5302766093955,7,20,-1.099568486213684,3.729051351547241,20.802788215694456,20.055293065443266,82.75328374863608,73.5450919976558,-0.0001295089750783,0.0931989923119545,0,0,0
6929,235636.91937418265,2010-10-11 07:56:57,1080.5455140415345,7,20,-1.099568486213684,3.7238709926605225,20.802788215694456,20.06446056379282,82.75328374863608,73.57925404475203,-0.0001295089750783,0.0931989923119545,0,0,0
6930,235666.9344559468,2010-10-11 07:57:27,1110.5605956503132,7,20,-1.099568486213684,3.7185287475585938,20.802788215694456,20.073628028697662,82.75328374863608,73.61336727244091,-0.0001295089750783,0.0931989923119545,0,0,0
6931,235696.94967266227,2010-10-11 07:57:57,1140.5758123808569,7,20,-1.099568486213684,3.713348388671875,20.802788215694456,20.082795454771706,82.75328374863608,73.64743244186204,-0.0001295089750783,0.0931989923119545,0,0,0
6932,235726.9647558249,2010-10-11 07:58:27,1170.5908955635584,7,20,-1.0993878841400146,3.708329916000366,20.802788215694456,20.091962964972563,82.75328374863608,73.68145058777988,-9.713172767078504e-05,0.0931989923119545,0,0,0
6933,235756.97989386937,2010-10-11 07:58:57,1200.6060335729048,7,20,-1.099568486213684,3.703149557113648,20.802788215694456,20.10113046644016,82.75328374863608,73.7154220966944,-0.0001295089750783,0.0931989923119545,0,0,0
6934,235786.99505208907,2010-10-11 07:59:27,1230.6211918026463,7,20,-1.099568486213684,3.6981310844421382,20.802788215694456,20.11029799856892,82.75328374863608,73.74934775181755,-0.0001295089750783,0.0931989923119545,0,0,0
6935,235817.0101890408,2010-10-11 07:59:57,1260.636328744332,7,20,-1.0997490882873535,3.69311261177063,20.802788215694456,20.119465542814392,82.75328374863608,73.78322833023435,-0.0001295089750783,0.0931989923119545,0,0,0
6936,235847.0254672596,2010-10-11 08:00:27,1290.6516069831737,7,20,-1.0993878841400146,3.688417911529541,20.802788215694456,20.128633135631144,82.75328374863608,73.81706463742783,-0.0001295089750783,0.0931989923119545,0,0,0
6937,235877.04049196152,2010-10-11 08:00:57,1320.6666316650728,7,20,-1.0997490882873535,3.683561325073242,20.802788215694456,20.137800640077582,82.75328374863608,73.85085631149188,-0.0001295089750783,0.0931989923119545,0,0,0
6938,235907.0557912278,2010-10-11 08:01:27,1350.6819309363336,7,20,-1.099568486213684,3.6790285110473633,20.802788215694456,20.146968171947325,82.75328374863608,73.88460438629254,-9.713172767078504e-05,0.0931989923119545,0,0,0
6939,235937.0709417082,2010-10-11 08:01:57,1380.6970814167616,7,20,-1.099568486213684,3.6743338108062735,20.802788215694456,20.15613565721065,82.75328374863608,73.91830930126048,-9.713172767078504e-05,0.0931989923119545,0,0,0
6940,235967.0860897375,2010-10-11 08:02:27,1410.7122294811686,7,20,-1.099568486213684,3.6696393489837646,20.802788215694456,20.165303186854505,82.75328374863608,73.9519719902412,-0.0001295089750783,0.0931989923119545,0,0,0
6941,235997.10110182303,2010-10-11 08:02:57,1440.7272415215616,7,20,-1.099568486213684,3.6651065349578857,20.802788215694456,20.17447058703924,82.75328374863608,73.9855921706051,-9.713172767078504e-05,0.0931989923119545,0,0,0
6942,236027.11628192227,2010-10-11 08:03:27,1470.7424216458714,7,20,-1.099568486213684,3.660573720932007,20.802788215694456,20.18363809573611,82.75328374863608,74.01917128075654,-0.0001295089750783,0.0931989923119545,0,0,0
6943,236057.1314090044,2010-10-11 08:03:57,1500.7575487079337,7,20,-1.099568486213684,3.656202793121338,20.802788215694456,20.192805599539145,82.75328374863608,74.05270942197672,-9.713172767078504e-05,0.0931989923119545,0,0,0
6944,236087.1465636101,2010-10-11 08:04:27,1530.7727033186557,7,20,-1.0993878841400146,3.651831865310669,20.802788215694456,20.201973120971697,82.75328374863608,74.08620741388977,-9.713172767078504e-05,0.0931989923119545,0,0,0
6945,236117.1617350728,2010-10-11 08:04:57,1560.7878747964155,7,20,-1.0993878841400146,3.64762282371521,20.802788215694456,20.211140701191283,82.75328374863608,74.11966580410883,-9.713172767078504e-05,0.0931989923119545,0,0,0
6946,236147.17690588892,2010-10-11 08:05:27,1590.8030456175393,7,20,-1.099568486213684,3.643413782119751,20.802788215694456,20.220308074642567,82.75328374863608,74.1530841740299,-9.713172767078504e-05,0.0931989923119545,0,0,0
6947,236177.1939524099,2010-10-11 08:05:57,1620.8200921585335,7,20,-1.0993878841400146,3.639042854309082,20.802788215694456,20.229476080921017,82.75328374863608,74.18646659292216,-0.0001295089750783,0.0931989923119545,0,0,0
6948,236207.20717287512,2010-10-11 08:06:27,1650.8333125786576,7,20,-1.0997490882873535,3.634995698928833,20.802788215694456,20.23864296362632,82.75328374863608,74.21980711031395,-0.0001295089750783,0.0931989923119545,0,0,0
6949,236237.2225973434,2010-10-11 08:06:57,1680.8487370619853,7,20,-1.099568486213684,3.631110429763794,20.802788215694456,20.247810516995543,82.75328374863608,74.25311348739754,-9.713172767078504e-05,0.0931989923119545,0,0,0
6950,236267.23762199524,2010-10-11 08:07:27,1710.8637617388722,7,20,-1.099568486213684,3.627063274383545,20.802788215694456,20.2569778875524,82.75328374863608,74.28638299363638,-0.0001295089750783,0.0931989923119545,0,0,0
6951,236297.25490106075,2010-10-11 08:07:57,1740.8810408795766,7,20,-1.0993878841400146,3.623339891433716,20.802788215694456,20.266145982548668,82.75328374863608,74.31961958200604,-9.713172767078504e-05,0.0931989923119545,0,0,0
6952,236327.2678066913,2010-10-11 08:08:27,1770.893946434961,7,20,-1.0993878841400146,3.6197783946990967,20.802788215694456,20.275312710753685,82.75328374863608,74.35281691265519,-9.713172767078504e-05,0.0931989923119545,0,0,0
6953,236357.2829711917,2010-10-11 08:08:57,1800.909110935331,7,20,-1.0997490882873535,3.616055011749268,20.802788215694456,20.28448023150009,82.75328374863608,74.38598335438557,-6.47544875391759e-05,0.0931989923119545,0,0,0
6954,236387.29810000813,2010-10-11 08:09:27,1830.9242397166784,7,20,-1.099568486213684,3.6123316287994394,20.802788215694456,20.29364768866308,82.75328374863608,74.41911616468244,-6.47544875391759e-05,0.0931989923119545,0,0,0
6955,236417.31324281945,2010-10-11 08:09:57,1860.9393825480429,7,20,-1.099568486213684,3.6090939044952393,20.802788215694456,20.302815140247397,82.75328374863608,74.45221691856587,-6.47544875391759e-05,0.0931989923119545,0,0,0
6956,236447.3307249561,2010-10-11 08:10:27,1890.956864804976,7,20,-1.099568486213684,3.60553240776062,20.802788215694456,20.31198378387685,82.75328374863608,74.48529034073101,-6.47544875391759e-05,0.0931989923119545,0,0,0
6957,236477.34355315863,2010-10-11 08:10:57,1920.969692887273,7,20,-1.0993878841400146,3.602294683456421,20.802788215694456,20.32115132507339,82.75328374863608,74.51832884950996,-6.47544875391759e-05,0.0931989923119545,0,0,0
6958,236507.35873946332,2010-10-11 08:11:27,1950.984879171936,7,20,-1.099568486213684,3.5990569591522217,20.802788215694456,20.330319104895235,82.75328374863608,74.55133834929866,-6.47544875391759e-05,0.0931989923119545,0,0,0
6959,236537.37388809412,2010-10-11 08:11:57,1981.0000278027544,7,20,-1.0993878841400146,3.5958192348480225,20.802788215694456,20.339486605346107,82.75328374863608,74.5843174831106,-9.713172767078504e-05,0.0931989923119545,0,0,0
6960,236567.3890336423,2010-10-11 08:12:27,2011.0151733759524,7,20,-1.0997490882873535,3.5925815105438232,20.802788215694456,20.3486540753686,82.75328374863608,74.61726759250584,-9.713172767078504e-05,0.0931989923119545,0,0,0
6961,236597.4043780711,2010-10-11 08:12:57,2041.030517910022,7,20,-1.0997490882873535,3.589505910873413,20.802788215694456,20.35782167000951,82.75328374863608,74.65018984039521,-6.47544875391759e-05,0.0931989923119545,0,0,0
6962,236627.41934466327,2010-10-11 08:13:27,2071.0454843668062,7,20,-1.099568486213684,3.586591958999634,20.802788215694456,20.36698913925004,82.75328374863608,74.6830835482808,-6.47544875391759e-05,0.0931989923119545,0,0,0
6963,236657.43459496248,2010-10-11 08:13:57,2101.060734726163,7,20,-1.0993878841400146,3.5836780071258545,20.802788215694456,20.376156679750896,82.75328374863608,74.71595004927454,-3.237724376958795e-05,0.0931989923119545,0,0,0
6964,236687.44987322635,2010-10-11 08:14:27,2131.076012944955,7,20,-1.099568486213684,3.580602169036865,20.802788215694456,20.385324245784663,82.75328374863608,74.74878933908595,-9.713172767078504e-05,0.0931989923119545,0,0,0
6965,236717.4647729869,2010-10-11 08:14:57,2161.090912695487,7,20,-1.0993878841400146,3.577850103378296,20.802788215694456,20.39449175870136,82.75328374863608,74.78160146081152,-3.237724376958795e-05,0.0931989923119545,0,0,0
6966,236747.47993563768,2010-10-11 08:15:27,2191.106075341235,7,20,-1.0993878841400146,3.5749361515045166,20.802788215694456,20.403659341569824,82.75328374863608,74.81438686546498,-3.237724376958795e-05,0.0931989923119545,0,0,0
6967,236777.49700879003,2010-10-11 08:15:57,2221.123148523628,7,20,-1.099568486213684,3.5716984272003174,20.802788215694456,20.412827409340263,82.75328374863608,74.8471474225733,-9.713172767078504e-05,0.0931989923119545,0,0,0
6968,236807.51035701868,2010-10-11 08:16:27,2251.136496762316,7,20,-1.0993878841400146,3.569108247756958,20.802788215694456,20.42199442238672,82.75328374863608,74.87987753426806,-3.237724376958795e-05,0.0931989923119545,0,0,0
6969,236837.52540304372,2010-10-11 08:16:57,2281.1515427924214,7,20,-1.099568486213684,3.5660324096679688,20.802788215694456,20.43116190041124,82.75328374863608,74.9125822506842,-6.47544875391759e-05,0.0931989923119545,0,0,0
6970,236867.5405506972,2010-10-11 08:17:27,2311.16669040069,7,20,-1.099568486213684,3.563118457794189,20.802788215694456,20.4403294562315,82.75328374863608,74.94526011043575,-6.47544875391759e-05,0.0931989923119545,0,0,0
6971,236897.5557029069,2010-10-11 08:17:57,2341.181842610429,7,20,-1.0993878841400146,3.56036639213562,20.802788215694456,20.44949695986752,82.75328374863608,74.97791197228311,-3.237724376958795e-05,0.0931989923119545,0,0,0
6972,236927.5709631759,2010-10-11 08:18:27,2371.197102914572,7,20,-1.099568486213684,3.557290554046631,20.802788215694456,20.45866446513438,82.75328374863608,75.01053665152122,-9.713172767078504e-05,0.0931989923119545,0,0,0
6973,236957.5859870909,2010-10-11 08:18:57,2401.212126799485,7,20,-1.0993878841400146,3.554376602172852,20.802788215694456,20.467832020905547,82.75328374863608,75.04313379757754,0.0,0.0931989923119545,0,0,0
6974,236987.60128884332,2010-10-11 08:19:27,2431.2274285870167,7,20,-1.0997490882873535,3.5509769916534424,20.802788215694456,20.47699957600757,82.75328374863608,75.07570269999444,-6.47544875391759e-05,0.0931989923119545,0,0,0
6975,237017.6162857761,2010-10-11 08:19:57,2461.242425484669,7,20,-1.0993878841400146,3.547901153564453,20.802788215694456,20.486167063428045,82.75328374863608,75.1082426300608,-9.713172767078504e-05,0.0931989923119545,0,0,0
6976,237047.63144780527,2010-10-11 08:20:27,2491.2575875489683,7,20,-1.0993878841400146,3.544987201690674,20.802788215694456,20.49533464846235,82.75328374863608,75.14075386504467,-6.47544875391759e-05,0.0931989923119545,0,0,0
6977,237077.6465828623,2010-10-11 08:20:58,2521.27272259092,7,20,-1.099568486213684,3.5415875911712646,20.802788215694456,20.504502162493026,82.75328374863608,75.17323549371626,-3.237724376958795e-05,0.0931989923119545,0,0,0
6978,237107.66187555212,2010-10-11 08:21:28,2551.2880153208766,7,20,-1.099568486213684,3.5381879806518555,20.802788215694456,20.513669663271976,82.75328374863608,75.20568716098717,-6.47544875391759e-05,0.0931989923119545,0,0,0
6979,237137.67703159648,2010-10-11 08:21:58,2581.303171350134,7,20,-1.0997490882873535,3.5347883701324463,20.802788215694456,20.52283715852168,82.75328374863608,75.23810820274927,-6.47544875391759e-05,0.0931989923119545,0,0,0
6980,237167.69203344145,2010-10-11 08:22:28,2611.3181731750674,7,20,-1.0993878841400146,3.531388759613037,20.802788215694456,20.532004593577582,82.75328374863608,75.27049771267137,-6.47544875391759e-05,0.0931989923119545,0,0,0
6981,237197.70733830164,2010-10-11 08:22:58,2641.333478015207,7,20,-1.0993878841400146,3.527827262878418,20.802788215694456,20.541172170712898,82.75328374863608,75.30285557535477,-9.713172767078504e-05,0.0931989923119545,0,0,0
6982,237227.72235928933,2010-10-11 08:23:28,2671.348498997887,7,20,-1.099568486213684,3.524265766143799,20.802788215694456,20.55033969444881,82.75328374863608,75.33518000301333,-9.713172767078504e-05,0.0931989923119545,0,0,0
6983,237257.7376962445,2010-10-11 08:23:58,2701.3638359781294,7,20,-1.099568486213684,3.52021861076355,20.802788215694456,20.55950721226959,82.75328374863608,75.3674701665144,-0.0001295089750783,0.0931989923119545,0,0,0
6984,237287.7526576587,2010-10-11 08:24:28,2731.3787973672847,7,20,-1.0997490882873535,3.5163333415985107,20.802788215694456,20.568674737091225,82.75328374863608,75.399724735576,-9.713172767078504e-05,0.0931989923119545,0,0,0
6985,237317.767808881,2010-10-11 08:24:58,2761.393948614624,7,20,-1.0997490882873535,3.512124300003052,20.802788215694456,20.5778423249302,82.75328374863608,75.43194249341782,-9.713172767078504e-05,0.0931989923119545,0,0,0
6986,237347.78298484496,2010-10-11 08:25:28,2791.4091245535024,7,20,-1.0997490882873535,3.507915496826172,20.802788215694456,20.587009936159333,82.75328374863608,75.46412169265358,-0.0001295089750783,0.0931989923119545,0,0,0
6987,237377.8000351403,2010-10-11 08:25:58,2821.4261748839417,7,20,-1.099568486213684,3.503220796585083,20.802788215694456,20.596178137727545,82.75328374863608,75.49626231061868,-0.0001295089750783,0.0931989923119545,0,0,0
6988,237407.81335235664,2010-10-11 08:26:28,2851.4394921303865,7,20,-1.099568486213684,3.498364210128784,20.802788215694456,20.605345103299427,82.75328374863608,75.52835510001164,-0.0001295089750783,0.0931989923119545,0,0,0
6989,237437.82854230047,2010-10-11 08:26:58,2881.454682039082,7,20,-1.099568486213684,3.493183851242065,20.802788215694456,20.614512745971684,82.75328374863608,75.5604035409181,-0.0001295089750783,0.0931989923119545,0,0,0
6990,237467.84357460137,2010-10-11 08:27:28,2911.469714304883,7,20,-1.0997490882873535,3.487355947494507,20.802788215694456,20.623680291909064,82.75328374863608,75.59240094249603,-0.0001618862152099,0.0931989923119545,0,0,0
6991,237497.85961084932,2010-10-11 08:27:58,2941.485750582992,7,20,-1.099568486213684,3.4808804988861084,20.802788215694456,20.632848139691745,82.75328374863608,75.624344073908,-0.0001942634553415,0.0931989923119545,0,0,0
6992,237527.8738793366,2010-10-11 08:28:28,2971.500019070221,7,20,-1.099568486213684,3.47391939163208,20.802788215694456,20.64201529781808,82.75328374863608,75.65622311805016,-0.0001942634553415,0.0931989923119545,0,0,0
6993,237557.88898998772,2010-10-11 08:28:58,3001.515129706345,7,20,-1.099568486213684,3.465986967086792,20.802788215694456,20.651182801332183,82.75328374863608,75.68803536934864,-0.0002913951757363,0.0931989923119545,0,0,0
6994,237587.9042773293,2010-10-11 08:29:28,3031.5304170929853,7,20,-1.099568486213684,3.457083225250244,20.802788215694456,20.660350457240344,82.75328374863608,75.71977121173458,-0.0002590179501567,0.0931989923119545,0,0,0
6995,237617.91944065675,2010-10-11 08:29:58,3061.5455804254448,7,20,-1.099568486213684,3.446722507476806,20.802788215694456,20.66951808161554,82.75328374863608,75.75141830503568,-0.0003237724304199,0.0931989923119545,0,0,0
6996,237647.9344874387,2010-10-11 08:30:28,3091.5606271823626,7,20,-1.099568486213684,3.43425726890564,20.802788215694456,20.678685689315717,82.75328374863608,75.78296118221749,-0.0003885269106831,0.0931989923119545,0,0,0
6997,237677.949661127,2010-10-11 08:30:58,3121.575800865619,7,20,-1.099568486213684,3.4188783168792725,20.802788215694456,20.68785335609198,82.75328374863608,75.81437818794309,-0.0004856586456298,0.0931989923119545,0,0,0
6998,237707.96493385712,2010-10-11 08:31:28,3151.5910735806933,7,20,-1.099568486213684,3.399775743484497,20.802788215694456,20.697021007610232,82.75328374863608,75.84563753378144,-0.0005504131549969,0.0931989923119545,0,0,0
6999,237737.9799472258,2010-10-11 08:31:58,3181.6060869393723,7,20,-1.0992072820663452,3.3741977214813232,20.802788215694456,20.7061885584416,82.75328374863608,75.87669294266765,-0.0007446765666827,0.0931989923119545,0,0,0
7000,237767.9952170136,2010-10-11 08:32:28,3211.6213567572254,7,20,-1.099568486213684,3.338744878768921,20.802788215694456,20.715356279115024,82.75328374863608,75.90747252044741,-0.0010684489971026,0.0931989923119545,0,0,0
7001,237798.01024036217,2010-10-11 08:32:58,3241.636380070715,7,20,-1.099568486213684,3.288883924484253,20.802788215694456,20.724523861914363,82.75328374863608,75.93786614696128,-0.0015864849556237,0.0931989923119545,0,0,0
7002,237828.02543368936,2010-10-11 08:33:28,3271.65157341798,7,20,-1.0993878841400146,3.217654228210449,20.802788215694456,20.73369142819256,82.75328374863608,75.96771069364253,-0.0022016526199877,0.0931989923119545,0,0,0
7003,237858.0405475736,2010-10-11 08:33:58,3301.666687287162,7,20,-1.099568486213684,3.1124284267425537,20.802788215694456,20.74285902716874,82.75328374863608,75.99675873308573,-0.0033024786971509,0.0931989923119545,0,0,0
7004,237888.05593552583,2010-10-11 08:34:28,3331.68207533468,7,20,-1.0997490882873535,2.938401460647583,20.802788215694456,20.752026713814683,82.75328374863608,76.02458006954913,-0.0061192512512207,0.0931989923119545,0,0,0
7005,237906.24291657365,2010-10-11 08:34:46,3349.8690563122705,7,20,-1.099568486213684,2.738310575485229,20.802788215694456,20.757581621570427,82.75328374863608,76.0403992553088,-0.0108139514923095,0.0931989923119545,0,0,0
7006,237908.8991394634,2010-10-11 08:34:49,3352.525279181961,7,20,-1.099568486213684,2.699781894683838,20.802788215694456,20.75839291799661,82.75328374863608,76.04260557174871,-0.0114291189238429,0.0931989923119545,0,0,0
7007,237968.90674761264,2010-10-11 08:35:49,60.01481255899318,8,20,0.0,3.34182071685791,20.802788215694456,20.75839291799661,82.75328374863608,76.04260557174871,0.0012303352123126,0.0931989923119545,0,0,0
7008,237969.0897444446,2010-10-11 08:35:49,0.189374273959715,9,20,-1.9243103452026844e-05,3.34214448928833,20.802788215694456,20.758392919008877,82.75328374863608,76.04260557513183,0.0,0.0914954170584678,0,0,0
7009,237973.91590761812,2010-10-11 08:35:54,5.015537342299269,9,20,0.0003419754502829,3.3494293689727783,20.802789041702624,20.758392919165992,82.75328651285695,76.04260557565692,0.0010360718006268,0.0914954170584678,0,0,0
