Data_Point,Test_Time(s),Date_Time,Step_Time(s),Step_Index,Cycle_Index,Current(A),Voltage(V),Charge_Capacity(Ah),Discharge_Capacity(Ah),Charge_Energy(Wh),Discharge_Energy(Wh),dV/dt(V/s),Internal_Resistance(Ohm),Is_FC_Data,AC_Impedance(Ohm),ACI_Phase_Angle(Deg)
14467,495208.1826884911,2010-10-14 08:03:36,30.01506191970758,1,43,0.0,3.422116041183472,43.0060900438336,42.947261805152806,171.33640460239425,156.94978328234097,0.0007770538213662,0.0923885703086853,0,0,0
14468,495238.1978416181,2010-10-14 08:04:06,60.030215046731854,1,43,0.0,3.445751190185547,43.0060900438336,42.947261805152806,171.33640460239425,156.94978328234097,0.0005827903514727,0.0923885703086853,0,0,0
14469,495268.2131176264,2010-10-14 08:04:36,90.04549106002654,1,43,0.0,3.4637205600738525,43.0060900438336,42.947261805152806,171.33640460239425,156.94978328234097,0.0004209041653666,0.0923885703086853,0,0,0
14470,495298.1812494118,2010-10-14 08:05:06,120.01362286544928,1,43,0.0,3.477804660797119,43.0060900438336,42.947261805152806,171.33640460239425,156.94978328234097,0.0003237724304199,0.0923885703086853,0,0,0
14471,495328.2087135658,2010-10-14 08:05:36,30.015143813812887,2,43,0.5501165986061096,3.629329681396485,43.010676389666585,42.947261805152806,171.35289970441232,156.94978328234097,0.0014893531333655,0.0923885703086853,0,0,0
14472,495358.22387830674,2010-10-14 08:06:06,60.0303085497702,2,43,0.5501165986061096,3.672391414642334,43.01526273290414,42.947261805152806,171.36964970659537,156.94978328234097,0.0010036944877356,0.0923885703086853,0,0,0
14473,495388.2390403509,2010-10-14 08:06:36,90.04547059903142,2,43,0.5497553944587708,3.7029876708984375,43.01984908138517,42.947261805152806,171.38656611735092,156.94978328234097,0.0006799221155233,0.0923885703086853,0,0,0
14474,495418.2543259932,2010-10-14 08:07:06,120.06075623631205,2,43,0.5499359965324402,3.7271087169647217,43.02443539747431,42.947261805152806,171.4036067599661,156.94978328234097,0.0005827903514727,0.0923885703086853,0,0,0
14475,495448.26951761614,2010-10-14 08:07:36,150.07594786930505,2,43,0.5501165986061096,3.746049404144287,43.02902174796747,42.947261805152806,171.42074575415933,156.94978328234097,0.0004532813909463,0.0923885703086853,0,0,0
14476,495478.28444401815,2010-10-14 08:08:06,180.0908742712607,2,43,0.5499359965324402,3.761266469955444,43.03360797866711,42.947261805152806,171.43796315940497,156.94978328234097,0.0002913951757363,0.0923885703086853,0,0,0
14477,495508.2997018361,2010-10-14 08:08:36,210.10613208419448,2,43,0.5501165986061096,3.771627187728882,43.03819428968573,42.947261805152806,171.45523931542198,156.94978328234097,0.0002266406954731,0.0923885703086853,0,0,0
14478,495538.3147216559,2010-10-14 08:09:06,240.12115190898857,2,43,0.5499359965324402,3.777778863906861,43.04278056402555,42.947261805152806,171.47255213176308,156.94978328234097,0.0001295089750783,0.0923885703086853,0,0,0
14479,495568.329989188,2010-10-14 08:09:36,270.1364194361331,2,43,0.5501165986061096,3.782149791717529,43.04736696361824,42.947261805152806,171.4898889100356,156.94978328234097,9.713172767078504e-05,0.0923885703086853,0,0,0
14480,495598.3450918593,2010-10-14 08:10:06,300.15152213246864,2,43,0.550297200679779,3.786035060882568,43.051953264135896,42.947261805152806,171.50724397872443,156.94978328234097,9.713172767078504e-05,0.0923885703086853,0,0,0
14481,495628.3601603454,2010-10-14 08:10:36,330.1665905934791,2,43,0.5499359965324402,3.7897584438323975,43.05653969244916,42.947261805152806,171.52461664578607,156.94978328234097,0.0001295089750783,0.0923885703086853,0,0,0
14482,495658.3753017582,2010-10-14 08:11:06,360.18173200630804,2,43,0.5501165986061096,3.7933199405670166,43.06112606591378,42.947261805152806,171.542005885043,156.94978328234097,9.713172767078504e-05,0.0923885703086853,0,0,0
14483,495688.3904451459,2010-10-14 08:11:36,390.196875404084,2,43,0.5501165986061096,3.796881437301636,43.06571235802274,42.947261805152806,171.55941138928517,156.94978328234097,9.713172767078504e-05,0.0923885703086853,0,0,0
14484,495718.4055968945,2010-10-14 08:12:06,420.21202713763535,2,43,0.5499359965324402,3.800281047821045,43.07029871003501,42.947261805152806,171.57683345299935,156.94978328234097,3.237724376958795e-05,0.0923885703086853,0,0,0
14485,495748.4207341019,2010-10-14 08:12:36,450.22716434999546,2,43,0.550297200679779,3.804004430770874,43.074885105411134,42.947261805152806,171.5942717411997,156.94978328234097,0.0001295089750783,0.0923885703086853,0,0,0
14486,495778.435873625,2010-10-14 08:13:06,480.242303868102,2,43,0.5501165986061096,3.807404041290283,43.07947145947,42.947261805152806,171.61172555646837,156.94978328234097,0.0001295089750783,0.0923885703086853,0,0,0
14487,495808.4510378848,2010-10-14 08:13:36,510.257468132885,2,43,0.5499359965324402,3.8106417655944815,43.08405781141198,42.947261805152806,171.62919478506697,156.94978328234097,6.47544875391759e-05,0.0923885703086853,0,0,0
14488,495838.4661798791,2010-10-14 08:14:06,540.2726101221506,2,43,0.5501165986061096,3.8138794898986816,43.08864420368702,42.947261805152806,171.64667946351096,156.94978328234097,6.47544875391759e-05,0.0923885703086853,0,0,0
14489,495868.481330991,2010-10-14 08:14:36,570.2877612491903,2,43,0.550297200679779,3.817117214202881,43.09323051876072,42.947261805152806,171.66417894401718,156.94978328234097,6.47544875391759e-05,0.0923885703086853,0,0,0
14490,495898.496586408,2010-10-14 08:15:06,600.3030166561275,2,43,0.5501165986061096,3.82035493850708,43.09781688189053,42.947261805152806,171.68169326194186,156.94978328234097,9.713172767078504e-05,0.0923885703086853,0,0,0
14491,495928.51162321016,2010-10-14 08:15:36,630.3180534682594,2,43,0.5499359965324402,3.8235926628112793,43.10240318165906,42.947261805152806,171.6992219336544,156.94978328234097,0.0001295089750783,0.0923885703086853,0,0,0
14492,495958.5267629137,2010-10-14 08:16:06,660.3331932470156,2,43,0.5501165986061096,3.8268303871154794,43.10698951368156,42.947261805152806,171.7167654175719,156.94978328234097,9.713172767078504e-05,0.0923885703086853,0,0,0
14493,495988.54190065234,2010-10-14 08:16:36,690.348330900475,2,43,0.5501165986061096,3.8300681114196777,43.11157590553543,42.947261805152806,171.73432384566885,156.94978328234097,0.0001295089750783,0.0923885703086853,0,0,0
14494,496018.5570563258,2010-10-14 08:17:06,720.3634865688331,2,43,0.5501165986061096,3.833305597305298,43.11616232659729,42.947261805152806,171.7518971711069,156.94978328234097,6.470680091297254e-05,0.0923885703086853,0,0,0
14495,496048.57220166834,2010-10-14 08:17:36,750.3786319164687,2,43,0.5501165986061096,3.836543321609497,43.12074865518789,42.947261805152806,171.76948517099962,156.94978328234097,6.47544875391759e-05,0.0923885703086853,0,0,0
14496,496078.5873447002,2010-10-14 08:18:06,780.3937749433203,2,43,0.5501165986061096,3.839942932128906,43.12533495427158,42.947261805152806,171.78708836682162,156.94978328234097,9.713172767078504e-05,0.0923885703086853,0,0,0
14497,496108.6026748385,2010-10-14 08:18:36,810.4091050865234,2,43,0.5501165986061096,3.843342542648315,43.12992128953418,42.947261805152806,171.80470715615442,156.94978328234097,9.713172767078504e-05,0.0923885703086853,0,0,0
14498,496138.617735064,2010-10-14 08:19:06,840.4241654122583,2,43,0.5499359965324402,3.8467421531677246,43.13450757332756,42.947261805152806,171.82234120006157,156.94978328234097,9.713172767078504e-05,0.0923885703086853,0,0,0
14499,496168.6327627232,2010-10-14 08:19:36,870.4391929813535,2,43,0.5501165986061096,3.850141763687134,43.13909391612684,42.947261805152806,171.83999098545374,156.94978328234097,0.0001618862152099,0.0923885703086853,0,0,0
14500,496198.64791621605,2010-10-14 08:20:06,900.4543464642647,2,43,0.5501165986061096,3.853379487991333,43.14368028529307,42.947261805152806,171.85765625968403,156.94978328234097,9.713172767078504e-05,0.0923885703086853,0,0,0
14501,496228.6630574736,2010-10-14 08:20:36,930.4694877217064,2,43,0.550297200679779,3.856617212295532,43.14826666271111,42.947261805152806,171.87533662991703,156.94978328234097,9.713172767078504e-05,0.0923885703086853,0,0,0
14502,496258.6781856083,2010-10-14 08:21:06,960.4846158764924,2,43,0.550297200679779,3.859854936599731,43.15285293356696,42.947261805152806,171.89303135760613,156.94978328234097,9.713172767078504e-05,0.0923885703086853,0,0,0
14503,496288.6933262742,2010-10-14 08:21:37,990.4997565224096,2,43,0.550297200679779,3.86309266090393,43.157439247115626,42.947261805152806,171.91074071707817,156.94978328234097,0.0001295089750783,0.0923885703086853,0,0,0
14504,496318.7110551408,2010-10-14 08:22:07,1020.5174855042568,2,43,0.5499359965324402,3.8658447265625,43.16202594954333,42.947261805152806,171.92846563601367,156.94978328234097,6.47544875391759e-05,0.0923885703086853,0,0,0
14505,496348.72368659306,2010-10-14 08:22:37,1050.5301169665163,2,43,0.5501165986061096,3.868920564651489,43.1666118997149,42.947261805152806,171.94620149953982,156.94978328234097,6.47544875391759e-05,0.0923885703086853,0,0,0
14506,496378.738989724,2010-10-14 08:23:07,1080.545419967072,2,43,0.5501165986061096,3.8716726303100586,43.171198159826965,42.947261805152806,171.96395192034086,156.94978328234097,3.237724376958795e-05,0.0923885703086853,0,0,0
14507,496408.753910963,2010-10-14 08:23:37,1110.5603412111725,2,43,0.5501165986061096,3.874586582183838,43.17578444450417,42.947261805152806,171.98171543904388,156.94978328234097,9.713172767078504e-05,0.0923885703086853,0,0,0
14508,496438.7690968868,2010-10-14 08:24:07,1140.5755271449614,2,43,0.5501165986061096,3.8773386478424072,43.18037076193424,42.947261805152806,171.9994915854724,156.94978328234097,9.713172767078504e-05,0.0923885703086853,0,0,0
14509,496468.7843454568,2010-10-14 08:24:37,1170.590775729896,2,43,0.5501165986061096,3.8796050548553462,43.184957130256514,42.947261805152806,172.017279884509,156.94978328234097,6.47544875391759e-05,0.0923885703086853,0,0,0
14510,496498.7993418832,2010-10-14 08:25:07,1200.6057721563743,2,43,0.5501165986061096,3.882195234298706,43.18954347794916,42.947261805152806,172.03507935602255,156.94978328234097,3.237724376958795e-05,0.0923885703086853,0,0,0
14511,496528.8144863236,2010-10-14 08:25:37,1230.6209165716862,2,43,0.5501165986061096,3.8844616413116455,43.19412987443314,42.947261805152806,172.05288967523956,156.94978328234097,6.47544875391759e-05,0.0923885703086853,0,0,0
14512,496558.82965631766,2010-10-14 08:26:07,1260.6360865857985,2,43,0.5499359965324402,3.886404275894165,43.19871623684742,42.947261805152806,172.07070971490447,156.94978328234097,6.47544875391759e-05,0.0923885703086853,0,0,0
14513,496588.8447817306,2010-10-14 08:26:37,1290.6512120037632,2,43,0.5499359965324402,3.888346910476685,43.20330258908578,42.947261805152806,172.0885390316863,156.94978328234097,3.237724376958795e-05,0.0923885703086853,0,0,0
14514,496618.8599208426,2010-10-14 08:27:07,1320.6663510807707,2,43,0.5499359965324402,3.890127658843994,43.20788898934524,42.947261805152806,172.1063772957408,156.94978328234097,0.0,0.0923885703086853,0,0,0
14515,496648.87508033554,2010-10-14 08:27:37,1350.681510608748,2,43,0.5501165986061096,3.8920702934265137,43.212475326243805,42.947261805152806,172.1242233617429,156.94978328234097,6.47544875391759e-05,0.0923885703086853,0,0,0
14516,496678.8902168612,2010-10-14 08:28:07,1380.6966471043215,2,43,0.5501165986061096,3.8935272693634033,43.21706176037118,42.947261805152806,172.1420773304778,156.94978328234097,3.237724376958795e-05,0.0923885703086853,0,0,0
14517,496708.9053560234,2010-10-14 08:28:37,1410.7117862715538,2,43,0.5499359965324402,3.894984245300293,43.22164823331501,42.947261805152806,172.159938459593,156.94978328234097,6.47544875391759e-05,0.0923885703086853,0,0,0
14518,496738.9204916618,2010-10-14 08:29:07,1440.726921909991,2,43,0.550297200679779,3.8962793350219727,43.22623460066425,42.947261805152806,172.1778052721528,156.94978328234097,3.237724376958795e-05,0.0923885703086853,0,0,0
14519,496768.93564103456,2010-10-14 08:29:37,1470.7420712826583,2,43,0.5499359965324402,3.8977363109588623,43.23082091386616,42.947261805152806,172.19567823875184,156.94978328234097,3.237724376958795e-05,0.0923885703086853,0,0,0
14520,496798.950828036,2010-10-14 08:30:07,1500.757258294133,2,43,0.5501165986061096,3.899031400680542,43.23540725807938,42.947261805152806,172.2135572964774,156.94978328234097,9.713172767078504e-05,0.0923885703086853,0,0,0
14521,496828.9659353088,2010-10-14 08:30:37,1530.7723655568493,2,43,0.5499359965324402,3.9000027179718018,43.23999362755858,42.947261805152806,172.23144219796785,156.94978328234097,0.0,0.0923885703086853,0,0,0
14522,496858.9811651519,2010-10-14 08:31:07,1560.7875954100991,2,43,0.5501165986061096,3.9012978076934814,43.24458001609826,42.947261805152806,172.24933272189344,156.94978328234097,0.0,0.0923885703086853,0,0,0
14523,496888.9961911922,2010-10-14 08:31:37,1590.802621450384,2,43,0.5499359965324402,3.902592897415161,43.24916632891187,42.947261805152806,172.26722846829418,156.94978328234097,3.237724376958795e-05,0.0923885703086853,0,0,0
14524,496919.01134670014,2010-10-14 08:32:07,1620.8177769433048,2,43,0.5501165986061096,3.903726100921631,43.25375267462706,42.947261805152806,172.28512971305975,156.94978328234097,3.237724376958795e-05,0.0923885703086853,0,0,0
14525,496949.0266562671,2010-10-14 08:32:37,1650.833086555338,2,43,0.5501165986061096,3.9048593044281006,43.25833900412351,42.947261805152806,172.30303638641536,156.94978328234097,3.237724376958795e-05,0.0923885703086853,0,0,0
14526,496979.0416332652,2010-10-14 08:33:07,1680.8480635082822,2,43,0.5501165986061096,3.90615439414978,43.262925340128426,42.947261805152806,172.32094834019017,156.94978328234097,3.237724376958795e-05,0.0923885703086853,0,0,0
14527,497009.0567815652,2010-10-14 08:33:37,1710.8632118132884,2,43,0.5499359965324402,3.90712571144104,43.26751177103302,42.947261805152806,172.3388662161492,156.94978328234097,0.0,0.0923885703086853,0,0,0
14528,497039.0719513287,2010-10-14 08:34:07,1740.8783815717634,2,43,0.5499359965324402,3.90842080116272,43.27209820024642,42.947261805152806,172.3567895130772,156.94978328234097,0.0,0.0923885703086853,0,0,0
14529,497069.0870889471,2010-10-14 08:34:37,1770.893519195148,2,43,0.5501165986061096,3.9097158908844,43.2766845768359,42.947261805152806,172.37471808020393,156.94978328234097,3.237724376958795e-05,0.0923885703086853,0,0,0
14530,497099.10244579177,2010-10-14 08:35:07,1800.9088761451617,2,43,0.5501165986061096,3.910687208175659,43.28127098250304,42.947261805152806,172.39265225539305,156.94978328234097,-3.237724376958795e-05,0.0923885703086853,0,0,0
14531,497129.1173535773,2010-10-14 08:35:37,1830.923783825457,2,43,0.550297200679779,3.912306070327759,43.28585733571407,42.947261805152806,172.41059185564535,156.94978328234097,6.47544875391759e-05,0.0923885703086853,0,0,0
14532,497159.1325168396,2010-10-14 08:36:07,1860.9389471278416,2,43,0.5499359965324402,3.9132773876190186,43.290443691182205,42.947261805152806,172.42853712659073,156.94978328234097,3.237724376958795e-05,0.0923885703086853,0,0,0
14533,497189.14766160585,2010-10-14 08:36:37,1890.9540918539285,2,43,0.5501165986061096,3.914572238922119,43.29503004713062,42.947261805152806,172.4464881297087,156.94978328234097,3.237724376958795e-05,0.0923885703086853,0,0,0
14534,497219.1628120762,2010-10-14 08:37:07,1920.9692423243312,2,43,0.5501165986061096,3.915705442428589,43.29961643504763,42.947261805152806,172.46444489337293,156.94978328234097,3.237724376958795e-05,0.0923885703086853,0,0,0
14535,497249.1779357147,2010-10-14 08:37:37,1950.9843659628616,2,43,0.5501165986061096,3.9171624183654794,43.30420279601338,42.947261805152806,172.48240725452064,156.94978328234097,3.237724376958795e-05,0.0923885703086853,0,0,0
14536,497279.1931016839,2010-10-14 08:38:07,1980.9995319218667,2,43,0.5501165986061096,3.918295621871948,43.30878912560356,42.947261805152806,172.50037534232067,156.94978328234097,0.0,0.0923885703086853,0,0,0
14537,497309.2083440532,2010-10-14 08:38:37,2011.0147743113607,2,43,0.5499359965324402,3.919590711593628,43.31337546143545,42.947261805152806,172.51834927800076,156.94978328234097,0.0,0.0923885703086853,0,0,0
14538,497339.2235813551,2010-10-14 08:39:07,2041.0300115931243,2,43,0.5499359965324402,3.920885801315308,43.31796189538127,42.947261805152806,172.53632954004595,156.94978328234097,3.237724376958795e-05,0.0923885703086853,0,0,0
14539,497369.2387097554,2010-10-14 08:39:37,2071.045140003547,2,43,0.5501165986061096,3.9221808910369873,43.32254824340916,42.947261805152806,172.55431531715874,156.94978328234097,3.237724376958795e-05,0.0923885703086853,0,0,0
14540,497399.2536709541,2010-10-14 08:40:07,2101.060101197215,2,43,0.5501165986061096,3.923637866973877,43.32713458788229,42.947261805152806,172.57230713355116,156.94978328234097,6.47544875391759e-05,0.0923885703086853,0,0,0
14541,497429.2688308529,2010-10-14 08:40:37,2131.0752619532527,2,43,0.5501165986061096,3.9249329566955566,43.33172098663342,42.947261805152806,172.59030523330296,156.94978328234097,6.47544875391759e-05,0.0923885703086853,0,0,0
14542,497459.2839394741,2010-10-14 08:41:07,2161.0903697122058,2,43,0.550297200679779,3.926228046417236,43.33630733958408,42.947261805152806,172.60830922660332,156.94978328234097,6.47544875391759e-05,0.0923885703086853,0,0,0
14543,497489.2991080447,2010-10-14 08:41:37,2191.1055383027697,2,43,0.5499359965324402,3.927523136138916,43.34089373493348,42.947261805152806,172.6263194997959,156.94978328234097,0.0,0.0923885703086853,0,0,0
14544,497519.3142710463,2010-10-14 08:42:07,2221.12070129438,2,43,0.5499359965324402,3.9289801120758057,43.34548014245742,42.947261805152806,172.64433612227106,156.94978328234097,6.47544875391759e-05,0.0923885703086853,0,0,0
14545,497549.3293783992,2010-10-14 08:42:37,2251.135808647321,2,43,0.5501165986061096,3.930275201797485,43.350066486383255,42.947261805152806,172.66235880034623,156.94978328234097,3.237724376958795e-05,0.0923885703086853,0,0,0
14546,497579.3445301728,2010-10-14 08:43:07,2281.15096041596,2,43,0.5501165986061096,3.931732177734375,43.35465290020009,42.947261805152806,172.68038812852637,156.94978328234097,3.237724376958795e-05,0.0923885703086853,0,0,0
14547,497609.3596795256,2010-10-14 08:43:37,2311.1661097735896,2,43,0.5501165986061096,3.9331891536712646,43.35923933434309,42.947261805152806,172.69842399839715,156.94978328234097,3.237724376958795e-05,0.0923885703086853,0,0,0
14548,497639.3749406466,2010-10-14 08:44:07,2341.181371020081,2,43,0.5501165986061096,3.934484243392944,43.363825754374986,42.947261805152806,172.71646628971214,156.94978328234097,3.237724376958795e-05,0.0923885703086853,0,0,0
14549,497669.3899566068,2010-10-14 08:44:37,2371.1963868900184,2,43,0.550297200679779,3.936103105545044,43.36841213863995,42.947261805152806,172.73451503439392,156.94978328234097,6.47544875391759e-05,0.0923885703086853,0,0,0
14550,497699.40511546313,2010-10-14 08:45:07,2401.211545711234,2,43,0.5501165986061096,3.937398195266724,43.37299852285633,42.947261805152806,172.75257019583762,156.94978328234097,3.237724376958795e-05,0.0923885703086853,0,0,0
14551,497729.4203757522,2010-10-14 08:45:37,2431.226806030414,2,43,0.550297200679779,3.938855171203613,43.37758488215884,42.947261805152806,172.7706319939117,156.94978328234097,3.237724376958795e-05,0.0923885703086853,0,0,0
14552,497759.43539203313,2010-10-14 08:46:07,2461.2418222762885,2,43,0.5499359965324402,3.940312147140503,43.38217121566769,42.947261805152806,172.788700369116,156.94978328234097,3.237724376958795e-05,0.0923885703086853,0,0,0
14553,497789.4505273709,2010-10-14 08:46:37,2491.256957618989,2,43,0.5499359965324402,3.9417691230773926,43.386757587882286,42.947261805152806,172.80677562917757,156.94978328234097,6.47544875391759e-05,0.0923885703086853,0,0,0
14554,497819.4659222705,2010-10-14 08:47:07,2521.2723525286096,2,43,0.5501165986061096,3.943387985229492,43.39134402565205,42.947261805152806,172.82485790642687,156.94978328234097,6.47544875391759e-05,0.0923885703086853,0,0,0
14555,497849.48081743455,2010-10-14 08:47:37,2551.2872476927114,2,43,0.5501165986061096,3.944844961166382,43.39593043601113,42.947261805152806,172.84294694581453,156.94978328234097,6.47544875391759e-05,0.0923885703086853,0,0,0
14556,497879.4959710378,2010-10-14 08:48:07,2581.302401285897,2,43,0.5499359965324402,3.946301937103272,43.40051681494469,42.947261805152806,172.86104285830476,156.94978328234097,3.237724376958795e-05,0.0923885703086853,0,0,0
14557,497909.5111295583,2010-10-14 08:48:37,2611.317559811376,2,43,0.5501165986061096,3.947758913040161,43.40510323798432,42.947261805152806,172.87914581533383,156.94978328234097,3.237724376958795e-05,0.0923885703086853,0,0,0
14558,497939.5262509512,2010-10-14 08:49:07,2641.332681189272,2,43,0.550297200679779,3.9493777751922607,43.40968960969769,42.947261805152806,172.8972556389356,156.94978328234097,3.237724376958795e-05,0.0923885703086853,0,0,0
14559,497969.5415446136,2010-10-14 08:49:37,2671.347974861578,2,43,0.550297200679779,3.95099663734436,43.41427598609265,42.947261805152806,172.91537249766267,156.94978328234097,6.47544875391759e-05,0.0923885703086853,0,0,0
14560,497999.5565790898,2010-10-14 08:50:07,2701.363009337888,2,43,0.5499359965324402,3.95261549949646,43.41886243313168,42.947261805152806,172.93349671793726,156.94978328234097,6.47544875391759e-05,0.0923885703086853,0,0,0
14561,498029.571688563,2010-10-14 08:50:37,2731.3781188111134,2,43,0.5501165986061096,3.9540724754333496,43.4234488357188,42.947261805152806,172.9516278646142,156.94978328234097,6.47544875391759e-05,0.0923885703086853,0,0,0
14562,498059.5870746406,2010-10-14 08:51:07,2761.393504898748,2,43,0.5501165986061096,3.955691337585449,43.42803530132711,42.947261805152806,172.9697665042365,156.94978328234097,3.237724376958795e-05,0.0923885703086853,0,0,0
14563,498089.6019745516,2010-10-14 08:51:37,2791.408404799655,2,43,0.5499359965324402,3.957148313522339,43.432621642158495,42.947261805152806,172.98791196948196,156.94978328234097,3.237724376958795e-05,0.0923885703086853,0,0,0
14564,498119.6171610116,2010-10-14 08:52:07,2821.423591259755,2,43,0.5497553944587708,3.958605289459229,43.43720807764294,42.947261805152806,173.00606511591175,156.94978328234097,0.0,0.0923885703086853,0,0,0
14565,498149.6322761991,2010-10-14 08:52:37,2851.438706447222,2,43,0.5501165986061096,3.960386037826538,43.44179449794706,42.947261805152806,173.02422562537407,156.94978328234097,0.0,0.0923885703086853,0,0,0
14566,498179.64741558686,2010-10-14 08:53:07,2881.453845829992,2,43,0.550297200679779,3.9620048999786377,43.44638086652774,42.947261805152806,173.0423933890971,156.94978328234097,3.237724376958795e-05,0.0923885703086853,0,0,0
14567,498209.6625587791,2010-10-14 08:53:38,2911.468989027268,2,43,0.5499359965324402,3.963623762130737,43.45096725586673,42.947261805152806,173.06056862615412,156.94978328234097,6.47544875391759e-05,0.0923885703086853,0,0,0
14568,498239.67783819593,2010-10-14 08:54:08,2941.4842684540704,2,43,0.5501165986061096,3.965404510498047,43.455553730448855,42.947261805152806,173.0787518316371,156.94978328234097,6.47544875391759e-05,0.0923885703086853,0,0,0
14569,498269.6799956488,2010-10-14 08:54:38,2971.486426032188,2,43,0.5501165986061096,3.9670233726501465,43.46013816357921,42.947261805152806,173.09693467493443,156.94978328234097,3.237724376958795e-05,0.0923885703086853,0,0,0
14570,498299.6923718798,2010-10-14 08:55:08,3001.498802122984,2,43,0.5501165986061096,3.968642234802246,43.46472417540831,42.947261805152806,173.11513135559315,156.94978328234097,6.47544875391759e-05,0.0923885703086853,0,0,0
14571,498329.7077243587,2010-10-14 08:55:38,3031.514154626916,2,43,0.5499359965324402,3.970422983169556,43.46931065254732,42.947261805152806,173.13333766860282,156.94978328234097,6.47544875391759e-05,0.0923885703086853,0,0,0
14572,498359.7226566002,2010-10-14 08:56:08,3061.5290868433635,2,43,0.5499359965324402,3.972203731536865,43.47389711176298,42.947261805152806,173.15155176904025,156.94978328234097,3.237724376958795e-05,0.0923885703086853,0,0,0
14573,498389.737823677,2010-10-14 08:56:38,3091.5442539452174,2,43,0.5501165986061096,3.973822593688965,43.47848353959802,42.947261805152806,173.1697734943299,156.94978328234097,3.237724376958795e-05,0.0923885703086853,0,0,0
14574,498419.7531191789,2010-10-14 08:57:08,3121.5595494270333,2,43,0.5499359965324402,3.975441455841065,43.48307004091259,42.947261805152806,173.1880034211733,156.94978328234097,3.237724376958795e-05,0.0923885703086853,0,0,0
14575,498449.7680825379,2010-10-14 08:57:38,3151.57451279111,2,43,0.5501165986061096,3.977222204208374,43.48765648266545,42.947261805152806,173.20624109167724,156.94978328234097,3.237724376958795e-05,0.0923885703086853,0,0,0
14576,498479.7832498153,2010-10-14 08:58:08,3181.5896800583764,2,43,0.5501165986061096,3.979002952575684,43.4922429549191,42.947261805152806,173.2244864637316,156.94978328234097,3.237724376958795e-05,0.0923885703086853,0,0,0
14577,498509.7983983157,2010-10-14 08:58:38,3211.6048285638826,2,43,0.5501165986061096,3.980945587158203,43.49682933392232,42.947261805152806,173.24274016462203,156.94978328234097,6.47544875391759e-05,0.0923885703086853,0,0,0
14578,498539.8135389767,2010-10-14 08:59:08,3241.619969254912,2,43,0.5501165986061096,3.9827263355255127,43.50141564612578,42.947261805152806,173.26100185594626,156.94978328234097,3.237724376958795e-05,0.0923885703086853,0,0,0
14579,498569.8286728157,2010-10-14 08:59:38,3271.635103058777,2,43,0.5501165986061096,3.9845070838928223,43.506001962754056,42.947261805152806,173.27927179507205,156.94978328234097,6.47544875391759e-05,0.0923885703086853,0,0,0
14580,498599.84394630266,2010-10-14 09:00:08,3301.650376560813,2,43,0.5501165986061096,3.986449718475342,43.510588325400384,42.947261805152806,173.29755031221688,156.94978328234097,6.47544875391759e-05,0.0923885703086853,0,0,0
14581,498629.85896816256,2010-10-14 09:00:38,3331.6653984106542,2,43,0.5499359965324402,3.9880685806274414,43.51517466407165,42.947261805152806,173.3158372633266,156.94978328234097,0.0,0.0923885703086853,0,0,0
14582,498659.8741043925,2010-10-14 09:01:08,3361.680534635553,2,43,0.5501165986061096,3.990011215209961,43.51976101886354,42.947261805152806,173.33413278202758,156.94978328234097,0.0,0.0923885703086853,0,0,0
14583,498689.889266557,2010-10-14 09:01:38,3391.6956968051145,2,43,0.5499359965324402,3.991953849792481,43.52434736331275,42.947261805152806,173.35243700377748,156.94978328234097,6.47544875391759e-05,0.0923885703086853,0,0,0
14584,498719.9045414475,2010-10-14 09:02:08,3421.7109717256853,2,43,0.5501165986061096,3.993896484375,43.52893376323119,42.947261805152806,173.37075021661894,156.94978328234097,3.237724376958795e-05,0.0923885703086853,0,0,0
14585,498749.9195479541,2010-10-14 09:02:38,3451.7259781971998,2,43,0.5499359965324402,3.9956769943237305,43.53352007622395,42.947261805152806,173.3890718820508,156.94978328234097,0.0,0.0923885703086853,0,0,0
14586,498779.93468681554,2010-10-14 09:03:08,3481.741117178969,2,43,0.5501165986061096,3.99778151512146,43.53810643456072,42.947261805152806,173.40740259546408,156.94978328234097,6.47544875391759e-05,0.0923885703086853,0,0,0
14587,498809.9498247748,2010-10-14 09:03:38,3511.756255022904,2,43,0.5499359965324402,3.9995622634887695,43.542692823466886,42.947261805152806,173.42574223784206,156.94978328234097,0.0,0.0923885703086853,0,0,0
14588,498839.96497150586,2010-10-14 09:04:08,3541.771401759,2,43,0.5501165986061096,4.001828670501709,43.5472792274617,42.947261805152806,173.44409101725444,156.94978328234097,9.70840483205393e-05,0.0923885703086853,0,0,0
14589,498869.9802523712,2010-10-14 09:04:38,3571.7866826294,2,43,0.550297200679779,4.003933429718018,43.551865604897344,42.947261805152806,173.46244896448005,156.94978328234097,9.71794142969884e-05,0.0923885703086853,0,0,0
14590,498899.9952898952,2010-10-14 09:05:08,3601.8017201533053,2,43,0.5499359965324402,4.005876064300537,43.5564520031091,42.947261805152806,173.4808163659138,156.94978328234097,6.47544875391759e-05,0.0923885703086853,0,0,0
14591,498930.0104245211,2010-10-14 09:05:38,3631.8168547691935,2,43,0.5501165986061096,4.007818698883057,43.56103830495406,42.947261805152806,173.49919288771565,156.94978328234097,6.47544875391759e-05,0.0923885703086853,0,0,0
14592,498960.0255485255,2010-10-14 09:06:08,3661.831978773636,2,43,0.5501165986061096,4.009922981262207,43.565624719153725,42.947261805152806,173.5175793669823,156.94978328234097,6.47544875391759e-05,0.0923885703086853,0,0,0
14593,498990.04085317015,2010-10-14 09:06:38,3691.847283418289,2,43,0.5501165986061096,4.0121893882751465,43.57021116638375,42.947261805152806,173.5359756162389,156.94978328234097,6.47544875391759e-05,0.0923885703086853,0,0,0
14594,499020.0558390503,2010-10-14 09:07:08,3721.862269298482,2,43,0.5499359965324402,4.013970375061035,43.57479751727965,42.947261805152806,173.5543813485397,156.94978328234097,3.24249267578125e-05,0.0923885703086853,0,0,0
14595,499050.0711154096,2010-10-14 09:07:38,3751.8775457629017,2,43,0.5499359965324402,4.0163984298706055,43.579383959998616,42.947261805152806,173.57279731797968,156.94978328234097,6.47544875391759e-05,0.0923885703086853,0,0,0
14596,499080.08625292766,2010-10-14 09:08:08,3781.8926831857866,2,43,0.5501165986061096,4.018664836883545,43.5839703806404,42.947261805152806,173.5912231938069,156.94978328234097,9.70840483205393e-05,0.0923885703086853,0,0,0
14597,499110.1012953688,2010-10-14 09:08:38,3811.9077256219343,2,43,0.5501165986061096,4.0206074714660645,43.588556774211,42.947261805152806,173.60965892526536,156.94978328234097,3.23295607813634e-05,0.0923885703086853,0,0,0
14598,499140.1165522344,2010-10-14 09:09:08,3841.92298249252,2,43,0.5501165986061096,4.023036003112793,43.59314313832675,42.947261805152806,173.62810486012086,156.94978328234097,6.47544875391759e-05,0.0923885703086853,0,0,0
14599,499170.1315738737,2010-10-14 09:09:38,3871.9380041167983,2,43,0.5499359965324402,4.025302410125732,43.59772950439305,42.947261805152806,173.64656104675845,156.94978328234097,6.47544875391759e-05,0.0923885703086853,0,0,0
14600,499200.1467108805,2010-10-14 09:10:08,3901.953141123646,2,43,0.5501165986061096,4.027568817138672,43.60231587852837,42.947261805152806,173.665027644094,156.94978328234097,6.47544875391759e-05,0.0923885703086853,0,0,0
14601,499230.1619913951,2010-10-14 09:10:38,3931.968421643173,2,43,0.5499359965324402,4.029673099517822,43.60690225445651,42.947261805152806,173.68350478826792,156.94978328234097,3.23295607813634e-05,0.0923885703086853,0,0,0
14602,499260.1770107487,2010-10-14 09:11:08,3961.983440996792,2,43,0.5501165986061096,4.032101631164551,43.61148853833776,42.947261805152806,173.70199195523332,156.94978328234097,6.47544875391759e-05,0.0923885703086853,0,0,0
14603,499290.1922802357,2010-10-14 09:11:38,3991.9987104938464,2,43,0.5499359965324402,4.034529685974121,43.61607490883292,42.947261805152806,173.72049008923776,156.94978328234097,9.70840483205393e-05,0.0923885703086853,0,0,0
14604,499320.20753364766,2010-10-14 09:12:08,4022.0139639008,2,43,0.5501165986061096,4.0367960929870605,43.62066126979149,42.947261805152806,173.73899884082292,156.94978328234097,3.24249267578125e-05,0.0923885703086853,0,0,0
14605,499350.2224524908,2010-10-14 09:12:38,4052.028882738903,2,43,0.550297200679779,4.039224147796631,43.625247609922,42.947261805152806,173.7575183774023,156.94978328234097,6.47544875391759e-05,0.0923885703086853,0,0,0
14606,499380.2376046655,2010-10-14 09:13:08,4082.044034918566,2,43,0.5501165986061096,4.041652679443359,43.62983395999641,42.947261805152806,173.77604884112316,156.94978328234097,9.71794142969884e-05,0.0923885703086853,0,0,0
14607,499410.2527325296,2010-10-14 09:13:38,4112.059162777615,2,43,0.5501165986061096,4.04408073425293,43.63442032116623,42.947261805152806,173.7945904435305,156.94978328234097,6.47544875391759e-05,0.0923885703086853,0,0,0
14608,499440.26787677937,2010-10-14 09:14:08,4142.074307027515,2,43,0.5501165986061096,4.046347141265869,43.63900664605114,42.947261805152806,173.81314293438805,156.94978328234097,6.47544875391759e-05,0.0923885703086853,0,0,0
14609,499470.28306171566,2010-10-14 09:14:38,4172.08949196883,2,43,0.5501165986061096,4.048775672912598,43.643593008847496,42.947261805152806,173.8317066713076,156.94978328234097,3.24249267578125e-05,0.0923885703086853,0,0,0
14610,499500.29817789566,2010-10-14 09:15:08,4202.104608173833,2,43,0.5499359965324402,4.051203727722168,43.64817938281344,42.947261805152806,173.85028163906782,156.94978328234097,3.23295607813634e-05,0.0923885703086853,0,0,0
14611,499530.3134739338,2010-10-14 09:15:38,4232.1199042220605,2,43,0.5501165986061096,4.053793907165527,43.652765740780815,42.947261805152806,173.868867795003,156.94978328234097,6.47544875391759e-05,0.0923885703086853,0,0,0
14612,499560.32861343696,2010-10-14 09:16:08,4262.135043690043,2,43,0.550297200679779,4.056222438812256,43.65735212522024,42.947261805152806,173.88746542047596,156.94978328234097,6.47544875391759e-05,0.0923885703086853,0,0,0
14613,499590.3436206152,2010-10-14 09:16:38,4292.150050863305,2,43,0.5501165986061096,4.058812618255615,43.66193844803769,42.947261805152806,173.90607433978093,156.94978328234097,6.47544875391759e-05,0.0923885703086853,0,0,0
14614,499620.3587615117,2010-10-14 09:17:08,4322.165191769873,2,43,0.550297200679779,4.0612406730651855,43.66652484866566,42.947261805152806,173.92469504218766,156.94978328234097,9.70840483205393e-05,0.0923885703086853,0,0,0
14615,499650.37390504486,2010-10-14 09:17:38,4352.18033529296,2,43,0.5501165986061096,4.063830852508545,43.67111115836985,42.947261805152806,173.94332695807984,156.94978328234097,6.47544875391759e-05,0.0923885703086853,0,0,0
14616,499680.3890539063,2010-10-14 09:18:08,4382.195484159366,2,43,0.5501165986061096,4.066421031951904,43.67569753463029,42.947261805152806,173.96197115263885,156.94978328234097,6.47544875391759e-05,0.0923885703086853,0,0,0
14617,499710.4043400949,2010-10-14 09:18:38,4412.210770353034,2,43,0.5499359965324402,4.069011211395264,43.68028390035614,42.947261805152806,173.98062741010875,156.94978328234097,6.47544875391759e-05,0.0923885703086853,0,0,0
14618,499740.419369288,2010-10-14 09:19:08,4442.225799536152,2,43,0.5501165986061096,4.071763515472412,43.68487025297085,42.947261805152806,173.99929581278747,156.94978328234097,9.71794142969884e-05,0.0923885703086853,0,0,0
14619,499770.434614685,2010-10-14 09:19:38,4472.241044933141,2,43,0.5501165986061096,4.074515342712402,43.68945661496819,42.947261805152806,174.01797653111657,156.94978328234097,6.47544875391759e-05,0.0923885703086853,0,0,0
14620,499800.44961807394,2010-10-14 09:20:08,4502.256048311947,2,43,0.550297200679779,4.077267646789551,43.69404291304732,42.947261805152806,174.0366694316234,156.94978328234097,6.47544875391759e-05,0.0923885703086853,0,0,0
14621,499830.464764414,2010-10-14 09:20:38,4532.271194667093,2,43,0.5501165986061096,4.07985782623291,43.69862909010017,42.947261805152806,174.05537439831508,156.94978328234097,6.47544875391759e-05,0.0923885703086853,0,0,0
14622,499860.4799538364,2010-10-14 09:21:08,4562.28638407454,2,43,0.5499359965324402,4.0826096534729,43.7032143685178,42.947261805152806,174.0740882583772,156.94978328234097,6.47544875391759e-05,0.0923885703086853,0,0,0
14623,499890.4951101614,2010-10-14 09:21:38,4592.301540404547,2,43,0.5499359965324402,4.085361957550049,43.707799671348205,42.947261805152806,174.0928150246237,156.94978328234097,3.24249267578125e-05,0.0923885703086853,0,0,0
14624,499920.51027570944,2010-10-14 09:22:08,4622.316705952528,2,43,0.5499359965324402,4.088113784790039,43.71238494263742,42.947261805152806,174.1115546224639,156.94978328234097,3.23295607813634e-05,0.0923885703086853,0,0,0
14625,499950.52545101166,2010-10-14 09:22:38,4652.331881259833,2,43,0.5501165986061096,4.091189861297607,43.716970457270754,42.947261805152806,174.13030826323885,156.94978328234097,6.47544875391759e-05,0.0923885703086853,0,0,0
14626,499980.54054523696,2010-10-14 09:23:08,4682.346975480043,2,43,0.5499359965324402,4.093941688537598,43.7215567418305,42.947261805152806,174.14907820422718,156.94978328234097,3.23295607813634e-05,0.0923885703086853,0,0,0
14627,500010.5558120723,2010-10-14 09:23:38,4712.362242315463,2,43,0.5501165986061096,4.096855640411377,43.72614308653037,42.947261805152806,174.1678617499214,156.94978328234097,3.23295607813634e-05,0.0923885703086853,0,0,0
14628,500040.5709567233,2010-10-14 09:24:08,4742.3773869814,2,43,0.5501165986061096,4.099931716918945,43.73072944023509,42.947261805152806,174.18665873726846,156.94978328234097,6.47544875391759e-05,0.0923885703086853,0,0,0
14629,500070.58598763566,2010-10-14 09:24:38,4772.39241787879,2,43,0.5501165986061096,4.103007316589356,43.73531574561873,42.947261805152806,174.20546900559293,156.94978328234097,0.0001295089750783,0.0923885703086853,0,0,0
14630,500100.6011323568,2010-10-14 09:25:08,4802.407562604877,2,43,0.5501165986061096,4.105759620666504,43.7399020288791,42.947261805152806,174.22429293546867,156.94978328234097,6.47544875391759e-05,0.0923885703086853,0,0,0
14631,500130.6162693788,2010-10-14 09:25:38,4832.422699626763,2,43,0.5499359965324402,4.108997344970703,43.74448837653748,42.947261805152806,174.24313093498483,156.94978328234097,9.71794142969884e-05,0.0923885703086853,0,0,0
14632,500160.6314302199,2010-10-14 09:26:09,4862.437860463,2,43,0.5501165986061096,4.112072944641113,43.74907470367332,42.947261805152806,174.2619827980689,156.94978328234097,9.70840483205393e-05,0.0923885703086853,0,0,0
14633,500190.6480956059,2010-10-14 09:26:39,4892.454525979364,2,43,0.5499359965324402,4.114986896514893,43.75366126095378,42.947261805152806,174.28084957306194,156.94978328234097,6.47544875391759e-05,0.0923885703086853,0,0,0
14634,500220.64953434246,2010-10-14 09:27:09,4922.455964715908,2,43,0.5501165986061096,4.118062496185303,43.758245564064126,42.947261805152806,174.29972123029222,156.94978328234097,6.47544875391759e-05,0.0923885703086853,0,0,0
14635,500250.6612781775,2010-10-14 09:27:39,4952.467708540901,2,43,0.5501165986061096,4.121300220489502,43.76283136552752,42.947261805152806,174.31861329774742,156.94978328234097,9.70840483205393e-05,0.0923885703086853,0,0,0
14636,500280.676652566,2010-10-14 09:28:09,4982.483082949428,2,43,0.5501165986061096,4.12437629699707,43.76741777114215,42.947261805152806,174.33752218851592,156.94978328234097,6.47544875391759e-05,0.0923885703086853,0,0,0
14637,500310.6916888167,2010-10-14 09:28:39,5012.498119104923,2,43,0.5499359965324402,4.12729024887085,43.77200412378516,42.947261805152806,174.35644537242075,156.94978328234097,3.24249267578125e-05,0.0923885703086853,0,0,0
14638,500340.7067231276,2010-10-14 09:29:09,5042.51315337572,2,43,0.5499359965324402,4.13068962097168,43.77659040459756,42.947261805152806,174.37538286839114,156.94978328234097,3.23295607813634e-05,0.0923885703086853,0,0,0
14639,500370.7218178992,2010-10-14 09:29:39,5072.52824815733,2,43,0.5501165986061096,4.133927345275879,43.78117672221953,42.947261805152806,174.39433530134824,156.94978328234097,9.70840483205393e-05,0.0923885703086853,0,0,0
14640,500400.7369663446,2010-10-14 09:30:09,5102.543396582637,2,43,0.550297200679779,4.137327194213867,43.78576304190368,42.947261805152806,174.4133025868514,156.94978328234097,6.47544875391759e-05,0.0923885703086853,0,0,0
14641,500430.7518056494,2010-10-14 09:30:39,5132.558235591782,2,43,0.5501165986061096,4.140726566314697,43.79034933827434,42.947261805152806,174.4322848230355,156.94978328234097,0.0001295089750783,0.0923885703086853,0,0,0
14642,500460.76730316976,2010-10-14 09:31:09,5162.573733417903,2,43,0.5501165986061096,4.143802642822266,43.79493576665516,42.947261805152806,174.4512826980032,156.94978328234097,6.47544875391759e-05,0.0923885703086853,0,0,0
14643,500490.7828332062,2010-10-14 09:31:39,5192.589263589639,2,43,0.550297200679779,4.147364139556885,43.799522070303176,42.947261805152806,174.4702957573142,156.94978328234097,6.47544875391759e-05,0.0923885703086853,0,0,0
14644,500520.7975673038,2010-10-14 09:32:09,5222.603997556988,2,43,0.5501165986061096,4.150763511657715,43.804108277413256,42.947261805152806,174.48932409253194,156.94978328234097,9.70840483205393e-05,0.0923885703086853,0,0,0
14645,500550.8126972882,2010-10-14 09:32:39,5252.619127536321,2,43,0.5501165986061096,4.154325008392334,43.80869460800714,42.947261805152806,174.50836871735908,156.94978328234097,9.70840483205393e-05,0.0923885703086853,0,0,0
14646,500580.8278465757,2010-10-14 09:33:09,5282.634276828789,2,43,0.5499359965324402,4.157562732696533,43.81328094276634,42.947261805152806,174.52742922863862,156.94978328234097,9.70840483205393e-05,0.0923885703086853,0,0,0
14647,500610.84311082464,2010-10-14 09:33:39,5312.649541067738,2,43,0.5499359965324402,4.161124229431152,43.81786721856053,42.947261805152806,174.54650551224069,156.94978328234097,9.70840483205393e-05,0.0923885703086853,0,0,0
14648,500640.8581273562,2010-10-14 09:34:09,5342.664557599324,2,43,0.5501165986061096,4.164524078369141,43.822453507685225,42.947261805152806,174.56559790911857,156.94978328234097,6.47544875391759e-05,0.0923885703086853,0,0,0
14649,500670.8732767941,2010-10-14 09:34:39,5372.679707042167,2,43,0.5501165986061096,4.16808557510376,43.82703983751839,42.947261805152806,174.58470660183494,156.94978328234097,3.24249267578125e-05,0.0923885703086853,0,0,0
14650,500700.8884261517,2010-10-14 09:35:09,5402.694856389771,2,43,0.5501165986061096,4.171647071838379,43.83162615877605,42.947261805152806,174.60383144202433,156.94978328234097,6.47544875391759e-05,0.0923885703086853,0,0,0
14651,500730.9035985568,2010-10-14 09:35:39,5432.710028824917,2,43,0.5499359965324402,4.175208568572998,43.836212462602376,42.947261805152806,174.62297247834977,156.94978328234097,9.71794142969884e-05,0.0923885703086853,0,0,0
14652,500760.9187069522,2010-10-14 09:36:09,5462.725137195394,2,43,0.5499359965324402,4.178931713104248,43.84079872430312,42.947261805152806,174.64212972956946,156.94978328234097,9.70840483205393e-05,0.0923885703086853,0,0,0
14653,500790.9338497486,2010-10-14 09:36:39,5492.740279996684,2,43,0.5501165986061096,4.182493209838867,43.845385584676265,42.947261805152806,174.6613060216249,156.94978328234097,0.0001295089750783,0.0923885703086853,0,0,0
14654,500820.94900405855,2010-10-14 09:37:09,5522.755434301644,2,43,0.5501165986061096,4.186054706573486,43.84997266739287,42.947261805152806,174.6804999285503,156.94978328234097,6.47544875391759e-05,0.0923885703086853,0,0,0
14655,500850.9641430453,2010-10-14 09:37:39,5552.770573293439,2,43,0.550297200679779,4.189778327941895,43.85455964435534,42.947261805152806,174.6997101600552,156.94978328234097,6.47544875391759e-05,0.0923885703086853,0,0,0
14656,500880.9792939268,2010-10-14 09:38:09,5582.785724174866,2,43,0.5499359965324402,4.193339824676514,43.85914662976364,42.947261805152806,174.71893725560716,156.94978328234097,6.47544875391759e-05,0.0923885703086853,0,0,0
14657,500910.9944297356,2010-10-14 09:38:39,5612.8008599837285,2,43,0.5501165986061096,4.1972246170043945,43.86373312737549,42.947261805152806,174.73817924321267,156.94978328234097,9.70840483205393e-05,0.0923885703086853,0,0,0
14658,500932.77534214617,2010-10-14 09:39:01,5634.581772389263,2,43,0.550297200679779,4.200138568878174,43.8670612186978,42.947261805152806,174.75215245704013,156.94978328234097,0.0001295089750783,0.0923885703086853,0,0,0
14659,500962.7991799587,2010-10-14 09:39:31,30.01516461064499,3,43,0.0,4.112882614135742,43.8670612186978,42.947261805152806,174.75215245704013,156.94978328234097,-0.0004208564641885,0.0923885703086853,0,0,0
14660,500992.8143009907,2010-10-14 09:40:01,60.030285632653694,3,43,0.0,4.101874351501465,43.8670612186978,42.947261805152806,174.75215245704013,156.94978328234097,-0.0002265930233988,0.0923885703086853,0,0,0
14661,501022.82945219794,2010-10-14 09:40:31,90.04543688500571,3,43,0.0,4.095236778259277,43.8670612186978,42.947261805152806,174.75215245704013,156.94978328234097,-0.0001619339018361,0.0923885703086853,0,0,0
14662,501052.79772273416,2010-10-14 09:41:01,120.01370738108824,3,43,0.0,4.091027736663818,43.8670612186978,42.947261805152806,174.75215245704013,156.94978328234097,-6.47544875391759e-05,0.0923885703086853,0,0,0
14663,501052.8083115415,2010-10-14 09:41:01,0.01562060134489,4,43,0.9976664185523988,4.199653148651123,43.86706556800762,42.947261805152806,174.75217072298338,156.94978328234097,-3.23295607813634e-05,0.0923885703086853,0,0,0
14664,501053.83954970434,2010-10-14 09:41:02,1.046858754125667,4,43,0.9474570155143738,4.199653148651123,43.86734271716941,42.947261805152806,174.75333466962704,156.94978328234097,-3.23295607813634e-05,0.0923885703086853,0,0,0
14665,501056.07376615406,2010-10-14 09:41:04,3.281075203969894,4,43,0.89688640832901,4.199653148651123,43.867913952779496,42.947261805152806,174.75573371395643,156.94978328234097,-3.23295607813634e-05,0.0923885703086853,0,0,0
14666,501059.37073125056,2010-10-14 09:41:08,6.578040310466085,4,43,0.8464964628219604,4.199653148651123,43.86871135895175,42.947261805152806,174.75908264034382,156.94978328234097,0.0,0.0923885703086853,0,0,0
14667,501063.792530936,2010-10-14 09:41:12,10.999839985810787,4,43,0.796467661857605,4.199653148651123,43.8697196568134,42.947261805152806,174.76331725978335,156.94978328234097,0.0,0.0923885703086853,0,0,0
14668,501069.6517949498,2010-10-14 09:41:18,16.859103999583578,4,43,0.7462583184242249,4.199814796447754,43.870973910504816,42.947261805152806,174.76858483095606,156.94978328234097,3.23295607813634e-05,0.0923885703086853,0,0,0
14669,501077.1359296713,2010-10-14 09:41:25,24.34323871610784,4,43,0.6962295174598694,4.199653148651123,43.87247116956647,42.947261805152806,174.77487297386213,156.94978328234097,-3.23295607813634e-05,0.0923885703086853,0,0,0
14670,501087.02651605074,2010-10-14 09:41:35,34.233825105647924,4,43,0.6462007761001587,4.199814796447754,43.87431203302573,42.947261805152806,174.78260420163525,156.94978328234097,0.0,0.0923885703086853,0,0,0
14671,501100.68254748295,2010-10-14 09:41:49,47.88985655788272,4,43,0.5961719751358032,4.199653148651123,43.87666323517727,42.947261805152806,174.79247874883404,156.94978328234097,0.0,0.0923885703086853,0,0,0
14672,501121.4167958647,2010-10-14 09:42:10,68.62410500478114,4,43,0.5459625720977783,4.199653148651123,43.87994281421463,42.947261805152806,174.80625222356286,156.94978328234097,0.0,0.0923885703086853,0,0,0
14673,501156.7440256864,2010-10-14 09:42:45,103.95133473117616,4,43,0.4957532286643982,4.199814796447754,43.88503342014267,42.947261805152806,174.82763161746985,156.94978328234097,0.0,0.0923885703086853,0,0,0
14674,501221.99298435793,2010-10-14 09:43:50,169.20029348800088,4,43,0.4457244575023651,4.199814796447754,43.8935271718854,42.947261805152806,174.86330350028933,156.94978328234097,3.23295607813634e-05,0.0923885703086853,0,0,0
14675,501323.8820152684,2010-10-14 09:45:32,271.0893244285758,4,43,0.395695686340332,4.199814796447754,43.90540499210107,42.947261805152806,174.9131876758491,156.94978328234097,3.23295607813634e-05,0.0923885703086853,0,0,0
14676,501451.66119324166,2010-10-14 09:47:40,398.8685022814553,4,43,0.3456669151782989,4.199653148651123,43.9185431281724,42.947261805152806,174.9683650133486,156.94978328234097,0.0,0.0923885703086853,0,0,0
14677,501604.90895841055,2010-10-14 09:50:13,552.1162674554273,4,43,0.2954575419425964,4.199814796447754,43.93217347458764,42.947261805152806,175.0256095294074,156.94978328234097,3.23295607813634e-05,0.0923885703086853,0,0,0
14678,501790.4370475042,2010-10-14 09:53:19,737.6443565540269,4,43,0.2454287707805633,4.199814796447754,43.94609264218962,42.947261805152806,175.08406696101846,156.94978328234097,-3.24249267578125e-05,0.0923885703086853,0,0,0
14679,502021.8395869883,2010-10-14 09:57:10,969.046896048228,4,43,0.1953999996185302,4.199814796447754,43.96022094894525,42.947261805152806,175.14340271740252,156.94978328234097,3.23295607813634e-05,0.0923885703086853,0,0,0
14680,502321.7098300117,2010-10-14 10:02:10,1268.9171390515594,4,43,0.1453712284564972,4.199653148651123,43.97433241821973,42.947261805152806,175.20266784425274,156.94978328234097,-3.23295607813634e-05,0.0923885703086853,0,0,0
14681,502763.4371535381,2010-10-14 10:09:32,1710.6444625879114,4,43,0.0953424572944641,4.199653148651123,43.98891989335307,42.947261805152806,175.26393195468984,156.94978328234097,-3.23295607813634e-05,0.0923885703086853,0,0,0
14682,503495.6285704336,2010-10-14 10:21:44,2442.8358794884944,4,43,0.0498289167881011,4.199653148651123,44.00318938276229,42.947261805152806,175.3238607825961,156.94978328234097,-3.23295607813634e-05,0.0923885703086853,0,0,0
14683,503525.6464101042,2010-10-14 10:22:14,30.01511894683673,5,43,0.0,4.191720962524414,44.00318938276229,42.947261805152806,175.3238607825961,156.94978328234097,-6.47544875391759e-05,0.0923885703086853,0,0,0
14684,503555.64609033806,2010-10-14 10:22:44,60.01479918566272,5,43,0.0,4.190425872802734,44.00318938276229,42.947261805152806,175.3238607825961,156.94978328234097,0.0,0.0923885703086853,0,0,0
14685,503555.8211623967,2010-10-14 10:22:44,0.187177879869829,6,43,-1.9243103452026844e-05,4.190263748168945,44.00318938276229,42.94726180615333,175.3238607825961,156.94978328653343,0.0,0.0961798131465911,0,0,0
14686,503560.64955469087,2010-10-14 10:22:49,5.015570194176255,6,43,0.0007031940040178,4.190587520599365,44.00319033229992,42.947261806320505,175.32386476164024,156.94978328723394,0.0,0.0961798131465911,0,0,0
14687,503590.6524662774,2010-10-14 10:23:19,30.015127703661435,7,43,-1.099568486213684,4.009437561035156,44.00319033229992,42.95642900710951,175.32386476164024,156.98674296264437,-0.0009713172912597,0.0961798131465911,0,0,0
14688,503620.6677153686,2010-10-14 10:23:49,60.03037678483297,7,43,-1.0993878841400146,3.981431245803833,44.00319033229992,42.96559632037838,175.32386476164024,157.02336146032746,-0.0006151676061563,0.0961798131465911,0,0,0
14689,503650.68274379487,2010-10-14 10:24:19,90.0454052110645,7,43,-1.0993878841400146,3.962166786193848,44.00319033229992,42.97476336310584,175.32386476164024,157.05976573676227,-0.0004209041653666,0.0961798131465911,0,0,0
14690,503680.6979584904,2010-10-14 10:24:49,120.06062002182362,7,43,-1.0993878841400146,3.9472732543945312,44.00319033229992,42.98393050852948,175.32386476164024,157.09601543424523,-0.0003237724304199,0.0961798131465911,0,0,0
14691,503710.7130278385,2010-10-14 10:25:19,150.075689244733,7,43,-1.0993878841400146,3.934808015823364,44.00319033229992,42.99309752999326,175.32386476164024,157.13214114537726,-0.0002913951757363,0.0961798131465911,0,0,0
14692,503740.72817390296,2010-10-14 10:25:49,180.0908353241926,7,43,-1.099568486213684,3.923961639404297,44.00319033229992,43.00226466482822,175.32386476164024,157.16816161324294,-0.0002913951757363,0.0961798131465911,0,0,0
14693,503770.7433216566,2010-10-14 10:26:19,210.1059830928622,7,43,-1.099568486213684,3.914086580276489,44.00319033229992,43.01143181948309,175.32386476164024,157.2040873150009,-0.0002590179501567,0.0961798131465911,0,0,0
14694,503800.7584842772,2010-10-14 10:26:49,240.12114568848511,7,43,-1.099568486213684,3.90469741821289,44.00319033229992,43.0205989518356,175.32386476164024,157.239924851076,-0.0002266406954731,0.0961798131465911,0,0,0
14695,503830.77362042695,2010-10-14 10:27:19,270.13628183819674,7,43,-1.0993878841400146,3.8959555625915527,44.00319033229992,43.02976613705911,175.32386476164024,157.27567869023775,-0.0001942634553415,0.0961798131465911,0,0,0
14696,503860.788933628,2010-10-14 10:27:49,300.15159503917454,7,43,-1.099568486213684,3.887213706970215,44.00319033229992,43.03893326735797,175.32386476164024,157.31135211819205,-0.0001942634553415,0.0961798131465911,0,0,0
14697,503890.80391293176,2010-10-14 10:28:19,330.1665743429779,7,43,-1.099568486213684,3.878633737564087,44.00319033229992,43.04810034289904,175.32386476164024,157.34694675257475,-0.0002266406954731,0.0961798131465911,0,0,0
14698,503920.8190579436,2010-10-14 10:28:49,360.1817193547765,7,43,-1.0997490882873535,3.870053768157959,44.00319033229992,43.05726749046151,175.32386476164024,157.38246455514502,-0.0002913951757363,0.0961798131465911,0,0,0
14699,503950.8343256361,2010-10-14 10:29:19,390.1969870623708,7,43,-1.099568486213684,3.862121343612671,44.00319033229992,43.06643470358342,175.32386476164024,157.41790706424177,-0.0002266406954731,0.0961798131465911,0,0,0
14700,503980.8493415912,2010-10-14 10:29:49,420.2120029974706,7,43,-1.0993878841400146,3.854188919067383,44.00319033229992,43.07560184094616,175.32386476164024,157.4532743098996,-0.0001618862152099,0.0961798131465911,0,0,0
14701,504010.8645385826,2010-10-14 10:30:19,450.22720008405565,7,43,-1.0993878841400146,3.8464183807373047,44.00319033229992,43.0847689608835,175.32386476164024,157.4885688831267,-0.0001618862152099,0.0961798131465911,0,0,0
14702,504040.8796508127,2010-10-14 10:30:49,480.24231233921466,7,43,-1.099568486213684,3.8384859561920166,44.00319033229992,43.093936162933936,175.32386476164024,157.52379297447524,-0.0002266406954731,0.0961798131465911,0,0,0
14703,504070.8947955488,2010-10-14 10:31:19,510.25745696505135,7,43,-1.099568486213684,3.8310394287109375,44.00319033229992,43.10310334452733,175.32386476164024,157.55894665686273,-0.0001942634553415,0.0961798131465911,0,0,0
14704,504100.91005437926,2010-10-14 10:31:49,540.2727158957711,7,43,-1.099568486213684,3.8235926628112793,44.00319033229992,43.112270557303,175.32386476164024,157.59403197211827,-0.0001618862152099,0.0961798131465911,0,0,0
14705,504130.9250792767,2010-10-14 10:32:19,570.2877406979704,7,43,-1.0997490882873535,3.816145896911621,44.00319033229992,43.1214376397521,175.32386476164024,157.6290494134305,-0.0001942634553415,0.0961798131465911,0,0,0
14706,504160.940247316,2010-10-14 10:32:49,600.3029087271353,7,43,-1.0993878841400146,3.809022903442383,44.00319033229992,43.1306047907395,175.32386476164024,157.664000564687,-0.0002266406954731,0.0961798131465911,0,0,0
14707,504190.9554989234,2010-10-14 10:33:19,630.3181603496406,7,43,-1.0993878841400146,3.8020617961883545,44.00319033229992,43.13977202689063,175.32386476164024,157.69888688514504,-0.0001942634553415,0.0961798131465911,0,0,0
14708,504220.97053409147,2010-10-14 10:33:49,660.3331955026373,7,43,-1.099568486213684,3.795100688934326,44.00319033229992,43.14893918381619,175.32386476164024,157.73370937219877,-0.0001942634553415,0.0961798131465911,0,0,0
14709,504250.98566425627,2010-10-14 10:34:20,690.3483256975076,7,43,-1.0993878841400146,3.7884633541107178,44.00319033229992,43.15810634596221,175.32386476164024,157.76846879957898,-0.0001618862152099,0.0961798131465911,0,0,0
14710,504281.0034249471,2010-10-14 10:34:50,720.3660864986582,7,43,-1.099568486213684,3.7816641330718994,44.00319033229992,43.16727437089043,175.32386476164024,157.80316983751996,-0.0001942634553415,0.0961798131465911,0,0,0
14711,504311.0159756982,2010-10-14 10:35:20,750.3786372447485,7,43,-1.099568486213684,3.775026798248291,44.00319033229992,43.1764407851267,175.32386476164024,157.8378041772081,-0.0001618862152099,0.0961798131465911,0,0,0
14712,504341.03112256463,2010-10-14 10:35:50,780.3937840710695,7,43,-1.0993878841400146,3.768713235855103,44.00319033229992,43.185608013734274,175.32386476164024,157.87238174923678,-0.0001618862152099,0.0961798131465911,0,0,0
14713,504371.0462646691,2010-10-14 10:36:20,810.4089261104599,7,43,-1.0993878841400146,3.762561559677124,44.00319033229992,43.19477520928469,175.32386476164024,157.9069009007068,-0.0001295089750783,0.0961798131465911,0,0,0
14714,504401.0614238814,2010-10-14 10:36:50,840.4240852925753,7,43,-1.099568486213684,3.756247997283936,44.00319033229992,43.20394249802481,175.32386476164024,157.9413630427402,-0.0001618862152099,0.0961798131465911,0,0,0
14715,504431.0766019906,2010-10-14 10:37:20,870.4392634169005,7,43,-1.099568486213684,3.749772787094116,44.00319033229992,43.21310976585609,175.32386476164024,157.97576893177813,-0.0002266406954731,0.0961798131465911,0,0,0
14716,504461.0917156994,2010-10-14 10:37:50,900.4543771106449,7,43,-1.0993878841400146,3.744106769561768,44.00319033229992,43.22227702537682,175.32386476164024,158.0101199778477,-0.0001618862152099,0.0961798131465911,0,0,0
14717,504491.1068458642,2010-10-14 10:38:20,930.469507310528,7,43,-1.0993878841400146,3.738278865814209,44.00319033229992,43.23144361089409,175.32386476164024,158.04441387356974,-0.0001295089750783,0.0961798131465911,0,0,0
14718,504521.12213487993,2010-10-14 10:38:50,960.4847963262284,7,43,-1.0993878841400146,3.732612848281861,44.00319033229992,43.240610180731565,175.32386476164024,158.07865376375244,-0.0001295089750783,0.0961798131465911,0,0,0
14719,504551.13717184745,2010-10-14 10:39:20,990.49983325866,7,43,-1.0993878841400146,3.7267849445343018,44.00319033229992,43.24977737242923,175.32386476164024,158.11284362511827,-0.0001618862152099,0.0961798131465911,0,0,0
14720,504581.152320358,2010-10-14 10:39:50,1020.514981794241,7,43,-1.099568486213684,3.721280813217163,44.00319033229992,43.25894457136434,175.32386476164024,158.14698260312883,-0.0001618862152099,0.0961798131465911,0,0,0
14721,504611.1674531092,2010-10-14 10:40:20,1050.53011452042,7,43,-1.0993878841400146,3.7159385681152335,44.00319033229992,43.2681118708759,175.32386476164024,158.18107221248405,-0.0001618862152099,0.0961798131465911,0,0,0
14722,504641.18262767466,2010-10-14 10:40:50,1080.5452891009131,7,43,-1.099568486213684,3.7105963230133057,44.00319033229992,43.277279221703225,175.32386476164024,158.21511281769207,-0.0001618862152099,0.0961798131465911,0,0,0
14723,504671.19788222446,2010-10-14 10:41:20,1110.560543650714,7,43,-1.0997490882873535,3.705254077911377,44.00319033229992,43.28644650986242,175.32386476164024,158.24910438597328,-0.0001295089750783,0.0961798131465911,0,0,0
14724,504701.21289622976,2010-10-14 10:41:50,1140.5755576409667,7,43,-1.099568486213684,3.700073719024658,44.00319033229992,43.29561375729144,175.32386476164024,158.2830482813858,-0.0001618862152099,0.0961798131465911,0,0,0
14725,504731.2280685697,2010-10-14 10:42:20,1170.5907300059378,7,43,-1.099568486213684,3.69521713256836,44.00319033229992,43.30478104272365,175.32386476164024,158.31694508730763,-6.47544875391759e-05,0.0961798131465911,0,0,0
14726,504761.24333299405,2010-10-14 10:42:50,1200.6059944203244,7,43,-1.099568486213684,3.6900367736816406,44.00319033229992,43.31394841496468,175.32386476164024,158.35079549532077,-0.0001295089750783,0.0961798131465911,0,0,0
14727,504791.2583437813,2010-10-14 10:43:20,1230.6210052075942,7,43,-1.0997490882873535,3.685018301010132,44.00319033229992,43.3231156570273,175.32386476164024,158.38459983363467,-0.0001618862152099,0.0961798131465911,0,0,0
14728,504821.273673288,2010-10-14 10:43:50,1260.6363347442857,7,43,-1.0993878841400146,3.680323600769043,44.00319033229992,43.33228306020112,175.32386476164024,158.4183601797465,-9.713172767078504e-05,0.0961798131465911,0,0,0
14729,504851.2887118344,2010-10-14 10:44:20,1290.6513732456276,7,43,-1.099568486213684,3.675467014312744,44.00319033229992,43.34145034844953,175.32386476164024,158.4520756004722,-0.0001295089750783,0.0961798131465911,0,0,0
14730,504881.30379563867,2010-10-14 10:44:50,1320.6664570749406,7,43,-1.099568486213684,3.670610666275024,44.00319033229992,43.35061772862739,175.32386476164024,158.48574711243373,-0.0001295089750783,0.0961798131465911,0,0,0
14731,504911.3189375878,2010-10-14 10:45:20,1350.6815990040564,7,43,-1.099568486213684,3.665915966033936,44.00319033229992,43.35978506047893,175.32386476164024,158.5193746173732,-0.0001295089750783,0.0961798131465911,0,0,0
14732,504941.3340825244,2010-10-14 10:45:50,1380.6967439356551,7,43,-1.099568486213684,3.6613831520080566,44.00319033229992,43.36895237261827,175.32386476164024,158.55295911824462,-9.713172767078504e-05,0.0961798131465911,0,0,0
14733,504971.3493546932,2010-10-14 10:46:20,1410.7120161194057,7,43,-1.099568486213684,3.656688451766968,44.00319033229992,43.37811975188684,175.32386476164024,158.58650213333405,-9.713172767078504e-05,0.0961798131465911,0,0,0
14734,505001.3643907434,2010-10-14 10:46:50,1440.727052159613,7,43,-1.099568486213684,3.651993751525879,44.00319033229992,43.38728701963188,175.32386476164024,158.62000306105296,-0.0001618862152099,0.0961798131465911,0,0,0
14735,505031.3796505963,2010-10-14 10:47:20,1470.7423120226565,7,43,-1.0993878841400146,3.64778470993042,44.00319033229992,43.39645433871713,175.32386476164024,158.65346322103926,-9.713172767078504e-05,0.0961798131465911,0,0,0
14736,505061.3948181193,2010-10-14 10:47:50,1500.757479535535,7,43,-1.0993878841400146,3.643413782119751,44.00319033229992,43.405621570975065,175.32386476164024,158.6868826191157,-6.47544875391759e-05,0.0961798131465911,0,0,0
14737,505091.4098196836,2010-10-14 10:48:20,1530.7724811048306,7,43,-1.0993878841400146,3.639204740524292,44.00319033229992,43.41478874245701,175.32386476164024,158.7202628679735,-9.713172767078504e-05,0.0961798131465911,0,0,0
14738,505121.4249804847,2010-10-14 10:48:50,1560.787641895956,7,43,-1.0993878841400146,3.635157585144043,44.00319033229992,43.42395596088386,175.32386476164024,158.75360511975586,-6.47544875391759e-05,0.0961798131465911,0,0,0
14739,505151.4401193212,2010-10-14 10:49:20,1590.8027807373762,7,43,-1.099568486213684,3.630786657333374,44.00319033229992,43.4331231683437,175.32386476164024,158.78690958328414,-0.0001618862152099,0.0961798131465911,0,0,0
14740,505181.4552738617,2010-10-14 10:49:50,1620.817935302986,7,43,-1.0997490882873535,3.626739501953125,44.00319033229992,43.4422904388206,175.32386476164024,158.82017651453663,-9.713172767078504e-05,0.0961798131465911,0,0,0
14741,505211.4704213597,2010-10-14 10:50:20,1650.8330827759185,7,43,-1.0993878841400146,3.622854232788086,44.00319033229992,43.45145772876717,175.32386476164024,158.85340644824046,-0.0001295089750783,0.0961798131465911,0,0,0
14742,505241.4856188923,2010-10-14 10:50:50,1680.8482803086154,7,43,-1.099568486213684,3.619130849838257,44.00319033229992,43.46062503677837,175.32386476164024,158.8866009753438,-9.713172767078504e-05,0.0961798131465911,0,0,0
14743,505271.50072926783,2010-10-14 10:51:20,1710.863390709152,7,43,-1.0993878841400146,3.6152455806732178,44.00319033229992,43.469792326975615,175.32386476164024,158.9197605367855,-0.0001295089750783,0.0961798131465911,0,0,0
14744,505301.5160511805,2010-10-14 10:51:50,1740.8787125867548,7,43,-1.0992072820663452,3.611684083938599,44.00319033229992,43.4789596552315,175.32386476164024,158.9528861938379,-9.713172767078504e-05,0.0961798131465911,0,0,0
14745,505331.5312294402,2010-10-14 10:52:20,1770.8938908614546,7,43,-1.099568486213684,3.6079607009887695,44.00319033229992,43.48812700822403,175.32386476164024,158.9859785775783,-9.713172767078504e-05,0.0961798131465911,0,0,0
14746,505361.54617345607,2010-10-14 10:52:50,1800.9088348722971,7,43,-1.099568486213684,3.60456109046936,44.00319033229992,43.497294256875605,175.32386476164024,159.01903808056673,-6.47544875391759e-05,0.0961798131465911,0,0,0
14747,505391.5613264427,2010-10-14 10:53:20,1830.9239878589717,7,43,-1.099568486213684,3.600999593734741,44.00319033229992,43.506461593825776,175.32386476164024,159.0520663847499,-0.0001295089750783,0.0961798131465911,0,0,0
14748,505421.5764728931,2010-10-14 10:53:50,1860.9391344096057,7,43,-1.0993878841400146,3.597761869430542,44.00319033229992,43.51562890005541,175.32386476164024,159.08506302782365,-6.47544875391759e-05,0.0961798131465911,0,0,0
14749,505451.59160415066,2010-10-14 10:54:20,1890.9542655768992,7,43,-1.099568486213684,3.594362258911133,44.00319033229992,43.524796234415966,175.32386476164024,159.1180288025772,-6.47544875391759e-05,0.0961798131465911,0,0,0
14750,505481.6067898839,2010-10-14 10:54:50,1920.9694514054256,7,43,-1.099568486213684,3.5911247730255127,44.00319033229992,43.53396358424204,175.32386476164024,159.15096469103693,-9.713172767078504e-05,0.0961798131465911,0,0,0
14751,505511.6218970464,2010-10-14 10:55:20,1950.9845584876923,7,43,-1.099568486213684,3.587887048721313,44.00319033229992,43.54313090926014,175.32386476164024,159.18387036926063,-3.237724376958795e-05,0.0961798131465911,0,0,0
14752,505541.63704980747,2010-10-14 10:55:50,1980.9997112488047,7,43,-1.099568486213684,3.5844874382019043,44.00319033229992,43.55229827669295,175.32386476164024,159.2167463523749,-0.0001295089750783,0.0961798131465911,0,0,0
14753,505571.65219239326,2010-10-14 10:56:20,2011.0148538094943,7,43,-1.0993878841400146,3.581411600112915,44.00319033229992,43.561465541991176,175.32386476164024,159.249592395108,-6.47544875391759e-05,0.0961798131465911,0,0,0
14754,505601.6673507483,2010-10-14 10:56:50,2041.0300121745736,7,43,-1.099568486213684,3.578173875808716,44.00319033229992,43.57063289078635,175.32386476164024,159.28240907780477,-9.713172767078504e-05,0.0961798131465911,0,0,0
14755,505631.6826991972,2010-10-14 10:57:20,2071.0453606284123,7,43,-1.099568486213684,3.5750980377197266,44.00319033229992,43.57980031574719,175.32386476164024,159.31519781492383,-9.713172767078504e-05,0.0961798131465911,0,0,0
14756,505661.69763489725,2010-10-14 10:57:50,2101.0602963135043,7,43,-1.0997490882873535,3.5720221996307373,44.00319033229992,43.58896753882389,175.32386476164024,159.34795792433212,-6.47544875391759e-05,0.0961798131465911,0,0,0
14757,505691.7128138838,2010-10-14 10:58:20,2131.075475304991,7,43,-1.0992072820663452,3.569108247756958,44.00319033229992,43.598134861357074,175.32386476164024,159.380690643888,-9.713172767078504e-05,0.0961798131465911,0,0,0
14758,505721.7279367002,2010-10-14 10:58:50,2161.090598136509,7,43,-1.099568486213684,3.565870523452759,44.00319033229992,43.607302213833925,175.32386476164024,159.41339558382757,-9.713172767078504e-05,0.0961798131465911,0,0,0
14759,505751.7430795266,2010-10-14 10:59:20,2191.1057409678738,7,43,-1.099568486213684,3.5629565715789795,44.00319033229992,43.61646953660259,175.32386476164024,159.44607253116996,-9.713172767078504e-05,0.0961798131465911,0,0,0
14760,505781.75834807626,2010-10-14 10:59:50,2221.1210095125543,7,43,-1.0992072820663452,3.5600426197052,44.00319033229992,43.62563687374286,175.32386476164024,159.47872245486002,-6.47544875391759e-05,0.0961798131465911,0,0,0
14761,505811.7733851842,2010-10-14 11:00:20,2251.1360466555107,7,43,-1.0993878841400146,3.557290554046631,44.00319033229992,43.63480419560315,175.32386476164024,159.51134469762945,-3.237724376958795e-05,0.0961798131465911,0,0,0
14762,505841.78856037615,2010-10-14 11:00:50,2281.1512217873774,7,43,-1.0993878841400146,3.554052829742432,44.00319033229992,43.64397159673076,175.32386476164024,159.54393953221822,-6.47544875391759e-05,0.0961798131465911,0,0,0
14763,505871.8036763356,2010-10-14 11:01:20,2311.1663377517816,7,43,-1.0993878841400146,3.5508151054382324,44.00319033229992,43.653138886686406,175.32386476164024,159.57650618822225,-0.0001295089750783,0.0961798131465911,0,0,0
14764,505901.8188362795,2010-10-14 11:01:50,2341.1814977158456,7,43,-1.099568486213684,3.547739267349243,44.00319033229992,43.66230630266262,175.32386476164024,159.60904534448784,-0.0001295089750783,0.0961798131465911,0,0,0
14765,505931.8339809755,2010-10-14 11:02:20,2371.19664241687,7,43,-1.099568486213684,3.544825315475464,44.00319033229992,43.67147373081013,175.32386476164024,159.6415562807864,-9.713172767078504e-05,0.0961798131465911,0,0,0
14766,505961.8491331703,2010-10-14 11:02:50,2401.211794586508,7,43,-1.0993878841400146,3.5415875911712646,44.00319033229992,43.68064111623726,175.32386476164024,159.67403859826783,-0.0001295089750783,0.0961798131465911,0,0,0
14767,505991.8644005672,2010-10-14 11:03:20,2431.2270619933524,7,43,-1.099568486213684,3.5385117530822754,44.00319033229992,43.68980856227272,175.32386476164024,159.70649257601224,-9.713172767078504e-05,0.0961798131465911,0,0,0
14768,506021.8795491528,2010-10-14 11:03:50,2461.2422105890832,7,43,-1.0993878841400146,3.535435914993286,44.00319033229992,43.698975913705866,175.32386476164024,159.7389170115498,-6.47544875391759e-05,0.0961798131465911,0,0,0
14769,506051.8945589927,2010-10-14 11:04:20,2491.257220418968,7,43,-1.099568486213684,3.532036304473877,44.00319033229992,43.70814328060708,175.32386476164024,159.7713115841962,-9.713172767078504e-05,0.0961798131465911,0,0,0
14770,506081.9095844164,2010-10-14 11:04:50,2521.272245827678,7,43,-1.099568486213684,3.528474807739258,44.00319033229992,43.717310679316654,175.32386476164024,159.80367593814654,-0.0001295089750783,0.0961798131465911,0,0,0
14771,506111.9249827496,2010-10-14 11:05:20,2551.287644165844,7,43,-1.0993878841400146,3.525398969650269,44.00319033229992,43.72647821823356,175.32386476164024,159.8360090883728,-3.237724376958795e-05,0.0961798131465911,0,0,0
14772,506141.9399866898,2010-10-14 11:05:50,2581.3026481060488,7,43,-1.099568486213684,3.5216755867004395,44.00319033229992,43.735645620662574,175.32386476164024,159.8683091819426,-9.713172767078504e-05,0.0961798131465911,0,0,0
14773,506171.95530359,2010-10-14 11:06:21,2611.317965011259,7,43,-1.0993878841400146,3.5179522037506104,44.00319033229992,43.74481309115591,175.32386476164024,159.9005765812157,-9.713172767078504e-05,0.0961798131465911,0,0,0
14774,506201.97321197897,2010-10-14 11:06:51,2641.335873425306,7,43,-1.099568486213684,3.5139050483703613,44.00319033229992,43.75398132930104,175.32386476164024,159.9328112742069,-0.0001295089750783,0.0961798131465911,0,0,0
14775,506231.9854861357,2010-10-14 11:07:21,2671.348147551976,7,43,-1.099568486213684,3.5098581314086914,44.00319033229992,43.76314787457552,175.32386476164024,159.96500396504217,-0.0001295089750783,0.0961798131465911,0,0,0
14776,506262.0011077453,2010-10-14 11:07:51,2701.363769171628,7,43,-1.099568486213684,3.5056490898132324,44.00319033229992,43.772315502707904,175.32386476164024,159.99716251677094,-0.0001295089750783,0.0961798131465911,0,0,0
14777,506292.01578433474,2010-10-14 11:08:21,2731.3784457609736,7,43,-1.099568486213684,3.501116275787353,44.00319033229992,43.781482864914544,175.32386476164024,160.02927953487574,-6.47544875391759e-05,0.0961798131465911,0,0,0
14778,506322.0309623788,2010-10-14 11:08:51,2761.3936238000865,7,43,-1.099568486213684,3.4962596893310547,44.00319033229992,43.79065034581225,175.32386476164024,160.06135415124686,-0.0001618862152099,0.0961798131465911,0,0,0
14779,506352.04608078935,2010-10-14 11:09:21,2791.408742235649,7,43,-1.0993878841400146,3.491079330444336,44.00319033229992,43.79981779533172,175.32386476164024,160.0933825245665,-0.0001618862152099,0.0961798131465911,0,0,0
14780,506382.0613225272,2010-10-14 11:09:51,2821.4239839434435,7,43,-1.099568486213684,3.4852514266967773,44.00319033229992,43.80898528598045,175.32386476164024,160.12536032932266,-0.0001295089750783,0.0961798131465911,0,0,0
14781,506412.07637619134,2010-10-14 11:10:21,2851.4390376276256,7,43,-1.099568486213684,3.478614091873169,44.00319033229992,43.81815277651248,175.32386476164024,160.15728057618549,-0.0001295089750783,0.0961798131465911,0,0,0
14782,506442.09164717206,2010-10-14 11:10:51,2881.45430871364,7,43,-1.0993878841400146,3.4711673259735107,44.00319033229992,43.82732026270613,175.32386476164024,160.18913631839123,-0.0001942634553415,0.0961798131465911,0,0,0
14783,506472.1067101243,2010-10-14 11:11:21,2911.469371530584,7,43,-1.0997490882873535,3.462425470352173,44.00319033229992,43.83648764439558,175.32386476164024,160.22091914546724,-0.0002590179501567,0.0961798131465911,0,0,0
14784,506502.1218381389,2010-10-14 11:11:51,2941.4844995500325,7,43,-1.099568486213684,3.453197956085205,44.00319033229992,43.8456550847031,175.32386476164024,160.2526206232582,-0.0002590179501567,0.0961798131465911,0,0,0
14785,506532.1369781732,2010-10-14 11:12:21,2971.499639584426,7,43,-1.099568486213684,3.4420278072357178,44.00319033229992,43.85482255322797,175.32386476164024,160.28422803270976,-0.0003561496851034,0.0961798131465911,0,0,0
14786,506562.138382489,2010-10-14 11:12:51,3001.50104391522,7,43,-1.099568486213684,3.42875337600708,44.00319033229992,43.86398584347939,175.32386476164024,160.3157103209882,-0.0004209041653666,0.0961798131465911,0,0,0
14787,506592.1516711541,2010-10-14 11:13:21,3031.5143325603813,7,43,-1.0997490882873535,3.412888526916504,44.00319033229992,43.87315277833688,175.32386476164024,160.34707242681532,-0.0004856586456298,0.0961798131465911,0,0,0
14788,506622.1668617496,2010-10-14 11:13:51,3061.5295231958885,7,43,-1.099568486213684,3.3936240673065186,44.00319033229992,43.88232029638231,175.32386476164024,160.3782756567579,-0.0005827903514727,0.0961798131465911,0,0,0
14789,506652.1820942294,2010-10-14 11:14:21,3091.544755650621,7,43,-1.0993878841400146,3.3693411350250244,44.00319033229992,43.89148777547698,175.32386476164024,160.40927948897388,-0.0007122993702068,0.0961798131465911,0,0,0
14790,506682.19710969325,2010-10-14 11:14:51,3121.559771104522,7,43,-1.099568486213684,3.3369641304016118,44.00319033229992,43.90065527792965,175.32386476164024,160.44002598822289,-0.0009713172912597,0.0961798131465911,0,0,0
14791,506712.21241890936,2010-10-14 11:15:21,3151.5750804258305,7,43,-1.099568486213684,3.291959762573242,44.00319033229992,43.90982280858999,175.32386476164024,160.4704237784871,-0.0013922214275225,0.0961798131465911,0,0,0
14792,506742.2275455102,2010-10-14 11:15:51,3181.5902070518064,7,43,-1.099568486213684,3.2278530597686768,44.00319033229992,43.91899023246267,175.32386476164024,160.5003265150318,-0.0019750117789953,0.0961798131465911,0,0,0
14793,506772.24225333246,2010-10-14 11:16:21,3211.604914563219,7,43,-1.0997490882873535,3.131854772567749,44.00319033229992,43.928157593337865,175.32386476164024,160.52950771752546,-0.0030110836960375,0.0961798131465911,0,0,0
14794,506802.25786024047,2010-10-14 11:16:51,3241.6205216666926,7,43,-1.099568486213684,2.9741780757904053,44.00319033229992,43.93732516510648,175.32386476164024,160.55756975518509,-0.0055365087464451,0.0961798131465911,0,0,0
14795,506822.5543023092,2010-10-14 11:17:11,3261.9169639408988,7,43,-1.099568486213684,2.773763656616211,44.00319033229992,43.94352425273548,175.32386476164024,160.57544497432255,-0.0097778793424367,0.0961798131465911,0,0,0
14796,506828.0698063021,2010-10-14 11:17:17,3267.43246773844,7,43,-1.099568486213684,2.699458122253418,44.00319033229992,43.94520886331164,175.32386476164024,160.58005636064382,-0.0110405925661325,0.0961798131465911,0,0,0
14797,506888.09326833306,2010-10-14 11:18:17,60.01470349216508,8,43,0.0,3.372902631759644,44.00319033229992,43.94520886331164,175.32386476164024,160.58005636064382,0.0013274669181555,0.0961798131465911,0,0,0
14798,506888.2904323293,2010-10-14 11:18:17,0.187532689163762,9,43,-1.9243103452026844e-05,3.373064517974853,44.00319033229992,43.94520886431405,175.32386476164024,160.58005636402504,0.0,0.0922218039631843,0,0,0
14799,506893.1032876907,2010-10-14 11:18:22,5.000388241077763,9,43,0.0007031940040178,3.380835056304932,44.00319113867352,43.94520886439808,175.32386748528518,160.5800563643085,0.0011332035064697,0.0922218039631843,0,0,0
