Data_Point,Test_Time(s),Date_Time,Step_Time(s),Step_Index,Cycle_Index,Current(A),Voltage(V),Charge_Capacity(Ah),Discharge_Capacity(Ah),Charge_Energy(Wh),Discharge_Energy(Wh),dV/dt(V/s),Internal_Resistance(Ohm),Is_FC_Data,AC_Impedance(Ohm),ACI_Phase_Angle(Deg)
3148,147863.80092217718,2011-02-02 03:55:57,30.015084947098924,1,25,0.0,3.7764837741851807,9.414138510140925,9.72986447757882,38.86333045672611,33.02762374789825,0.0003885269106831,0.1225960254669189,0,0,0
3149,147893.8160517856,2011-02-02 03:56:27,60.03021458057003,1,25,0.0,3.7894346714019775,9.414138510140925,9.72986447757882,38.86333045672611,33.02762374789825,0.0002913951757363,0.1225960254669189,0,0,0
3150,147923.8310907982,2011-02-02 03:56:57,90.04525357313612,1,25,0.0,3.799309730529785,9.414138510140925,9.72986447757882,38.86333045672611,33.02762374789825,0.0002590179501567,0.1225960254669189,0,0,0
3151,147953.79937294332,2011-02-02 03:57:27,120.01353571825165,1,25,0.0,3.8070802688598633,9.414138510140925,9.72986447757882,38.86333045672611,33.02762374789825,0.0001618862152099,0.1225960254669189,0,0,0
3152,147983.81906718583,2011-02-02 03:57:57,30.015238209074926,2,25,0.5499359965324402,3.930922746658325,9.418723756529271,9.72986447757882,38.88127178114906,33.02762374789825,0.0007446765666827,0.1225960254669189,0,0,0
3153,148013.8342922722,2011-02-02 03:58:27,60.03046327038157,2,25,0.5501165986061096,3.95212984085083,9.423308930392102,9.72986447757882,38.899347607614224,33.02762374789825,0.0004856586456298,0.1225960254669189,0,0,0
3154,148043.84919822318,2011-02-02 03:58:57,90.04536924642956,2,25,0.5499359965324402,3.9673471450805664,9.42789406928989,9.72986447757882,38.91750501741226,33.02762374789825,0.0003561496851034,0.1225960254669189,0,0,0
3155,148073.86436959569,2011-02-02 03:59:27,120.06054061892718,2,25,0.5501165986061096,3.980459928512573,9.432479297103312,9.72986447757882,38.93572709570546,33.02762374789825,0.0002913951757363,0.1225960254669189,0,0,0
3156,148103.8794102674,2011-02-02 03:59:57,150.07558127062833,2,25,0.5499359965324402,3.9917919635772714,9.437064352089669,9.72986447757882,38.95400425289228,33.02762374789825,0.0002590179501567,0.1225960254669189,0,0,0
3157,148133.8945619609,2011-02-02 04:00:27,180.09073295405472,2,25,0.5499359965324402,4.002314567565918,9.441649459102502,9.72986447757882,38.97233191412417,33.02762374789825,0.0002266883820993,0.1225960254669189,0,0,0
3158,148163.90965861717,2011-02-02 04:00:57,210.10582961534905,2,25,0.5501165986061096,4.0121893882751465,9.446234520699427,9.72986447757882,38.99070541113274,33.02762374789825,0.0002590179501567,0.1225960254669189,0,0,0
3159,148193.9248876033,2011-02-02 04:01:27,240.1210586264999,2,25,0.5499359965324402,4.020931243896484,9.450819646503716,9.72986447757882,39.00912174030511,33.02762374789825,0.0002265930233988,0.1225960254669189,0,0,0
3160,148223.94002570282,2011-02-02 04:01:57,270.1361967110336,2,25,0.5497553944587708,4.029187679290772,9.45540467812112,9.72986447757882,39.02757728660474,33.02762374789825,0.0002266883820993,0.1225960254669189,0,0,0
3161,148253.9552235162,2011-02-02 04:02:27,300.1513945144051,2,25,0.5499359965324402,4.0371198654174805,9.459989722825826,9.72986447757882,39.04606963356842,33.02762374789825,0.0001942634553415,0.1225960254669189,0,0,0
3162,148283.97026870924,2011-02-02 04:02:57,330.16643970241216,2,25,0.5499359965324402,4.04440450668335,9.464574814686266,9.72986447757882,39.064596586074494,33.02762374789825,0.0002265930233988,0.1225960254669189,0,0,0
3163,148313.98522675506,2011-02-02 04:03:27,360.181397748234,2,25,0.5499359965324402,4.051042079925537,9.46915995563696,9.72986447757882,39.08315620028247,33.02762374789825,0.0001619339018361,0.1225960254669189,0,0,0
3164,148344.00035787723,2011-02-02 04:03:57,390.1965289004904,2,25,0.5497553944587708,4.057517528533936,9.473745079026791,9.72986447757882,39.101746250022856,33.02762374789825,0.0001619339018361,0.1225960254669189,0,0,0
3165,148374.01795091026,2011-02-02 04:04:27,420.2141219385237,2,25,0.5501165986061096,4.063830852508545,9.478330618751372,9.72986447757882,39.12036678434352,33.02762374789825,0.0001942634553415,0.1225960254669189,0,0,0
3166,148404.03074460686,2011-02-02 04:04:57,450.2269156050464,2,25,0.5501165986061096,4.069658756256104,9.482915358540357,9.72986447757882,39.13901139037053,33.02762374789825,0.0001618385285837,0.1225960254669189,0,0,0
3167,148434.04572331416,2011-02-02 04:05:27,480.24189434745057,2,25,0.5499359965324402,4.075162887573242,9.487500404123091,9.72986447757882,39.15768341998725,33.02762374789825,0.0001618385285837,0.1225960254669189,0,0,0
3168,148464.06081924363,2011-02-02 04:05:57,510.2569902418334,2,25,0.5501165986061096,4.080667018890381,9.492085518856673,9.72986447757882,39.17638095932927,33.02762374789825,0.0001618385285837,0.1225960254669189,0,0,0
3169,148494.07795598946,2011-02-02 04:06:27,540.2741270127086,2,25,0.5499359965324402,4.0858473777771,9.496670863037547,9.72986447757882,39.195103689433296,33.02762374789825,0.0001618385285837,0.1225960254669189,0,0,0
3170,148524.09105277143,2011-02-02 04:06:57,570.2872237696258,2,25,0.5499359965324402,4.090866088867188,9.50125564024194,9.72986447757882,39.21384771627581,33.02762374789825,0.0001295089750783,0.1225960254669189,0,0,0
3171,148554.1061835277,2011-02-02 04:07:27,600.3023545258953,2,25,0.5501165986061096,4.096046447753906,9.505840662098976,9.72986447757882,39.23261566688933,33.02762374789825,0.0001619339018361,0.1225960254669189,0,0,0
3172,148584.12127292587,2011-02-02 04:07:57,630.3174439491502,2,25,0.5499359965324402,4.100740909576416,9.510425805066223,9.72986447757882,39.25140656683721,33.02762374789825,0.0001295089750783,0.1225960254669189,0,0,0
3173,148614.13652516494,2011-02-02 04:08:27,660.3326961932046,2,25,0.5499359965324402,4.105273723602295,9.51501091166447,9.72986447757882,39.27021914858831,33.02762374789825,0.0001295089750783,0.1225960254669189,0,0,0
3174,148644.1515166491,2011-02-02 04:08:57,690.3476876472902,2,25,0.5497553944587708,4.109968662261963,9.519595903792917,9.72986447757882,39.28905276349744,33.02762374789825,9.71794142969884e-05,0.1225960254669189,0,0,0
3175,148674.16679893804,2011-02-02 04:09:27,720.3629699362257,2,25,0.5499359965324402,4.114501476287842,9.524181104184612,9.72986447757882,39.30790845878795,33.02762374789825,9.71794142969884e-05,0.1225960254669189,0,0,0
3176,148704.18173339506,2011-02-02 04:09:57,750.3779043932569,2,25,0.5499359965324402,4.1190338134765625,9.528766159155577,9.72986447757882,39.32678445841195,33.02762374789825,9.70840483205393e-05,0.1225960254669189,0,0,0
3177,148734.19688321385,2011-02-02 04:10:27,780.3930542070236,2,25,0.5499359965324402,4.1234049797058105,9.533351346725947,9.72986447757882,39.34568166053294,33.02762374789825,9.71794142969884e-05,0.1225960254669189,0,0,0
3178,148764.21199236123,2011-02-02 04:10:57,810.4081633594498,2,25,0.5499359965324402,4.1279377937316895,9.53793648109624,9.72986447757882,39.3645991578978,33.02762374789825,9.71794142969884e-05,0.1225960254669189,0,0,0
3179,148794.2270911328,2011-02-02 04:11:27,840.4232621410284,2,25,0.5499359965324402,4.132632255554199,9.542521698237683,9.72986447757882,39.38353744598581,33.02762374789825,0.0001295089750783,0.1225960254669189,0,0,0
3180,148824.24220501704,2011-02-02 04:11:57,870.4383760152225,2,25,0.5501165986061096,4.137003421783447,9.547106833050377,9.72986447757882,39.40249564725941,33.02762374789825,0.0001295089750783,0.1225960254669189,0,0,0
3181,148854.25732973326,2011-02-02 04:12:27,900.4535007314385,2,25,0.5499359965324402,4.141374111175537,9.551692051486413,9.72986447757882,39.42147447715305,33.02762374789825,0.0001295089750783,0.1225960254669189,0,0,0
3182,148884.27244923648,2011-02-02 04:12:57,930.4686202296492,2,25,0.5499359965324402,4.145745277404785,9.556277210793102,9.72986447757882,39.44047315283876,33.02762374789825,9.71794142969884e-05,0.1225960254669189,0,0,0
3183,148914.28768087417,2011-02-02 04:13:27,960.4838518723589,2,25,0.5495747923851013,4.149954319000244,9.560862355611787,9.72986447757882,39.45949194754629,33.02762374789825,9.71794142969884e-05,0.1225960254669189,0,0,0
3184,148944.30273579643,2011-02-02 04:13:57,990.4989068247016,2,25,0.5499359965324402,4.154487133026123,9.565447495690057,9.72986447757882,39.47853068787824,33.02762374789825,0.0001295089750783,0.1225960254669189,0,0,0
3185,148974.31802242118,2011-02-02 04:14:27,1020.5141934193682,2,25,0.5497553944587708,4.158857822418213,9.570032630061784,9.72986447757882,39.49758941726604,33.02762374789825,9.70840483205393e-05,0.1225960254669189,0,0,0
3186,149004.33291503895,2011-02-02 04:14:57,1050.5290860371233,2,25,0.5499359965324402,4.163066864013672,9.574617733468086,9.72986447757882,39.5166680254541,33.02762374789825,9.70840483205393e-05,0.1225960254669189,0,0,0
3187,149034.34800433187,2011-02-02 04:15:27,1080.544175335066,2,25,0.5499359965324402,4.167599678039551,9.579202831824915,9.72986447757882,39.535766551231056,33.02762374789825,0.0001295089750783,0.1225960254669189,0,0,0
3188,149064.36314746898,2011-02-02 04:15:57,1110.559318477205,2,25,0.5499359965324402,4.171970844268799,9.583787906047084,9.72986447757882,39.55488504910686,33.02762374789825,0.0001295089750783,0.1225960254669189,0,0,0
3189,149094.38080407045,2011-02-02 04:16:28,1140.5769750936952,2,25,0.5499359965324402,4.176341533660889,9.58837334938498,9.72986447757882,39.57402515358074,33.02762374789825,0.0001295089750783,0.1225960254669189,0,0,0
3190,149124.39352376258,2011-02-02 04:16:58,1170.5896947708134,2,25,0.5499359965324402,4.180712699890137,9.592958078506102,9.72986447757882,39.593182516084994,33.02762374789825,0.0001295089750783,0.1225960254669189,0,0,0
3191,149154.40863401277,2011-02-02 04:17:28,1200.6048050510503,2,25,0.5499359965324402,4.184921741485596,9.597543189289096,9.72986447757882,39.61236172136633,33.02762374789825,6.47544875391759e-05,0.1225960254669189,0,0,0
3192,149184.4236412261,2011-02-02 04:17:58,1230.6198122343378,2,25,0.5499359965324402,4.1896162033081055,9.602128297773238,9.72986447757882,39.631561157958544,33.02762374789825,0.0001295089750783,0.1225960254669189,0,0,0
3193,149214.43875323067,2011-02-02 04:18:28,1260.6349242238348,2,25,0.5499359965324402,4.1939873695373535,9.606713369039174,9.72986447757882,39.65078086815184,33.02762374789825,9.71794142969884e-05,0.1225960254669189,0,0,0
3194,149244.45385222277,2011-02-02 04:18:58,1290.650023246013,2,25,0.5499359965324402,4.198519706726074,9.61129849658858,9.72986447757882,39.67002129435322,33.02762374789825,0.0001295089750783,0.1225960254669189,0,0,0
3195,149253.42244893033,2011-02-02 04:19:07,1299.6186199535766,2,25,0.5501165986061096,4.200138568878174,9.612668527694613,9.72986447757882,39.67577430857667,33.02762374789825,0.0001618385285837,0.1225960254669189,0,0,0
3196,149283.4327428792,2011-02-02 04:19:37,30.01508544834819,3,25,0.0,4.0903801918029785,9.612668527694613,9.72986447757882,39.67577430857667,33.02762374789825,-0.0004209518374409,0.1225960254669189,0,0,0
3197,149313.44785091386,2011-02-02 04:20:07,60.030193482988366,3,25,0.0,4.0782389640808105,9.612668527694613,9.72986447757882,39.67577430857667,33.02762374789825,-0.0002265930233988,0.1225960254669189,0,0,0
3198,149343.46296764517,2011-02-02 04:20:37,90.04531023435331,3,25,0.0,4.070306301116943,9.612668527694613,9.72986447757882,39.67577430857667,33.02762374789825,-0.0001619339018361,0.1225960254669189,0,0,0
3199,149373.43118297876,2011-02-02 04:21:07,120.01352554289151,3,25,0.0,4.065125942230225,9.612668527694613,9.72986447757882,39.67577430857667,33.02762374789825,-9.71794142969884e-05,0.1225960254669189,0,0,0
3200,149403.44058304923,2011-02-02 04:21:37,30.01487658279095,5,25,0.0,4.060755252838135,9.612668527694728,9.72986447757882,39.67577430857715,33.02762374789825,-0.0001618385285837,0.1225960254669189,0,0,0
3201,149433.44004685868,2011-02-02 04:22:07,60.0143403721583,5,25,0.0,4.058002948760986,9.612668527694728,9.72986447757882,39.67577430857715,33.02762374789825,-9.71794142969884e-05,0.1225960254669189,0,0,0
3202,149433.62575421215,2011-02-02 04:22:07,0.187417757719239,6,25,-1.9243103452026844e-05,4.057841300964356,9.612668527694728,9.729864478580623,39.67577430857715,33.02762375196341,0.0,0.1206444054841995,0,0,0
3203,149438.45383879953,2011-02-02 04:22:12,5.015502365125389,6,25,0.0007031940040178,4.057679176330566,9.612669117014706,9.72986447882977,39.675776700038526,33.0276237529744,-6.47544875391759e-05,0.1206444054841995,0,0,0
3204,149449.9987941842,2011-02-02 04:22:24,11.546636861871123,7,25,-1.099568486213684,3.857588529586792,9.612669117014706,9.733391379272364,39.675776700038526,33.04128688763314,-0.0020397664047777,0.1206444054841995,0,0,0
3205,149480.01392481517,2011-02-02 04:22:54,41.561767497840776,7,25,-1.1001102924346924,3.7858731746673584,9.612669117014706,9.742559506409954,39.675776700038526,33.07632682962577,-0.0019750117789953,0.1206444054841995,0,0,0
3206,149510.0312893387,2011-02-02 04:23:24,71.57913203638299,7,25,-1.0997490882873535,3.709625005722046,9.612669117014706,9.751728233625135,39.675776700038526,33.1106926986171,-0.0020397664047777,0.1206444054841995,0,0,0
3207,149540.0441507791,2011-02-02 04:23:54,101.59199345175668,7,25,-1.099568486213684,3.639690399169922,9.612669117014706,9.760895571615189,39.675776700038526,33.144369244369585,-0.0017159938579425,0.1206444054841995,0,0,0
3208,149570.0593876599,2011-02-02 04:24:24,131.60723035758352,7,25,-1.099568486213684,3.585458755493164,9.612669117014706,9.770063629661822,39.675776700038526,33.177477987018094,-0.0012627125252038,0.1206444054841995,0,0,0
3209,149600.07438372547,2011-02-02 04:24:54,161.62222639809988,7,25,-1.099568486213684,3.543853998184204,9.612669117014706,9.779231629085269,39.675776700038526,33.21015040186403,-0.0010036944877356,0.1206444054841995,0,0,0
3210,149630.08978424405,2011-02-02 04:25:24,191.63762691670007,7,25,-1.0997490882873535,3.511315107345581,9.612669117014706,9.788399711575304,39.675776700038526,33.242486445287184,-0.0007770061492919,0.1206444054841995,0,0,0
3211,149660.10461347384,2011-02-02 04:25:54,221.65245614146025,7,25,-1.099568486213684,3.4847657680511475,9.612669117014706,9.797567710023388,39.675776700038526,33.27455263221039,-0.0006475448608398,0.1206444054841995,0,0,0
3212,149690.1198274425,2011-02-02 04:26:24,251.66767011513312,7,25,-1.099568486213684,3.462587356567383,9.612669117014706,9.806734960419988,39.675776700038526,33.30639332467345,-0.0005504131549969,0.1206444054841995,0,0,0
3213,149720.13479680652,2011-02-02 04:26:54,281.68263947415096,7,25,-1.099568486213684,3.4431610107421875,9.612669117014706,9.815902038352826,39.675776700038526,33.33804421643156,-0.0005180359003134,0.1206444054841995,0,0,0
3214,149750.1499474373,2011-02-02 04:27:24,311.69779011497883,7,25,-1.0993878841400146,3.4261631965637207,9.612669117014706,9.82506927394142,39.675776700038526,33.3695293820748,-0.0004532813909463,0.1206444054841995,0,0,0
3215,149780.16518180183,2011-02-02 04:27:54,341.7130244744594,7,25,-1.099568486213684,3.4102983474731445,9.612669117014706,9.834236409272131,39.675776700038526,33.40086388541568,-0.0004209041653666,0.1206444054841995,0,0,0
3216,149810.18016927096,2011-02-02 04:28:24,371.7280119436133,7,25,-1.099568486213684,3.395566701889038,9.612669117014706,9.843403578759618,39.675776700038526,33.43205848910284,-0.0003885269106831,0.1206444054841995,0,0,0
3217,149840.19528812758,2011-02-02 04:28:54,401.7431308002252,7,25,-1.0993878841400146,3.3814826011657715,9.612669117014706,9.852570714748538,39.675776700038526,33.46312074030597,-0.0003561496851034,0.1206444054841995,0,0,0
3218,149870.2104510841,2011-02-02 04:29:24,431.758293791835,7,25,-1.099568486213684,3.367074728012085,9.612669117014706,9.861738371772743,39.675776700038526,33.49405429705564,-0.0003561496851034,0.1206444054841995,0,0,0
3219,149900.2255579408,2011-02-02 04:29:54,461.7734006385144,7,25,-1.0997490882873535,3.352181196212769,9.612669117014706,9.870906257900955,39.675776700038526,33.524855303407925,-0.0004532813909463,0.1206444054841995,0,0,0
3220,149930.24076202483,2011-02-02 04:30:24,491.7886046974768,7,25,-1.099568486213684,3.336478471755981,9.612669117014706,9.880074193717869,39.675776700038526,33.55551683251186,-0.0004209041653666,0.1206444054841995,0,0,0
3221,149960.25575001028,2011-02-02 04:30:54,521.8035927079799,7,25,-1.099568486213684,3.3193185329437256,9.612669117014706,9.889242045976651,39.675776700038526,33.58602715528936,-0.0004856586456298,0.1206444054841995,0,0,0
3222,149990.2711118876,2011-02-02 04:31:24,551.8189545902866,7,25,-1.099568486213684,3.30070161819458,9.612669117014706,9.898409902594702,39.675776700038526,33.616374610245906,-0.0005180359003134,0.1206444054841995,0,0,0
3223,150020.2861287299,2011-02-02 04:31:54,581.8339714125975,7,25,-1.0997490882873535,3.279818296432495,9.612669117014706,9.907577670611095,39.675776700038526,33.64654102430228,-0.0005827903514727,0.1206444054841995,0,0,0
3224,150050.30123286485,2011-02-02 04:32:24,611.8490755374935,7,25,-1.099568486213684,3.25569748878479,9.612669117014706,9.916745517075343,39.675776700038526,33.676502064398946,-0.0006799221155233,0.1206444054841995,0,0,0
3225,150080.316353947,2011-02-02 04:32:54,641.8641966196521,7,25,-1.099568486213684,3.2280149459838867,9.612669117014706,9.925913422416098,39.675776700038526,33.706226415814534,-0.0007770538213662,0.1206444054841995,0,0,0
3226,150110.33386960218,2011-02-02 04:33:24,671.8817124151732,7,25,-1.099568486213684,3.1959614753723145,9.612669117014706,9.935082051124043,39.675776700038526,33.73568008040543,-0.0009065627818927,0.1206444054841995,0,0,0
3227,150140.34659276297,2011-02-02 04:33:54,701.8944354306117,7,25,-1.099568486213684,3.156461477279663,9.612669117014706,9.9442491747045,39.675776700038526,33.76480321963315,-0.0011332035064697,0.1206444054841995,0,0,0
3228,150170.3615689139,2011-02-02 04:34:24,731.9094115865696,7,25,-1.0993878841400146,3.108705282211304,9.612669117014706,9.953417034706373,39.675776700038526,33.79353021499393,-0.0013921738136559,0.1206444054841995,0,0,0
3229,150200.37668750485,2011-02-02 04:34:54,761.9245301775192,7,25,-1.099568486213684,3.046864748001098,9.612669117014706,9.96258492368574,39.675776700038526,33.821757994153295,-0.0018131255637854,0.1206444054841995,0,0,0
3230,150230.39431390606,2011-02-02 04:35:24,791.9421566188039,7,25,-1.099568486213684,2.964141130447388,9.612669117014706,9.971753595811832,39.675776700038526,33.8493350725986,-0.0025578022468835,0.1206444054841995,0,0,0
3231,150260.40693674685,2011-02-02 04:35:54,821.9547794194763,7,25,-1.099568486213684,2.8446695804595947,9.612669117014706,9.980920653018035,39.675776700038526,33.87599709759252,-0.0037881373427808,0.1206444054841995,0,0,0
3232,150285.8439883061,2011-02-02 04:36:20,847.3918309737345,7,25,-1.099568486213684,2.699943780899048,9.612669117014706,9.988690223338718,39.675776700038526,33.8975626814683,-0.0050831795670092,0.1206444054841995,0,0,0
3233,150345.85577056048,2011-02-02 04:37:20,60.01465523689812,8,25,0.0,3.742164134979248,9.612669117014706,9.988690223338718,39.675776700038526,33.8975626814683,0.0008418083307333,0.1206444054841995,0,0,0
3234,150346.04131395614,2011-02-02 04:37:20,0.187499230775163,9,25,-1.9243103452026844e-05,3.742326021194458,9.612669117014706,9.988690224340958,39.675776700038526,33.897562685219015,0.0,0.125616043806076,0,0,0
3235,150350.86936209266,2011-02-02 04:37:25,5.015547362272125,9,25,0.0003419754502829,3.747182607650757,9.612669759994525,9.988690224508504,39.67577910809422,33.897562685846154,0.0006799221155233,0.125616043806076,0,0,0
