Data_Point,Test_Time(s),Date_Time,Step_Time(s),Step_Index,Cycle_Index,Current(A),Voltage(V),Charge_Capacity(Ah),Discharge_Capacity(Ah),Charge_Energy(Wh),Discharge_Energy(Wh),dV/dt(V/s),Internal_Resistance(Ohm),Is_FC_Data,AC_Impedance(Ohm),ACI_Phase_Angle(Deg)
550,24628.554682547685,2011-01-31 17:41:38,30.015043483759523,1,5,0.0,3.7413547039031982,1.491484761490557,1.899909917271952,6.141575888261137,6.505772576871791,0.0004209041653666,0.1190250143408775,0,0,0
551,24658.569780677644,2011-01-31 17:42:08,60.0301415986767,1,5,0.0,3.754143476486206,1.491484761490557,1.899909917271952,6.141575888261137,6.505772576871791,0.0003237247583456,0.1190250143408775,0,0,0
552,24688.584904386345,2011-01-31 17:42:38,90.04526529735648,1,5,0.0,3.763209104537964,1.491484761490557,1.899909917271952,6.141575888261137,6.505772576871791,0.0002266406954731,0.1190250143408775,0,0,0
553,24718.553379662804,2011-01-31 17:43:08,120.0137405988772,1,5,0.0,3.770170211791992,1.491484761490557,1.899909917271952,6.141575888261137,6.505772576871791,0.0001295089750783,0.1190250143408775,0,0,0
554,24748.56977959247,2011-01-31 17:43:38,30.01498794534069,2,5,0.550297200679779,3.890451431274414,1.496070790321736,1.899909917271952,6.159338964022571,6.505772576871791,0.0007122993702068,0.1190250143408775,0,0,0
555,24778.58521893784,2011-01-31 17:44:08,60.03042740599648,2,5,0.5499359965324402,3.910201549530029,1.500656882920786,1.899909917271952,6.17722941655575,6.505772576871791,0.0004532813909463,0.1190250143408775,0,0,0
556,24808.600020498656,2011-01-31 17:44:38,90.04522884650977,2,5,0.5499359965324402,3.924285411834717,1.505242878735922,1.899909917271952,6.195195209204975,6.505772576871791,0.0003237724304199,0.1190250143408775,0,0,0
557,24838.615146137166,2011-01-31 17:45:08,120.06035449003672,2,5,0.5501165986061096,3.935617446899414,1.509828898275894,1.899909917271952,6.21321851684138,6.505772576871791,0.0002913951757363,0.1190250143408775,0,0,0
558,24868.630255911143,2011-01-31 17:45:38,150.07546425899935,2,5,0.5501165986061096,3.9454925060272217,1.514414868527875,1.899909917271952,6.231289578718685,6.505772576871791,0.0002913951757363,0.1190250143408775,0,0,0
559,24898.64792539972,2011-01-31 17:46:08,180.09313377263334,2,5,0.5499359965324402,3.9540724754333496,1.519001245955038,1.899909917271952,6.249404965955521,6.505772576871791,0.0001942634553415,0.1190250143408775,0,0,0
560,24928.660620034418,2011-01-31 17:46:38,210.10582838227583,2,5,0.5501165986061096,3.962490558624268,1.523586863184291,1.899909917271952,6.267556722993458,6.505772576871791,0.0002590179501567,0.1190250143408775,0,0,0
561,24958.67560430059,2011-01-31 17:47:08,240.1208126484469,2,5,0.5501165986061096,3.9702610969543457,1.528172805247658,1.899909917271952,6.285746359935063,6.505772576871791,0.0002266406954731,0.1190250143408775,0,0,0
562,24988.69074737757,2011-01-31 17:47:38,270.1359557404608,2,5,0.5499359965324402,3.977384090423584,1.532758787007708,1.899909917271952,6.303970254924709,6.505772576871791,0.0001942634553415,0.1190250143408775,0,0,0
563,25018.705863788084,2011-01-31 17:48:08,300.15107214095127,2,5,0.5495747923851013,3.984021425247192,1.537344709836157,1.899909917271952,6.322225626592405,6.505772576871791,0.0001618862152099,0.1190250143408775,0,0,0
564,25048.720964409247,2011-01-31 17:48:38,330.1661727621148,2,5,0.5501165986061096,3.990496873855591,1.541930569052805,1.899909917271952,6.340510777149102,6.505772576871791,0.0001942634553415,0.1190250143408775,0,0,0
565,25078.73608092001,2011-01-31 17:49:08,360.18128929293005,2,5,0.5501165986061096,3.99648642539978,1.546516495256128,1.899909917271952,6.35882427969665,6.505772576871791,0.0001618862152099,0.1190250143408775,0,0,0
566,25108.75132246239,2011-01-31 17:49:38,390.1965308403251,2,5,0.5501165986061096,4.001990795135498,1.551102448941265,1.899909917271952,6.377164450434583,6.505772576871791,0.0001619339018361,0.1190250143408775,0,0,0
567,25138.766335785986,2011-01-31 17:50:08,420.21154413885387,2,5,0.550297200679779,4.007494926452637,1.55568833843786,1.899909917271952,6.395529409942347,6.505772576871791,0.0001942634553415,0.1190250143408775,0,0,0
568,25168.781443194064,2011-01-31 17:50:38,450.2266515770074,2,5,0.5501165986061096,4.012351512908936,1.560274170854886,1.899909917271952,6.413917988284438,6.505772576871791,0.0001295089750783,0.1190250143408775,0,0,0
569,25198.796624782022,2011-01-31 17:51:08,480.24183319503993,2,5,0.5501165986061096,4.017208099365234,1.564860028542009,1.899909917271952,6.432329550373233,6.505772576871791,0.0001295089750783,0.1190250143408775,0,0,0
570,25228.811673694312,2011-01-31 17:51:38,510.2568820471792,2,5,0.5499359965324402,4.021902561187744,1.569445818295492,1.899909917271952,6.450762884193484,6.505772576871791,9.70840483205393e-05,0.1190250143408775,0,0,0
571,25258.82682322738,2011-01-31 17:52:08,540.2720315802462,2,5,0.5501165986061096,4.026435375213623,1.574031700836425,1.899909917271952,6.469217868722068,6.505772576871791,9.70840483205393e-05,0.1190250143408775,0,0,0
572,25288.84203291036,2011-01-31 17:52:38,570.2872412632253,2,5,0.5501165986061096,4.030968189239502,1.578617647795832,1.899909917271952,6.487693717212856,6.505772576871791,9.70840483205393e-05,0.1190250143408775,0,0,0
573,25318.85713661922,2011-01-31 17:53:08,600.3023450021592,2,5,0.5497553944587708,4.035338878631592,1.583203495991462,1.899909917271952,6.506189248813119,6.505772576871791,0.0001295089750783,0.1190250143408775,0,0,0
574,25348.872145857626,2011-01-31 17:53:38,630.3173542104938,2,5,0.5501165986061096,4.039547920227051,1.587789354923931,1.899909917271952,6.524704407559746,6.505772576871791,6.47544875391759e-05,0.1190250143408775,0,0,0
575,25378.887274694112,2011-01-31 17:54:08,660.3324830469786,2,5,0.5501165986061096,4.04375696182251,1.592375207221398,1.899909917271952,6.543238608228805,6.505772576871791,0.0001295089750783,0.1190250143408775,0,0,0
576,25408.9024091496,2011-01-31 17:54:38,690.3476175175052,2,5,0.5499359965324402,4.047642230987549,1.596961064988066,1.899909917271952,6.561791646324553,6.505772576871791,9.70840483205393e-05,0.1190250143408775,0,0,0
577,25438.91763457682,2011-01-31 17:55:08,720.3628429246738,2,5,0.5501165986061096,4.051689624786377,1.601546932371605,1.899909917271952,6.580363074504952,6.505772576871791,0.0001295089750783,0.1190250143408775,0,0,0
578,25468.93262113871,2011-01-31 17:55:38,750.3778294915788,2,5,0.5497553944587708,4.055412769317627,1.60613278847342,1.899909917271952,6.598952511796488,6.505772576871791,6.47544875391759e-05,0.1190250143408775,0,0,0
579,25498.949995872663,2011-01-31 17:56:08,780.3952042806688,2,5,0.5499359965324402,4.059621810913086,1.610719031142395,1.899909917271952,6.617561466803219,6.505772576871791,0.0001295089750783,0.1190250143408775,0,0,0
580,25528.962876410696,2011-01-31 17:56:38,810.4080847635645,2,5,0.5501165986061096,4.063183307647705,1.615304610056866,1.899909917271952,6.636185056929825,6.505772576871791,9.70840483205393e-05,0.1190250143408775,0,0,0
581,25558.977978680967,2011-01-31 17:57:08,840.4231870338381,2,5,0.5499359965324402,4.066906929016113,1.61989047286261,1.899909917271952,6.654827096025282,6.505772576871791,6.47544875391759e-05,0.1190250143408775,0,0,0
582,25588.99311040966,2011-01-31 17:57:38,870.4383187625313,2,5,0.5501165986061096,4.070792198181152,1.624476308193877,1.899909917271952,6.673486234026658,6.505772576871791,0.0001295089750783,0.1190250143408775,0,0,0
583,25619.01077106121,2011-01-31 17:58:09,900.4559794491656,2,5,0.5497553944587708,4.074353694915772,1.629061943825805,1.899909917271952,6.692161414478358,6.505772576871791,9.71794142969884e-05,0.1190250143408775,0,0,0
584,25649.02331446901,2011-01-31 17:58:39,930.468522821879,2,5,0.5499359965324402,4.0780768394470215,1.63364663308826,1.899909917271952,6.710849684349554,6.505772576871791,9.70840483205393e-05,0.1190250143408775,0,0,0
585,25679.038580547545,2011-01-31 17:59:09,960.483788930488,2,5,0.5501165986061096,4.08180046081543,1.638232291963671,1.899909917271952,6.729558792670598,6.505772576871791,9.71794142969884e-05,0.1190250143408775,0,0,0
586,25709.05369109345,2011-01-31 17:59:39,990.4988994563372,2,5,0.5499359965324402,4.085361957550049,1.642818197866744,1.899909917271952,6.748285636725393,6.505772576871791,9.71794142969884e-05,0.1190250143408775,0,0,0
587,25739.06875867727,2011-01-31 18:00:09,1020.513967025124,2,5,0.5501165986061096,4.089085102081299,1.647404047198892,1.899909917271952,6.767028935926312,6.505772576871791,9.70840483205393e-05,0.1190250143408775,0,0,0
588,25769.0839847912,2011-01-31 18:00:39,1050.5291931490794,2,5,0.5499359965324402,4.092646598815918,1.651989926368967,1.899909917271952,6.785788996784122,6.505772576871791,9.70840483205393e-05,0.1190250143408775,0,0,0
589,25799.098972145064,2011-01-31 18:01:09,1080.5441804979334,2,5,0.5501165986061096,4.096370220184326,1.65657569482748,1.899909917271952,6.804565319287605,6.505772576871791,0.0001295089750783,0.1190250143408775,0,0,0
590,25829.11411165816,2011-01-31 18:01:39,1110.55932003609,2,5,0.5501165986061096,4.100093364715576,1.661161598833127,1.899909917271952,6.823358948413183,6.505772576871791,0.0001295089750783,0.1190250143408775,0,0,0
591,25859.129346684305,2011-01-31 18:02:09,1140.5745550321571,2,5,0.5499359965324402,4.1034932136535645,1.665747430119415,1.899909917271952,6.842168963056832,6.505772576871791,9.71794142969884e-05,0.1190250143408775,0,0,0
592,25889.14432243926,2011-01-31 18:02:39,1170.5895307871158,2,5,0.5501165986061096,4.107216358184815,1.670333241866587,1.899909917271952,6.860995662255355,6.505772576871791,9.70840483205393e-05,0.1190250143408775,0,0,0
593,25919.15944170189,2011-01-31 18:03:09,1200.6046500547518,2,5,0.5501165986061096,4.110939979553223,1.674919087529003,1.899909917271952,6.879839184527342,6.505772576871791,9.71794142969884e-05,0.1190250143408775,0,0,0
594,25949.17458072877,2011-01-31 18:03:39,1230.6197890816345,2,5,0.5499359965324402,4.114501476287842,1.679504936940026,1.899909917271952,6.898699487028901,6.505772576871791,9.71794142969884e-05,0.1190250143408775,0,0,0
595,25979.189699765822,2011-01-31 18:04:09,1260.6349081186956,2,5,0.5499359965324402,4.118062496185303,1.684090753526069,1.899909917271952,6.917576422064252,6.505772576871791,6.47544875391759e-05,0.1190250143408775,0,0,0
596,26009.20482642188,2011-01-31 18:04:39,1290.6500347747462,2,5,0.5501165986061096,4.121947765350342,1.68867655096023,1.899909917271952,6.936470220956188,6.505772576871791,0.0001295089750783,0.1190250143408775,0,0,0
597,26039.22006267107,2011-01-31 18:05:09,1320.6652710189242,2,5,0.5499359965324402,4.125509262084961,1.693262374567182,1.899909917271952,6.955381078727703,6.505772576871791,6.47544875391759e-05,0.1190250143408775,0,0,0
598,26069.235036932303,2011-01-31 18:05:39,1350.6802452851723,2,5,0.5499359965324402,4.129232883453369,1.697848138607967,1.899909917271952,6.974308729554211,6.505772576871791,9.71794142969884e-05,0.1190250143408775,0,0,0
599,26099.2521918484,2011-01-31 18:06:09,1380.6974002363584,2,5,0.5501165986061096,4.133118152618408,1.702434199061014,1.899909917271952,6.993254711275124,6.505772576871791,9.71794142969884e-05,0.1190250143408775,0,0,0
600,26129.265278825947,2011-01-31 18:06:39,1410.710487178815,2,5,0.5501165986061096,4.136841297149658,1.707019698507018,1.899909917271952,7.012215451961064,6.505772576871791,6.47544875391759e-05,0.1190250143408775,0,0,0
601,26159.28039483546,2011-01-31 18:07:09,1440.725603188331,2,5,0.5501165986061096,4.140564918518066,1.71160552882584,1.899909917271952,7.031194946214532,6.505772576871791,9.71794142969884e-05,0.1190250143408775,0,0,0
602,26189.295506649523,2011-01-31 18:07:39,1470.7407150023903,2,5,0.5497553944587708,4.1444501876831055,1.716191406494747,1.899909917271952,7.050192015790803,6.505772576871791,9.71794142969884e-05,0.1190250143408775,0,0,0
603,26219.310647039805,2011-01-31 18:08:09,1500.755855392671,2,5,0.5501165986061096,4.1483354568481445,1.720777156522209,1.899909917271952,7.069206429072112,6.505772576871791,9.71794142969884e-05,0.1190250143408775,0,0,0
604,26249.325901238728,2011-01-31 18:08:39,1530.77110961666,2,5,0.5501165986061096,4.152220726013184,1.725362945522042,1.899909917271952,7.088238531085922,6.505772576871791,9.71794142969884e-05,0.1190250143408775,0,0,0
605,26279.341006085426,2011-01-31 18:09:09,1560.7862144984424,2,5,0.5501165986061096,4.155943870544434,1.729948753778294,1.899909917271952,7.107288378751347,6.505772576871791,9.70840483205393e-05,0.1190250143408775,0,0,0
606,26309.355982802783,2011-01-31 18:09:39,1590.8011911456244,2,5,0.5501165986061096,4.159829139709473,1.734534482713688,1.899909917271952,7.126355613242645,6.505772576871791,9.70840483205393e-05,0.1190250143408775,0,0,0
607,26339.37111339865,2011-01-31 18:10:09,1620.816321746507,2,5,0.5501165986061096,4.163876533508301,1.739120286233054,1.899909917271952,7.14544105572601,6.505772576871791,0.0001295089750783,0.1190250143408775,0,0,0
608,26369.386226285384,2011-01-31 18:10:39,1650.8314346382522,2,5,0.5499359965324402,4.167599678039551,1.743706035269903,1.899909917271952,7.164544204573511,6.505772576871791,6.47544875391759e-05,0.1190250143408775,0,0,0
609,26399.401273092422,2011-01-31 18:11:09,1680.846481430257,2,5,0.5501165986061096,4.17180871963501,1.748291696057272,1.899909917271952,7.183665249128659,6.505772576871791,9.70840483205393e-05,0.1190250143408775,0,0,0
610,26429.416417833552,2011-01-31 18:11:39,1710.861626181406,2,5,0.5499359965324402,4.175856113433838,1.752876790794699,1.899909917271952,7.202802105052838,6.505772576871791,0.0001295089750783,0.1190250143408775,0,0,0
611,26459.43172972125,2011-01-31 18:12:09,1740.8769380991855,2,5,0.5499359965324402,4.179741382598877,1.757461898922546,1.899909917271952,7.221957352703963,6.505772576871791,9.71794142969884e-05,0.1190250143408775,0,0,0
612,26489.446671922586,2011-01-31 18:12:39,1770.8918802704432,2,5,0.5497553944587708,4.183788299560547,1.762046957899012,1.899909917271952,7.241130800882393,6.505772576871791,0.0001295089750783,0.1190250143408775,0,0,0
613,26519.46178671908,2011-01-31 18:13:09,1800.9069950619237,2,5,0.5499359965324402,4.187673568725586,1.766632102460331,1.899909917271952,7.260323142093985,6.505772576871791,9.70840483205393e-05,0.1190250143408775,0,0,0
614,26549.47690165091,2011-01-31 18:13:39,1830.922109998766,2,5,0.5499359965324402,4.191720962524414,1.771217146387461,1.899909917271952,7.279533761515592,6.505772576871791,9.71794142969884e-05,0.1190250143408775,0,0,0
615,26579.49205836688,2011-01-31 18:14:09,1860.93726674481,2,5,0.5499359965324402,4.195929527282715,1.775802204412849,1.899909917271952,7.298763119638632,6.505772576871791,9.70840483205393e-05,0.1190250143408775,0,0,0
616,26608.28842723352,2011-01-31 18:14:38,1889.733635611447,2,5,0.5501165986061096,4.200138568878174,1.780201796724645,1.899909917271952,7.317232482853805,6.505772576871791,0.0001618385285837,0.1190250143408775,0,0,0
617,26638.30395508321,2011-01-31 18:15:08,30.015220164101297,3,5,0.0,4.089894771575928,1.780201796724645,1.899909917271952,7.317232482853805,6.505772576871791,-0.0004532813909463,0.1190250143408775,0,0,0
618,26668.318964366736,2011-01-31 18:15:38,60.030229447623306,3,5,0.0,4.076943874359131,1.780201796724645,1.899909917271952,7.317232482853805,6.505772576871791,-0.0002590179501567,0.1190250143408775,0,0,0
619,26698.33410828581,2011-01-31 18:16:08,90.04537337171104,3,5,0.0,4.068687438964844,1.780201796724645,1.899909917271952,7.317232482853805,6.505772576871791,-0.0001942634553415,0.1190250143408775,0,0,0
620,26728.302407979663,2011-01-31 18:16:38,120.01367305553842,3,5,0.0,4.063183307647705,1.780201796724645,1.899909917271952,7.317232482853805,6.505772576871791,-0.0001295089750783,0.1190250143408775,0,0,0
621,26728.302712832367,2011-01-31 18:16:38,2.771908449e-06,4,5,0.9761738777160645,4.199653148651123,1.780201797476274,1.899909917271952,7.317232486010386,6.505772576871791,0.0,0.1190250143408775,0,0,0
622,26729.005923389446,2011-01-31 18:16:39,0.70321324878929,4,5,0.9259645342826844,4.199814796447754,1.78038589561721,1.899909917271952,7.318005647786144,6.505772576871791,3.23295607813634e-05,0.1190250143408775,0,0,0
623,26731.17763565964,2011-01-31 18:16:41,2.87492551898578,4,5,0.8759357333183289,4.199653148651123,1.780927960326846,1.899909917271952,7.320282172921968,6.505772576871791,0.0,0.1190250143408775,0,0,0
624,26734.67757656929,2011-01-31 18:16:44,6.374866423625035,4,5,0.8259069919586182,4.199814796447754,1.781753688156752,1.899909917271952,7.323750024705628,6.505772576871791,0.0,0.1190250143408775,0,0,0
625,26739.568138639763,2011-01-31 18:16:49,11.265428494092973,4,5,0.7758781909942627,4.199814796447754,1.782839989011577,1.899909917271952,7.32831221524298,6.505772576871791,0.0,0.1190250143408775,0,0,0
626,26746.22438585089,2011-01-31 18:16:56,17.921675710231654,4,5,0.725849449634552,4.199814796447754,1.784226307109757,1.899909917271952,7.334134444734225,6.505772576871791,0.0,0.1190250143408775,0,0,0
627,26755.11468679131,2011-01-31 18:17:05,26.811976645639906,4,5,0.6758206486701965,4.199653148651123,1.785954452876213,1.899909917271952,7.341392233172942,6.505772576871791,-3.23295607813634e-05,0.1190250143408775,0,0,0
628,26767.630182206805,2011-01-31 18:17:17,39.32747208118696,4,5,0.6257919073104858,4.199814796447754,1.7882122724643,1.899909917271952,7.350874416908521,6.505772576871791,3.23295607813634e-05,0.1190250143408775,0,0,0
629,26786.28609878119,2011-01-31 18:17:36,57.983388630509886,4,5,0.5755825042724609,4.199653148651123,1.791316535340812,1.899909917271952,7.363911429697174,6.505772576871791,0.0,0.1190250143408775,0,0,0
630,26818.129342276905,2011-01-31 18:18:08,89.82663212622228,4,5,0.5255537629127502,4.199653148651123,1.79616652369883,1.899909917271952,7.384279994341394,6.505772576871791,0.0,0.1190250143408775,0,0,0
631,26878.925156211637,2011-01-31 18:19:09,150.6224460810019,4,5,0.4755249917507171,4.199653148651123,1.804573714630266,1.899909917271952,7.419587770813442,6.505772576871791,-3.23295607813634e-05,0.1190250143408775,0,0,0
632,26980.454708876736,2011-01-31 18:20:50,252.15199875613067,4,5,0.4254962205886841,4.199814796447754,1.817238928139644,1.899909917271952,7.472778751635192,6.505772576871791,0.0,0.1190250143408775,0,0,0
633,27117.42112094412,2011-01-31 18:23:07,389.1184107934391,4,5,0.375467449426651,4.199653148651123,1.832449580045297,1.899909917271952,7.536660049662408,6.505772576871791,-3.23295607813634e-05,0.1190250143408775,0,0,0
634,27284.68393551852,2011-01-31 18:25:54,556.3812253778648,4,5,0.3254386782646179,4.199653148651123,1.848708338134523,1.899909917271952,7.604943213264908,6.505772576871791,-3.23295607813634e-05,0.1190250143408775,0,0,0
635,27490.852310109425,2011-01-31 18:29:21,762.5495999637559,4,5,0.2752293050289154,4.199491024017334,1.865886163854559,1.899909917271952,7.677086145148627,6.505772576871791,-6.47544875391759e-05,0.1190250143408775,0,0,0
636,27747.53560716517,2011-01-31 18:33:37,1019.2328970445571,4,5,0.2252005189657211,4.199814796447754,1.88369331765091,1.899909917271952,7.751872215243174,6.505772576871791,3.23295607813634e-05,0.1190250143408775,0,0,0
637,28077.139275508187,2011-01-31 18:39:07,1348.8365653825688,4,5,0.1751717627048492,4.199653148651123,1.901955667295269,1.899909917271952,7.828570159839099,6.505772576871791,0.0,0.1190250143408775,0,0,0
638,28526.97539177604,2011-01-31 18:46:37,1798.6726816504213,4,5,0.1251429915428161,4.199814796447754,1.920581887906702,1.899909917271952,7.906795982230369,6.505772576871791,0.0,0.1190250143408775,0,0,0
639,29231.79165747169,2011-01-31 18:58:22,2503.488947326028,4,5,0.0751142129302024,4.199814796447754,1.93981099188693,1.899909917271952,7.987553776372049,6.505772576871791,0.0,0.1190250143408775,0,0,0
640,29841.59406782982,2011-01-31 19:08:31,3113.291357724251,4,5,0.0498289167881011,4.199653148651123,1.950287190565066,1.899909917271952,8.031551284153634,6.505772576871791,-3.23295607813634e-05,0.1190250143408775,0,0,0
641,29871.609283437472,2011-01-31 19:09:02,30.015155608208147,5,5,0.0,4.189130783081055,1.950287190565066,1.899909917271952,8.031551284153634,6.505772576871791,-6.47544875391759e-05,0.1190250143408775,0,0,0
642,29901.60859545357,2011-01-31 19:09:32,60.01446759924736,5,5,0.0,4.187511920928955,1.950287190565066,1.899909917271952,8.031551284153634,6.505772576871791,-3.23295607813634e-05,0.1190250143408775,0,0,0
643,29901.79937735972,2011-01-31 19:09:32,0.18943994763873,6,5,-1.9243103452026844e-05,4.187511920928955,1.950287190565066,1.899909918284567,8.031551284153634,6.505772581112127,0.0,0.1184292882680893,0,0,0
644,29906.62548145107,2011-01-31 19:09:37,5.015544013927018,6,5,0.0008838032954372,4.187511920928955,1.950287810908407,1.899909918523384,8.031553881911016,6.505772582112177,-3.23295607813634e-05,0.1184292882680893,0,0,0
645,29916.61106991807,2011-01-31 19:09:47,9.984288789752924,7,5,-1.0997490882873535,3.9874210357666016,1.950287810908407,1.902959565215393,8.031553881911016,6.517976519568563,-0.0020720958709716,0.1184292882680893,0,0,0
646,29946.62606649994,2011-01-31 19:10:17,39.999285356581005,7,5,-1.0997490882873535,3.9257423877716064,1.950287810908407,1.912127521183331,8.031553881911016,6.554245897426822,-0.0016836166614666,0.1184292882680893,0,0,0
647,29976.64135851311,2011-01-31 19:10:47,70.01457738478977,7,5,-1.0997490882873535,3.86633038520813,1.950287810908407,1.921295578317254,8.031553881911016,6.589967083419699,-0.0015864849556237,0.1184292882680893,0,0,0
648,30006.656310654213,2011-01-31 19:11:17,100.02952950083284,7,5,-1.0993878841400146,3.8091847896575928,1.950287810908407,1.930463446065207,8.031553881911016,6.625146501990842,-0.0014569759368896,0.1184292882680893,0,0,0
649,30036.671422794087,2011-01-31 19:11:47,130.04464165072952,7,5,-1.099568486213684,3.7598094940185542,1.950287810908407,1.939630631630934,8.031553881911016,6.659832725441716,-0.0012303352123126,0.1184292882680893,0,0,0
650,30066.68653542017,2011-01-31 19:12:17,160.05975429185045,7,5,-1.099568486213684,3.718366861343384,1.950287810908407,1.94879785350547,8.031553881911016,6.694104600442489,-0.0010360718006268,0.1184292882680893,0,0,0
651,30096.701683118663,2011-01-31 19:12:47,190.0749020103951,7,5,-1.099568486213684,3.685180187225342,1.950287810908407,1.95796514013939,8.031553881911016,6.728034882415712,-0.0008094310760498,0.1184292882680893,0,0,0
652,30126.71880142351,2011-01-31 19:13:17,220.09202031023472,7,5,-1.0997490882873535,3.6574978828430176,1.950287810908407,1.967133000997135,8.031553881911016,6.761689792882301,-0.0007122993702068,0.1184292882680893,0,0,0
653,30156.73229417737,2011-01-31 19:13:47,250.1055131593356,7,5,-1.099568486213684,3.633214950561523,1.950287810908407,1.976299683106606,8.031553881911016,6.795103296613812,-0.0006475448608398,0.1184292882680893,0,0,0
654,30186.747016916743,2011-01-31 19:14:17,280.1202357683766,7,5,-1.099568486213684,3.6118459701538086,1.950287810908407,1.985466764341888,8.031553881911016,6.828309474273154,-0.0005180359003134,0.1184292882680893,0,0,0
655,30216.762123888733,2011-01-31 19:14:47,310.13534274036834,7,5,-1.099568486213684,3.5920960903167725,1.950287810908407,1.994634002278344,8.031553881911016,6.861327612062822,-0.0005179882282391,0.1184292882680893,0,0,0
656,30246.777258755246,2011-01-31 19:15:17,340.15047763695674,7,5,-1.099568486213684,3.573802947998047,1.950287810908407,2.003801269390728,8.031553881911016,6.8941732332622,-0.0004856586456298,0.1184292882680893,0,0,0
657,30276.79236841895,2011-01-31 19:15:47,370.165587290632,7,5,-1.0997490882873535,3.557128667831421,1.950287810908407,2.012968462506158,8.031553881911016,6.926858201523624,-0.0004532813909463,0.1184292882680893,0,0,0
658,30306.80750150101,2011-01-31 19:16:17,400.1807203476356,7,5,-1.0997490882873535,3.5412638187408447,1.950287810908407,2.022135648847672,8.031553881911016,6.959394196889837,-0.0004209041653666,0.1184292882680893,0,0,0
659,30336.8226153702,2011-01-31 19:16:47,430.1958342168173,7,5,-1.099568486213684,3.5263702869415283,1.950287810908407,2.031302881467777,8.031553881911016,6.99178942977596,-0.0003561496851034,0.1184292882680893,0,0,0
660,30366.83772942484,2011-01-31 19:17:17,460.21094830654863,7,5,-1.099568486213684,3.512124300003052,1.950287810908407,2.040470137325842,8.031553881911016,7.024051097920164,-0.0003561496851034,0.1184292882680893,0,0,0
661,30396.852822261604,2011-01-31 19:17:47,490.226041113236,7,5,-1.099568486213684,3.498687982559204,1.950287810908407,2.049637398288827,8.031553881911016,7.056185933200684,-0.0003561496851034,0.1184292882680893,0,0,0
662,30426.868070856563,2011-01-31 19:18:17,520.2412897182209,7,5,-1.099568486213684,3.486060857772827,1.950287810908407,2.058804660623281,8.031553881911016,7.08820124964458,-0.0003237724304199,0.1184292882680893,0,0,0
663,30456.883077378203,2011-01-31 19:18:47,550.2562962298343,7,5,-1.099568486213684,3.47375750541687,1.950287810908407,2.067971894252435,8.031553881911016,7.120102459880402,-0.0002913951757363,0.1184292882680893,0,0,0
664,30486.89847185675,2011-01-31 19:19:17,580.2716907133934,7,5,-1.099568486213684,3.462263584136963,1.950287810908407,2.077139241479536,8.031553881911016,7.151895319435615,-0.0002913951757363,0.1184292882680893,0,0,0
665,30516.91330945237,2011-01-31 19:19:47,610.2865283040039,7,5,-1.099568486213684,3.451093435287476,1.950287810908407,2.086306453092407,8.031553881911016,7.183583728441467,-0.0003237724304199,0.1184292882680893,0,0,0
666,30546.928417176237,2011-01-31 19:20:17,640.3016360278694,7,5,-1.099568486213684,3.440247058868408,1.950287810908407,2.095473779128733,8.031553881911016,7.215170849724747,-0.0002913951757363,0.1184292882680893,0,0,0
667,30576.943533722093,2011-01-31 19:20:47,670.3167526037971,7,5,-1.099568486213684,3.42972469329834,1.950287810908407,2.104641070786076,8.031553881911016,7.246659715179908,-0.0002590179501567,0.1184292882680893,0,0,0
668,30606.96109613881,2011-01-31 19:21:17,700.3343150255251,7,5,-1.0993878841400146,3.4192020893096924,1.950287810908407,2.113809110933391,8.031553881911016,7.278055349426054,-0.0002913951757363,0.1184292882680893,0,0,0
669,30636.97377485885,2011-01-31 19:21:47,730.3469937205034,7,5,-1.099568486213684,3.408841371536255,1.950287810908407,2.122975671933896,8.031553881911016,7.309350492090794,-0.0002913951757363,0.1184292882680893,0,0,0
670,30666.98888247244,2011-01-31 19:22:17,760.3621013441192,7,5,-1.099568486213684,3.3983187675476074,1.950287810908407,2.132142948062183,8.031553881911016,7.340552208148604,-0.0002913951757363,0.1184292882680893,0,0,0
671,30697.004018872776,2011-01-31 19:22:47,790.3772377344304,7,5,-1.0992072820663452,3.38763427734375,1.950287810908407,2.141310220998362,8.031553881911016,7.371656977682849,-0.0003237724304199,0.1184292882680893,0,0,0
672,30727.021173498146,2011-01-31 19:23:17,820.3943924049167,7,5,-1.099568486213684,3.3766260147094727,1.950287810908407,2.150478183484155,8.031553881911016,7.402664140846692,-0.0002590179501567,0.1184292882680893,0,0,0
673,30757.03436089096,2011-01-31 19:23:47,850.4075797476017,7,5,-1.099568486213684,3.3654558658599854,1.950287810908407,2.159644908763319,8.031553881911016,7.433565524971389,-0.0002590179501567,0.1184292882680893,0,0,0
674,30787.049383091675,2011-01-31 19:24:17,880.4226019783923,7,5,-1.099568486213684,3.353476285934448,1.950287810908407,2.168812176717218,8.031553881911016,7.464362892850955,-0.0003237724304199,0.1184292882680893,0,0,0
675,30817.06446200373,2011-01-31 19:24:47,910.4376808854375,7,5,-1.0997490882873535,3.3411731719970703,1.950287810908407,2.177979456193948,8.031553881911016,7.495050635929029,-0.0003561496851034,0.1184292882680893,0,0,0
676,30847.0796772205,2011-01-31 19:25:17,940.4528960721336,7,5,-1.099568486213684,3.3285460472106934,1.950287810908407,2.187146826525763,8.031553881911016,7.525624782477038,-0.0003561496851034,0.1184292882680893,0,0,0
677,30877.09471550129,2011-01-31 19:25:47,970.4679343579382,7,5,-1.099568486213684,3.3147857189178467,1.950287810908407,2.196314128740556,8.031553881911016,7.556077157461626,-0.0003885269106831,0.1184292882680893,0,0,0
678,30907.10981029794,2011-01-31 19:26:17,1000.4830291545852,7,5,-1.099568486213684,3.30005407333374,1.950287810908407,2.205481374022485,8.031553881911016,7.586398440237951,-0.0003885269106831,0.1184292882680893,0,0,0
679,30937.124947956418,2011-01-31 19:26:47,1030.4981668180696,7,5,-1.0993878841400146,3.284512996673584,1.950287810908407,2.214648702138338,8.031553881911016,7.616580151398478,-0.0003885269106831,0.1184292882680893,0,0,0
680,30967.14006399099,2011-01-31 19:27:17,1060.5132828426233,7,5,-1.0993878841400146,3.267677068710327,1.950287810908407,2.223815931640142,8.031553881911016,7.646612499491553,-0.0004209041653666,0.1184292882680893,0,0,0
681,30997.155161499395,2011-01-31 19:27:47,1090.5283803760913,7,5,-1.099568486213684,3.249222040176392,1.950287810908407,2.23298319582348,8.031553881911016,7.676484064132317,-0.0004856586456298,0.1184292882680893,0,0,0
682,31027.17028311789,2011-01-31 19:28:17,1120.5435019645115,7,5,-1.0993878841400146,3.2293100357055664,1.950287810908407,2.242150433101843,8.031553881911016,7.706180026957519,-0.0005180359003134,0.1184292882680893,0,0,0
683,31057.18539274149,2011-01-31 19:28:47,1150.558611618187,7,5,-1.099568486213684,3.207941055297852,1.950287810908407,2.251317681218634,8.031553881911016,7.735686999904996,-0.0005827903514727,0.1184292882680893,0,0,0
684,31087.20051884617,2011-01-31 19:29:17,1180.5737377178507,7,5,-1.099568486213684,3.1843059062957764,1.950287810908407,2.260484976764181,8.031553881911016,7.764988022462219,-0.0006475448608398,0.1184292882680893,0,0,0
685,31117.21562467531,2011-01-31 19:29:47,1210.588843552007,7,5,-1.0997490882873535,3.1579184532165527,1.950287810908407,2.269652297521016,8.031553881911016,7.794060596200221,-0.0007446765666827,0.1184292882680893,0,0,0
686,31147.23087921008,2011-01-31 19:30:17,1240.60409806672,7,5,-1.099568486213684,3.12813138961792,1.950287810908407,2.278819627245245,8.031553881911016,7.822876937586385,-0.0008418083307333,0.1184292882680893,0,0,0
687,31177.24585964169,2011-01-31 19:30:47,1270.6190785183844,7,5,-1.099568486213684,3.094783067703247,1.950287810908407,2.287986939284341,8.031553881911016,7.851404352631239,-0.0009389400365762,0.1184292882680893,0,0,0
688,31207.26120930354,2011-01-31 19:31:17,1300.6344281802335,7,5,-1.0993878841400146,3.0565779209136963,1.950287810908407,2.297154391984426,8.031553881911016,7.87960420212354,-0.0011008263099938,0.1184292882680893,0,0,0
689,31237.27609487373,2011-01-31 19:31:47,1330.6493137253617,7,5,-1.099568486213684,3.012545108795166,1.950287810908407,2.306321644899754,8.031553881911016,7.907428744039731,-0.0012303352123126,0.1184292882680893,0,0,0
690,31267.29122750969,2011-01-31 19:32:17,1360.6644463863784,7,5,-1.099568486213684,2.958960771560669,1.950287810908407,2.315488920370165,8.031553881911016,7.93480777972967,-0.0015541076427325,0.1184292882680893,0,0,0
691,31297.30633566964,2011-01-31 19:32:47,1390.6795545212683,7,5,-1.099568486213684,2.8914544582366943,1.950287810908407,2.324656187097754,8.031553881911016,7.961635689814429,-0.0019750117789953,0.1184292882680893,0,0,0
692,31327.32423636945,2011-01-31 19:33:18,1420.6974552812394,7,5,-1.099568486213684,2.8040361404418945,1.950287810908407,2.333824358219725,8.031553881911016,7.987760763080795,-0.0025901794433593,0.1184292882680893,0,0,0
693,31355.72733089543,2011-01-31 19:33:46,1449.100549747062,7,5,-1.099568486213684,2.699781894683838,1.950287810908407,2.342499339060623,8.031553881911016,8.011648853621985,-0.0032052993774414,0.1184292882680893,0,0,0
694,31415.742532027503,2011-01-31 19:34:46,60.01475441909066,8,5,0.0,3.725166082382202,1.950287810908407,2.342499339060623,8.031553881911016,8.011648853621985,0.0008418083307333,0.1184292882680893,0,0,0
695,31415.92942107953,2011-01-31 19:34:46,0.187399391946081,9,5,-1.9243103452026844e-05,3.725166082382202,1.950287810908407,2.34249934006233,8.031553881911016,8.01164885735351,0.0,0.1197265535593032,0,0,0
696,31420.757416845525,2011-01-31 19:34:51,5.015395177982048,9,5,0.0007031940040178,3.729860782623291,1.950288691460345,2.342499340229933,8.031557164544969,8.011648857977859,0.0006799221155233,0.1197265535593032,0,0,0
