Data_Point,Test_Time(s),Date_Time,Step_Time(s),Step_Index,Cycle_Index,Current(A),Voltage(V),Charge_Capacity(Ah),Discharge_Capacity(Ah),Charge_Energy(Wh),Discharge_Energy(Wh),dV/dt(V/s),Internal_Resistance(Ohm),Is_FC_Data,AC_Impedance(Ohm),ACI_Phase_Angle(Deg)
3811,177256.2747867771,2011-02-02 12:05:56,30.015129222446717,1,31,0.0,3.775998115539551,11.337473724659178,11.649991971984822,46.80248977119593,39.50014070512642,0.0003885269106831,0.1207534819841384,0,0,0
3812,177286.29236841673,2011-02-02 12:06:26,60.032710872096615,1,31,0.0,3.789272785186768,11.337473724659178,11.649991971984822,46.80248977119593,39.50014070512642,0.0003237724304199,0.1207534819841384,0,0,0
3813,177316.305032781,2011-02-02 12:06:56,90.04537520628335,1,31,0.0,3.798985958099365,11.337473724659178,11.649991971984822,46.80248977119593,39.50014070512642,0.0001942634553415,0.1207534819841384,0,0,0
3814,177346.2732657636,2011-02-02 12:07:26,120.01360818385824,1,31,0.0,3.807404041290283,11.337473724659178,11.649991971984822,46.80248977119593,39.50014070512642,0.0002266406954731,0.1207534819841384,0,0,0
3815,177376.29224613114,2011-02-02 12:07:56,30.01711477104476,2,31,0.5497553944587708,3.9304370880126953,11.342059421139323,11.649991971984822,46.82043085626314,39.50014070512642,0.0007122993702068,0.1207534819841384,0,0,0
3816,177406.30552472128,2011-02-02 12:08:26,60.030393336083776,2,31,0.5499359965324402,3.95196795463562,11.3466444670309,11.649991971984822,46.838504766814005,39.50014070512642,0.0004856586456298,0.1207534819841384,0,0,0
3817,177436.32050903756,2011-02-02 12:08:56,90.04537767744225,2,31,0.5497553944587708,3.9673471450805664,11.351229775228203,11.649991971984822,46.8566623313794,39.50014070512642,0.0003561496851034,0.1207534819841384,0,0,0
3818,177466.33563254072,2011-02-02 12:09:26,120.06050115557235,2,31,0.5499359965324402,3.980621814727783,11.355815163270243,11.649991971984822,46.874885937902334,39.50014070512642,0.0003237724304199,0.1207534819841384,0,0,0
3819,177496.35074337735,2011-02-02 12:09:56,150.07561199219597,2,31,0.5499359965324402,3.99260139465332,11.360400386900508,11.649991971984822,46.8931662185439,39.50014070512642,0.0003237724304199,0.1207534819841384,0,0,0
3820,177526.3658512165,2011-02-02 12:10:26,180.09071984137387,2,31,0.5499359965324402,4.003447532653809,11.364985641128152,11.649991971984822,46.91149820583895,39.50014070512642,0.0002913475036621,0.1207534819841384,0,0,0
3821,177556.38096563204,2011-02-02 12:10:56,210.10583424187976,2,31,0.5499359965324402,4.012999057769775,11.369570882596385,11.649991971984822,46.92987724325334,39.50014070512642,0.0001942634553415,0.1207534819841384,0,0,0
3822,177586.3960492609,2011-02-02 12:11:26,240.1209178757056,2,31,0.5501165986061096,4.022388458251953,11.37415697926073,11.649991971984822,46.94830318146358,39.50014070512642,0.0002914428769145,0.1207534819841384,0,0,0
3823,177616.41136020623,2011-02-02 12:11:56,270.1362288511367,2,31,0.5501165986061096,4.030644416809082,11.378743328474329,11.649991971984822,46.96677022348966,39.50014070512642,0.0002265930233988,0.1207534819841384,0,0,0
3824,177646.42644884254,2011-02-02 12:12:26,300.1513175475801,2,31,0.5501165986061096,4.03841495513916,11.383329354263449,11.649991971984822,46.98527317261305,39.50014070512642,0.0001942634553415,0.1207534819841384,0,0,0
3825,177676.4415666716,2011-02-02 12:12:56,330.16643528139366,2,31,0.550297200679779,4.046023368835449,11.387915564644164,11.649991971984822,47.00381158553533,39.50014070512642,0.0002265930233988,0.1207534819841384,0,0,0
3826,177706.45666064115,2011-02-02 12:13:26,360.1815292610044,2,31,0.5501165986061096,4.052822589874268,11.392501843275014,11.649991971984822,47.02238305368828,39.50014070512642,0.0001942634553415,0.1207534819841384,0,0,0
3827,177736.47188396312,2011-02-02 12:13:56,390.196752603026,2,31,0.5501165986061096,4.059298038482666,11.397088118799648,11.649991971984822,47.04098541964639,39.50014070512642,0.0001618385285837,0.1207534819841384,0,0,0
3828,177766.4868141395,2011-02-02 12:14:26,420.21168275432615,2,31,0.5499359965324402,4.065288066864014,11.401673758926473,11.649991971984822,47.059613857493225,39.50014070512642,0.0001295089750783,0.1207534819841384,0,0,0
3829,177796.50190048007,2011-02-02 12:14:56,450.2267690948981,2,31,0.5499359965324402,4.071115970611572,11.406259147736996,11.649991971984822,47.07826875197164,39.50014070512642,9.71794142969884e-05,0.1207534819841384,0,0,0
3830,177826.51702417876,2011-02-02 12:15:26,480.2418927885653,2,31,0.5501165986061096,4.076781749725342,11.410844535172522,11.649991971984822,47.0969498941093,39.50014070512642,0.0001618385285837,0.1207534819841384,0,0,0
3831,177856.53535588278,2011-02-02 12:15:57,510.26022449258153,2,31,0.5499359965324402,4.08212423324585,11.415430458037726,11.649991971984822,47.11565844718329,39.50014070512642,0.0001295089750783,0.1207534819841384,0,0,0
3832,177886.54732432254,2011-02-02 12:16:27,540.2721929574478,2,31,0.5499359965324402,4.087466239929199,11.420015404678033,11.649991971984822,47.13438743672375,39.50014070512642,0.0001942634553415,0.1207534819841384,0,0,0
3833,177916.5625174493,2011-02-02 12:16:57,570.2873860941886,2,31,0.5497553944587708,4.092484951019287,11.424600887051946,11.649991971984822,47.15314229783343,39.50014070512642,9.71794142969884e-05,0.1207534819841384,0,0,0
3834,177946.5776264764,2011-02-02 12:17:27,600.3024951012524,2,31,0.5501165986061096,4.097665309906006,11.4291863460331,11.649991971984822,47.17192002228814,39.50014070512642,0.0001619339018361,0.1207534819841384,0,0,0
3835,177976.59466068668,2011-02-02 12:17:57,630.3195293365773,2,31,0.5499359965324402,4.102198123931885,11.433772146785936,11.649991971984822,47.19072155560691,39.50014070512642,9.71794142969884e-05,0.1207534819841384,0,0,0
3836,178006.607755614,2011-02-02 12:18:27,660.3326242238348,2,31,0.5499359965324402,4.107054710388184,11.438357317060609,11.649991971984822,47.20954243600501,39.50014070512642,9.71794142969884e-05,0.1207534819841384,0,0,0
3837,178036.62287251072,2011-02-02 12:18:57,690.3477411205621,2,31,0.5499359965324402,4.111911296844482,11.442942770761492,11.649991971984822,47.22838611324812,39.50014070512642,0.0001619339018361,0.1207534819841384,0,0,0
3838,178066.6379866857,2011-02-02 12:19:27,720.3628552955057,2,31,0.5499359965324402,4.116281986236572,11.447528258553172,11.649991971984822,47.24725118852654,39.50014070512642,9.71794142969884e-05,0.1207534819841384,0,0,0
3839,178096.65314495552,2011-02-02 12:19:57,750.3780136104599,2,31,0.5501165986061096,4.120976448059082,11.452113723852888,11.649991971984822,47.26613718320085,39.50014070512642,0.0001295089750783,0.1207534819841384,0,0,0
3840,178126.66826004276,2011-02-02 12:20:27,780.3931286776271,2,31,0.5497553944587708,4.125185489654541,11.456699144743771,11.649991971984822,47.28504367776496,39.50014070512642,6.47544875391759e-05,0.1207534819841384,0,0,0
3841,178156.6833184988,2011-02-02 12:20:57,810.4081871136525,2,31,0.5501165986061096,4.129880428314209,11.461284592970111,11.649991971984822,47.30397085435423,39.50014070512642,9.71794142969884e-05,0.1207534819841384,0,0,0
3842,178186.69862256202,2011-02-02 12:21:27,840.4234911818686,2,31,0.5497553944587708,4.134251117706299,11.46587012767788,11.649991971984822,47.32291895251368,39.50014070512642,9.70840483205393e-05,0.1207534819841384,0,0,0
3843,178216.71363369015,2011-02-02 12:21:57,870.438502299963,2,31,0.5499359965324402,4.138783931732178,11.470455521257108,11.649991971984822,47.34188685862575,39.50014070512642,9.70840483205393e-05,0.1207534819841384,0,0,0
3844,178246.72872757452,2011-02-02 12:22:27,900.4535961793239,2,31,0.5499359965324402,4.143316745758057,11.475041078665445,11.649991971984822,47.360875848251,39.50014070512642,0.0001295089750783,0.1207534819841384,0,0,0
3845,178276.74383997003,2011-02-02 12:22:57,930.4687085798452,2,31,0.5501165986061096,4.147849559783936,11.479626559232122,11.649991971984822,47.37988502021421,39.50014070512642,0.0001295089750783,0.1207534819841384,0,0,0
3846,178306.7589756636,2011-02-02 12:23:27,960.48384427342,2,31,0.5499359965324402,4.1520586013793945,11.484212021596704,11.649991971984822,47.39891432293842,39.50014070512642,0.0001295089750783,0.1207534819841384,0,0,0
3847,178336.7740893824,2011-02-02 12:23:57,990.4989579922268,2,31,0.5499359965324402,4.156429767608643,11.488797380496727,11.649991971984822,47.4179633497043,39.50014070512642,9.71794142969884e-05,0.1207534819841384,0,0,0
3848,178366.78941485396,2011-02-02 12:24:27,1020.5142834637868,2,31,0.5501165986061096,4.161124229431152,11.493382740942934,11.649991971984822,47.43703256165048,39.50014070512642,0.0001618385285837,0.1207534819841384,0,0,0
3849,178396.80432034883,2011-02-02 12:24:57,1050.529188963648,2,31,0.550297200679779,4.165333271026611,11.497968164623543,11.649991971984822,47.45612215651738,39.50014070512642,0.0001618385285837,0.1207534819841384,0,0,0
3850,178426.81945248853,2011-02-02 12:25:27,1080.5443211284278,2,31,0.5497553944587708,4.169704437255859,11.50255361808524,11.649991971984822,47.47523199662415,39.50014070512642,0.0001295089750783,0.1207534819841384,0,0,0
3851,178456.83456803692,2011-02-02 12:25:57,1110.5594366767943,2,31,0.5499359965324402,4.174075126647949,11.507139076819405,11.649991971984822,47.49436200590224,39.50014070512642,9.70840483205393e-05,0.1207534819841384,0,0,0
3852,178486.84968046748,2011-02-02 12:26:27,1140.5745490773156,2,31,0.5501165986061096,4.178607940673828,11.511724516847153,11.649991971984822,47.5135120500782,39.50014070512642,0.0001618385285837,0.1207534819841384,0,0,0
3853,178516.8648096298,2011-02-02 12:26:57,1170.589678244625,2,31,0.5499359965324402,4.182979106903076,11.51630996693934,11.649991971984822,47.53268240286887,39.50014070512642,0.0001619339018361,0.1207534819841384,0,0,0
3854,178546.87991103792,2011-02-02 12:27:27,1200.6047796527498,2,31,0.5501165986061096,4.187511920928955,11.52089540719946,11.649991971984822,47.55187299734862,39.50014070512642,0.0001295089750783,0.1207534819841384,0,0,0
3855,178576.89709820942,2011-02-02 12:27:57,1230.6219668292513,2,31,0.5501165986061096,4.191882610321045,11.525481193699653,11.649991971984822,47.57108542292283,39.50014070512642,0.0001295089750783,0.1207534819841384,0,0,0
3856,178606.9101586759,2011-02-02 12:28:27,1260.635027290709,2,31,0.5501165986061096,4.196253299713135,11.530066329145289,11.649991971984822,47.59031547637547,39.50014070512642,0.0001618385285837,0.1207534819841384,0,0,0
3857,178632.00348400863,2011-02-02 12:28:52,1285.7283526234614,2,31,0.5499359965324402,4.200138568878174,11.533899803855885,11.649991971984822,47.606408706346045,39.50014070512642,0.0001618385285837,0.1207534819841384,0,0,0
3858,178662.02652422403,2011-02-02 12:29:22,30.01514250053981,3,31,0.0,4.091351509094238,11.533899803855885,11.649991971984822,47.606408706346045,39.50014070512642,-0.0004532813909463,0.1207534819841384,0,0,0
3859,178692.04160089046,2011-02-02 12:29:52,60.030219172013325,3,31,0.0,4.07921028137207,11.533899803855885,11.649991971984822,47.606408706346045,39.50014070512642,-0.0002913475036621,0.1207534819841384,0,0,0
3860,178722.05616010228,2011-02-02 12:30:22,90.04477837880565,3,31,0.0,4.071601390838623,11.533899803855885,11.649991971984822,47.606408706346045,39.50014070512642,-0.0002266883820993,0.1207534819841384,0,0,0
3861,178752.02509382632,2011-02-02 12:30:52,120.0137121329313,3,31,0.0,4.066421031951904,11.533899803855885,11.649991971984822,47.606408706346045,39.50014070512642,-0.0001295089750783,0.1207534819841384,0,0,0
3862,178782.0288018546,2011-02-02 12:31:22,30.01525489566304,5,31,0.0,4.062374114990234,11.533899803856002,11.649991971984822,47.60640870634653,39.50014070512642,-9.70840483205393e-05,0.1207534819841384,0,0,0
3863,178812.0281895443,2011-02-02 12:31:52,60.01464258536661,5,31,0.0,4.059621810913086,11.533899803856002,11.649991971984822,47.60640870634653,39.50014070512642,-3.24249267578125e-05,0.1207534819841384,0,0,0
3864,178812.21097263423,2011-02-02 12:31:53,0.187496398716802,6,31,-1.9243103452026844e-05,4.059460163116455,11.533899803856002,11.649991972987047,47.60640870634653,39.50014070919491,0.0,0.1206444054841995,0,0,0
3865,178817.03905204366,2011-02-02 12:31:58,5.01557580816805,6,31,0.0005225847125984,4.059136390686035,11.533900493311432,11.649991973153886,47.606411505123546,39.50014070987218,-9.70840483205393e-05,0.1206444054841995,0,0,0
3866,178829.2373746337,2011-02-02 12:32:10,12.203001755143587,7,31,-1.099568486213684,3.8590455055236816,11.533900493311432,11.653719348299392,47.606411505123546,39.514588567560274,-0.0020073889754712,0.1206444054841995,0,0,0
3867,178859.25250651778,2011-02-02 12:32:40,42.21813362919893,7,31,-1.099929690361023,3.787330150604248,11.533900493311432,11.662887296338829,47.606411505123546,39.54964166287239,-0.0019750117789953,0.1206444054841995,0,0,0
3868,178889.26707068694,2011-02-02 12:33:10,72.23269738232209,7,31,-1.099568486213684,3.7105963230133057,11.533900493311432,11.672055063191223,47.606411505123546,39.58401417911073,-0.0020397664047777,0.1206444054841995,0,0,0
3869,178919.26715099285,2011-02-02 12:33:40,102.23277806918784,7,31,-1.099568486213684,3.6406617164611816,11.533900493311432,11.681218409128492,47.606411505123546,39.6176837461524,-0.0017159938579425,0.1206444054841995,0,0,0
3870,178949.28147868265,2011-02-02 12:34:10,132.24710545821895,7,31,-1.099568486213684,3.586753845214844,11.533900493311432,11.690347940965289,47.606411505123546,39.65066425959243,-0.0013597965007647,0.1206444054841995,0,0,0
3871,178979.28162947422,2011-02-02 12:34:40,162.24725643526943,7,31,-1.099568486213684,3.5453109741210938,11.533900493311432,11.699549488097986,47.606411505123546,39.68346990945907,-0.0010360718006268,0.1206444054841995,0,0,0
3872,179009.2963037077,2011-02-02 12:35:10,192.26193037300652,7,31,-1.0997490882873535,3.512771844863892,11.533900493311432,11.708717305535924,47.606411505123546,39.715818905456366,-0.0007770538213662,0.1206444054841995,0,0,0
3873,179039.3114100932,2011-02-02 12:35:40,222.2770367535242,7,31,-1.0992072820663452,3.486546516418457,11.533900493311432,11.717885216766572,47.606411505123546,39.74789915168624,-0.0006151676061563,0.1206444054841995,0,0,0
3874,179069.31153693513,2011-02-02 12:36:10,252.27716390118448,7,31,-1.0997490882873535,3.4638824462890625,11.533900493311432,11.727048573211809,47.606411505123546,39.7797399801105,-0.0005827903514727,0.1206444054841995,0,0,0
3875,179099.3265058781,2011-02-02 12:36:40,282.29213283915294,7,31,-1.099568486213684,3.444456100463867,11.533900493311432,11.73621643738881,47.606411505123546,39.81140615690446,-0.0004856586456298,0.1206444054841995,0,0,0
3876,179129.34171698964,2011-02-02 12:37:10,312.30734396573,7,31,-1.099568486213684,3.4272964000701904,11.533900493311432,11.745384362610489,47.606411505123546,39.84290516208306,-0.0004532813909463,0.1206444054841995,0,0,0
3877,179159.35690879307,2011-02-02 12:37:40,342.3225357791727,7,31,-1.0997490882873535,3.4114315509796143,11.533900493311432,11.7545523054791,47.606411505123546,39.87425265950196,-0.0004209041653666,0.1206444054841995,0,0,0
3878,179189.3718282126,2011-02-02 12:38:10,372.3374551736636,7,31,-1.0997490882873535,3.396699905395508,11.533900493311432,11.763720072584904,47.606411505123546,39.90545990609909,-0.0003885269106831,0.1206444054841995,0,0,0
3879,179219.38697260787,2011-02-02 12:38:40,402.3525995689256,7,31,-1.099568486213684,3.3822920322418213,11.533900493311432,11.772887927937148,47.606411505123546,39.936534890701815,-0.0003561496851034,0.1206444054841995,0,0,0
3880,179249.4020742566,2011-02-02 12:39:10,432.3677012226626,7,31,-1.0997490882873535,3.367398500442505,11.533900493311432,11.782055765037487,47.606411505123546,39.96747669799565,-0.0004209041653666,0.1206444054841995,0,0,0
3881,179279.41718541403,2011-02-02 12:39:40,462.38281238008574,7,31,-1.0997490882873535,3.352181196212769,11.533900493311432,11.791223616799504,47.606411505123546,39.99828061844416,-0.0004532813909463,0.1206444054841995,0,0,0
3882,179309.4323241953,2011-02-02 12:40:10,492.39795115634354,7,31,-1.099568486213684,3.335992813110352,11.533900493311432,11.800391467211853,47.606411505123546,40.02893998469954,-0.0004532813909463,0.1206444054841995,0,0,0
3883,179339.4474437737,2011-02-02 12:40:40,522.4130707497918,7,31,-1.099568486213684,3.318347215652466,11.533900493311432,11.809559266866374,47.606411505123546,40.05944438183487,-0.0005180359003134,0.1206444054841995,0,0,0
3884,179369.4648350489,2011-02-02 12:41:10,552.4304620349949,7,31,-1.0993878841400146,3.2989208698272705,11.533900493311432,11.81872778912695,47.606411505123546,40.08978092585485,-0.0005180359003134,0.1206444054841995,0,0,0
3885,179399.477609698,2011-02-02 12:41:40,582.4432366590579,7,31,-1.0993878841400146,3.277066230773926,11.533900493311432,11.827894907778887,47.606411505123546,40.11992386056328,-0.0005827903514727,0.1206444054841995,0,0,0
3886,179429.49303767004,2011-02-02 12:42:10,612.4586646461181,7,31,-1.0997490882873535,3.252297878265381,11.533900493311432,11.837062778554772,47.606411505123546,40.14985634383363,-0.0007122993702068,0.1206444054841995,0,0,0
3887,179459.5079601422,2011-02-02 12:42:40,642.4735871483543,7,31,-1.099568486213684,3.2236440181732178,11.533900493311432,11.846230500259416,47.606411505123546,40.17954437748588,-0.0008418083307333,0.1206444054841995,0,0,0
3888,179489.52302804682,2011-02-02 12:43:10,672.4886550078658,7,31,-1.0993878841400146,3.189971923828125,11.533900493311432,11.855398282454969,47.606411505123546,40.208948291733485,-0.0009712696191854,0.1206444054841995,0,0,0
3889,179519.53808633747,2011-02-02 12:43:40,702.5037132985287,7,31,-1.099568486213684,3.148367166519165,11.533900493311432,11.864566121258786,47.606411505123546,40.23800968522912,-0.0011979580158367,0.1206444054841995,0,0,0
3890,179549.5534032828,2011-02-02 12:44:10,732.5190302438384,7,31,-1.0997490882873535,3.0967257022857666,11.533900493311432,11.873734033328873,47.606411505123546,40.26664678720263,-0.0015541076427325,0.1206444054841995,0,0,0
3891,179579.56839666667,2011-02-02 12:44:40,762.5340236327462,7,31,-1.099929690361023,3.029542922973633,11.533900493311432,11.882901839684669,47.606411505123546,40.2947450056564,-0.0020721436012536,0.1206444054841995,0,0,0
3892,179609.58365709113,2011-02-02 12:45:10,792.5492840521762,7,31,-1.0993878841400146,2.9359731674194336,11.533900493311432,11.892069704541004,47.606411505123546,40.32211662032998,-0.0028815269470214,0.1206444054841995,0,0,0
3893,179639.59878178226,2011-02-02 12:45:40,822.5644087433296,7,31,-1.0997490882873535,2.7993414402008057,11.533900493311432,11.90123757315886,47.606411505123546,40.3484485878968,-0.0043061734177172,0.1206444054841995,0,0,0
3894,179656.1764765284,2011-02-02 12:45:57,839.1421034944785,7,31,-1.099568486213684,2.699781894683838,11.533900493311432,11.906301106298692,47.606411505123546,40.36237883627355,-0.0051155565306544,0.1206444054841995,0,0,0
3895,179716.18500086007,2011-02-02 12:46:57,60.014618635676605,8,31,0.0,3.742002248764038,11.533900493311432,11.906301106298692,47.606411505123546,40.36237883627355,0.0007770538213662,0.1206444054841995,0,0,0
3896,179716.3692284187,2011-02-02 12:46:57,0.189320239288689,9,31,-1.9243103452026844e-05,3.742326021194458,11.533900493311432,11.906301107310666,47.606411505123546,40.362378840060686,0.0,0.126198261976242,0,0,0
3897,179721.19535954745,2011-02-02 12:47:02,5.015451337949967,9,31,0.0001613661734154,3.747182607650757,11.533901211004048,11.9063011073959,47.60641419304334,40.36237884037991,0.0006799221155233,0.126198261976242,0,0,0
