Data_Point,Test_Time(s),Date_Time,Step_Time(s),Step_Index,Cycle_Index,Current(A),Voltage(V),Charge_Capacity(Ah),Discharge_Capacity(Ah),Charge_Energy(Wh),Discharge_Energy(Wh),dV/dt(V/s),Internal_Resistance(Ohm),Is_FC_Data,AC_Impedance(Ohm),ACI_Phase_Angle(Deg)
5041,237197.81299337276,2011-02-03 04:45:11,30.0152279635399,1,42,0.0,3.791539192199707,15.02113386536334,15.299793528419022,62.05278587791532,51.7846684635269,0.0003885269106831,0.1222637891769409,0,0,0
5042,237227.8279666816,2011-02-03 04:45:41,60.03020129746445,1,42,0.0,3.804975748062134,15.02113386536334,15.299793528419022,62.05278587791532,51.7846684635269,0.0003561496851034,0.1222637891769409,0,0,0
5043,237257.84308444048,2011-02-03 04:46:11,90.04531905132792,1,42,0.0,3.815174579620361,15.02113386536334,15.299793528419022,62.05278587791532,51.7846684635269,0.0002266406954731,0.1222637891769409,0,0,0
5044,237287.8113219644,2011-02-03 04:46:41,120.0135565551837,1,42,0.0,3.823430776596069,15.02113386536334,15.299793528419022,62.05278587791532,51.7846684635269,0.0002266406954731,0.1222637891769409,0,0,0
5045,237317.82547225748,2011-02-03 04:47:11,30.015113533344643,2,42,0.5501165986061096,3.948568344116211,15.025720022536758,15.299793528419022,62.07080944382541,51.7846684635269,0.0007446765666827,0.1222637891769409,0,0,0
5046,237347.8406302917,2011-02-03 04:47:41,60.03027161271168,2,42,0.5499359965324402,3.9709086418151855,15.030305613598436,15.299793528419022,62.08897062858304,51.7846684635269,0.0005180359003134,0.1222637891769409,0,0,0
5047,237377.8557264367,2011-02-03 04:48:11,90.0453677126068,2,42,0.5499359965324402,3.9874210357666016,15.034891138206875,15.299793528419022,62.10721896302869,51.7846684635269,0.0003561496851034,0.1222637891769409,0,0,0
5048,237407.870836336,2011-02-03 04:48:41,120.06047761189426,2,42,0.5499359965324402,4.001667022705078,15.039476513611335,15.299793528419022,62.125536546764856,51.7846684635269,0.0003561973571777,0.1222637891769409,0,0,0
5049,237437.8859291477,2011-02-03 04:49:11,150.07557042359417,2,42,0.5499359965324402,4.014294147491455,15.044061882777989,15.299793528419022,62.14391509942058,51.7846684635269,0.0003237724304199,0.1222637891769409,0,0,0
5050,237467.90103666103,2011-02-03 04:49:41,180.09067794194763,2,42,0.5497553944587708,4.025626182556152,15.048647268431502,15.299793528419022,62.16234871523772,51.7846684635269,0.0002590179501567,0.1222637891769409,0,0,0
5051,237497.91616565792,2011-02-03 04:50:11,210.10580693381968,2,42,0.5501165986061096,4.036310195922852,15.053232572246069,15.299793528419022,62.18083213582982,51.7846684635269,0.0002913475036621,0.1222637891769409,0,0,0
5052,237527.93127211864,2011-02-03 04:50:41,240.1209134195996,2,42,0.5499359965324402,4.045861721038818,15.057817892140582,15.299793528419022,62.199361476222194,51.7846684635269,0.0002914428769145,0.1222637891769409,0,0,0
5053,237557.93275596763,2011-02-03 04:51:11,270.1223972535396,2,42,0.5499359965324402,4.054441452026367,15.062401151591551,15.299793528419022,62.21792460748805,51.7846684635269,0.0001942634553415,0.1222637891769409,0,0,0
5054,237587.9458842832,2011-02-03 04:51:41,300.13552555407324,2,42,0.5501165986061096,4.062859535217285,15.066986244660066,15.299793528419022,62.23653398079859,51.7846684635269,0.0002590179501567,0.1222637891769409,0,0,0
5055,237617.9610000922,2011-02-03 04:52:11,330.1506413931645,2,42,0.5499359965324402,4.070306301116943,15.071571513430168,15.299793528419022,62.25518004645699,51.7846684635269,0.0001618385285837,0.1222637891769409,0,0,0
5056,237647.976116192,2011-02-03 04:52:41,360.165757467843,2,42,0.5499359965324402,4.077267646789551,15.076156875604058,15.299793528419022,62.273860194765454,51.7846684635269,0.0001619339018361,0.1222637891769409,0,0,0
5057,237677.99145515217,2011-02-03 04:53:11,390.18109643303313,2,42,0.5499359965324402,4.084066867828369,15.080742273503402,15.299793528419022,62.29257211960794,51.7846684635269,0.0001619339018361,0.1222637891769409,0,0,0
5058,237708.0064579495,2011-02-03 04:53:41,420.19609925043954,2,42,0.5501165986061096,4.090542316436768,15.085327557630102,15.299793528419022,62.311313479765495,51.7846684635269,0.0001942634553415,0.1222637891769409,0,0,0
5059,237738.02168278524,2011-02-03 04:54:11,450.2113241012215,2,42,0.5497553944587708,4.096370220184326,15.089912907819024,15.299793528419022,62.33008354099839,51.7846684635269,9.71794142969884e-05,0.1222637891769409,0,0,0
5060,237768.0366013577,2011-02-03 04:54:41,480.2262426335636,2,42,0.5499359965324402,4.102198123931885,15.094498189397576,15.299793528419022,62.34888050209132,51.7846684635269,0.0001295089750783,0.1222637891769409,0,0,0
5061,237798.05167293648,2011-02-03 04:55:11,510.2413142123447,2,42,0.5499359965324402,4.107863903045654,15.0990834449154,15.299793528419022,62.36770353790713,51.7846684635269,0.0001295089750783,0.1222637891769409,0,0,0
5062,237828.0667757581,2011-02-03 04:55:41,540.2564170339923,2,42,0.5499359965324402,4.113530158996582,15.10366873812797,15.299793528419022,62.386552068367344,51.7846684635269,0.0002266883820993,0.1222637891769409,0,0,0
5063,237858.08190051443,2011-02-03 04:56:11,570.2715417903082,2,42,0.5499359965324402,4.118548393249512,15.108254099518648,15.299793528419022,62.40542548878694,51.7846684635269,9.71794142969884e-05,0.1222637891769409,0,0,0
5064,237888.09704031324,2011-02-03 04:56:41,600.2866816041518,2,42,0.5501165986061096,4.123890399932861,15.112839419987129,15.299793528419022,62.42432275714325,51.7846684635269,0.0001295089750783,0.1222637891769409,0,0,0
5065,237918.1122501115,2011-02-03 04:57:11,630.3018913974058,2,42,0.5501165986061096,4.128909111022949,15.117424776567503,15.299793528419022,62.44324365027594,51.7846684635269,0.0001295089750783,0.1222637891769409,0,0,0
5066,237948.1273587276,2011-02-03 04:57:41,660.3170000285327,2,42,0.5497553944587708,4.133927345275879,15.122010134603824,15.299793528419022,62.46218772618257,51.7846684635269,0.0001295089750783,0.1222637891769409,0,0,0
5067,237978.14237863256,2011-02-03 04:58:11,690.3320199184892,2,42,0.5501165986061096,4.138783931732178,15.12659547226921,15.299793528419022,62.481154448107695,51.7846684635269,9.70840483205393e-05,0.1222637891769409,0,0,0
5068,238008.1574686824,2011-02-03 04:58:41,720.3471099582807,2,42,0.5501165986061096,4.143640518188477,15.131180833369337,15.299793528419022,62.50014362339032,51.7846684635269,0.0001295089750783,0.1222637891769409,0,0,0
5069,238038.17270310703,2011-02-03 04:59:11,750.3623443879361,2,42,0.550297200679779,4.1486592292785645,15.135766194941782,15.299793528419022,62.51915526093139,51.7846684635269,0.0001295089750783,0.1222637891769409,0,0,0
5070,238068.1878185201,2011-02-03 04:59:41,780.377459816003,2,42,0.5497553944587708,4.153192043304443,15.140351487267866,15.299793528419022,62.53818860221037,51.7846684635269,9.71794142969884e-05,0.1222637891769409,0,0,0
5071,238098.20285557784,2011-02-03 05:00:11,810.3924968737468,2,42,0.5499359965324402,4.157886505126953,15.144936767134013,15.299793528419022,62.55724347271225,51.7846684635269,6.47544875391759e-05,0.1222637891769409,0,0,0
5072,238128.22048043515,2011-02-03 05:00:41,840.4101218313336,2,42,0.5499359965324402,4.162743091583252,15.149522395857206,15.299793528419022,62.57632141860242,51.7846684635269,9.70840483205393e-05,0.1222637891769409,0,0,0
5073,238158.23492069048,2011-02-03 05:01:11,870.4245620214997,2,42,0.5499359965324402,4.167275905609131,15.15410757106036,15.299793528419022,62.59541892170396,51.7846684635269,9.70840483205393e-05,0.1222637891769409,0,0,0
5074,238188.2483210741,2011-02-03 05:01:41,900.4379623600357,2,42,0.5499359965324402,4.17213249206543,15.158692503947275,15.299793528419022,62.61453692657692,51.7846684635269,0.0001295089750783,0.1222637891769409,0,0,0
5075,238218.2632866587,2011-02-03 05:02:11,930.452927939634,2,42,0.5501165986061096,4.176827430725098,15.16327778087992,15.299793528419022,62.633677842586245,51.7846684635269,0.0001619339018361,0.1222637891769409,0,0,0
5076,238248.27853862208,2011-02-03 05:02:41,960.4681799080016,2,42,0.5497553944587708,4.181521892547607,15.167863064570772,15.299793528419022,62.65284019966074,51.7846684635269,0.0001618385285837,0.1222637891769409,0,0,0
5077,238278.29351253243,2011-02-03 05:03:11,990.4831538133502,2,42,0.5499359965324402,4.186054706573486,15.172448403119075,15.299793528419022,62.67202424059442,51.7846684635269,0.0001618385285837,0.1222637891769409,0,0,0
5078,238308.3086190934,2011-02-03 05:03:41,1020.4982603642924,2,42,0.5499359965324402,4.190911293029785,15.177033676806833,15.299793528419022,62.69122955472552,51.7846684635269,0.0001295089750783,0.1222637891769409,0,0,0
5079,238338.3237378047,2011-02-03 05:04:11,1050.5133790855673,2,42,0.5501165986061096,4.195444107055664,15.181618942306608,15.299793528419022,62.71045633533235,51.7846684635269,0.0001295089750783,0.1222637891769409,0,0,0
5080,238365.60453542645,2011-02-03 05:04:39,1077.794176707332,2,42,0.5501165986061096,4.200138568878174,15.185786537703594,15.299793528419022,62.72795038497573,51.7846684635269,0.0002265930233988,0.1222637891769409,0,0,0
5081,238395.61937009497,2011-02-03 05:05:09,30.0131003408495,3,42,0.0,4.091351509094238,15.185786537703594,15.299793528419022,62.72795038497573,51.7846684635269,-0.0003885269106831,0.1222637891769409,0,0,0
5082,238425.63447918725,2011-02-03 05:05:39,60.02820943813813,3,42,0.0,4.07953405380249,15.185786537703594,15.299793528419022,62.72795038497573,51.7846684635269,-0.0002265930233988,0.1222637891769409,0,0,0
5083,238455.64974770683,2011-02-03 05:06:09,90.04347797780622,3,42,0.0,4.072087287902832,15.185786537703594,15.299793528419022,62.72795038497573,51.7846684635269,-0.0001618385285837,0.1222637891769409,0,0,0
5084,238485.61786405373,2011-02-03 05:06:39,120.0115943046516,3,42,0.0,4.066744804382324,15.185786537703594,15.299793528419022,62.72795038497573,51.7846684635269,-0.0001295089750783,0.1222637891769409,0,0,0
5085,238485.6216310568,2011-02-03 05:06:39,2.651608625e-06,4,42,0.9344531297683716,4.199653148651123,15.185786538391874,15.299793528419022,62.72795038786626,51.7846684635269,0.0,0.1222637891769409,0,0,0
5086,238486.4966114371,2011-02-03 05:06:40,0.874983011891175,4,42,0.8842437863349915,4.199653148651123,15.186005746391608,15.299793528419022,62.72887100632247,51.7846684635269,0.0,0.1222637891769409,0,0,0
5087,238488.94973259483,2011-02-03 05:06:42,3.328104174635245,4,42,0.834214985370636,4.199814796447754,15.186589713129695,15.299793528419022,62.73132350568272,51.7846684635269,3.23295607813634e-05,0.1222637891769409,0,0,0
5088,238492.92078771105,2011-02-03 05:06:46,7.299159290847959,4,42,0.7841862440109253,4.199653148651123,15.18748050935095,15.299793528419022,62.73506460378916,51.7846684635269,0.0,0.1222637891769409,0,0,0
5089,238498.5276553203,2011-02-03 05:06:52,12.906026895107807,4,42,0.7341574430465698,4.199653148651123,15.18866078836908,15.299793528419022,62.74002146106977,51.7846684635269,0.0,0.1222637891769409,0,0,0
5090,238506.2931902377,2011-02-03 05:07:00,20.6715618476048,4,42,0.6841287016868591,4.199653148651123,15.190188188216428,15.299793528419022,62.74643617014216,51.7846684635269,-3.23295607813634e-05,0.1222637891769409,0,0,0
5091,238517.2773612416,2011-02-03 05:07:11,31.65573281640396,4,42,0.6339192986488342,4.199814796447754,15.1921951672517,15.299793528419022,62.75486497518819,51.7846684635269,0.0,0.1222637891769409,0,0,0
5092,238533.1834517032,2011-02-03 05:07:27,47.561823308090936,4,42,0.5838905572891235,4.199653148651123,15.194879062756662,15.299793528419022,62.76613668464332,51.7846684635269,0.0,0.1222637891769409,0,0,0
5093,238559.2922851797,2011-02-03 05:07:53,73.67065688485147,4,42,0.5338617563247681,4.199653148651123,15.198918499238443,15.299793528419022,62.78310134269913,51.7846684635269,-3.23295607813634e-05,0.1222637891769409,0,0,0
5094,238605.52596226372,2011-02-03 05:08:39,119.90433383856688,4,42,0.4838330149650574,4.199653148651123,15.20542433681972,15.299793528419022,62.81042428709623,51.7846684635269,-3.23295607813634e-05,0.1222637891769409,0,0,0
5095,238685.6026174976,2011-02-03 05:09:59,199.9809890723804,4,42,0.4338042438030243,4.199653148651123,15.215590630828816,15.299793528419022,62.85312022347448,51.7846684635269,0.0,0.1222637891769409,0,0,0
5096,238798.7570162159,2011-02-03 05:11:52,313.13538781578706,4,42,0.3837754726409912,4.199653148651123,15.228409353960386,15.299793528419022,62.90695571113169,51.7846684635269,-3.23295607813634e-05,0.1222637891769409,0,0,0
5097,238943.03569403948,2011-02-03 05:14:16,457.4140656092878,4,42,0.3335660994052887,4.199814796447754,15.242759945578834,15.299793528419022,62.96722480940036,51.7846684635269,0.0,0.1222637891769409,0,0,0
5098,239121.95462188465,2011-02-03 05:17:15,636.3329934845307,4,42,0.2835373282432556,4.199653148651123,15.258065443368826,15.299793528419022,63.03150424576096,51.7846684635269,-3.23295607813634e-05,0.1222637891769409,0,0,0
5099,239346.1850600305,2011-02-03 05:21:00,860.5634316153338,4,42,0.2335085570812225,4.199653148651123,15.274123124262305,15.299793528419022,63.09894274574986,51.7846684635269,0.0,0.1222637891769409,0,0,0
5100,239635.9457594155,2011-02-03 05:25:49,1150.324130985302,4,42,0.1834797859191894,4.199814796447754,15.290829752793792,15.299793528419022,63.16910668495642,51.7846684635269,3.23295607813634e-05,0.1222637891769409,0,0,0
5101,240033.18899174416,2011-02-03 05:32:27,1547.567363308939,4,42,0.1334510147571563,4.199814796447754,15.30817644472334,15.299793528419022,63.24195873440412,51.7846684635269,0.0,0.1222637891769409,0,0,0
5102,240656.30334025816,2011-02-03 05:42:50,2170.6817118279405,4,42,0.0834222435951232,4.199653148651123,15.326608862036196,15.299793528419022,63.319370578208016,51.7846684635269,-3.23295607813634e-05,0.1222637891769409,0,0,0
5103,241437.3837776155,2011-02-03 05:55:51,2951.7621491953023,4,42,0.0498289167881011,4.199653148651123,15.340753131023805,15.299793528419022,63.37877323021572,51.7846684635269,0.0,0.1222637891769409,0,0,0
5104,241467.40616210407,2011-02-03 05:56:21,30.015110596023938,5,42,0.0,4.188644886016846,15.340753131023805,15.299793528419022,63.37877323021572,51.7846684635269,-9.71794142969884e-05,0.1222637891769409,0,0,0
5105,241497.4056360688,2011-02-03 05:56:51,60.014584550726426,5,42,0.0,4.186864376068115,15.340753131023805,15.299793528419022,63.37877323021572,51.7846684635269,-9.70840483205393e-05,0.1222637891769409,0,0,0
5106,241497.58583146497,2011-02-03 05:56:51,0.187494769656683,6,42,-1.9243103452026844e-05,4.186864376068115,15.340753134724894,15.299793528419022,63.37877324571198,51.7846684635269,-3.23295607813634e-05,0.1230734884738922,0,0,0
5107,241502.41374343712,2011-02-03 05:56:56,5.015406731777662,6,42,0.0005225847125984,4.187026023864746,15.340753852984864,15.299793528669031,63.37877625313756,51.78466846457367,-3.24249267578125e-05,0.1230734884738922,0,0,0
5108,241509.00014645612,2011-02-03 05:57:03,6.593611508683179,7,42,-1.0997490882873535,3.9867734909057617,15.340753852984864,15.3018074039116,63.37877625313756,51.792721144314186,-0.0026549338363111,0.1230734884738922,0,0,0
5109,241539.01525745323,2011-02-03 05:57:33,36.60872250069403,7,42,-1.099568486213684,3.9124679565429688,15.340753852984864,15.31097476761414,63.37877625313756,51.82892604088304,-0.0020073414780199,0.1230734884738922,0,0,0
5110,241569.03036520217,2011-02-03 05:58:03,66.62383025463463,7,42,-1.0993878841400146,3.832658290863037,15.340753852984864,15.32014221233804,63.37877625313756,51.86443900085066,-0.0022663592826575,0.1230734884738922,0,0,0
5111,241599.04583790564,2011-02-03 05:58:33,96.63930301327925,7,42,-1.0997490882873535,3.746049404144287,15.340753852984864,15.329309693110286,63.37877625313756,51.8991726767657,-0.0022016048897057,0.1230734884738922,0,0,0
5112,241629.06060384263,2011-02-03 05:59:03,126.654068900182,7,42,-1.099568486213684,3.6730387210845943,15.340753852984864,15.33847697076216,63.37877625313756,51.933166160734686,-0.0017807483673095,0.1230734884738922,0,0,0
5113,241659.0757032809,2011-02-03 05:59:33,156.6691683383972,7,42,-1.099568486213684,3.617673873901367,15.340753852984864,15.347644201914598,63.37877625313756,51.96657256153542,-0.0012950897216796,0.1230734884738922,0,0,0
5114,241689.09082419265,2011-02-03 06:00:03,186.68428924511852,7,42,-1.099568486213684,3.5752599239349365,15.340753852984864,15.356810829879446,63.37877625313756,51.9995318708124,-0.0010036944877356,0.1230734884738922,0,0,0
5115,241719.10599379076,2011-02-03 06:00:33,216.6994588532188,7,42,-1.099568486213684,3.5411019325256348,15.340753852984864,15.36597757904031,63.37877625313756,52.03214391612921,-0.0008094310760498,0.1230734884738922,0,0,0
5116,241749.1230744066,2011-02-03 06:01:03,246.7165394992134,7,42,-1.099568486213684,3.5126099586486816,15.340753852984864,15.375145675803752,63.37877625313756,52.064474632814886,-0.0007122993702068,0.1230734884738922,0,0,0
5117,241779.1363046713,2011-02-03 06:01:33,276.7297697337981,7,42,-1.099568486213684,3.4880034923553467,15.340753852984864,15.384312601158175,63.37877625313756,52.09655922096787,-0.0006475448608398,0.1230734884738922,0,0,0
5118,241809.15142167828,2011-02-03 06:02:03,306.7448867558376,7,42,-1.099568486213684,3.466310739517212,15.340753852984864,15.393480043327909,63.37877625313756,52.12843467809955,-0.0005504131549969,0.1230734884738922,0,0,0
5119,241839.1664256436,2011-02-03 06:02:33,336.7598906960425,7,42,-1.099568486213684,3.4468843936920166,15.340753852984864,15.402647465293528,63.37877625313756,52.16012188766666,-0.0004856586456298,0.1230734884738922,0,0,0
5120,241869.1816381436,2011-02-03 06:03:03,366.7751032160924,7,42,-1.099568486213684,3.4290771484375,15.340753852984864,15.411815015538224,63.37877625313756,52.19163864186351,-0.0004532813909463,0.1230734884738922,0,0,0
5121,241899.19662082577,2011-02-03 06:03:33,396.7900858832783,7,42,-1.099568486213684,3.412564754486084,15.340753852984864,15.420982472033064,63.37877625313756,52.22299794217569,-0.0003885269106831,0.1230734884738922,0,0,0
5122,241929.2117729804,2011-02-03 06:04:03,426.8052380378791,7,42,-1.0993878841400146,3.3968617916107178,15.340753852984864,15.43014992351254,63.37877625313756,52.2542094560484,-0.0003885269106831,0.1230734884738922,0,0,0
5123,241959.2268660377,2011-02-03 06:04:33,456.82033108516606,7,42,-1.099568486213684,3.381644487380981,15.340753852984864,15.439317344290224,63.37877625313756,52.28528025060495,-0.0003885269106831,0.1230734884738922,0,0,0
5124,241989.2419647541,2011-02-03 06:05:03,486.8354298065949,7,42,-1.099568486213684,3.366750955581665,15.340753852984864,15.448484866422575,63.37877625313756,52.31621405985948,-0.0003561496851034,0.1230734884738922,0,0,0
5125,242019.2570764579,2011-02-03 06:05:33,516.8505415153921,7,42,-1.099568486213684,3.3516955375671387,15.340753852984864,15.4576523171847,63.37877625313756,52.34701010379864,-0.0004209041653666,0.1230734884738922,0,0,0
5126,242049.2722281413,2011-02-03 06:06:03,546.8656931988186,7,42,-1.099568486213684,3.3363165855407715,15.340753852984864,15.466819877696024,63.37877625313756,52.377666926558405,-0.0004532813909463,0.1230734884738922,0,0,0
5127,242079.28731922872,2011-02-03 06:06:33,576.8807843112835,7,42,-1.099568486213684,3.3206136226654053,15.340753852984864,15.475987409769704,63.37877625313756,52.408181897010095,-0.0004209041653666,0.1230734884738922,0,0,0
5128,242109.3026400938,2011-02-03 06:07:03,606.8961052715999,7,42,-1.0997490882873535,3.30361557006836,15.340753852984864,15.485154906525,63.37877625313756,52.43854530899085,-0.0004209041653666,0.1230734884738922,0,0,0
5129,242139.31753195467,2011-02-03 06:07:33,636.9109970121688,7,42,-1.0993878841400146,3.285808086395264,15.340753852984864,15.494322279863503,63.37877625313756,52.46875072079703,-0.0005504131549969,0.1230734884738922,0,0,0
5130,242169.3330422819,2011-02-03 06:08:03,666.926507339446,7,42,-1.0993878841400146,3.2667057514190674,15.340753852984864,15.503489885041464,63.37877625313756,52.49878808703875,-0.0005504131549969,0.1230734884738922,0,0,0
5131,242199.347771317,2011-02-03 06:08:33,696.9412363795152,7,42,-1.099568486213684,3.2461462020874023,15.340753852984864,15.512657275536483,63.37877625313756,52.52864298069262,-0.0006151676061563,0.1230734884738922,0,0,0
5132,242229.36300365144,2011-02-03 06:09:03,726.9564687339986,7,42,-1.0997490882873535,3.2236440181732178,15.340753852984864,15.521824784798484,63.37877625313756,52.55830091941476,-0.0006475448608398,0.1230734884738922,0,0,0
5133,242259.3780025591,2011-02-03 06:09:33,756.9714676165983,7,42,-1.099568486213684,3.199684858322144,15.340753852984864,15.530992222495088,63.37877625313756,52.58774516829323,-0.0006475448608398,0.1230734884738922,0,0,0
5134,242289.3931013958,2011-02-03 06:10:03,786.9865664583269,7,42,-1.099568486213684,3.172973871231079,15.340753852984864,15.540159755835704,63.37877625313756,52.61695755806976,-0.0007122993702068,0.1230734884738922,0,0,0
5135,242319.40823354057,2011-02-03 06:10:33,817.0016985930318,7,42,-1.0997490882873535,3.1431868076324463,15.340753852984864,15.549327225323916,63.37877625313756,52.645912306193054,-0.0008418083307333,0.1230734884738922,0,0,0
5136,242349.4233595399,2011-02-03 06:11:03,847.0168246225207,7,42,-1.099568486213684,3.110323905944824,15.340753852984864,15.558494763457311,63.37877625313756,52.67458023933857,-0.0009065627818927,0.1230734884738922,0,0,0
5137,242379.43847611587,2011-02-03 06:11:33,877.0319411733859,7,42,-1.099568486213684,3.0724427700042725,15.340753852984864,15.567662279857032,63.37877625313756,52.70292475335735,-0.0010360718006268,0.1230734884738922,0,0,0
5138,242409.45355688257,2011-02-03 06:12:03,907.047021940066,7,42,-1.0997490882873535,3.0279242992401123,15.340753852984864,15.57682982137648,63.37877625313756,52.73089345537248,-0.0012626647949218,0.1230734884738922,0,0,0
5139,242439.46868181432,2011-02-03 06:12:33,937.062146861794,7,42,-1.099568486213684,2.974987506866455,15.340753852984864,15.585997374599131,63.37877625313756,52.75841649331228,-0.0015217304462566,0.1230734884738922,0,0,0
5140,242469.4838017937,2011-02-03 06:13:03,967.0772668562416,7,42,-1.099568486213684,2.9110426902771,15.340753852984864,15.595164920859997,63.37877625313756,52.78540664445214,-0.0018778800731524,0.1230734884738922,0,0,0
5141,242499.4991535959,2011-02-03 06:13:33,997.092618783738,7,42,-1.099568486213684,2.8320424556732178,15.340753852984864,15.604332522380274,63.37877625313756,52.811748528492615,-0.0023635388351976,0.1230734884738922,0,0,0
5142,242529.5140173116,2011-02-03 06:14:03,1027.1074823891854,7,42,-1.0993878841400146,2.7331302165985107,15.340753852984864,15.613499995918096,63.37877625313756,52.8372706452345,-0.0027844428550451,0.1230734884738922,0,0,0
5143,242538.8576033129,2011-02-03 06:14:13,1036.4510683653875,7,42,-1.099568486213684,2.699943780899048,15.340753852984864,15.616353800936192,63.37877625313756,52.8450232051552,-0.0028491497505456,0.1230734884738922,0,0,0
5144,242598.8670295484,2011-02-03 06:15:13,60.01460779365495,8,42,0.0,3.770170211791992,15.340753852984864,15.616353800936192,63.37877625313756,52.8450232051552,0.0007122993702068,0.1230734884738922,0,0,0
5145,242599.04860423747,2011-02-03 06:15:13,0.18574218668065,9,42,0.0017868496943265,3.771303415298462,15.340753945177465,15.616353800936192,63.37877660082383,52.8450232051552,0.0,0.1223743334412574,0,0,0
5146,242603.8764229873,2011-02-03 06:15:18,5.013560931475369,9,42,0.0003419754502829,3.774541139602661,15.340754582832531,15.616353801019722,63.37877900654112,52.84502320547046,0.0006151676061563,0.1223743334412574,0,0,0
