Data_Point,Test_Time(s),Date_Time,Step_Time(s),Step_Index,Cycle_Index,Current(A),Voltage(V),Charge_Capacity(Ah),Discharge_Capacity(Ah),Charge_Energy(Wh),Discharge_Energy(Wh),dV/dt(V/s),Internal_Resistance(Ohm),Is_FC_Data,AC_Impedance(Ohm),ACI_Phase_Angle(Deg)
1253,57770.99966029953,2011-02-01 02:54:06,30.015106185030383,1,10,0.0,3.758838176727295,3.66513206440183,4.030549411091245,15.108384665522337,13.738414409152346,0.0004209041653666,0.1198347061872482,0,0,0
1254,57801.01686426787,2011-02-01 02:54:36,60.03231018345723,1,10,0.0,3.771141529083252,3.66513206440183,4.030549411091245,15.108384665522337,13.738414409152346,0.0002913951757363,0.1198347061872482,0,0,0
1255,57831.02996259371,2011-02-01 02:55:06,90.04540845915975,1,10,0.0,3.7805309295654297,3.66513206440183,4.030549411091245,15.108384665522337,13.738414409152346,0.0001942634553415,0.1198347061872482,0,0,0
1256,57860.99813059935,2011-02-01 02:55:36,120.01357645979208,1,10,0.0,3.788139581680298,3.66513206440183,4.030549411091245,15.108384665522337,13.738414409152346,0.0001942634553415,0.1198347061872482,0,0,0
1257,57891.014543072975,2011-02-01 02:56:06,30.015090034778986,2,10,0.5499359965324402,3.90987777709961,3.669717995535437,4.030549411091245,15.126234396918807,13.738414409152346,0.0007122993702068,0.1198347061872482,0,0,0
1258,57921.02978524192,2011-02-01 02:56:36,60.030332193698136,2,10,0.5499359965324402,3.930275201797485,3.674304064197671,4.030549411091245,15.144215853875274,13.738414409152346,0.0004532813909463,0.1198347061872482,0,0,0
1259,57951.04492034904,2011-02-01 02:57:06,90.04546730081125,2,10,0.5501165986061096,3.945006847381592,3.678889992265138,4.030549411091245,15.162275089049196,13.738414409152346,0.0003561496851034,0.1198347061872482,0,0,0
1260,57981.06012025765,2011-02-01 02:57:36,120.06066721444216,2,10,0.5499359965324402,3.956824541091919,3.683475961795168,4.030549411091245,15.180394369197913,13.738414409152346,0.0002590179501567,0.1198347061872482,0,0,0
1261,58011.07513296471,2011-02-01 02:58:06,150.0756798964342,2,10,0.5501165986061096,3.967185258865357,3.688061878269559,4.030549411091245,15.198564410383128,13.738414409152346,0.0002590179501567,0.1198347061872482,0,0,0
1262,58041.09051296717,2011-02-01 02:58:36,180.09105995403928,2,10,0.5501165986061096,3.976736545562744,3.69264784649788,4.030549411091245,15.216780325494828,13.738414409152346,0.0002266406954731,0.1198347061872482,0,0,0
1263,58071.10536989097,2011-02-01 02:59:06,210.10591682770905,2,10,0.5501165986061096,3.985640287399292,3.697233729870475,4.030549411091245,15.235037882811923,13.738414409152346,0.0002266406954731,0.1198347061872482,0,0,0
1264,58101.12363253787,2011-02-01 02:59:37,240.12417949466365,2,10,0.5501165986061096,3.993896484375,3.701820031395731,4.030549411091245,15.253336139178662,13.738414409152346,0.0001942634553415,0.1198347061872482,0,0,0
1265,58131.13551195079,2011-02-01 03:00:07,270.13605891259755,2,10,0.5499359965324402,4.001343250274658,3.706405401820624,4.030549411091245,15.271666945101542,13.738414409152346,0.0001619339018361,0.1198347061872482,0,0,0
1266,58161.15074378899,2011-02-01 03:00:37,300.15129073074434,2,10,0.5499359965324402,4.008627891540527,3.710991222266502,4.030549411091245,15.290033473912432,13.738414409152346,0.0001618385285837,0.1198347061872482,0,0,0
1267,58191.165652371536,2011-02-01 03:01:07,330.166199328326,2,10,0.5501165986061096,4.015427112579346,3.715576479624929,4.030549411091245,15.308429480285085,13.738414409152346,0.0001618385285837,0.1198347061872482,0,0,0
1268,58221.18287264052,2011-02-01 03:01:37,360.1834196925414,2,10,0.5497553944587708,4.021578788757324,3.720161860535229,4.030549411091245,15.326855868165923,13.738414409152346,0.0001295089750783,0.1198347061872482,0,0,0
1269,58251.19591610962,2011-02-01 03:02:07,390.1964630413492,2,10,0.5499359965324402,4.027730464935303,3.724746739208646,4.030549411091245,15.345308708554285,13.738414409152346,0.0001618385285837,0.1198347061872482,0,0,0
1270,58281.21102143252,2011-02-01 03:02:37,420.21156838929335,2,10,0.5497553944587708,4.033396720886231,3.729331774781304,4.030549411091245,15.363789131534334,13.738414409152346,0.0001295089750783,0.1198347061872482,0,0,0
1271,58311.22613176788,2011-02-01 03:03:07,450.22667872968015,2,10,0.5501165986061096,4.0390625,3.733916864926421,4.030549411091245,15.382295639077933,13.738414409152346,0.0001295089750783,0.1198347061872482,0,0,0
1272,58341.24127105039,2011-02-01 03:03:37,480.2418179871372,2,10,0.5499359965324402,4.044242858886719,3.738501915029761,4.030549411091245,15.400826632833883,13.738414409152346,0.0001619339018361,0.1198347061872482,0,0,0
1273,58371.25637735573,2011-02-01 03:04:07,510.2569242924674,2,10,0.5501165986061096,4.0494232177734375,3.743087434232041,4.030549411091245,15.41938330933572,13.738414409152346,0.0001942634553415,0.1198347061872482,0,0,0
1274,58401.271604612506,2011-02-01 03:04:37,540.2721515392208,2,10,0.5501165986061096,4.054441452026367,3.747673396833217,4.030549411091245,15.437964843669418,13.738414409152346,0.0001618385285837,0.1198347061872482,0,0,0
1275,58431.28660321441,2011-02-01 03:05:07,570.2871501511459,2,10,0.5501165986061096,4.059136390686035,3.752259297562148,4.030549411091245,15.456568427104225,13.738414409152346,0.0001619339018361,0.1198347061872482,0,0,0
1276,58461.30184421042,2011-02-01 03:05:37,600.3023911672167,2,10,0.5499359965324402,4.063669204711914,3.756844834319295,4.030549411091245,15.475191781844265,13.738414409152346,9.71794142969884e-05,0.1198347061872482,0,0,0
1277,58491.31683410061,2011-02-01 03:06:07,630.3173810373546,2,10,0.5501165986061096,4.068202018737793,3.761429887290428,4.030549411091245,15.49383405268876,13.738414409152346,0.0001295089750783,0.1198347061872482,0,0,0
1278,58521.33208463541,2011-02-01 03:06:37,660.3326315921989,2,10,0.5499359965324402,4.072411060333252,3.766014947245367,4.030549411091245,15.512496829195417,13.738414409152346,6.47544875391759e-05,0.1198347061872482,0,0,0
1279,58551.34705115736,2011-02-01 03:07:07,690.347598094096,2,10,0.5499359965324402,4.076781749725342,3.770599980326764,4.030549411091245,15.531179614943731,13.738414409152346,9.70840483205393e-05,0.1198347061872482,0,0,0
1280,58581.362194941095,2011-02-01 03:07:37,720.3627418928714,2,10,0.5499359965324402,4.08115291595459,3.775185440755265,4.030549411091245,15.549883969640218,13.738414409152346,9.71794142969884e-05,0.1198347061872482,0,0,0
1281,58611.3772837829,2011-02-01 03:08:07,750.3778307146272,2,10,0.5501165986061096,4.08552360534668,3.779771325031635,4.030549411091245,15.568609511811893,13.738414409152346,0.0001295089750783,0.1198347061872482,0,0,0
1282,58641.3925206386,2011-02-01 03:08:37,780.3930675853667,2,10,0.5499359965324402,4.089570999145508,3.784357236420364,4.030549411091245,15.587354405372343,13.738414409152346,9.71794142969884e-05,0.1198347061872482,0,0,0
1283,58671.40750703006,2011-02-01 03:09:07,810.4080539617971,2,10,0.5501165986061096,4.093780040740967,3.788943110310109,4.030549411091245,15.606118139538038,13.738414409152346,0.0001619339018361,0.1198347061872482,0,0,0
1284,58701.42265728494,2011-02-01 03:09:37,840.4232042417254,2,10,0.5499359965324402,4.097826957702637,3.793528970487251,4.030549411091245,15.624900649300312,13.738414409152346,0.0001295089750783,0.1198347061872482,0,0,0
1285,58731.43775629709,2011-02-01 03:10:07,870.438303253879,2,10,0.5497553944587708,4.101550579071045,3.798114788639067,4.030549411091245,15.6437016659395,13.738414409152346,3.24249267578125e-05,0.1198347061872482,0,0,0
1286,58761.45285728417,2011-02-01 03:10:37,900.4534042409545,2,10,0.5501165986061096,4.105921268463135,3.802700655254939,4.030549411091245,15.662521330012096,13.738414409152346,9.70840483205393e-05,0.1198347061872482,0,0,0
1287,58791.468026265706,2011-02-01 03:11:07,930.4685732074556,2,10,0.5501165986061096,4.109968662261963,3.807286501237093,4.030549411091245,15.681359434583808,13.738414409152346,0.0001295089750783,0.1198347061872482,0,0,0
1288,58821.4831285059,2011-02-01 03:11:37,960.483675447654,2,10,0.5501165986061096,4.113853931427002,3.811872382845692,4.030549411091245,15.70021604990445,13.738414409152346,9.71794142969884e-05,0.1198347061872482,0,0,0
1289,58851.48464522179,2011-02-01 03:12:07,990.4851921986334,2,10,0.550297200679779,4.118062496185303,3.816456163704145,4.030549411091245,15.719082476579038,13.738414409152346,0.0001618385285837,0.1198347061872482,0,0,0
1290,58881.497678736094,2011-02-01 03:12:37,1020.4982256978932,2,10,0.5499359965324402,4.121947765350342,3.821041690611799,4.030549411091245,15.737974470492754,13.738414409152346,9.70840483205393e-05,0.1198347061872482,0,0,0
1291,58911.51279116167,2011-02-01 03:13:07,1050.513338103427,2,10,0.5499359965324402,4.125833034515381,3.825627480889875,4.030549411091245,15.756885807044853,13.738414409152346,6.47544875391759e-05,0.1198347061872482,0,0,0
1292,58941.52789871512,2011-02-01 03:13:37,1080.5284456668928,2,10,0.5499359965324402,4.129880428314209,3.830213323867548,4.030549411091245,15.775815623955427,13.738414409152346,9.71794142969884e-05,0.1198347061872482,0,0,0
1293,58971.5433620603,2011-02-01 03:14:07,1110.543908997039,2,10,0.5499359965324402,4.133765697479248,3.834799330543476,4.030549411091245,15.794764487543947,13.738414409152346,9.71794142969884e-05,0.1198347061872482,0,0,0
1294,59001.55817237794,2011-02-01 03:14:37,1140.5587193447514,2,10,0.5501165986061096,4.137974739074707,3.839385173472618,4.030549411091245,15.813731056812106,13.738414409152346,9.71794142969884e-05,0.1198347061872482,0,0,0
1295,59031.57327326977,2011-02-01 03:15:07,1170.5738202315772,2,10,0.5499359965324402,4.142021656036377,3.843971048467403,4.030549411091245,15.832716233281536,13.738414409152346,9.70840483205393e-05,0.1198347061872482,0,0,0
1296,59061.588405710245,2011-02-01 03:15:37,1200.5889526519943,2,10,0.5501165986061096,4.146069049835205,3.848557014273099,4.030549411091245,15.851720354973692,13.738414409152346,0.0001619339018361,0.1198347061872482,0,0,0
1297,59091.603553554094,2011-02-01 03:16:07,1230.604100515901,2,10,0.5499359965324402,4.149954319000244,3.853142926910096,4.030549411091245,15.8707428403614,13.738414409152346,9.71794142969884e-05,0.1198347061872482,0,0,0
1298,59121.6186183209,2011-02-01 03:16:37,1260.6191652526295,2,10,0.5501165986061096,4.154001235961914,3.85772882195804,4.030549411091245,15.889783882499083,13.738414409152346,6.47544875391759e-05,0.1198347061872482,0,0,0
1299,59151.633882775386,2011-02-01 03:17:07,1290.6344297221535,2,10,0.5501165986061096,4.158210277557373,3.862314689855315,4.030549411091245,15.908843500479325,13.738414409152346,0.0001295089750783,0.1198347061872482,0,0,0
1300,59181.64886549771,2011-02-01 03:17:37,1320.6494124444769,2,10,0.5501165986061096,4.162419319152832,3.866900574298209,4.030549411091245,15.9279219892394,13.738414409152346,0.0001295089750783,0.1198347061872482,0,0,0
1301,59211.66425573068,2011-02-01 03:18:07,1350.6648026724297,2,10,0.5499359965324402,4.16646671295166,3.871486496876197,4.030549411091245,15.947019430618187,13.738414409152346,9.71794142969884e-05,0.1198347061872482,0,0,0
1302,59241.67908152188,2011-02-01 03:18:37,1380.6796284536074,2,10,0.5501165986061096,4.17051362991333,3.876072307369535,4.030549411091245,15.966135280662874,13.738414409152346,9.70840483205393e-05,0.1198347061872482,0,0,0
1303,59271.69419610785,2011-02-01 03:19:07,1410.694743044588,2,10,0.5499359965324402,4.174561023712158,3.880658156019985,4.030549411091245,15.985270228012135,13.738414409152346,9.71794142969884e-05,0.1198347061872482,0,0,0
1304,59301.709476938144,2011-02-01 03:19:37,1440.7100238799003,2,10,0.5499359965324402,4.178770065307617,3.885244043099027,4.030549411091245,16.004424393000818,13.738414409152346,9.71794142969884e-05,0.1198347061872482,0,0,0
1305,59331.72683986768,2011-02-01 03:20:07,1470.7273869547953,2,10,0.5501165986061096,4.183140754699707,3.889830314684772,4.030549411091245,16.02359933650359,13.738414409152346,0.0001295089750783,0.1198347061872482,0,0,0
1306,59361.73983817423,2011-02-01 03:20:37,1500.740385115981,2,10,0.5499359965324402,4.187349796295166,3.894415882975122,4.030549411091245,16.042790532639287,13.738414409152346,0.0001295089750783,0.1198347061872482,0,0,0
1307,59391.75465790532,2011-02-01 03:21:07,1530.755204862118,2,10,0.5501165986061096,4.191397190093994,3.899001745548259,4.030549411091245,16.062002331757387,13.738414409152346,6.47544875391759e-05,0.1198347061872482,0,0,0
1308,59421.76977262664,2011-02-01 03:21:37,1560.770319583423,2,10,0.5499359965324402,4.195605754852295,3.903587573838064,4.030549411091245,16.081233318989657,13.738414409152346,9.70840483205393e-05,0.1198347061872482,0,0,0
1309,59451.675518697615,2011-02-01 03:22:07,1590.6760656343504,2,10,0.5501165986061096,4.200138568878174,3.908156726266812,4.030549411091245,16.100413639556145,13.738414409152346,0.0001295089750783,0.1198347061872482,0,0,0
1310,59481.68966287941,2011-02-01 03:22:37,30.01312954363182,3,10,0.0,4.089085102081299,3.908156726266812,4.030549411091245,16.100413639556145,13.738414409152346,-0.0005180359003134,0.1198347061872482,0,0,0
1311,59511.70478169092,2011-02-01 03:23:07,60.02824838520621,3,10,0.0,4.076296329498291,3.908156726266812,4.030549411091245,16.100413639556145,13.738414409152346,-0.0002913475036621,0.1198347061872482,0,0,0
1312,59541.71986346511,2011-02-01 03:23:37,90.04333015939726,3,10,0.0,4.068363666534424,3.908156726266812,4.030549411091245,16.100413639556145,13.738414409152346,-0.0002266883820993,0.1198347061872482,0,0,0
1313,59571.68811478339,2011-02-01 03:24:07,120.01158148269532,3,10,0.0,4.062697887420654,3.908156726266812,4.030549411091245,16.100413639556145,13.738414409152346,-0.0001618385285837,0.1198347061872482,0,0,0
1314,59571.70285668776,2011-02-01 03:24:07,0.015594380995712,4,10,0.9698525667190552,4.199814796447754,3.908160927447269,4.030549411091245,16.100431283735993,13.738414409152346,0.0,0.1198347061872482,0,0,0
1315,59572.32794185233,2011-02-01 03:24:08,0.640679550572195,4,10,0.9187401533126832,4.199653148651123,3.90832307900955,4.030549411091245,16.10111228611252,13.738414409152346,-3.23295607813634e-05,0.1198347061872482,0,0,0
1316,59574.49969586155,2011-02-01 03:24:10,2.812433534732718,4,10,0.8683501482009888,4.199653148651123,3.908860750464849,4.030549411091245,16.10337038544937,13.738414409152346,-3.23295607813634e-05,0.1198347061872482,0,0,0
1317,59578.046500911056,2011-02-01 03:24:14,6.359238584240723,4,10,0.8181408047676086,4.199814796447754,3.909690184407109,4.030549411091245,16.106853827296533,13.738414409152346,0.0,0.1198347061872482,0,0,0
1318,59583.10892083417,2011-02-01 03:24:19,11.421658527406768,4,10,0.7677507996559143,4.199653148651123,3.910803604358071,4.030549411091245,16.111529954963245,13.738414409152346,-3.23295607813634e-05,0.1198347061872482,0,0,0
1319,59589.9838173316,2011-02-01 03:24:26,18.29655502984361,4,10,0.7177219986915588,4.199653148651123,3.912219965080376,4.030549411091245,16.117478379118122,13.738414409152346,0.0,0.1198347061872482,0,0,0
1320,59599.296136531375,2011-02-01 03:24:35,27.60887419954348,4,10,0.6676932573318481,4.199653148651123,3.914008898256885,4.030549411091245,16.12499152839227,13.738414409152346,-6.47544875391759e-05,0.1198347061872482,0,0,0
1321,59612.48341094183,2011-02-01 03:24:48,40.79614864508467,4,10,0.6174838542938232,4.199653148651123,3.916357817207046,4.030549411091245,16.134856499420273,13.738414409152346,-3.23295607813634e-05,0.1198347061872482,0,0,0
1322,59632.57683125284,2011-02-01 03:25:08,60.889568926015606,4,10,0.5672745108604431,4.199814796447754,3.919654412851019,4.030549411091245,16.14870154054875,13.738414409152346,0.0,0.1198347061872482,0,0,0
1323,59667.13879839942,2011-02-01 03:25:43,95.45153610267128,4,10,0.5170651078224182,4.199653148651123,3.924838327840528,4.030549411091245,16.170472954672366,13.738414409152346,-6.47544875391759e-05,0.1198347061872482,0,0,0
1324,59732.57519072837,2011-02-01 03:26:48,160.8879284316296,4,10,0.4670363366603851,4.199814796447754,3.933743104401675,4.030549411091245,16.20787122422024,13.738414409152346,0.0,0.1198347061872482,0,0,0
1325,59839.10468758786,2011-02-01 03:28:35,267.4174252610352,4,10,0.4166463613510132,4.199653148651123,3.946787663910798,4.030549411091245,16.262655783180016,13.738414409152346,-3.23295607813634e-05,0.1198347061872482,0,0,0
1326,59979.64905098586,2011-02-01 03:30:55,407.9617886690675,4,10,0.3664369881153106,4.199653148651123,3.962057275540173,4.030549411091245,16.326785115587494,13.738414409152346,-3.23295607813634e-05,0.1198347061872482,0,0,0
1327,60152.23989211182,2011-02-01 03:33:48,580.552629810065,4,10,0.3164082169532776,4.199653148651123,3.978408556881707,4.030549411091245,16.395457398603988,13.738414409152346,-3.23295607813634e-05,0.1198347061872482,0,0,0
1328,60365.189494323495,2011-02-01 03:37:21,793.5022319966687,4,10,0.2663794457912445,4.199653148651123,3.995612791240726,4.030549411091245,16.467711361280724,13.738414409152346,0.0,0.1198347061872482,0,0,0
1329,60631.57547602982,2011-02-01 03:41:47,1059.8882137029984,4,10,0.2163506746292114,4.199814796447754,4.013432535899117,4.030549411091245,16.542550610048156,13.738414409152346,0.0,0.1198347061872482,0,0,0
1330,60977.17895587111,2011-02-01 03:47:33,1405.491693544295,4,10,0.1663219034671783,4.199653148651123,4.031730628955485,4.030549411091245,16.61939867110127,13.738414409152346,0.0,0.1198347061872482,0,0,0
1331,61461.99883729096,2011-02-01 03:55:38,1890.3115749641413,4,10,0.1161125227808952,4.199814796447754,4.050591719611554,4.030549411091245,16.698610899230374,13.738414409152346,0.0,0.1198347061872482,0,0,0
1332,62264.25082992337,2011-02-01 04:09:00,2692.563567596548,4,10,0.0660837516188621,4.199814796447754,4.070392402951427,4.030549411091245,16.781769790710783,13.738414409152346,3.23295607813634e-05,0.1198347061872482,0,0,0
1333,62702.243390396005,2011-02-01 04:16:18,3130.556128069188,4,10,0.0498289167881011,4.199653148651123,4.077448264996497,4.030549411091245,16.811402986487415,13.738414409152346,-3.23295607813634e-05,0.1198347061872482,0,0,0
1334,62732.26008887967,2011-02-01 04:16:48,30.01510915242605,5,10,0.0,4.188968658447266,4.077448264996497,4.030549411091245,16.811402986487415,13.738414409152346,-6.47544875391759e-05,0.1198347061872482,0,0,0
1335,62762.259584543484,2011-02-01 04:17:18,60.014604811221815,5,10,0.0,4.187349796295166,4.077448264996497,4.030549411091245,16.811402986487415,13.738414409152346,0.0,0.1198347061872482,0,0,0
1336,62762.4457921314,2011-02-01 04:17:18,0.187506869813998,6,10,-1.9243103452026844e-05,4.187188148498535,4.077448264996497,4.030549412093526,16.811402986487415,13.738414413349089,0.0,0.1192404478788375,0,0,0
1337,62767.27410230599,2011-02-01 04:17:23,5.015817159690305,6,10,0.0007031940040178,4.187188148498535,4.077449147738948,4.030549412260758,16.81140668294705,13.738414414049322,-6.47544875391759e-05,0.1192404478788375,0,0,0
1338,62775.9443603281,2011-02-01 04:17:32,8.671749001742805,7,10,-1.0993878841400146,3.9870972633361816,4.077449147738948,4.033197929313844,16.81140668294705,13.74900980256966,-0.0022339820861816,0.1192404478788375,0,0,0
1339,62805.9594663377,2011-02-01 04:18:02,38.6868550414109,7,10,-1.0993878841400146,3.9213714599609375,4.077449147738948,4.042365095027568,16.81140668294705,13.785254028809245,-0.0017159938579425,0.1192404478788375,0,0,0
1340,62835.97481167376,2011-02-01 04:18:32,68.70220035742929,7,10,-1.099568486213684,3.8554840087890634,4.077449147738948,4.051532269382448,16.81140668294705,13.820903883222654,-0.0017807483673095,0.1192404478788375,0,0,0
1341,62865.98969782541,2011-02-01 04:19:02,98.71708650906876,7,10,-1.099568486213684,3.7902441024780273,4.077449147738948,4.060699324121377,16.81140668294705,13.855945091715748,-0.0016836166614666,0.1192404478788375,0,0,0
1342,62896.00509061975,2011-02-01 04:19:32,128.73247929840525,7,10,-1.099568486213684,3.73455548286438,4.077449147738948,4.069866525659584,16.81140668294705,13.890426256622057,-0.0013274669181555,0.1192404478788375,0,0,0
1343,62926.0200654073,2011-02-01 04:20:02,158.7474540909652,7,10,-1.099568486213684,3.6905224323272714,4.077449147738948,4.079033646322255,16.81140668294705,13.924452089613084,-0.0011008263099938,0.1192404478788375,0,0,0
1344,62956.03514904614,2011-02-01 04:20:32,188.7625377498535,7,10,-1.0997490882873535,3.655555248260498,4.077449147738948,4.088200842992716,16.81140668294705,13.958118396284435,-0.0008418083307333,0.1192404478788375,0,0,0
1345,62986.05029168201,2011-02-01 04:21:02,218.77768036568065,7,10,-1.099568486213684,3.626253843307495,4.077449147738948,4.097368364684848,16.81140668294705,13.991492783731486,-0.0007770538213662,0.1192404478788375,0,0,0
1346,63016.06775448045,2011-02-01 04:21:32,248.7951431891792,7,10,-1.0993878841400146,3.601161479949951,4.077449147738948,4.106537004296907,16.81140668294705,14.024622067217985,-0.0005827903514727,0.1192404478788375,0,0,0
1347,63046.08043984706,2011-02-01 04:22:02,278.8078286209476,7,10,-1.099929690361023,3.578821420669556,4.077449147738948,4.115703818397079,16.81140668294705,14.057528690804489,-0.0005827903514727,0.1192404478788375,0,0,0
1348,63076.0955261776,2011-02-01 04:22:32,308.8229148562572,7,10,-1.099568486213684,3.5587475299835205,4.077449147738948,4.124870932240062,16.81140668294705,14.090242445682373,-0.0005180359003134,0.1192404478788375,0,0,0
1349,63106.11077895799,2011-02-01 04:23:02,338.83816763163577,7,10,-1.099568486213684,3.540130615234375,4.077449147738948,4.134038179628059,16.81140668294705,14.122779066753756,-0.0004532813909463,0.1192404478788375,0,0,0
1350,63136.12778281261,2011-02-01 04:23:32,368.8551715263426,7,10,-1.099568486213684,3.522970676422119,4.077449147738948,4.143205941209707,16.81140668294705,14.155154587164276,-0.0004532813909463,0.1192404478788375,0,0,0
1351,63166.14086558466,2011-02-01 04:24:02,398.8682542583053,7,10,-1.099568486213684,3.506944179534912,4.077449147738948,4.152372577227632,16.81140668294705,14.187374077184602,-0.0003885269106831,0.1192404478788375,0,0,0
1352,63196.15597752906,2011-02-01 04:24:32,428.8833662127148,7,10,-1.099568486213684,3.492050647735596,4.077449147738948,4.161539764369332,16.81140668294705,14.219454339165072,-0.0003885269106831,0.1192404478788375,0,0,0
1353,63226.17110916752,2011-02-01 04:25:02,458.89849785118287,7,10,-1.0993878841400146,3.477966547012329,4.077449147738948,4.170706977191682,16.81140668294705,14.251401383761165,-0.0003561496851034,0.1192404478788375,0,0,0
1354,63256.18621470092,2011-02-01 04:25:32,488.91360337456433,7,10,-1.0993878841400146,3.4646918773651123,4.077449147738948,4.179874113284193,16.81140668294705,14.283221773944712,-0.0003237724304199,0.1192404478788375,0,0,0
1355,63286.20132413405,2011-02-01 04:26:02,518.9287128076899,7,10,-1.0993878841400146,3.4517409801483154,4.077449147738948,4.189041291715687,16.81140668294705,14.31492293445681,-0.0003561496851034,0.1192404478788375,0,0,0
1356,63316.21643986286,2011-02-01 04:26:32,548.9438285415189,7,10,-1.099568486213684,3.4395995140075684,4.077449147738948,4.198208499272991,16.81140668294705,14.346509945461218,-0.0003237724304199,0.1192404478788375,0,0,0
1357,63346.23157199757,2011-02-01 04:27:02,578.9589606712113,7,10,-1.0993878841400146,3.4277820587158203,4.077449147738948,4.207375603777726,16.81140668294705,14.377986946956703,-0.0003237724304199,0.1192404478788375,0,0,0
1358,63376.24669308474,2011-02-01 04:27:32,608.9740817884574,7,10,-1.099568486213684,3.416288137435913,4.077449147738948,4.216542835523107,16.81140668294705,14.409357474500098,-0.0002913951757363,0.1192404478788375,0,0,0
1359,63406.26177845791,2011-02-01 04:28:02,638.9891671315432,7,10,-1.0993878841400146,3.404956102371216,4.077449147738948,4.225710022102716,16.81140668294705,14.440622261870091,-0.0002913951757363,0.1192404478788375,0,0,0
1360,63436.27691132443,2011-02-01 04:28:32,669.0043000181221,7,10,-1.0993878841400146,3.3936240673065186,4.077449147738948,4.234877236593398,16.81140668294705,14.471783269866576,-0.0003237724304199,0.1192404478788375,0,0,0
1361,63466.29200770001,2011-02-01 04:29:02,699.0193963736543,7,10,-1.099568486213684,3.3822920322418213,4.077449147738948,4.244044457227686,16.81140668294705,14.502840928729452,-0.0002590179501567,0.1192404478788375,0,0,0
1362,63496.30713398514,2011-02-01 04:29:32,729.0345226587804,7,10,-1.0993878841400146,3.370636224746704,4.077449147738948,4.25321171516163,16.81140668294705,14.533793974764093,-0.0002913951757363,0.1192404478788375,0,0,0
1363,63526.322255929445,2011-02-01 04:30:02,759.0496446030877,7,10,-1.0993878841400146,3.358656644821167,4.077449147738948,4.262378920798439,16.81140668294705,14.564638711939375,-0.0003237724304199,0.1192404478788375,0,0,0
1364,63556.33747551711,2011-02-01 04:30:32,789.0648641907524,7,10,-1.099568486213684,3.346353530883789,4.077449147738948,4.271546194139447,16.81140668294705,14.595372820176172,-0.0003561496851034,0.1192404478788375,0,0,0
1365,63586.35247724681,2011-02-01 04:31:02,819.0798659204479,7,10,-1.099568486213684,3.3330788612365723,4.077449147738948,4.280713414401389,16.81140668294705,14.62598945375692,-0.0004209041653666,0.1192404478788375,0,0,0
1366,63616.36778397165,2011-02-01 04:31:32,849.0951726753601,7,10,-1.0993878841400146,3.3193185329437256,4.077449147738948,4.289881320804532,16.81140668294705,14.656484131703122,-0.0003885269106831,0.1192404478788375,0,0,0
1367,63646.38267760192,2011-02-01 04:32:02,879.1100663056386,7,10,-1.0993878841400146,3.304425001144409,4.077449147738948,4.2990492039703,16.81140668294705,14.68684778060944,-0.0004209041653666,0.1192404478788375,0,0,0
1368,63676.39779413775,2011-02-01 04:32:32,909.1251828113914,7,10,-1.0997490882873535,3.288560152053833,4.077449147738948,4.308216976895836,16.81140668294705,14.717071462101998,-0.0004532813909463,0.1192404478788375,0,0,0
1369,63706.41291025754,2011-02-01 04:33:02,939.1402989311822,7,10,-1.099568486213684,3.271562099456787,4.077449147738948,4.317384939022618,16.81140668294705,14.747143493554422,-0.0004532813909463,0.1192404478788375,0,0,0
1370,63736.430653154064,2011-02-01 04:33:33,969.1580418678092,7,10,-1.099568486213684,3.2532691955566406,4.077449147738948,4.326553655263363,16.81140668294705,14.777055060975528,-0.0004856586456298,0.1192404478788375,0,0,0
1371,63766.443185514334,2011-02-01 04:34:03,999.1705741980012,7,10,-1.099568486213684,3.2335190773010254,4.077449147738948,4.335720776779759,16.81140668294705,14.806787888366598,-0.0005504131549969,0.1192404478788375,0,0,0
1372,63796.45838282649,2011-02-01 04:34:33,1029.1857715352107,7,10,-1.099568486213684,3.2119882106781006,4.077449147738948,4.344888185022212,16.81140668294705,14.836334322162216,-0.0006151676061563,0.1192404478788375,0,0,0
1373,63826.47336568414,2011-02-01 04:35:03,1059.200754387859,7,10,-1.0997490882873535,3.1886768341064453,4.077449147738948,4.354055323046492,16.81140668294705,14.865674537938393,-0.000679874443449,0.1192404478788375,0,0,0
1374,63856.48864731645,2011-02-01 04:35:33,1089.2160360001078,7,10,-1.099568486213684,3.162775039672852,4.077449147738948,4.363222544685506,16.81140668294705,14.894789451232247,-0.0007122993702068,0.1192404478788375,0,0,0
1375,63886.50359231474,2011-02-01 04:36:03,1119.2309809984115,7,10,-1.0997490882873535,3.1333117485046387,4.077449147738948,4.372390240926609,16.81140668294705,14.923651980066476,-0.0008094310760498,0.1192404478788375,0,0,0
1376,63916.5187141137,2011-02-01 04:36:33,1149.2461028073817,7,10,-1.099568486213684,3.100772857666016,4.077449147738948,4.381558176846675,16.81140668294705,14.952232161913892,-0.0009065627818927,0.1192404478788375,0,0,0
1377,63946.53382461949,2011-02-01 04:37:03,1179.2612132931306,7,10,-1.0997490882873535,3.063377141952514,4.077449147738948,4.390726144860597,16.81140668294705,14.980493005478513,-0.0010360718006268,0.1192404478788375,0,0,0
1378,63976.54895960631,2011-02-01 04:37:33,1209.276348279944,7,10,-1.099568486213684,3.0193443298339844,4.077449147738948,4.399894194985389,16.81140668294705,15.008382287560275,-0.0012950897216796,0.1192404478788375,0,0,0
1379,64006.56405905955,2011-02-01 04:38:03,1239.2914477331967,7,10,-1.099568486213684,2.966245651245117,4.077449147738948,4.409061470096776,16.81140668294705,15.035828236595366,-0.0015541076427325,0.1192404478788375,0,0,0
1380,64036.57917385104,2011-02-01 04:38:33,1269.3065625447268,7,10,-1.099568486213684,2.900196313858032,4.077449147738948,4.418228642258817,16.81140668294705,15.062728561586717,-0.0019426345825195,0.1192404478788375,0,0,0
1381,64066.59435415078,2011-02-01 04:39:03,1299.3217429096364,7,10,-1.099568486213684,2.8173108100891118,4.077449147738948,4.427395866319808,16.81140668294705,15.088951993663684,-0.0024606704246252,0.1192404478788375,0,0,0
1382,64096.60953686656,2011-02-01 04:39:33,1329.3369256554795,7,10,-1.0993878841400146,2.715808391571045,4.077449147738948,4.436563088616815,16.81140668294705,15.114325991556337,-0.0028491974808275,0.1192404478788375,0,0,0
1383,64101.01558167091,2011-02-01 04:39:37,1333.742970354576,7,10,-1.099568486213684,2.699781894683838,4.077449147738948,4.437908806762174,16.81140668294705,15.117969961165327,-0.0028815269470214,0.1192404478788375,0,0,0
1384,64161.030069007465,2011-02-01 04:40:37,60.012573448440726,8,10,0.0,3.737631320953369,4.077449147738948,4.437908806762174,16.81140668294705,15.117969961165327,0.0007122993702068,0.1192404478788375,0,0,0
1385,64161.21670827973,2011-02-01 04:40:38,0.18763394652827,9,10,-1.9243103452026844e-05,3.738116979598999,4.077449147738948,4.437908807765135,16.81140668294705,15.117969964914517,0.0,0.1199430525302887,0,0,0
1386,64166.0447618197,2011-02-01 04:40:42,5.015687461442364,9,10,0.0008838032954372,3.742326021194458,4.077450028597597,4.437908807931543,16.81140997784793,15.117969965536568,0.0006151676061563,0.1199430525302887,0,0,0
