Data_Point,Test_Time(s),Date_Time,Step_Time(s),Step_Index,Cycle_Index,Current(A),Voltage(V),Charge_Capacity(Ah),Discharge_Capacity(Ah),Charge_Energy(Wh),Discharge_Energy(Wh),dV/dt(V/s),Internal_Resistance(Ohm),Is_FC_Data,AC_Impedance(Ohm),ACI_Phase_Angle(Deg)
697,31450.7878158046,2011-01-31 19:35:21,30.015030416191124,1,6,0.0,3.749125242233277,1.950288691460345,2.342499340229933,8.031557164544969,8.011648857977859,0.0003885269106831,0.1197265535593032,0,0,0
698,31480.80292156857,2011-01-31 19:35:51,60.03013619019711,1,6,0.0,3.7614283561706543,1.950288691460345,2.342499340229933,8.031557164544969,8.011648857977859,0.0002913951757363,0.1197265535593032,0,0,0
699,31510.81821228853,2011-01-31 19:36:21,90.04542693520776,1,6,0.0,3.770493984222412,1.950288691460345,2.342499340229933,8.031557164544969,8.011648857977859,0.0002266406954731,0.1197265535593032,0,0,0
700,31540.786392785303,2011-01-31 19:36:51,120.01360740692188,1,6,0.0,3.7776169776916495,1.950288691460345,2.342499340229933,8.031557164544969,8.011648857977859,0.0001618862152099,0.1197265535593032,0,0,0
701,31570.798632037982,2011-01-31 19:37:22,30.01256318208458,2,6,0.5499359965324402,3.898383855819702,1.954874285836023,2.342499340229933,8.049354880791363,8.011648857977859,0.0006799221155233,0.1197265535593032,0,0,0
702,31600.81387893371,2011-01-31 19:37:52,60.02781011790925,2,6,0.5499359965324402,3.918619394302368,1.959460270722954,2.342499340229933,8.06728289958598,8.011648857977859,0.0004209041653666,0.1197265535593032,0,0,0
703,31630.828848207515,2011-01-31 19:38:22,90.0427793516148,2,6,0.5499359965324402,3.9327034950256343,1.96404623402032,2.342499340229933,8.085287689053885,8.011648857977859,0.0003237724304199,0.1197265535593032,0,0,0
704,31660.84596664269,2011-01-31 19:38:52,120.05989782187916,2,6,0.5501165986061096,3.944197416305542,1.968632484557785,2.342499340229933,8.103351899862968,8.011648857977859,0.0002266406954731,0.1197265535593032,0,0,0
705,31690.859086421984,2011-01-31 19:39:22,150.07301759115023,2,6,0.5499359965324402,3.9543962478637695,1.973218140583609,2.342499340229933,8.121462764032447,8.011648857977859,0.0002913951757363,0.1197265535593032,0,0,0
706,31720.874197053097,2011-01-31 19:39:52,180.08812819719918,2,6,0.5497553944587708,3.963299989700317,1.977804080151607,2.342499340229933,8.13961840954193,8.011648857977859,0.0002266406954731,0.1197265535593032,0,0,0
707,31750.88924495787,2011-01-31 19:40:22,210.1031761320522,2,6,0.5499359965324402,3.971879959106445,1.982390094859732,2.342499340229933,8.157814449188429,8.011648857977859,0.0001942634553415,0.1197265535593032,0,0,0
708,31780.904417137383,2011-01-31 19:40:52,240.11834830654865,2,6,0.5499359965324402,3.979650497436523,1.986976037021128,2.342499340229933,8.176047251521524,8.011648857977859,0.0001942634553415,0.1197265535593032,0,0,0
709,31810.91951895152,2011-01-31 19:41:22,270.13345009061044,2,6,0.5499359965324402,3.9867734909057617,1.99156185241992,2.342499340229933,8.194314240913068,8.011648857977859,0.0001618862152099,0.1197265535593032,0,0,0
710,31840.93461114167,2011-01-31 19:41:52,300.1485422857738,2,6,0.5499359965324402,3.99373459815979,1.996147609962027,2.342499340229933,8.21261324942324,8.011648857977859,0.0001618862152099,0.1197265535593032,0,0,0
711,31870.949737877923,2011-01-31 19:42:22,330.1636690220241,2,6,0.550297200679779,4.000209808349609,2.000733960479441,2.342499340229933,8.230944940737306,8.011648857977859,0.0001942634553415,0.1197265535593032,0,0,0
712,31900.96486666428,2011-01-31 19:42:52,360.178797808384,2,6,0.5499359965324402,4.006199836730957,2.005320107210348,2.342499340229933,8.249304260331849,8.011648857977859,0.0001295089750783,0.1197265535593032,0,0,0
713,31930.980005290166,2011-01-31 19:43:22,390.1939364593293,2,6,0.5499359965324402,4.012027740478516,2.009905569722045,2.342499340229933,8.26768788879294,8.011648857977859,0.0001619339018361,0.1197265535593032,0,0,0
714,31960.995152472373,2011-01-31 19:43:52,420.2090836264998,2,6,0.5501165986061096,4.017531871795654,2.014490993102355,2.342499340229933,8.286097175636494,8.011648857977859,0.0001619339018361,0.1197265535593032,0,0,0
715,31991.010247985807,2011-01-31 19:44:22,450.2241791299084,2,6,0.5499359965324402,4.022712230682373,2.019076829511264,2.342499340229933,8.30453284705684,8.011648857977859,0.0001619339018361,0.1197265535593032,0,0,0
716,32021.02541540846,2011-01-31 19:44:52,480.2393466127117,2,6,0.5501165986061096,4.027892589569092,2.02366270058426,2.342499340229933,8.32299233926592,8.011648857977859,0.0001295089750783,0.1197265535593032,0,0,0
717,32051.04048433062,2011-01-31 19:45:22,510.2544154747216,2,6,0.5501165986061096,4.032587051391602,2.028248526479321,2.342499340229933,8.341474342286203,8.011648857977859,0.0001295089750783,0.1197265535593032,0,0,0
718,32081.0555981196,2011-01-31 19:45:52,540.2695292637034,2,6,0.5501165986061096,4.0374436378479,2.032834369238762,2.342499340229933,8.359978280397021,8.011648857977859,0.0001295089750783,0.1197265535593032,0,0,0
719,32111.070711081524,2011-01-31 19:46:22,570.2846422256239,2,6,0.5499359965324402,4.04181432723999,2.037420244436778,2.342499340229933,8.378503605164502,8.011648857977859,9.70840483205393e-05,0.1197265535593032,0,0,0
720,32141.085842068365,2011-01-31 19:46:52,600.299773212468,2,6,0.5501165986061096,4.046347141265869,2.042006081522295,2.342499340229933,8.397049331211072,8.011648857977859,9.70840483205393e-05,0.1197265535593032,0,0,0
721,32171.1011075454,2011-01-31 19:47:22,630.315038699528,2,6,0.5499359965324402,4.050718307495117,2.046591967651348,2.342499340229933,8.415615361102235,8.011648857977859,9.71794142969884e-05,0.1197265535593032,0,0,0
722,32201.116062493504,2011-01-31 19:47:52,660.3299936376045,2,6,0.5499359965324402,4.054927349090576,2.051177721746339,2.342499340229933,8.43420041931089,8.011648857977859,9.71794142969884e-05,0.1197265535593032,0,0,0
723,32231.13119391142,2011-01-31 19:48:22,690.345125055523,2,6,0.5497553944587708,4.059136390686035,2.055763633036273,2.342499340229933,8.452805264668504,8.011648857977859,9.71794142969884e-05,0.1197265535593032,0,0,0
724,32261.14833374994,2011-01-31 19:48:52,720.362264929131,2,6,0.5501165986061096,4.063021659851074,2.060349792959919,2.342499340229933,8.471429655704434,8.011648857977859,0.0001295089750783,0.1197265535593032,0,0,0
725,32291.16154576913,2011-01-31 19:49:22,750.3754769132299,2,6,0.5501165986061096,4.067068576812744,2.064935315456697,2.342499340229933,8.490069869840262,8.011648857977859,0.0001295089750783,0.1197265535593032,0,0,0
726,32321.176533373626,2011-01-31 19:49:52,780.3904645177212,2,6,0.5501165986061096,4.070953845977783,2.06952116168244,2.342499340229933,8.508729768617645,8.011648857977859,9.70840483205393e-05,0.1197265535593032,0,0,0
727,32351.191649032266,2011-01-31 19:50:22,810.4055801763626,2,6,0.5501165986061096,4.075001239776611,2.074107019302962,2.342499340229933,8.52740774996615,8.011648857977859,0.0001295089750783,0.1197265535593032,0,0,0
728,32381.20700196727,2011-01-31 19:50:52,840.4209331113699,2,6,0.5499359965324402,4.07888650894165,2.078692891667628,2.342499340229933,8.546103857727658,8.011648857977859,9.71794142969884e-05,0.1197265535593032,0,0,0
729,32411.221882299404,2011-01-31 19:51:22,870.4358134435055,2,6,0.5497553944587708,4.0826096534729,2.083278732370181,2.342499340229933,8.564817547972474,8.011648857977859,9.70840483205393e-05,0.1197265535593032,0,0,0
730,32441.237022283676,2011-01-31 19:51:52,900.4509534578488,2,6,0.5501165986061096,4.08649492263794,2.087864590588493,2.342499340229933,8.583548934741044,8.011648857977859,0.0001295089750783,0.1197265535593032,0,0,0
731,32471.252237525507,2011-01-31 19:52:22,930.4661686996824,2,6,0.5499359965324402,4.0903801918029785,2.092450445987179,2.342499340229933,8.602297791234207,8.011648857977859,0.0001295089750783,0.1197265535593032,0,0,0
732,32501.26725481899,2011-01-31 19:52:52,960.4811859630928,2,6,0.5501165986061096,4.094265460968018,2.097036249679777,2.342499340229933,8.621063863297424,8.011648857977859,0.0001618385285837,0.1197265535593032,0,0,0
733,32531.282347039218,2011-01-31 19:53:22,990.4962781833184,2,6,0.5499359965324402,4.097989082336426,2.101622046921965,2.342499340229933,8.639847443021745,8.011648857977859,9.71794142969884e-05,0.1197265535593032,0,0,0
734,32561.297606586475,2011-01-31 19:53:52,1020.5115377706744,2,6,0.5497553944587708,4.101712226867676,2.106207898692599,2.342499340229933,8.658648750921373,8.011648857977859,9.70840483205393e-05,0.1197265535593032,0,0,0
735,32591.312705718927,2011-01-31 19:54:22,1050.526636863028,2,6,0.5501165986061096,4.105435848236084,2.110793729510641,2.342499340229933,8.67746730188039,8.011648857977859,6.47544875391759e-05,0.1197265535593032,0,0,0
736,32621.32793005342,2011-01-31 19:54:52,1080.5418613027853,2,6,0.5499359965324402,4.109321117401123,2.115379175286336,2.342499340229933,8.696301582894305,8.011648857977859,0.0001295089750783,0.1197265535593032,0,0,0
737,32651.342783177748,2011-01-31 19:55:22,1110.5567143418982,2,6,0.5499359965324402,4.113044261932373,2.119964126487322,2.342499340229933,8.715151009449393,8.011648857977859,9.70840483205393e-05,0.1197265535593032,0,0,0
738,32681.35789874616,2011-01-31 19:55:52,1140.57182990029,2,6,0.5497553944587708,4.116767406463623,2.124549296340366,2.342499340229933,8.734018739789667,8.011648857977859,9.70840483205393e-05,0.1197265535593032,0,0,0
739,32711.373014099045,2011-01-31 19:56:22,1170.5869452732193,2,6,0.5499359965324402,4.120652675628662,2.129134365333251,2.342499340229933,8.752903397080358,8.011648857977859,9.70840483205393e-05,0.1197265535593032,0,0,0
740,32741.39059717725,2011-01-31 19:56:52,1200.6045283414046,2,6,0.5499359965324402,4.12437629699707,2.133719737665802,2.342499340229933,8.771806641254285,8.011648857977859,9.71794142969884e-05,0.1197265535593032,0,0,0
741,32771.403274433644,2011-01-31 19:57:22,1230.6172055977977,2,6,0.5501165986061096,4.128261566162109,2.138304423937004,2.342499340229933,8.790724454593345,8.011648857977859,9.71794142969884e-05,0.1197265535593032,0,0,0
742,32801.418370518506,2011-01-31 19:57:52,1260.6323016876677,2,6,0.5501165986061096,4.131984710693359,2.142889721151279,2.342499340229933,8.809662345434122,8.011648857977859,6.47544875391759e-05,0.1197265535593032,0,0,0
743,32831.43349035255,2011-01-31 19:58:22,1290.6474214966531,2,6,0.5501165986061096,4.135869979858398,2.147475667883284,2.342499340229933,8.828620489174359,8.011648857977859,6.47544875391759e-05,0.1197265535593032,0,0,0
744,32861.45066604042,2011-01-31 19:58:52,1320.6645973298837,2,6,0.5501165986061096,4.1397552490234375,2.152061946434843,2.342499340229933,8.847597616084407,8.011648857977859,0.0001295089750783,0.1197265535593032,0,0,0
745,32891.46380448122,2011-01-31 19:59:22,1350.67773575064,2,6,0.5497553944587708,4.143478870391846,2.156647643174213,2.342499340229933,8.866590048056942,8.011648857977859,6.47544875391759e-05,0.1197265535593032,0,0,0
746,32921.478859799485,2011-01-31 19:59:52,1380.6927909435826,2,6,0.5499359965324402,4.147525787353516,2.161233527174872,2.342499340229933,8.885601236451139,8.011648857977859,9.70840483205393e-05,0.1197265535593032,0,0,0
747,32951.493995112105,2011-01-31 20:00:22,1410.7079262562077,2,6,0.5497553944587708,4.151249408721924,2.165818666912374,2.342499340229933,8.904627319467842,8.011648857977859,6.47544875391759e-05,0.1197265535593032,0,0,0
748,32981.50910915672,2011-01-31 20:00:52,1440.723040295814,2,6,0.5501165986061096,4.155458450317383,2.170403659511933,2.342499340229933,8.923670775399877,8.011648857977859,0.0001295089750783,0.1197265535593032,0,0,0
749,33011.52419775292,2011-01-31 20:01:22,1470.7381288970205,2,6,0.5497553944587708,4.159181594848633,2.174988641521276,2.342499340229933,8.942732280424824,8.011648857977859,9.70840483205393e-05,0.1197265535593032,0,0,0
750,33041.539319822536,2011-01-31 20:01:52,1500.75325100674,2,6,0.5499359965324402,4.163228988647461,2.179573648594744,2.342499340229933,8.96181211293313,8.011648857977859,6.47544875391759e-05,0.1197265535593032,0,0,0
751,33071.55445285949,2011-01-31 20:02:22,1530.768384028656,2,6,0.5499359965324402,4.167275905609131,2.184159346333517,2.342499340229933,8.980913033532726,8.011648857977859,9.70840483205393e-05,0.1197265535593032,0,0,0
752,33101.56955382652,2011-01-31 20:02:52,1560.7834849706187,2,6,0.5499359965324402,4.17148494720459,2.188745229019747,2.342499340229933,9.000032987976299,8.011648857977859,0.0001618385285837,0.1197265535593032,0,0,0
753,33131.58465348027,2011-01-31 20:03:22,1590.7985846193592,2,6,0.5499359965324402,4.175208568572998,2.193331177815246,2.342499340229933,9.019171545313965,8.011648857977859,9.71794142969884e-05,0.1197265535593032,0,0,0
754,33161.59979860736,2011-01-31 20:03:52,1620.8137297715075,2,6,0.5501165986061096,4.179417610168457,2.197917070217893,2.342499340229933,9.03832841493692,8.011648857977859,0.0001619339018361,0.1197265535593032,0,0,0
755,33191.61488572988,2011-01-31 20:04:22,1650.8288168739782,2,6,0.5499359965324402,4.183626651763916,2.202502997427292,2.342499340229933,9.057504124049188,8.011648857977859,0.0001295089750783,0.1197265535593032,0,0,0
756,33221.63001551372,2011-01-31 20:04:52,1680.843946657824,2,6,0.5499359965324402,4.187511920928955,2.207088931894238,2.342499340229933,9.076698666057652,8.011648857977859,6.47544875391759e-05,0.1197265535593032,0,0,0
757,33251.64511678651,2011-01-31 20:05:22,1710.8590479306115,2,6,0.5499359965324402,4.191720962524414,2.211674795986558,2.342499340229933,9.095911685727163,8.011648857977859,0.0001295089750783,0.1197265535593032,0,0,0
758,33281.66038134626,2011-01-31 20:05:52,1740.8743125154233,2,6,0.5501165986061096,4.195767879486084,2.216260726824964,2.342499340229933,9.115143855749762,8.011648857977859,9.71794142969884e-05,0.1197265535593032,0,0,0
759,33310.9410094008,2011-01-31 20:06:22,1770.154940539884,2,6,0.5501165986061096,4.200138568878174,2.220734456454562,2.342499340229933,9.133923871312524,8.011648857977859,0.0001618385285837,0.1197265535593032,0,0,0
760,33340.95468474811,2011-01-31 20:06:52,30.01513533267528,3,6,0.0,4.089247226715088,2.220734456454562,2.342499340229933,9.133923871312524,8.011648857977859,-0.0004856109735555,0.1197265535593032,0,0,0
761,33370.96979567496,2011-01-31 20:07:22,60.03024623446127,3,6,0.0,4.076296329498291,2.220734456454562,2.342499340229933,9.133923871312524,8.011648857977859,-0.0002590179501567,0.1197265535593032,0,0,0
762,33400.984916416266,2011-01-31 20:07:52,90.0453670158703,3,6,0.0,4.068039894104004,2.220734456454562,2.342499340229933,9.133923871312524,8.011648857977859,-0.0001942634553415,0.1197265535593032,0,0,0
763,33430.953137419,2011-01-31 20:08:22,120.01358797850028,3,6,0.0,4.062374114990234,2.220734456454562,2.342499340229933,9.133923871312524,8.011648857977859,-0.0001295089750783,0.1197265535593032,0,0,0
764,33430.953736170915,2011-01-31 20:08:22,2.631558654e-06,4,6,0.979605495929718,4.199976921081543,2.220734457170643,2.342499340229933,9.133923874320049,8.011648857977859,0.0,0.1197265535593032,0,0,0
765,33431.484966986565,2011-01-31 20:08:22,0.531233427156914,4,6,0.9293960928916932,4.199653148651123,2.220873859699179,2.342499340229933,9.134509337133704,8.011648857977859,-6.47544875391759e-05,0.1197265535593032,0,0,0
766,33433.54748002868,2011-01-31 20:08:25,2.593746504364725,4,6,0.8788254857063293,4.199653148651123,2.221390420484498,2.342499340229933,9.136678744147018,8.011648857977859,-6.47544875391759e-05,0.1197265535593032,0,0,0
767,33436.938246381746,2011-01-31 20:08:28,5.984512852416793,4,6,0.8286161422729492,4.199653148651123,2.222193078744994,2.342499340229933,9.140049708014155,8.011648857977859,-3.23295607813634e-05,0.1197265535593032,0,0,0
768,33441.734835618,2011-01-31 20:08:33,10.781102058592184,4,6,0.7785873413085938,4.199653148651123,2.223262196989535,2.342499340229933,9.14453972969564,8.011648857977859,0.0,0.1197265535593032,0,0,0
769,33448.23468807528,2011-01-31 20:08:39,17.280954520882815,4,6,0.7285585999488831,4.199814796447754,2.224621091210971,2.342499340229933,9.150246750040878,8.011648857977859,0.0,0.1197265535593032,0,0,0
770,33457.15641341999,2011-01-31 20:08:48,26.20267986558808,4,6,0.6783491969108582,4.199814796447754,2.226361653342232,2.342499340229933,9.1575567120302,8.011648857977859,3.23295607813634e-05,0.1197265535593032,0,0,0
771,33469.43774460116,2011-01-31 20:09:00,38.484011071825165,4,6,0.6283204555511475,4.199653148651123,2.228585604647218,2.342499340229933,9.166896799119424,8.011648857977859,-3.23295607813634e-05,0.1197265535593032,0,0,0
772,33487.874711129654,2011-01-31 20:09:19,56.92097760032696,4,6,0.5781110525131226,4.199653148651123,2.231665902807275,2.342499340229933,9.179833331848195,8.011648857977859,-3.23295607813634e-05,0.1197265535593032,0,0,0
773,33518.858535899475,2011-01-31 20:09:50,87.90480237013789,4,6,0.5280823111534119,4.199814796447754,2.236405908414787,2.342499340229933,9.199740278397648,8.011648857977859,0.0,0.1197265535593032,0,0,0
774,33577.12314464704,2011-01-31 20:10:48,146.16941109264627,4,6,0.4780535101890564,4.199653148651123,2.244506440523566,2.342499340229933,9.233760646230213,8.011648857977859,-3.23295607813634e-05,0.1197265535593032,0,0,0
775,33677.09018569743,2011-01-31 20:12:28,246.1364521630834,4,6,0.4280247390270233,4.199653148651123,2.257045762990802,2.342499340229933,9.286422970277696,8.011648857977859,-3.23295607813634e-05,0.1197265535593032,0,0,0
776,33812.13491351638,2011-01-31 20:14:43,381.1811799619822,4,6,0.3779959678649902,4.199814796447754,2.27213667937241,2.342499340229933,9.349801541856566,8.011648857977859,3.23295607813634e-05,0.1197265535593032,0,0,0
777,33978.27259496784,2011-01-31 20:17:29,547.3188614385083,4,6,0.3279671967029571,4.199653148651123,2.288407059976613,2.342499340229933,9.4181334739444,8.011648857977859,-3.23295607813634e-05,0.1197265535593032,0,0,0
778,34183.45674547449,2011-01-31 20:20:54,752.5030119150806,4,6,0.2779384255409241,4.199814796447754,2.305646451017927,2.342499340229933,9.490534959341009,8.011648857977859,0.0,0.1197265535593032,0,0,0
779,34437.18679313404,2011-01-31 20:25:08,1006.2330595796446,4,6,0.2279096692800521,4.199653148651123,2.323434028791786,2.342499340229933,9.56523872659236,8.011648857977859,-3.23295607813634e-05,0.1197265535593032,0,0,0
780,34765.478926433185,2011-01-31 20:30:37,1334.5251929138778,4,6,0.1777002811431884,4.199814796447754,2.341866826108329,2.342499340229933,9.642652284288332,8.011648857977859,3.23295607813634e-05,0.1197265535593032,0,0,0
781,35212.09798587556,2011-01-31 20:38:03,1781.1442523512446,4,6,0.1276715099811554,4.199653148651123,2.360676586373031,2.342499340229933,9.721648826868616,8.011648857977859,-3.23295607813634e-05,0.1197265535593032,0,0,0
782,35897.71098098723,2011-01-31 20:49:29,2466.757247482957,4,6,0.0776427462697029,4.199653148651123,2.379892473744123,2.342499340229933,9.802350876992891,8.011648857977859,0.0,0.1197265535593032,0,0,0
783,36571.66614458574,2011-01-31 21:00:43,3140.712411026327,4,6,0.0498289167881011,4.199653148651123,2.39168734527939,2.342499340229933,9.851886517140375,8.011648857977859,0.0,0.1197265535593032,0,0,0
784,36601.678403998274,2011-01-31 21:01:13,30.013136801721213,5,6,0.0,4.189130783081055,2.39168734527939,2.342499340229933,9.851886517140375,8.011648857977859,-6.47544875391759e-05,0.1197265535593032,0,0,0
785,36631.677917195775,2011-01-31 21:01:43,60.01265001426633,5,6,0.0,4.187511920928955,2.39168734527939,2.342499340229933,9.851886517140375,8.011648857977859,-3.23295607813634e-05,0.1197265535593032,0,0,0
786,36631.865434223735,2011-01-31 21:01:43,0.187493747108177,6,6,-1.9243103452026844e-05,4.187673568725586,2.39168734527939,2.342499341232145,9.851886517140375,8.011648862174793,0.0,0.1199430525302887,0,0,0
787,36636.69349402432,2011-01-31 21:01:48,5.015553547688084,6,6,0.0005225847125984,4.187349796295166,2.391688243147272,2.342499341315975,9.851890277067282,8.011648862525844,-6.47544875391759e-05,0.1199430525302887,0,0,0
788,36646.11530936887,2011-01-31 21:01:57,9.421577109102689,7,6,-1.099568486213684,3.987259149551392,2.391688243147272,2.345376911693031,9.851890277067282,8.023162542959962,-0.0021368502639234,0.1199430525302887,0,0,0
789,36676.13289135937,2011-01-31 21:02:28,39.43915911965205,7,6,-1.099568486213684,3.924447298049927,2.391688243147272,2.354544940974649,9.851890277067282,8.059424035487666,-0.0016512393485754,0.1199430525302887,0,0,0
790,36706.14555415973,2011-01-31 21:02:58,69.45182193004102,7,6,-1.099568486213684,3.862445116043091,2.391688243147272,2.363711424296386,9.851890277067282,8.095115636489979,-0.0016836166614666,0.1199430525302887,0,0,0
791,36736.16063220462,2011-01-31 21:03:28,99.46689995990003,7,6,-1.0993878841400146,3.8015761375427246,2.391688243147272,2.372878630599939,9.851890277067282,8.130241032756857,-0.0015541076427325,0.1199430525302887,0,0,0
792,36766.17576267519,2011-01-31 21:03:58,129.48203041541996,7,6,-1.099568486213684,3.749449014663696,2.391688243147272,2.382045859382906,9.851890277067282,8.16484385189243,-0.0012950419913977,0.1199430525302887,0,0,0
793,36796.19078960268,2011-01-31 21:04:28,159.49705735294117,7,6,-1.0993878841400146,3.7080061435699454,2.391688243147272,2.391213119020039,9.851890277067282,8.199018581673114,-0.0010036944877356,0.1199430525302887,0,0,0
794,36826.20590614854,2011-01-31 21:04:58,189.5121739038064,7,6,-1.099568486213684,3.6743338108062735,2.391688243147272,2.400380490604294,9.851890277067282,8.232851887749328,-0.0008418083307333,0.1199430525302887,0,0,0
795,36856.22112186155,2011-01-31 21:05:28,219.52738959175173,7,6,-1.0992072820663452,3.6463277339935294,2.391688243147272,2.409547877074874,9.851890277067282,8.266405106754426,-0.0007446765666827,0.1199430525302887,0,0,0
796,36886.236116323125,2011-01-31 21:05:58,249.54238405333297,7,6,-1.099568486213684,3.622206687927246,2.391688243147272,2.418715152789058,9.851890277067282,8.299719321033672,-0.0006151676061563,0.1199430525302887,0,0,0
797,36916.25137046191,2011-01-31 21:06:28,279.557638217172,7,6,-1.099568486213684,3.6005139350891118,2.391688243147272,2.427882498152019,9.851890277067282,8.332824483969897,-0.0005504131549969,0.1199430525302887,0,0,0
798,36946.266480351165,2011-01-31 21:06:58,309.5727480813721,7,6,-1.0993878841400146,3.580925941467285,2.391688243147272,2.437049844554061,9.851890277067282,8.36574022480381,-0.0004856586456298,0.1199430525302887,0,0,0
799,36976.28146024644,2011-01-31 21:07:28,339.58772796662447,7,6,-1.0993878841400146,3.562794685363769,2.391688243147272,2.446217099065316,9.851890277067282,8.39848252269491,-0.0004532813909463,0.1199430525302887,0,0,0
800,37006.2965902358,2011-01-31 21:07:58,369.6028579660076,7,6,-1.0997490882873535,3.5459585189819336,2.391688243147272,2.455384408558815,9.851890277067282,8.431065520055318,-0.0004209041653666,0.1199430525302887,0,0,0
801,37036.31173603456,2011-01-31 21:08:28,399.6180037547426,7,6,-1.0997490882873535,3.5300936698913574,2.391688243147272,2.464551820563163,9.851890277067282,8.463499821884106,-0.0004532813909463,0.1199430525302887,0,0,0
802,37066.32693773264,2011-01-31 21:08:58,429.63320546284586,7,6,-1.099568486213684,3.515200138092041,2.391688243147272,2.473719134793538,9.851890277067282,8.495793335440906,-0.0004209041653666,0.1199430525302887,0,0,0
803,37096.34192676569,2011-01-31 21:09:28,459.64819451594747,7,6,-1.0993878841400146,3.501116275787353,2.391688243147272,2.482886492083351,9.851890277067282,8.527953967302668,-0.0003561496851034,0.1199430525302887,0,0,0
804,37126.35705446434,2011-01-31 21:09:58,489.6633221895339,7,6,-1.099568486213684,3.4880034923553467,2.391688243147272,2.49205389128349,9.851890277067282,8.55998997476385,-0.0003237724304199,0.1199430525302887,0,0,0
805,37156.37217644875,2011-01-31 21:10:28,519.6784441789537,7,6,-1.0997490882873535,3.4753763675689697,2.391688243147272,2.501221260094465,9.851890277067282,8.591908146681986,-0.0003561496851034,0.1199430525302887,0,0,0
806,37186.38727555614,2011-01-31 21:10:58,549.6935432813319,7,6,-1.0997490882873535,3.4632349014282227,2.391688243147272,2.510388603891398,9.851890277067282,8.623713201929393,-0.0003237724304199,0.1199430525302887,0,0,0
807,37216.40238678875,2011-01-31 21:11:28,579.7086545490299,7,6,-1.099568486213684,3.4517409801483154,2.391688243147272,2.519556000946812,9.851890277067282,8.655410035314192,-0.0003561496851034,0.1199430525302887,0,0,0
808,37246.41766157399,2011-01-31 21:11:58,609.7239292991765,7,6,-1.099568486213684,3.440408945083618,2.391688243147272,2.528723479070663,9.851890277067282,8.687002872791306,-0.0003561496851034,0.1199430525302887,0,0,0
809,37276.43265761952,2011-01-31 21:12:28,639.7389253396927,7,6,-1.099568486213684,3.42972469329834,2.391688243147272,2.537890848709717,9.851890277067282,8.718494247794059,-0.0003237724304199,0.1199430525302887,0,0,0
810,37306.43422324731,2011-01-31 21:12:58,669.7404910075882,7,6,-1.099568486213684,3.4190402030944824,2.391688243147272,2.547054188912586,9.851890277067282,8.74987381277142,-0.0003237724304199,0.1199430525302887,0,0,0
811,37336.44723385952,2011-01-31 21:13:28,699.7535015847188,7,6,-1.099568486213684,3.408679485321045,2.391688243147272,2.556220995522563,9.851890277067282,8.781168206336874,-0.0002913951757363,0.1199430525302887,0,0,0
812,37366.46234459089,2011-01-31 21:13:58,729.76861231608,7,6,-1.0992072820663452,3.3979949951171875,2.391688243147272,2.565388419615126,9.851890277067282,8.812367421331375,-0.0002590179501567,0.1199430525302887,0,0,0
813,37396.47748186841,2011-01-31 21:14:28,759.783749598615,7,6,-1.0993878841400146,3.38714861869812,2.391688243147272,2.57455581916122,9.851890277067282,8.843468973897062,-0.0003237724304199,0.1199430525302887,0,0,0
814,37426.4925966248,2011-01-31 21:14:58,789.7988643800702,7,6,-1.099568486213684,3.3761403560638428,2.391688243147272,2.58372327800395,9.851890277067282,8.874470343851621,-0.0002913951757363,0.1199430525302887,0,0,0
815,37456.5077038023,2011-01-31 21:15:28,819.8139715325118,7,6,-1.0993878841400146,3.3646464347839355,2.391688243147272,2.592890731690587,9.851890277067282,8.905367379458093,-0.0002913951757363,0.1199430525302887,0,0,0
816,37486.52283318013,2011-01-31 21:15:58,849.8291009253832,7,6,-1.099568486213684,3.3526668548583984,2.391688243147272,2.602058173621079,9.851890277067282,8.936157838723906,-0.0003237724304199,0.1199430525302887,0,0,0
817,37516.53788373653,2011-01-31 21:16:28,879.8441514667325,7,6,-1.0993878841400146,3.3403637409210205,2.391688243147272,2.611225210470292,9.851890277067282,8.966837285261036,-0.0003561496851034,0.1199430525302887,0,0,0
818,37546.553224626514,2011-01-31 21:16:58,909.8594923567198,7,6,-1.0993878841400146,3.3275747299194336,2.391688243147272,2.620391888255365,9.851890277067282,8.997400432956022,-0.0003561496851034,0.1199430525302887,0,0,0
819,37576.56826170932,2011-01-31 21:17:28,939.8745294395262,7,6,-1.099568486213684,3.313490629196167,2.391688243147272,2.62955858208234,9.851890277067282,9.027839892049847,-0.0004209041653666,0.1199430525302887,0,0,0
820,37606.58324258705,2011-01-31 21:17:58,969.8895103172524,7,6,-1.0992072820663452,3.2987589836120605,2.391688243147272,2.638725085984695,9.851890277067282,9.058146550031424,-0.0004209041653666,0.1199430525302887,0,0,0
821,37636.59834696256,2011-01-31 21:18:28,999.9046146927728,7,6,-1.0993878841400146,3.2828941345214844,2.391688243147272,2.647891531037665,9.851890277067282,9.088312167672758,-0.0004209041653666,0.1199430525302887,0,0,0
822,37666.613558555306,2011-01-31 21:18:58,1029.919826310574,7,6,-1.0993878841400146,3.265734434127808,2.391688243147272,2.657058114869384,9.851890277067282,9.118327145781034,-0.0004856586456298,0.1199430525302887,0,0,0
823,37696.62863396864,2011-01-31 21:19:28,1059.934901693837,7,6,-1.0993878841400146,3.246955633163452,2.391688243147272,2.6662248921181,9.851890277067282,9.148179308782618,-0.0005180359003134,0.1199430525302887,0,0,0
824,37726.64387207748,2011-01-31 21:19:58,1089.9501398176997,7,6,-1.099568486213684,3.226719856262207,2.391688243147272,2.675392191501172,9.851890277067282,9.177852940545492,-0.0005504131549969,0.1199430525302887,0,0,0
825,37756.65891072919,2011-01-31 21:20:28,1119.9651784593907,7,6,-1.099568486213684,3.2048652172088623,2.391688243147272,2.684559432976244,9.851890277067282,9.20733506805914,-0.0005827903514727,0.1199430525302887,0,0,0
826,37786.67426352384,2011-01-31 21:20:58,1149.9805312590613,7,6,-1.099568486213684,3.180744409561157,2.391688243147272,2.693726756132966,9.851890277067282,9.23660675394052,-0.0007446765666827,0.1199430525302887,0,0,0
827,37816.68911711934,2011-01-31 21:21:28,1179.995384849548,7,6,-1.099568486213684,3.1540331840515137,2.391688243147272,2.702894250258801,9.851890277067282,9.265646256621034,-0.0007446765666827,0.1199430525302887,0,0,0
828,37846.70437780444,2011-01-31 21:21:58,1210.0106455546902,7,6,-1.099568486213684,3.123598575592041,2.391688243147272,2.712062290062472,9.851890277067282,9.294424860508478,-0.0008741855854168,0.1199430525302887,0,0,0
829,37876.71933989534,2011-01-31 21:22:28,1240.0256076255437,7,6,-1.099568486213684,3.090088367462158,2.391688243147272,2.721229963588412,9.851890277067282,9.322910544592544,-0.0009065627818927,0.1199430525302887,0,0,0
830,37906.73696583537,2011-01-31 21:22:58,1270.0432336006663,7,6,-1.0997490882873535,3.051235675811768,2.391688243147272,2.730398029856407,9.851890277067282,9.351068365228796,-0.0011332035064697,0.1199430525302887,0,0,0
831,37936.74955982424,2011-01-31 21:23:28,1300.0558275594558,7,6,-1.099568486213684,3.005745887756348,2.391688243147272,2.739564548720455,9.851890277067282,9.378838247925442,-0.0013598442310467,0.1199430525302887,0,0,0
832,37966.76466620476,2011-01-31 21:23:58,1330.0709339299483,7,6,-1.0997490882873535,2.950057029724121,2.391688243147272,2.748731901730426,9.851890277067282,9.406146441016968,-0.0016512393485754,0.1199430525302887,0,0,0
833,37996.77977990853,2011-01-31 21:24:28,1360.0860476337175,7,6,-1.099568486213684,2.880608081817627,2.391688243147272,2.757899257341686,9.851890277067282,9.43288575840914,-0.0020397664047777,0.1199430525302887,0,0,0
834,38026.79506082404,2011-01-31 21:24:58,1390.1013285492304,7,6,-1.099568486213684,2.7915709018707275,2.391688243147272,2.767066707776266,9.851890277067282,9.458900976075247,-0.0025901794433593,0.1199430525302887,0,0,0
835,38052.41948217648,2011-01-31 21:25:24,1415.725749901678,7,6,-1.099568486213684,2.699943780899048,2.391688243147272,2.774893007578961,9.851890277067282,9.480399331589949,-0.0030757903587073,0.1199430525302887,0,0,0
836,38112.435257451725,2011-01-31 21:26:24,60.01498453761683,8,6,0.0,3.729051351547241,2.391688243147272,2.774893007578961,9.851890277067282,9.480399331589949,0.0008094310760498,0.1199430525302887,0,0,0
837,38112.63984053928,2011-01-31 21:26:24,0.203137355794442,9,6,-1.9243103452026844e-05,3.729051351547241,2.391688243147272,2.774893008664792,9.851890277067282,9.480399335639072,0.0,0.1197265535593032,0,0,0
838,38117.45222902712,2011-01-31 21:26:29,5.015525848653568,9,6,0.0003419754502829,3.73374605178833,2.391689099532165,2.774893008664792,9.85189347292685,9.480399335639072,0.0006475448608398,0.1197265535593032,0,0,0
