Data_Point,Test_Time(s),Date_Time,Step_Time(s),Step_Index,Cycle_Index,Current(A),Voltage(V),Charge_Capacity(Ah),Discharge_Capacity(Ah),Charge_Energy(Wh),Discharge_Energy(Wh),dV/dt(V/s),Internal_Resistance(Ohm),Is_FC_Data,AC_Impedance(Ohm),ACI_Phase_Angle(Deg)
4827,226221.3106935184,2011-02-03 01:42:12,30.015121132283536,1,40,0.0,3.789596557617188,14.37352863539533,14.65713221566642,59.36657084832643,49.63010067587193,0.0004532813909463,0.122962400317192,0,0,0
4828,226251.32580057057,2011-02-03 01:42:42,60.03022818447515,1,40,0.0,3.8027093410491934,14.37352863539533,14.65713221566642,59.36657084832643,49.63010067587193,0.0003237724304199,0.122962400317192,0,0,0
4829,226281.34090295108,2011-02-03 01:43:12,90.0453305750486,1,40,0.0,3.813070058822632,14.37352863539533,14.65713221566642,59.36657084832643,49.63010067587193,0.0002913951757363,0.122962400317192,0,0,0
4830,226311.3092840829,2011-02-03 01:43:42,120.01371170185692,1,40,0.0,3.82132625579834,14.37352863539533,14.65713221566642,59.36657084832643,49.63010067587193,0.0002266406954731,0.122962400317192,0,0,0
4831,226341.32384628223,2011-02-03 01:44:12,30.015097553518,2,40,0.5497553944587708,3.945978164672852,14.378113992719124,14.65713221566642,59.38458014712113,49.63010067587193,0.0007446765666827,0.122962400317192,0,0,0
4832,226371.33910588964,2011-02-03 01:44:42,60.03035719099911,2,40,0.5499359965324402,3.968156576156616,14.382699374852807,14.65713221566642,59.40272864743126,49.63010067587193,0.0004856586456298,0.122962400317192,0,0,0
4833,226401.35408781,2011-02-03 01:45:12,90.04533908124864,2,40,0.5501165986061096,3.984830856323242,14.387284692517271,14.65713221566642,59.42096354020752,49.63010067587193,0.0004209041653666,0.122962400317192,0,0,0
4834,226431.3693225504,2011-02-03 01:45:42,120.06057394197846,2,40,0.5501165986061096,3.9989147186279297,14.39186994158864,14.65713221566642,59.43926749112571,49.63010067587193,0.0003885269106831,0.122962400317192,0,0,0
4835,226461.3844457979,2011-02-03 01:46:12,150.07569709429654,2,40,0.5499359965324402,4.011218070983887,14.396455158936044,14.65713221566642,59.457631716088365,49.63010067587193,0.0003237724304199,0.122962400317192,0,0,0
4836,226491.39956540643,2011-02-03 01:46:42,180.09081667771986,2,40,0.5499359965324402,4.022388458251953,14.401040378631452,14.65713221566642,59.47605045724909,49.63010067587193,0.0002266883820993,0.122962400317192,0,0,0
4837,226521.4147633251,2011-02-03 01:47:12,210.10601459637863,2,40,0.5499359965324402,4.032749176025391,14.405625599691838,14.65713221566642,59.49451881482235,49.63010067587193,0.0002266883820993,0.122962400317192,0,0,0
4838,226551.429659602,2011-02-03 01:47:42,240.12091087325337,2,40,0.5499359965324402,4.04246187210083,14.410210812538612,14.65713221566642,59.51303247749584,49.63010067587193,0.0002590179501567,0.122962400317192,0,0,0
4839,226581.44475869436,2011-02-03 01:48:12,270.13600999066904,2,40,0.5499359965324402,4.051042079925537,14.414795984317838,14.65713221566642,59.531587856777854,49.63010067587193,0.0001942634553415,0.122962400317192,0,0,0
4840,226611.4598757164,2011-02-03 01:48:42,300.15112698764614,2,40,0.5499359965324402,4.059298038482666,14.419381278470851,14.65713221566642,59.55018251106344,49.63010067587193,0.0002265930233988,0.122962400317192,0,0,0
4841,226641.4749807636,2011-02-03 01:49:12,330.1662320398532,2,40,0.5499359965324402,4.066744804382324,14.42396656850044,14.65713221566642,59.568812992276015,49.63010067587193,0.0001942634553415,0.122962400317192,0,0,0
4842,226671.49012973023,2011-02-03 01:49:42,360.18138100149605,2,40,0.5499359965324402,4.074029922485352,14.428551805964918,14.65713221566642,59.587477070358815,49.63010067587193,0.0001942634553415,0.122962400317192,0,0,0
4843,226701.50522663712,2011-02-03 01:50:12,390.1964779084026,2,40,0.5501165986061096,4.080667018890381,14.433137064375268,14.65713221566642,59.606172805916174,49.63010067587193,0.0001942634553415,0.122962400317192,0,0,0
4844,226731.52040195448,2011-02-03 01:50:42,420.21165334603165,2,40,0.5499359965324402,4.086818695068359,14.437722342222996,14.65713221566642,59.62489836971377,49.63010067587193,0.0001295089750783,0.122962400317192,0,0,0
4845,226761.5354454683,2011-02-03 01:51:12,450.2266967395663,2,40,0.5499359965324402,4.092970371246338,14.44230756216265,14.65713221566642,59.64365212247824,49.63010067587193,0.0001295089750783,0.122962400317192,0,0,0
4846,226791.5505617936,2011-02-03 01:51:42,480.2418130648694,2,40,0.5499359965324402,4.0987982749938965,14.44689280689221,14.65713221566642,59.66243310869643,49.63010067587193,0.0001295089750783,0.122962400317192,0,0,0
4847,226821.5675782847,2011-02-03 01:52:12,510.25882959105775,2,40,0.5499359965324402,4.104626178741455,14.451478370967289,14.65713221566642,59.68124152112495,49.63010067587193,0.0001618385285837,0.122962400317192,0,0,0
4848,226851.5807684394,2011-02-03 01:52:42,540.272019735726,2,40,0.5501165986061096,4.109806537628174,14.456063240131224,14.65713221566642,59.70007254033778,49.63010067587193,9.70840483205393e-05,0.122962400317192,0,0,0
4849,226881.5960850088,2011-02-03 01:53:12,570.2873362900614,2,40,0.5499359965324402,4.115148544311523,14.460648489125171,14.65713221566642,59.71892966114496,49.63010067587193,0.0001294136018259,0.122962400317192,0,0,0
4850,226911.613424144,2011-02-03 01:53:42,600.3046754152657,2,40,0.5499359965324402,4.120328903198242,14.465234063377313,14.65713221566642,59.73781198114142,49.63010067587193,0.0001295089750783,0.122962400317192,0,0,0
4851,226941.6261596556,2011-02-03 01:54:12,630.317410921836,2,40,0.5499359965324402,4.12534761428833,14.469818978335706,14.65713221566642,59.75671493608102,49.63010067587193,9.71794142969884e-05,0.122962400317192,0,0,0
4852,226971.64126842705,2011-02-03 01:54:42,660.3325196983251,2,40,0.5501165986061096,4.130527973175049,14.474404215306434,14.65713221566642,59.77564213460187,49.63010067587193,0.0001619339018361,0.122962400317192,0,0,0
4853,227001.65662115652,2011-02-03 01:55:12,690.3478724378451,2,40,0.5501165986061096,4.135222434997559,14.478989570209349,14.65713221566642,59.7945924308606,49.63010067587193,0.0001295089750783,0.122962400317192,0,0,0
4854,227031.6715085764,2011-02-03 01:55:42,720.3627598476203,2,40,0.5499359965324402,4.140079021453857,14.483574788762672,14.65713221566642,59.81356430814124,49.63010067587193,0.0001618385285837,0.122962400317192,0,0,0
4855,227061.6866271923,2011-02-03 01:56:12,750.37787845862,2,40,0.5499359965324402,4.144773960113525,14.488160094601806,14.65713221566642,59.832558536945456,49.63010067587193,0.0001295089750783,0.122962400317192,0,0,0
4856,227091.70173926203,2011-02-03 01:56:42,780.3929905583917,2,40,0.5499359965324402,4.149468421936035,14.49274538407118,14.65713221566642,59.85157467005694,49.63010067587193,0.0001295089750783,0.122962400317192,0,0,0
4857,227121.7169831052,2011-02-03 01:57:12,810.4082343764459,2,40,0.5497553944587708,4.154163360595703,14.49733071002135,14.65713221566642,59.87061237789345,49.63010067587193,9.71794142969884e-05,0.122962400317192,0,0,0
4858,227151.73211822737,2011-02-03 01:57:42,840.4233695086215,2,40,0.5499359965324402,4.158696174621582,14.50191593369815,14.65713221566642,59.88967092214176,49.63010067587193,6.47544875391759e-05,0.122962400317192,0,0,0
4859,227181.74719764065,2011-02-03 01:58:12,870.438448916916,2,40,0.5497553944587708,4.163552761077881,14.506501127093856,14.65713221566642,59.90875076748457,49.63010067587193,0.0001295089750783,0.122962400317192,0,0,0
4860,227211.76217722017,2011-02-03 01:58:42,900.4534284964064,2,40,0.5497553944587708,4.16808557510376,14.511086359284567,14.65713221566642,59.927852065631065,49.63010067587193,9.71794142969884e-05,0.122962400317192,0,0,0
4861,227241.7772930492,2011-02-03 01:59:12,930.4685443154476,2,40,0.5497553944587708,4.1727800369262695,14.515671594011463,14.65713221566642,59.94697454851767,49.63010067587193,0.0001295089750783,0.122962400317192,0,0,0
4862,227271.79241749976,2011-02-03 01:59:42,960.4836687910638,2,40,0.5499359965324402,4.177312850952148,14.520256890897947,14.65713221566642,59.96611844543644,49.63010067587193,0.0001295089750783,0.122962400317192,0,0,0
4863,227301.80754033127,2011-02-03 02:00:12,990.4987916025324,2,40,0.5499359965324402,4.182169437408447,14.524842193555012,14.65713221566642,59.985283561947206,49.63010067587193,0.0001295089750783,0.122962400317192,0,0,0
4864,227331.82263335347,2011-02-03 02:00:42,1020.5138846247572,2,40,0.550297200679779,4.186864376068115,14.529427472938316,14.65713221566642,60.00446974607415,49.63010067587193,0.0001942634553415,0.122962400317192,0,0,0
4865,227361.83775675145,2011-02-03 02:01:13,1050.529008022687,2,40,0.5499359965324402,4.191397190093994,14.534012734251132,14.65713221566642,60.02367713213017,49.63010067587193,0.0001619339018361,0.122962400317192,0,0,0
4866,227391.85530199533,2011-02-03 02:01:43,1080.5465532916653,2,40,0.5499359965324402,4.195929527282715,14.53859830768458,14.65713221566642,60.04290711252366,49.63010067587193,0.0001295089750783,0.122962400317192,0,0,0
4867,227417.85486735703,2011-02-03 02:02:09,1106.546118653413,2,40,0.5501165986061096,4.200138568878174,14.542570069647594,14.65713221566642,60.05958028604684,49.63010067587193,0.0001618385285837,0.122962400317192,0,0,0
4868,227447.87031770367,2011-02-03 02:02:39,30.015107779003053,3,40,0.0,4.091351509094238,14.542570069647594,14.65713221566642,60.05958028604684,49.63010067587193,-0.0003885269106831,0.122962400317192,0,0,0
4869,227477.8854089214,2011-02-03 02:03:09,60.03019899673031,3,40,0.0,4.079371929168701,14.542570069647594,14.65713221566642,60.05958028604684,49.63010067587193,-0.0002590179501567,0.122962400317192,0,0,0
4870,227507.9006665188,2011-02-03 02:03:39,90.04545661918937,3,40,0.0,4.071925163269043,14.542570069647594,14.65713221566642,60.05958028604684,49.63010067587193,-0.0001619339018361,0.122962400317192,0,0,0
4871,227537.8689133158,2011-02-03 02:04:09,120.01370339114408,3,40,0.0,4.066744804382324,14.542570069647594,14.65713221566642,60.05958028604684,49.63010067587193,-9.71794142969884e-05,0.122962400317192,0,0,0
4872,227537.8736015607,2011-02-03 02:04:09,2.766895956e-06,4,40,0.9460121393203736,4.199653148651123,14.542570070374682,14.65713221566642,60.05958028910035,49.63010067587193,0.0,0.122962400317192,0,0,0
4873,227538.43610249116,2011-02-03 02:04:09,0.562503672229248,4,40,0.8954415321350098,4.199814796447754,14.542712238310436,14.65713221566642,60.06017735372251,49.63010067587193,3.23295607813634e-05,0.122962400317192,0,0,0
4874,227540.60804085984,2011-02-03 02:04:12,2.734442050957772,4,40,0.8450515866279602,4.199814796447754,14.543235672250177,14.65713221566642,60.062375630769615,49.63010067587193,3.23295607813634e-05,0.122962400317192,0,0,0
4875,227544.2329964295,2011-02-03 02:04:15,6.359397640658256,4,40,0.7950227856636047,4.199653148651123,14.544059912506295,14.65713221566642,60.06583722885171,49.63010067587193,-3.23295607813634e-05,0.122962400317192,0,0,0
4876,227549.54539191863,2011-02-03 02:04:20,11.671793129800426,4,40,0.7448134422302246,4.199653148651123,14.545194182889428,14.65713221566642,60.07060086632752,49.63010067587193,-3.23295607813634e-05,0.122962400317192,0,0,0
4877,227556.8733938041,2011-02-03 02:04:28,18.99979499020636,4,40,0.6947846412658691,4.199653148651123,14.54665670849937,14.65713221566642,60.07674311936674,49.63010067587193,0.0,0.122962400317192,0,0,0
4878,227566.98248541588,2011-02-03 02:04:38,29.10888660700515,4,40,0.6447558999061584,4.199814796447754,14.548533779901858,14.65713221566642,60.08462635728435,49.63010067587193,0.0,0.122962400317192,0,0,0
4879,227581.6384997632,2011-02-03 02:04:53,43.76490094928899,4,40,0.594727098941803,4.199653148651123,14.551050793488882,14.65713221566642,60.09519720344793,49.63010067587193,-3.23295607813634e-05,0.122962400317192,0,0,0
4880,227604.96621372417,2011-02-03 02:05:16,67.09261490522533,4,40,0.5446983575820923,4.199653148651123,14.554729560920771,14.65713221566642,60.11064713453717,49.63010067587193,0.0,0.122962400317192,0,0,0
4881,227645.63739137808,2011-02-03 02:05:57,107.7637925641599,4,40,0.4946695566177368,4.199976921081543,14.56057386181544,14.65713221566642,60.1351917992,49.63010067587193,3.24249267578125e-05,0.122962400317192,0,0,0
4882,227718.05803266945,2011-02-03 02:07:09,180.18443385553223,4,40,0.4446407854557037,4.199814796447754,14.569983805340115,14.65713221566642,60.17471130259193,49.63010067587193,0.0,0.122962400317192,0,0,0
4883,227825.5564054308,2011-02-03 02:08:57,287.68280674218823,4,40,0.3946120142936706,4.199653148651123,14.582490092096318,14.65713221566642,60.2272349539914,49.63010067587193,0.0,0.122962400317192,0,0,0
4884,227964.39951648947,2011-02-03 02:11:15,426.5259176755914,4,40,0.3445832431316376,4.199976921081543,14.596718252005587,14.65713221566642,60.28698983105701,49.63010067587193,6.47544875391759e-05,0.122962400317192,0,0,0
4885,228136.1446299218,2011-02-03 02:14:07,598.2710311129276,4,40,0.2945545017719269,4.199814796447754,14.61193517688312,14.65713221566642,60.3508973061408,49.63010067587193,0.0,0.122962400317192,0,0,0
4886,228350.4536133648,2011-02-03 02:17:41,812.5800145558932,4,40,0.2441644966602325,4.199653148651123,14.627942472475295,14.65713221566642,60.41812416969892,49.63010067587193,0.0,0.122962400317192,0,0,0
4887,228625.8862897027,2011-02-03 02:22:17,1088.012690893843,4,40,0.1941357254981994,4.199653148651123,14.644667754189832,14.65713221566642,60.48836642337537,49.63010067587193,-3.23295607813634e-05,0.122962400317192,0,0,0
4888,228998.17687352857,2011-02-03 02:28:29,1460.3032747146733,4,40,0.1441069543361663,4.199814796447754,14.662053057810931,14.65713221566642,60.5613806550142,49.63010067587193,0.0,0.122962400317192,0,0,0
4889,229556.72986445943,2011-02-03 02:37:48,2018.8562656405195,4,40,0.0940781906247139,4.199653148651123,14.680273317229595,14.65713221566642,60.637901445414094,49.63010067587193,0.0,0.122962400317192,0,0,0
4890,230505.85430584065,2011-02-03 02:53:37,2967.980707026744,4,40,0.0498289167881011,4.199814796447754,14.698562671311135,14.65713221566642,60.71471237213643,49.63010067587193,3.23295607813634e-05,0.122962400317192,0,0,0
4891,230535.8622395992,2011-02-03 02:54:07,30.015067142724945,5,40,0.0,4.188807010650635,14.698562671311135,14.65713221566642,60.71471237213643,49.63010067587193,-6.47544875391759e-05,0.122962400317192,0,0,0
4892,230565.86173320783,2011-02-03 02:54:37,60.01456075141121,5,40,0.0,4.186864376068115,14.698562671311135,14.65713221566642,60.71471237213643,49.63010067587193,-9.70840483205393e-05,0.122962400317192,0,0,0
4893,230566.0432474837,2011-02-03 02:54:37,0.187620066936056,6,40,-1.9243103452026844e-05,4.187026023864746,14.698562671311135,14.657132216669304,60.71471237213643,49.63010068007104,0.0,0.1217841282486915,0,0,0
4894,230570.87117606224,2011-02-03 02:54:42,5.015548640457756,6,40,0.0003419754502829,4.187026023864746,14.698563294460945,14.65713221675251,60.71471498134462,49.63010068041942,-3.24249267578125e-05,0.1217841282486915,0,0,0
4895,230577.70876414733,2011-02-03 02:54:49,6.843624242342454,7,40,-1.099568486213684,3.986935377120972,14.698563294460945,14.659222492876571,60.71471498134462,49.63845952845919,-0.0025901317130774,0.1217841282486915,0,0,0
4896,230607.72410440576,2011-02-03 02:55:19,36.85896451078072,7,40,-1.099568486213684,3.9132773876190186,14.698563294460945,14.668390143149193,60.71471498134462,49.674668759846426,-0.0019425868522375,0.1217841282486915,0,0,0
4897,230637.739141263,2011-02-03 02:55:49,66.87400136301243,7,40,-1.0993878841400146,3.8342769145965576,14.698563294460945,14.677557695861443,60.71471498134462,49.71019247056379,-0.0022664070129394,0.1217841282486915,0,0,0
4898,230667.756112376,2011-02-03 02:56:19,96.8909725060921,7,40,-1.0993878841400146,3.749610900878906,14.698563294460945,14.686725760444556,60.71471498134462,49.74495221266181,-0.0021044730674475,0.1217841282486915,0,0,0
4899,230697.7692470324,2011-02-03 02:56:49,126.904107127379,7,40,-1.099568486213684,3.678380966186523,14.698563294460945,14.695892667489648,60.71471498134462,49.77898421481096,-0.0016836166614666,0.1217841282486915,0,0,0
4900,230727.7843341048,2011-02-03 02:57:19,156.91919419977484,7,40,-1.099568486213684,3.623987436294556,14.698563294460945,14.705060157168164,60.71471498134462,49.81244475054336,-0.0012627125252038,0.1217841282486915,0,0,0
4901,230757.79946313173,2011-02-03 02:57:49,186.9343232267343,7,40,-1.099568486213684,3.582059144973755,14.698563294460945,14.714227669139412,60.71471498134462,49.845467988106485,-0.0010036944877356,0.1217841282486915,0,0,0
4902,230787.81456176296,2011-02-03 02:58:19,216.94942185793823,7,40,-1.099568486213684,3.548548698425293,14.698563294460945,14.72339517282073,60.71471498134462,49.8781487065048,-0.0008418083307333,0.1217841282486915,0,0,0
4903,230817.8297996061,2011-02-03 02:58:49,246.9646597261637,7,40,-1.099568486213684,3.5205423831939697,14.698563294460945,14.732562749243804,60.71471498134462,49.91054903211336,-0.0007122993702068,0.1217841282486915,0,0,0
4904,230847.84481115025,2011-02-03 02:59:19,276.9796712452574,7,40,-1.0993878841400146,3.4960978031158447,14.698563294460945,14.7417303256528,60.71471498134462,49.94270984228395,-0.0006475448608398,0.1217841282486915,0,0,0
4905,230877.85991615732,2011-02-03 02:59:49,306.9947762774145,7,40,-1.099568486213684,3.47472882270813,14.698563294460945,14.75089786914858,60.71471498134462,49.9746615261754,-0.0005504131549969,0.1217841282486915,0,0,0
4906,230907.87516647665,2011-02-03 03:00:19,337.0100265716093,7,40,-1.0997490882873535,3.4554643630981445,14.698563294460945,14.760065410732931,60.71471498134462,50.00642770567332,-0.0005504131549969,0.1217841282486915,0,0,0
4907,230937.89025282723,2011-02-03 03:00:49,367.025112932231,7,40,-1.0993878841400146,3.4379806518554688,14.698563294460945,14.769232928872768,60.71471498134462,50.03802554119066,-0.0004209041653666,0.1217841282486915,0,0,0
4908,230967.90524339912,2011-02-03 03:01:19,397.0401034890805,7,40,-1.099568486213684,3.421306610107422,14.698563294460945,14.778400466453958,60.71471498134462,50.069466792784766,-0.0004209041653666,0.1217841282486915,0,0,0
4909,230997.92298537836,2011-02-03 03:01:49,427.0578455936334,7,40,-1.099568486213684,3.405603647232056,14.698563294460945,14.787568803846415,60.71471498134462,50.10076273972194,-0.0004209041653666,0.1217841282486915,0,0,0
4910,231027.93550214972,2011-02-03 03:02:19,457.070362239736,7,40,-1.099568486213684,3.39038634300232,14.698563294460945,14.796735555421638,60.71471498134462,50.13191177125272,-0.0004209041653666,0.1217841282486915,0,0,0
4911,231057.9505883951,2011-02-03 03:02:49,487.08544849008297,7,40,-1.099568486213684,3.375654697418213,14.698563294460945,14.805903105738087,60.71471498134462,50.16292613340799,-0.0004209041653666,0.1217841282486915,0,0,0
4912,231087.96569920165,2011-02-03 03:03:19,517.1005592966316,7,40,-1.099568486213684,3.3610849380493164,14.698563294460945,14.815070665615911,60.71471498134462,50.193806194400445,-0.0003561496851034,0.1217841282486915,0,0,0
4913,231117.9808376671,2011-02-03 03:03:49,547.1156977671274,7,40,-1.099568486213684,3.346191644668579,14.698563294460945,14.824238308726782,60.71471498134462,50.22455022741883,-0.0003885269106831,0.1217841282486915,0,0,0
4914,231147.9960497611,2011-02-03 03:04:19,577.1309098611154,7,40,-1.0997490882873535,3.330650568008423,14.698563294460945,14.833405902316878,60.71471498134462,50.255156003467015,-0.0004209041653666,0.1217841282486915,0,0,0
4915,231178.01103529544,2011-02-03 03:04:49,607.1458953904347,7,40,-1.099568486213684,3.3146238327026367,14.698563294460945,14.842573442683102,60.71471498134462,50.28561761661065,-0.0004532813909463,0.1217841282486915,0,0,0
4916,231208.026283314,2011-02-03 03:05:19,637.1611434189828,7,40,-1.0993878841400146,3.297463893890381,14.698563294460945,14.85174101526929,60.71471498134462,50.31592776928931,-0.0004856586456298,0.1217841282486915,0,0,0
4917,231238.0414101204,2011-02-03 03:05:49,667.1762702404454,7,40,-1.099568486213684,3.279332637786865,14.698563294460945,14.860908588577129,60.71471498134462,50.34607568627883,-0.0004856586456298,0.1217841282486915,0,0,0
4918,231268.05843312776,2011-02-03 03:06:19,697.1932932277368,7,40,-1.099568486213684,3.259744644165039,14.698563294460945,14.870076677046928,60.71471498134462,50.37605148819104,-0.0005504131549969,0.1217841282486915,0,0,0
4919,231298.07150304777,2011-02-03 03:06:49,727.2063631377433,7,40,-1.099568486213684,3.238699436187744,14.698563294460945,14.879243648929338,60.71471498134462,50.405838111927366,-0.0005827903514727,0.1217841282486915,0,0,0
4920,231328.08664106712,2011-02-03 03:07:19,757.2215011621271,7,40,-1.099568486213684,3.2157115936279297,14.698563294460945,14.888411232259788,60.71471498134462,50.43542519225637,-0.0006475448608398,0.1217841282486915,0,0,0
4921,231358.10173705177,2011-02-03 03:07:49,787.236597146735,7,40,-1.0993878841400146,3.191104888916016,14.698563294460945,14.897578776563993,60.71471498134462,50.464795889303645,-0.0006799221155233,0.1217841282486915,0,0,0
4922,231388.1168458583,2011-02-03 03:08:19,817.2517059532988,7,40,-1.099568486213684,3.1634225845336914,14.698563294460945,14.906746328951852,60.71471498134462,50.49392558524566,-0.0007446765666827,0.1217841282486915,0,0,0
4923,231418.13195161227,2011-02-03 03:08:49,847.2668117122676,7,40,-1.099568486213684,3.132664203643799,14.698563294460945,14.91591396141226,60.71471498134462,50.522788213800936,-0.0008741855854168,0.1217841282486915,0,0,0
4924,231448.1471073558,2011-02-03 03:09:20,877.2819674508005,7,40,-1.099568486213684,3.0976970195770264,14.698563294460945,14.925081571963029,60.71471498134462,50.55135093048641,-0.0010036944877356,0.1217841282486915,0,0,0
4925,231478.1646420585,2011-02-03 03:09:50,907.2995022837688,7,40,-1.099568486213684,3.058196783065796,14.698563294460945,14.93424988060062,60.71471498134462,50.57957558884423,-0.0011008263099938,0.1217841282486915,0,0,0
4926,231508.17754770408,2011-02-03 03:10:20,937.3124077990532,7,40,-1.099568486213684,3.011735677719116,14.698563294460945,14.943416809988056,60.71471498134462,50.60740356139316,-0.0013274669181555,0.1217841282486915,0,0,0
4927,231538.1924269986,2011-02-03 03:10:50,967.3272871036276,7,40,-1.099568486213684,2.95556116104126,14.698563294460945,14.952584296139976,60.71471498134462,50.63476482026259,-0.0016512393485754,0.1217841282486915,0,0,0
4928,231568.2076490474,2011-02-03 03:11:20,997.342509162451,7,40,-1.099568486213684,2.8869216442108154,14.698563294460945,14.961751901912365,60.71471498134462,50.6615568322494,-0.0020073889754712,0.1217841282486915,0,0,0
4929,231598.222651138,2011-02-03 03:11:50,1027.3575112279837,7,40,-1.099568486213684,2.8004746437072754,14.698563294460945,14.970919474407763,60.71471498134462,50.68764388909508,-0.0025901794433593,0.1217841282486915,0,0,0
4930,231627.42539892087,2011-02-03 03:12:19,1056.560259015932,7,40,-1.099568486213684,2.699943780899048,14.698563294460945,14.979838973795344,60.71471498134462,50.712181489325744,-0.0028491497505456,0.1217841282486915,0,0,0
4931,231687.43618564945,2011-02-03 03:13:19,60.01457229016935,8,40,0.0,3.767580032348633,14.698563294460945,14.979838973795344,60.71471498134462,50.712181489325744,0.0007122993702068,0.1217841282486915,0,0,0
4932,231687.6209954188,2011-02-03 03:13:19,0.187431366636849,9,40,-1.9243103452026844e-05,3.7677419185638423,14.698563294460945,14.979838974797223,60.71471498134462,50.71218149310056,0.0,0.1223743334412574,0,0,0
4933,231692.4492539848,2011-02-03 03:13:24,5.015689942626238,9,40,0.0001613661734154,3.771789073944092,14.698563909893672,14.979838974978133,60.71471730159075,50.712181493782175,0.0005827903514727,0.1223743334412574,0,0,0
