Data_Point,Test_Time(s),Date_Time,Step_Time(s),Step_Index,Cycle_Index,Current(A),Voltage(V),Charge_Capacity(Ah),Discharge_Capacity(Ah),Charge_Energy(Wh),Discharge_Energy(Wh),dV/dt(V/s),Internal_Resistance(Ohm),Is_FC_Data,AC_Impedance(Ohm),ACI_Phase_Angle(Deg)
3460,159744.12171828366,2011-02-02 07:14:01,30.00201389000278,1,28,0.0,3.77955961227417,10.27699036052126,10.588251987142431,42.40979119593231,35.917212625160715,0.0003885269106831,0.1222637891769409,0,0,0
3461,159774.13447472238,2011-02-02 07:14:31,60.014770303679946,1,28,0.0,3.792348623275757,10.27699036052126,10.588251987142431,42.40979119593231,35.917212625160715,0.0002913951757363,0.1222637891769409,0,0,0
3462,159804.14956289754,2011-02-02 07:15:01,90.02985846879916,1,28,0.0,3.8023855686187744,10.27699036052126,10.588251987142431,42.40979119593231,35.917212625160715,0.0002266406954731,0.1222637891769409,0,0,0
3463,159834.12019487418,2011-02-02 07:15:31,120.00049048551774,1,28,0.0,3.8103179931640634,10.27699036052126,10.588251987142431,42.40979119593231,35.917212625160715,0.0002266406954731,0.1222637891769409,0,0,0
3464,159864.13337638183,2011-02-02 07:16:01,30.01305533367778,2,28,0.5501165986061096,3.9343223571777344,10.281575306641209,10.588251987142431,42.42774667162587,35.917212625160715,0.0007446765666827,0.1222637891769409,0,0,0
3465,159894.1484683364,2011-02-02 07:16:31,60.02814728824146,2,28,0.5501165986061096,3.955691337585449,10.286160565632102,10.588251987142431,42.44583860605008,35.917212625160715,0.0004856586456298,0.1222637891769409,0,0,0
3466,159924.1636053282,2011-02-02 07:17:01,90.04328428005182,2,28,0.5499359965324402,3.971070528030396,10.290745810373783,10.588251987142431,42.46401262863635,35.917212625160715,0.0003561496851034,0.1222637891769409,0,0,0
3467,159954.178678917,2011-02-02 07:17:31,120.05835787385485,2,28,0.5499359965324402,3.984021425247192,10.29533104041705,10.588251987142431,42.4822514643931,35.917212625160715,0.0002590179501567,0.1222637891769409,0,0,0
3468,159984.19378562336,2011-02-02 07:18:01,150.07346457517195,2,28,0.5499359965324402,3.995838880538941,10.299916098902132,10.588251987142431,42.500546170450775,35.917212625160715,0.0003237724304199,0.1222637891769409,0,0,0
3469,160014.20894120648,2011-02-02 07:18:31,180.08862016333015,2,28,0.5495747923851013,4.006199836730957,10.304501230951244,10.588251987142431,42.518892062079104,35.917212625160715,0.0002266883820993,0.1222637891769409,0,0,0
3470,160044.2240634816,2011-02-02 07:19:01,210.10374243344955,2,28,0.5499359965324402,4.016236782073975,10.30908637803408,10.588251987142431,42.5372846856832,35.917212625160715,0.0002914428769145,0.1222637891769409,0,0,0
3471,160074.2393298659,2011-02-02 07:19:31,240.11900882777076,2,28,0.5497553944587708,4.025140285491943,10.313671572891987,10.588251987142431,42.55572078786158,35.917212625160715,0.0001942634553415,0.1222637891769409,0,0,0
3472,160104.25442321895,2011-02-02 07:20:01,270.1341021657824,2,28,0.5499359965324402,4.033558368682861,10.318256753929468,10.588251987142431,42.57419680425309,35.917212625160715,0.0001942634553415,0.1222637891769409,0,0,0
3473,160134.26940919438,2011-02-02 07:20:31,300.14908814121344,2,28,0.5499359965324402,4.04149055480957,10.322841905922177,10.588251987142431,42.5927099679031,35.917212625160715,0.0002265930233988,0.1222637891769409,0,0,0
3474,160164.28452670266,2011-02-02 07:21:01,330.1642056544773,2,28,0.5499359965324402,4.0489373207092285,10.327427036173589,10.588251987142431,42.6112577717244,35.917212625160715,0.0001942634553415,0.1222637891769409,0,0,0
3475,160194.2996625917,2011-02-02 07:21:31,360.17934154855175,2,28,0.5501165986061096,4.055898666381836,10.33201219872052,10.588251987142431,42.62983845030347,35.917212625160715,0.0001942634553415,0.1222637891769409,0,0,0
3476,160224.31476623038,2011-02-02 07:22:01,390.19444520728587,2,28,0.5501165986061096,4.062211990356445,10.336597338967152,10.588251987142431,42.64844959485091,35.917212625160715,0.0001942634553415,0.1222637891769409,0,0,0
3477,160254.32988329252,2011-02-02 07:22:31,420.2095622744378,2,28,0.5499359965324402,4.068363666534424,10.341182450406922,10.588251987142431,42.66708957150919,35.917212625160715,0.0001618385285837,0.1222637891769409,0,0,0
3478,160284.3451384839,2011-02-02 07:23:01,450.2248174608254,2,28,0.5499359965324402,4.074353694915772,10.345767612877337,10.588251987142431,42.68575757190255,35.917212625160715,0.0001942634553415,0.1222637891769409,0,0,0
3479,160314.36014274493,2011-02-02 07:23:31,480.2398217268423,2,28,0.5499359965324402,4.07985782623291,10.350352757078792,10.588251987142431,42.70445207865622,35.917212625160715,9.71794142969884e-05,0.1222637891769409,0,0,0
3480,160344.37535505448,2011-02-02 07:24:01,510.2550340062925,2,28,0.5499359965324402,4.085361957550049,10.354937877706304,10.588251987142431,42.72317192299184,35.917212625160715,0.0001295089750783,0.1222637891769409,0,0,0
3481,160374.39034034318,2011-02-02 07:24:31,540.2700192950123,2,28,0.5497553944587708,4.090703964233398,10.35952293533686,10.588251987142431,42.74191614001601,35.917212625160715,0.0001295089750783,0.1222637891769409,0,0,0
3482,160404.40545977623,2011-02-02 07:25:01,570.2851387280608,2,28,0.5499359965324402,4.095884323120117,10.36410804543711,10.588251987142431,42.76068443202043,35.917212625160715,0.0001295089750783,0.1222637891769409,0,0,0
3483,160434.42261695795,2011-02-02 07:25:31,600.3022959448933,2,28,0.5499359965324402,4.100740909576416,10.368693461210544,10.588251987142431,42.77947715423874,35.917212625160715,9.70840483205393e-05,0.1222637891769409,0,0,0
3484,160464.4357138903,2011-02-02 07:26:01,630.3153928421605,2,28,0.5497553944587708,4.105597496032715,10.373278252784148,10.588251987142431,42.79828978592794,35.917212625160715,9.70840483205393e-05,0.1222637891769409,0,0,0
3485,160494.45083025072,2011-02-02 07:26:31,660.3305092075635,2,28,0.5499359965324402,4.110454082489014,10.377863377492975,10.588251987142431,42.81712588083533,35.917212625160715,9.70840483205393e-05,0.1222637891769409,0,0,0
3486,160524.46593131297,2011-02-02 07:27:01,690.3456102698264,2,28,0.5501165986061096,4.115148544311523,10.382448512501677,10.588251987142431,42.83598370279444,35.917212625160715,0.0001294136018259,0.1222637891769409,0,0,0
3487,160554.48105945272,2011-02-02 07:27:31,720.3607384045621,2,28,0.5499359965324402,4.119843482971191,10.38703363196966,10.588251987142431,42.85486284659934,35.917212625160715,0.0001619339018361,0.1222637891769409,0,0,0
3488,160584.49628320578,2011-02-02 07:28:01,750.3759621676332,2,28,0.5499359965324402,4.12437629699707,10.391618787544331,10.588251987142431,42.87376319810374,35.917212625160715,9.71794142969884e-05,0.1222637891769409,0,0,0
3489,160614.51140246837,2011-02-02 07:28:31,780.3910814553194,2,28,0.5499359965324402,4.128909111022949,10.396203910495112,10.588251987142431,42.89268428014211,35.917212625160715,0.0001295089750783,0.1222637891769409,0,0,0
3490,160644.52654080355,2011-02-02 07:29:01,810.4062197553905,2,28,0.5501165986061096,4.133441925048828,10.400789074392543,10.588251987142431,42.91162630549058,35.917212625160715,0.0001295089750783,0.1222637891769409,0,0,0
3491,160674.54180324302,2011-02-02 07:29:31,840.4214821998673,2,28,0.5497553944587708,4.137812614440918,10.405374256608592,10.588251987142431,42.93058890526049,35.917212625160715,0.0001295089750783,0.1222637891769409,0,0,0
3492,160704.5566483674,2011-02-02 07:30:01,870.4363273292668,2,28,0.5499359965324402,4.142345428466797,10.40995941690011,10.588251987142431,42.949571869814704,35.917212625160715,0.0001295089750783,0.1222637891769409,0,0,0
3493,160734.57174685324,2011-02-02 07:30:31,900.4514258151085,2,28,0.5501165986061096,4.146878242492676,10.41454456485286,10.588251987142431,42.96857535048094,35.917212625160715,0.0001295089750783,0.1222637891769409,0,0,0
3494,160764.58685982018,2011-02-02 07:31:01,930.4665387770287,2,28,0.5497553944587708,4.151249408721924,10.41912970883818,10.588251987142431,42.98759931675461,35.917212625160715,9.71794142969884e-05,0.1222637891769409,0,0,0
3495,160794.6044513244,2011-02-02 07:31:31,960.4841303012896,2,28,0.5497553944587708,4.155458450317383,10.423715303285864,10.588251987142431,43.006645534142365,35.917212625160715,6.47544875391759e-05,0.1222637891769409,0,0,0
3496,160824.61710955336,2011-02-02 07:32:01,990.4967885001852,2,28,0.5499359965324402,4.160152912139893,10.428300028746424,10.588251987142431,43.02570839127673,35.917212625160715,0.0001295089750783,0.1222637891769409,0,0,0
3497,160854.63221372335,2011-02-02 07:32:31,1020.511892675206,2,28,0.5499359965324402,4.164524078369141,10.432885147959253,10.588251987142431,43.04479330461161,35.917212625160715,0.0001295089750783,0.1222637891769409,0,0,0
3498,160884.6473365599,2011-02-02 07:33:01,1050.5270155067244,2,28,0.5499359965324402,4.16905689239502,10.437470294752698,10.588251987142431,43.063898582033765,35.917212625160715,0.0001619339018361,0.1222637891769409,0,0,0
3499,160914.6624906343,2011-02-02 07:33:31,1080.5421695911348,2,28,0.5497553944587708,4.173427581787109,10.442055392931277,10.588251987142431,43.08302410467483,35.917212625160715,0.0001295089750783,0.1222637891769409,0,0,0
3500,160944.67755791236,2011-02-02 07:34:01,1110.5572368641845,2,28,0.5501165986061096,4.178122520446777,10.446640554343118,10.588251987142431,43.10217032052894,35.917212625160715,0.0001619339018361,0.1222637891769409,0,0,0
3501,160974.69271427745,2011-02-02 07:34:31,1140.5723932543417,2,28,0.5499359965324402,4.182331562042236,10.451225711290164,10.588251987142431,43.121336921892336,35.917212625160715,9.71794142969884e-05,0.1222637891769409,0,0,0
3502,161004.707788578,2011-02-02 07:35:01,1170.5874675298437,2,28,0.5501165986061096,4.186864376068115,10.45581083588666,10.588251987142431,43.140523794874674,35.917212625160715,9.71794142969884e-05,0.1222637891769409,0,0,0
3503,161034.72499441603,2011-02-02 07:35:31,1200.6046733929177,2,28,0.5499359965324402,4.191397190093994,10.460396296049398,10.588251987142431,43.159732590043866,35.917212625160715,0.0001619339018361,0.1222637891769409,0,0,0
3504,161064.7381684355,2011-02-02 07:36:01,1230.6178473973596,2,28,0.5499359965324402,4.195929527282715,10.464981193249857,10.588251987142431,43.1789596633376,35.917212625160715,0.0001295089750783,0.1222637891769409,0,0,0
3505,161092.2240714931,2011-02-02 07:36:29,1258.1037505000925,2,28,0.5499359965324402,4.200138568878174,10.46917997378613,10.588251987142431,43.19658563983023,35.917212625160715,0.0001618385285837,0.1222637891769409,0,0,0
3506,161122.2454183622,2011-02-02 07:36:59,30.01514803934421,3,28,0.0,4.0903801918029785,10.46917997378613,10.588251987142431,43.19658563983023,35.917212625160715,-0.0004209518374409,0.1222637891769409,0,0,0
3507,161152.2604968482,2011-02-02 07:37:29,60.03022652534008,3,28,0.0,4.0780768394470215,10.46917997378613,10.588251987142431,43.19658563983023,35.917212625160715,-0.0002914428769145,0.1222637891769409,0,0,0
3508,161182.27561115345,2011-02-02 07:37:59,90.0453408205836,3,28,0.0,4.070468425750732,10.46917997378613,10.588251987142431,43.19658563983023,35.917212625160715,-0.0001618385285837,0.1222637891769409,0,0,0
3509,161212.2438725268,2011-02-02 07:38:29,120.01360222901694,3,28,0.0,4.065125942230225,10.46917997378613,10.588251987142431,43.19658563983023,35.917212625160715,-0.0001295089750783,0.1222637891769409,0,0,0
3510,161212.2566308784,2011-02-02 07:38:29,0.018034843378883,4,28,0.954320192337036,4.199814796447754,10.469184754623724,10.588251987142431,43.1966057184627,35.917212625160715,0.0,0.1222637891769409,0,0,0
3511,161212.8812094654,2011-02-02 07:38:30,0.642613320120917,4,28,0.9042913913726808,4.199653148651123,10.46934416067822,10.588251987142431,43.19727518311349,35.917212625160715,-3.23295607813634e-05,0.1222637891769409,0,0,0
3512,161215.08231402523,2011-02-02 07:38:32,2.843717905009408,4,28,0.8539014458656311,4.199653148651123,10.469880042800158,10.588251987142431,43.199525743337965,35.917212625160715,-3.23295607813634e-05,0.1222637891769409,0,0,0
3513,161218.69218124507,2011-02-02 07:38:36,6.453585099787162,4,28,0.8038726449012756,4.199653148651123,10.470709622063266,10.588251987142431,43.203009773139954,35.917212625160715,-3.23295607813634e-05,0.1222637891769409,0,0,0
3514,161223.8790375018,2011-02-02 07:38:41,11.640441351522256,4,28,0.7538439035415649,4.199653148651123,10.471829935646742,10.588251987142431,43.20771482547335,35.917212625160715,0.0,0.1222637891769409,0,0,0
3515,161231.01955151482,2011-02-02 07:38:48,18.78095537454888,4,28,0.7038151025772095,4.199653148651123,10.473273104556348,10.588251987142431,43.21377581221917,35.917212625160715,-3.23295607813634e-05,0.1222637891769409,0,0,0
3516,161240.8475533143,2011-02-02 07:38:58,28.60895729433357,4,28,0.6537863612174988,4.199814796447754,10.475122579279136,10.588251987142431,43.22154317057136,35.917212625160715,3.23295607813634e-05,0.1222637891769409,0,0,0
3517,161254.86291268226,2011-02-02 07:39:12,42.62431653197199,4,28,0.6035769581794739,4.199653148651123,10.477564169465754,10.588251987142431,43.231797285547295,35.917212625160715,3.24249267578125e-05,0.1222637891769409,0,0,0
3518,161276.8468884692,2011-02-02 07:39:34,64.60829231893335,4,28,0.5535482168197632,4.199814796447754,10.481085222016905,10.588251987142431,43.24658488872308,35.917212625160715,0.0,0.1222637891769409,0,0,0
3519,161315.11184238823,2011-02-02 07:40:12,102.87324624294396,4,28,0.5035194158554077,4.199814796447754,10.486678332668967,10.588251987142431,43.27007469503409,35.917212625160715,0.0,0.1222637891769409,0,0,0
3520,161385.39194898852,2011-02-02 07:41:22,173.15335284825258,4,28,0.4534906446933746,4.199814796447754,10.495979206148142,10.588251987142431,43.30913622513869,35.917212625160715,0.0,0.1222637891769409,0,0,0
3521,161492.31436293828,2011-02-02 07:43:09,280.0757668230821,4,28,0.4034618735313415,4.199653148651123,10.508675646054543,10.588251987142431,43.36245851577581,35.917212625160715,-3.23295607813634e-05,0.1222637891769409,0,0,0
3522,161632.2159513783,2011-02-02 07:45:29,419.9773552330423,4,28,0.3530718982219696,4.199653148651123,10.5233548613189,10.588251987142431,43.42410800333344,35.917212625160715,0.0,0.1222637891769409,0,0,0
3523,161804.33793732792,2011-02-02 07:48:21,592.0993411826398,4,28,0.3030431270599365,4.199814796447754,10.53902046732398,10.588251987142431,43.48990006546374,35.917212625160715,0.0,0.1222637891769409,0,0,0
3524,162018.4280449049,2011-02-02 07:51:55,806.1894487596009,4,28,0.2530143558979034,4.199491024017334,10.55551978577956,10.588251987142431,43.5591936180837,35.917212625160715,-6.47544875391759e-05,0.1222637891769409,0,0,0
3525,162286.939098409,2011-02-02 07:56:24,1074.7005022637188,4,28,0.2029855847358703,4.199653148651123,10.572479153433996,10.588251987142431,43.63041931086201,35.917212625160715,-3.23295607813634e-05,0.1222637891769409,0,0,0
3526,162651.44850860594,2011-02-02 08:02:28,1439.2099124556587,4,28,0.1527762115001678,4.199653148651123,10.590405663888667,10.588251987142431,43.705706731025046,35.917212625160715,0.0,0.1222637891769409,0,0,0
3527,163185.0177997246,2011-02-02 08:11:22,1972.7792035692803,4,28,0.1027474328875541,4.199653148651123,10.609125904230078,10.588251987142431,43.78432760433379,35.917212625160715,-3.23295607813634e-05,0.1222637891769409,0,0,0
3528,164208.2036425062,2011-02-02 08:28:25,2995.965046391005,4,28,0.0527186654508113,4.199653148651123,10.630323216228742,10.588251987142431,43.87335180882438,35.917212625160715,-3.23295607813634e-05,0.1222637891769409,0,0,0
3529,164304.2020966319,2011-02-02 08:30:01,3091.9635006119097,4,28,0.0498289167881011,4.199814796447754,10.631702196115734,10.588251987142431,43.87914322569406,35.917212625160715,3.23295607813634e-05,0.1222637891769409,0,0,0
3530,164334.21716936002,2011-02-02 08:30:31,30.01508334811376,5,28,0.0,4.188968658447266,10.631702196115734,10.588251987142431,43.87914322569406,35.917212625160715,-3.24249267578125e-05,0.1222637891769409,0,0,0
3531,164364.21664887358,2011-02-02 08:31:01,60.01456286167063,5,28,0.0,4.187349796295166,10.631702196115734,10.588251987142431,43.87914322569406,35.917212625160715,-3.24249267578125e-05,0.1222637891769409,0,0,0
3532,164364.40553579343,2011-02-02 08:31:02,0.187566307952127,6,28,0.0016062404029071,4.187835693359375,10.631702279803672,10.588251987142431,43.87914357616538,35.917212625160715,0.0,0.1208627671003341,0,0,0
3533,164369.23341923946,2011-02-02 08:31:06,5.015449754002283,6,28,0.0007031940040178,4.187188148498535,10.631702961948706,10.588251987142431,43.879146432544864,35.917212625160715,-3.23295607813634e-05,0.1208627671003341,0,0,0
3534,164377.04698405517,2011-02-02 08:31:14,7.812135595638361,7,28,-1.0997490882873535,3.9870972633361816,10.631702961948706,10.590638118788169,43.879146432544864,35.92675707275169,-0.0023958683013916,0.1208627671003341,0,0,0
3535,164407.06210346313,2011-02-02 08:31:44,37.82725500362442,7,28,-1.0997490882873535,3.9166767597198486,10.631702961948706,10.59980584385334,43.879146432544864,35.96298186218224,-0.0018455028766766,0.1208627671003341,0,0,0
3536,164437.07719038517,2011-02-02 08:32:14,67.84234193065795,7,28,-1.099568486213684,3.8439900875091553,10.631702961948706,10.608973545196347,43.879146432544864,35.998561558090714,-0.0020073889754712,0.1208627671003341,0,0,0
3537,164467.09233354736,2011-02-02 08:32:44,97.8574850928468,7,28,-1.0993878841400146,3.768065690994263,10.631702961948706,10.618141233390944,43.879146432544864,36.033448014976265,-0.0019102573860436,0.1208627671003341,0,0,0
3538,164497.10745564706,2011-02-02 08:33:14,127.87260721760389,7,28,-1.0993878841400146,3.703958988189697,10.631702961948706,10.627308925047725,43.879146432544864,36.067685792772,-0.0014893531333655,0.1208627671003341,0,0,0
3539,164527.12253786737,2011-02-02 08:33:44,157.88768940783183,7,28,-1.099568486213684,3.654098272323608,10.631702961948706,10.636476661396769,43.879146432544864,36.10140357787673,-0.0011979580158367,0.1208627671003341,0,0,0
3540,164557.137650719,2011-02-02 08:34:14,187.90280225947745,7,28,-1.099568486213684,3.6152455806732178,10.631702961948706,10.64564433444846,43.879146432544864,36.13471856608587,-0.0009389400365762,0.1208627671003341,0,0,0
3541,164587.1527730894,2011-02-02 08:34:44,217.9179246298467,7,28,-1.099568486213684,3.5836780071258545,10.631702961948706,10.654812059474986,43.879146432544864,36.16771321150362,-0.0007770538213662,0.1208627671003341,0,0,0
3542,164617.16988261737,2011-02-02 08:35:14,247.9350341828866,7,28,-1.099929690361023,3.556804895401001,10.631702961948706,10.663980314277657,43.879146432544864,36.20044323101805,-0.0006799221155233,0.1208627671003341,0,0,0
3543,164647.18303754926,2011-02-02 08:35:44,277.9481891198063,7,28,-1.099568486213684,3.5331695079803467,10.631702961948706,10.673147463987258,43.879146432544864,36.232938748425205,-0.0006151676061563,0.1208627671003341,0,0,0
3544,164677.19824728736,2011-02-02 08:36:14,307.96339882784787,7,28,-1.099568486213684,3.511638879776001,10.631702961948706,10.682315165022532,43.879146432544864,36.26523025650386,-0.000615119934082,0.1208627671003341,0,0,0
3545,164707.21339784298,2011-02-02 08:36:44,337.9785494536383,7,28,-1.099568486213684,3.4925363063812256,10.631702961948706,10.691482905211307,43.879146432544864,36.29733565457687,-0.0004856586456298,0.1208627671003341,0,0,0
3546,164737.2286097415,2011-02-02 08:37:14,367.9937613120392,7,28,-1.0997490882873535,3.47489070892334,10.631702961948706,10.700650667095156,43.879146432544864,36.32927362363646,-0.0004532813909463,0.1208627671003341,0,0,0
3547,164767.24350969752,2011-02-02 08:37:44,398.0086612480336,7,28,-1.099568486213684,3.458702087402344,10.631702961948706,10.709818324867088,43.879146432544864,36.36105588015104,-0.0004532813909463,0.1208627671003341,0,0,0
3548,164797.25860379744,2011-02-02 08:38:14,428.023755378019,7,28,-1.099568486213684,3.4434847831726074,10.631702961948706,10.71898604075562,43.879146432544864,36.39269425934212,-0.0004209041653666,0.1208627671003341,0,0,0
3549,164827.2738433298,2011-02-02 08:38:44,458.0389948702922,7,28,-1.0993878841400146,3.42891526222229,10.631702961948706,10.728153820409004,43.879146432544864,36.42419551780534,-0.0003561496851034,0.1208627671003341,0,0,0
3550,164857.28941066418,2011-02-02 08:39:15,488.0545622046485,7,28,-1.099568486213684,3.414669275283813,10.631702961948706,10.737321651117067,43.879146432544864,36.45556585629738,-0.0003885269106831,0.1208627671003341,0,0,0
3551,164887.29084310005,2011-02-02 08:39:45,518.055994675576,7,28,-1.099568486213684,3.401556491851806,10.631702961948706,10.746485185731512,43.879146432544864,36.48679614070818,-0.0003561496851034,0.1208627671003341,0,0,0
3552,164917.30357289733,2011-02-02 08:40:15,548.0687244378297,7,28,-1.099568486213684,3.38828182220459,10.631702961948706,10.755652160634693,43.879146432544864,36.517917447112914,-0.0003885269106831,0.1208627671003341,0,0,0
3553,164947.318679328,2011-02-02 08:40:45,578.0838308985471,7,28,-1.0997490882873535,3.375169038772583,10.631702961948706,10.764819804609145,43.879146432544864,36.54892027389661,-0.0003561496851034,0.1208627671003341,0,0,0
3554,164977.33366286234,2011-02-02 08:41:15,608.0988144028194,7,28,-1.099568486213684,3.3614087104797363,10.631702961948706,10.773987459960056,43.879146432544864,36.57979949855173,-0.0003561496851034,0.1208627671003341,0,0,0
3555,165007.34879323264,2011-02-02 08:41:45,638.1139447731268,7,28,-1.0993878841400146,3.347486734390259,10.631702961948706,10.78315513261111,43.879146432544864,36.610552203628885,-0.0003561496851034,0.1208627671003341,0,0,0
3556,165037.36389149295,2011-02-02 08:42:15,668.1290430283939,7,28,-1.099568486213684,3.3329169750213623,10.631702961948706,10.792322909286964,43.879146432544864,36.64117393504426,-0.0003885269106831,0.1208627671003341,0,0,0
3557,165067.37941339906,2011-02-02 08:42:45,698.1445649746291,7,28,-1.099929690361023,3.317861557006836,10.631702961948706,10.801490786838889,43.879146432544864,36.6716615958733,-0.0003885269106831,0.1208627671003341,0,0,0
3558,165097.394119918,2011-02-02 08:43:15,728.1592714584809,7,28,-1.0997490882873535,3.30167293548584,10.631702961948706,10.810658317544194,43.879146432544864,36.70200466290064,-0.0004532813909463,0.1208627671003341,0,0,0
3559,165127.40925617298,2011-02-02 08:43:45,758.17440774353,7,28,-1.099568486213684,3.284351110458374,10.631702961948706,10.819825984998742,43.879146432544864,36.73219560257897,-0.0004856586456298,0.1208627671003341,0,0,0
3560,165157.42437078903,2011-02-02 08:44:15,788.1895223294981,7,28,-1.099568486213684,3.266220092773437,10.631702961948706,10.828993688352238,43.879146432544864,36.76222438401364,-0.0005504131549969,0.1208627671003341,0,0,0
3561,165187.4394730743,2011-02-02 08:44:45,818.2046246198216,7,28,-1.0993878841400146,3.2456605434417725,10.631702961948706,10.83816141703498,43.879146432544864,36.792076106494775,-0.0006151676061563,0.1208627671003341,0,0,0
3562,165217.45460611128,2011-02-02 08:45:15,848.2197576517628,7,28,-1.099568486213684,3.223482131958008,10.631702961948706,10.8473291272811,43.879146432544864,36.8217309593934,-0.0005504131549969,0.1208627671003341,0,0,0
3563,165247.4717665662,2011-02-02 08:45:45,878.2369181417533,7,28,-1.099568486213684,3.1995229721069336,10.631702961948706,10.856497424204742,43.879146432544864,36.85117728755876,-0.0006799221155233,0.1208627671003341,0,0,0
3564,165277.48486033065,2011-02-02 08:46:15,908.2500118711248,7,28,-1.099568486213684,3.1718406677246094,10.631702961948706,10.865664494585491,43.879146432544864,36.88038109315986,-0.0007122993702068,0.1208627671003341,0,0,0
3565,165307.49994906716,2011-02-02 08:46:45,938.2651006126808,7,28,-1.099929690361023,3.141082286834717,10.631702961948706,10.874832282696037,43.879146432544864,36.90932186092573,-0.0009389400365762,0.1208627671003341,0,0,0
3566,165337.51508393371,2011-02-02 08:47:15,968.2802354791944,7,28,-1.0997490882873535,3.106600761413574,10.631702961948706,10.883999990698149,43.879146432544864,36.93796542057599,-0.0009712696191854,0.1208627671003341,0,0,0
3567,165367.53018387817,2011-02-02 08:47:45,998.2953354537462,7,28,-1.099568486213684,3.066938638687134,10.631702961948706,10.893167708946342,43.879146432544864,36.96626826778091,-0.0011008263099938,0.1208627671003341,0,0,0
3568,165397.54542767117,2011-02-02 08:48:15,1028.310579216663,7,28,-1.099568486213684,3.020963191986084,10.631702961948706,10.90233544443472,43.879146432544864,36.99418244851697,-0.0013274669181555,0.1208627671003341,0,0,0
3569,165427.56040455395,2011-02-02 08:48:45,1058.3255560894074,7,28,-1.0997490882873535,2.9646267890930176,10.631702961948706,10.911503145860348,43.879146432544864,37.02162886378024,-0.0016512393485754,0.1208627671003341,0,0,0
3570,165457.57552469877,2011-02-02 08:49:15,1088.3406762392424,7,28,-1.099568486213684,2.895015954971313,10.631702961948706,10.920670850777284,43.879146432544864,37.048503762870105,-0.0021045207977294,0.1208627671003341,0,0,0
3571,165487.590669881,2011-02-02 08:49:45,1118.355821421466,7,28,-1.0993878841400146,2.805331230163574,10.631702961948706,10.929838613289975,43.879146432544864,37.07464792561689,-0.0025254250504076,0.1208627671003341,0,0,0
3572,165517.02767555666,2011-02-02 08:50:14,1147.7928271222124,7,28,-1.0997490882873535,2.699943780899048,10.631702961948706,10.93882977004862,43.879146432544864,37.09940608610914,-0.0029786587692797,0.1208627671003341,0,0,0
3573,165577.04949083398,2011-02-02 08:51:14,60.01658131728308,8,28,0.0,3.7575430870056152,10.631702961948706,10.93882977004862,43.879146432544864,37.09940608610914,0.0007446765666827,0.1208627671003341,0,0,0
3574,165577.2405253892,2011-02-02 08:51:15,0.186732359495975,9,28,-0.0001998523803194,3.757381200790405,10.631702961948706,10.938829780414984,43.879146432544864,37.09940612505952,0.0,0.122962400317192,0,0,0
3575,165582.06657976162,2011-02-02 08:51:20,5.012786701856936,9,28,0.0001613661734154,3.761914014816284,10.631703602997003,10.938829782123277,43.87914884293657,37.0994061314783,0.0005827903514727,0.122962400317192,0,0,0
