Data_Point,Test_Time(s),Date_Time,Step_Time(s),Step_Index,Cycle_Index,Current(A),Voltage(V),Charge_Capacity(Ah),Discharge_Capacity(Ah),Charge_Energy(Wh),Discharge_Energy(Wh),dV/dt(V/s),Internal_Resistance(Ohm),Is_FC_Data,AC_Impedance(Ohm),ACI_Phase_Angle(Deg)
4497,209490.8411430099,2011-02-02 21:03:18,30.015126134751227,1,37,0.0,3.785387516021729,13.377927644269368,13.670977112665575,55.238459038688646,46.31939909847306,0.0003885269106831,0.1215639039874076,0,0,0
4498,209520.85625492423,2011-02-02 21:03:48,60.03023804906074,1,37,0.0,3.798500299453736,13.377927644269368,13.670977112665575,55.238459038688646,46.31939909847306,0.0002913951757363,0.1215639039874076,0,0,0
4499,209550.87139139476,2011-02-02 21:04:18,90.04537451957185,1,37,0.0,3.808699131011963,13.377927644269368,13.670977112665575,55.238459038688646,46.31939909847306,0.0002266406954731,0.1215639039874076,0,0,0
4500,209580.8395978913,2011-02-02 21:04:48,120.01358102116042,1,37,0.0,3.816793441772461,13.377927644269368,13.670977112665575,55.238459038688646,46.31939909847306,0.0001942634553415,0.1215639039874076,0,0,0
4501,209610.85132327327,2011-02-02 21:05:18,30.015129117184365,2,37,0.5499359965324402,3.9412834644317623,13.382513019473238,13.670977112665575,55.25644749805352,46.31939909847306,0.0007446765666827,0.1215639039874076,0,0,0
4502,209640.8664310874,2011-02-02 21:05:48,60.03023690621241,2,37,0.5499359965324402,3.963299989700317,13.387098608835268,13.670977112665575,55.27457474230119,46.31939909847306,0.0004856586456298,0.1215639039874076,0,0,0
4503,209670.88154671591,2011-02-02 21:06:18,90.04535255984146,2,37,0.5499359965324402,3.9794886112213135,13.391684180485282,13.670977112665575,55.29278723311256,46.31939909847306,0.0003885269106831,0.1215639039874076,0,0,0
4504,209700.89663992863,2011-02-02 21:06:48,120.06044574246584,2,37,0.5497553944587708,3.99324893951416,13.39626962814896,13.670977112665575,55.3110671103187,46.31939909847306,0.0003561496851034,0.1215639039874076,0,0,0
4505,209730.9117733516,2011-02-02 21:07:18,150.0755791703939,2,37,0.5501165986061096,4.005228519439697,13.400855091726111,13.670977112665575,55.32940600704974,46.31939909847306,0.0003237724304199,0.1215639039874076,0,0,0
4506,209760.927040172,2011-02-02 21:07:48,180.09084598576453,2,37,0.5497553944587708,4.016236782073975,13.405440572270942,13.670977112665575,55.34779836728728,46.31939909847306,0.0002590179501567,0.1215639039874076,0,0,0
4507,209790.9421370889,2011-02-02 21:08:18,210.1059429528209,2,37,0.5497553944587708,4.026597499847412,13.410026047880883,13.670977112665575,55.36623926679751,46.31939909847306,0.0002590179501567,0.1215639039874076,0,0,0
4508,209820.9571046284,2011-02-02 21:08:48,240.12091046724143,2,37,0.5499359965324402,4.035986423492432,13.414611447066836,13.670977112665575,55.38472463470227,46.31939909847306,0.0002265930233988,0.1215639039874076,0,0,0
4509,209850.97243697205,2011-02-02 21:09:18,270.1362428159413,2,37,0.5499359965324402,4.0447282791137695,13.419196948097932,13.670977112665575,55.40325175895207,46.31939909847306,0.0002590179501567,0.1215639039874076,0,0,0
4510,209880.9873628627,2011-02-02 21:09:48,300.1511686765477,2,37,0.5499359965324402,4.052660942077637,13.423782389919651,13.670977112665575,55.42181692987746,46.31939909847306,0.0002266883820993,0.1215639039874076,0,0,0
4511,209911.00246009047,2011-02-02 21:10:18,330.1662658992412,2,37,0.5501165986061096,4.060431480407715,13.428367876675091,13.670977112665575,55.44041804318441,46.31939909847306,0.0002266883820993,0.1215639039874076,0,0,0
4512,209941.0175694133,2011-02-02 21:10:48,360.181375222092,2,37,0.5499359965324402,4.067230701446533,13.432953354406068,13.670977112665575,55.45905236409312,46.31939909847306,0.0001942634553415,0.1215639039874076,0,0,0
4513,209971.03268760827,2011-02-02 21:11:18,390.1964934170548,2,37,0.5499359965324402,4.073706150054932,13.437538755763107,13.670977112665575,55.477717808033766,46.31939909847306,9.71794142969884e-05,0.1215639039874076,0,0,0
4514,210001.04795182217,2011-02-02 21:11:48,420.2117576459792,2,37,0.5501165986061096,4.080343246459961,13.442124187004552,13.670977112665575,55.496412923234544,46.31939909847306,0.0001942634553415,0.1215639039874076,0,0,0
4515,210031.0648936572,2011-02-02 21:12:18,450.22869952111415,2,37,0.5497553944587708,4.086009502410889,13.44670992358528,13.670977112665575,55.51513739651484,46.31939909847306,0.0001295089750783,0.1215639039874076,0,0,0
4516,210061.07804639864,2011-02-02 21:12:48,480.2418522124371,2,37,0.5499359965324402,4.091999053955078,13.45129506923642,13.670977112665575,55.53388634919909,46.31939909847306,0.0001618385285837,0.1215639039874076,0,0,0
4517,210091.09315575656,2011-02-02 21:13:18,510.2569615703754,2,37,0.5501165986061096,4.097503185272217,13.455880451792822,13.670977112665575,55.55266215163117,46.31939909847306,0.0001618385285837,0.1215639039874076,0,0,0
4518,210121.10828664817,2011-02-02 21:13:48,540.2720924669946,2,37,0.5499359965324402,4.103007316589356,13.460465949561089,13.670977112665575,55.57146340786796,46.31939909847306,0.0001942634553415,0.1215639039874076,0,0,0
4519,210151.1233862518,2011-02-02 21:14:18,570.2871920906721,2,37,0.5499359965324402,4.108026027679443,13.465051384119429,13.670977112665575,55.59028887114116,46.31939909847306,0.0001295089750783,0.1215639039874076,0,0,0
4520,210181.13850095303,2011-02-02 21:14:48,600.3023067718776,2,37,0.5499359965324402,4.113044261932373,13.469636810176167,13.670977112665575,55.60913791974476,46.31939909847306,0.0001295089750783,0.1215639039874076,0,0,0
4521,210211.15366715268,2011-02-02 21:15:18,630.3174729714827,2,37,0.5501165986061096,4.118062496185303,13.47422223188439,13.670977112665575,55.62800991933966,46.31939909847306,9.70840483205393e-05,0.1215639039874076,0,0,0
4522,210241.1711361666,2011-02-02 21:15:48,660.3349419803973,2,37,0.5499359965324402,4.122919082641602,13.478808026847092,13.670977112665575,55.646905981104936,46.31939909847306,9.70840483205393e-05,0.1215639039874076,0,0,0
4523,210271.18385998404,2011-02-02 21:16:18,690.3476657928221,2,37,0.5499359965324402,4.1276140213012695,13.483393079593188,13.670977112665575,55.66582100319251,46.31939909847306,9.71794142969884e-05,0.1215639039874076,0,0,0
4524,210301.19909963667,2011-02-02 21:16:48,720.3629054555199,2,37,0.5499359965324402,4.132470607757568,13.487978456084203,13.670977112665575,55.68475923479056,46.31939909847306,0.0001295089750783,0.1215639039874076,0,0,0
4525,210331.21408452943,2011-02-02 21:17:18,750.3778903382276,2,37,0.5499359965324402,4.137327194213867,13.492563871133722,13.670977112665575,55.70371920262333,46.31939909847306,0.0001619339018361,0.1215639039874076,0,0,0
4526,210361.2292185689,2011-02-02 21:17:48,780.3930243877048,2,37,0.5499359965324402,4.141860008239746,13.497149352250684,13.670977112665575,55.72270092346836,46.31939909847306,0.0001295089750783,0.1215639039874076,0,0,0
4527,210391.2443123931,2011-02-02 21:18:18,810.4081182269657,2,37,0.5497553944587708,4.146392822265625,13.501734782745173,13.670977112665575,55.74170372360217,46.31939909847306,9.71794142969884e-05,0.1215639039874076,0,0,0
4528,210421.25946110912,2011-02-02 21:18:48,840.4232669229466,2,37,0.5499359965324402,4.151249408721924,13.5063201236923,13.670977112665575,55.76072752108973,46.31939909847306,0.0001295089750783,0.1215639039874076,0,0,0
4529,210451.2745437956,2011-02-02 21:19:18,870.4383496144236,2,37,0.5501165986061096,4.155782222747803,13.510905504758528,13.670977112665575,55.779772507006015,46.31939909847306,0.0001295089750783,0.1215639039874076,0,0,0
4530,210481.2896776947,2011-02-02 21:19:48,900.4534835185385,2,37,0.5501165986061096,4.160315036773682,13.515490776020778,13.670977112665575,55.798837874758654,46.31939909847306,0.0001295089750783,0.1215639039874076,0,0,0
4531,210511.3049017435,2011-02-02 21:20:18,930.4687075623092,2,37,0.5499359965324402,4.1648478507995605,13.520076177967743,13.670977112665575,55.8179247183063,46.31939909847306,0.0001619339018361,0.1215639039874076,0,0,0
4532,210541.31989284168,2011-02-02 21:20:48,960.4836986605076,2,37,0.5499359965324402,4.16938066482544,13.524661489566691,13.670977112665575,55.83703199224574,46.31939909847306,0.0001295089750783,0.1215639039874076,0,0,0
4533,210571.3350114126,2011-02-02 21:21:18,990.4988172263952,2,37,0.5499359965324402,4.173751354217529,13.529246787867825,13.670977112665575,55.85616006460605,46.31939909847306,9.70840483205393e-05,0.1215639039874076,0,0,0
4534,210601.35022112064,2011-02-02 21:21:48,1020.5140269645116,2,37,0.5499359965324402,4.178446292877197,13.533832132973147,13.670977112665575,55.87530915675509,46.31939909847306,0.0001295089750783,0.1215639039874076,0,0,0
4535,210631.367216053,2011-02-02 21:22:18,1050.531021871819,2,37,0.5501165986061096,4.182979106903076,13.53841785862374,13.670977112665575,55.894480688817296,46.31939909847306,0.0001295089750783,0.1215639039874076,0,0,0
4536,210661.38038322545,2011-02-02 21:22:48,1080.5441890492457,2,37,0.5501165986061096,4.187511920928955,13.543002914824443,13.670977112665575,55.9136702428116,46.31939909847306,0.0001295089750783,0.1215639039874076,0,0,0
4537,210691.39561148468,2011-02-02 21:23:19,1110.559417298498,2,37,0.5499359965324402,4.192044734954834,13.547588313694398,13.670977112665575,55.93288212005062,46.31939909847306,0.0001295089750783,0.1215639039874076,0,0,0
4538,210721.4129825996,2011-02-02 21:23:49,1140.5767884384927,2,37,0.5499359965324402,4.196577072143555,13.552174015882263,13.670977112665575,55.95211613231255,46.31939909847306,0.0001295089750783,0.1215639039874076,0,0,0
4539,210742.31648938532,2011-02-02 21:24:09,1161.4802952142263,2,37,0.5501165986061096,4.200138568878174,13.5553673687143,13.670977112665575,55.96552260181984,46.31939909847306,0.0001618385285837,0.1215639039874076,0,0,0
4540,210772.3299162383,2011-02-02 21:24:40,30.012772594003515,3,37,0.0,4.090866088867188,13.5553673687143,13.670977112665575,55.96552260181984,46.31939909847306,-0.0004856109735555,0.1215639039874076,0,0,0
4541,210802.34489603832,2011-02-02 21:25:10,60.02775236396866,3,37,0.0,4.079048156738281,13.5553673687143,13.670977112665575,55.96552260181984,46.31939909847306,-0.0002266883820993,0.1215639039874076,0,0,0
4542,210832.3600241931,2011-02-02 21:25:40,90.04288054381689,3,37,0.0,4.071601390838623,13.5553673687143,13.670977112665575,55.96552260181984,46.31939909847306,-0.0001295089750783,0.1215639039874076,0,0,0
4543,210862.32850440187,2011-02-02 21:26:10,120.01136075758043,3,37,0.0,4.066097259521484,13.5553673687143,13.670977112665575,55.96552260181984,46.31939909847306,-0.0001619339018361,0.1215639039874076,0,0,0
4544,210862.3309505072,2011-02-02 21:26:10,2.701733551e-06,4,37,0.9411357045173644,4.199814796447754,13.555367369420605,13.670977112665575,55.965522604786194,46.31939909847306,0.0,0.1215639039874076,0,0,0
4545,210863.20592622587,2011-02-02 21:26:11,0.874978400397915,4,37,0.8909263014793396,4.199814796447754,13.5555881214124,13.670977112665575,55.96644970768427,46.31939909847306,0.0,0.1215639039874076,0,0,0
4546,210865.6278922304,2011-02-02 21:26:13,3.29694442996391,4,37,0.84053635597229,4.199814796447754,13.556168909266542,13.670977112665575,55.96888886280854,46.31939909847306,0.0,0.1215639039874076,0,0,0
4547,210869.5026854423,2011-02-02 21:26:17,7.171737611817144,4,37,0.7905075550079346,4.199814796447754,13.557045032023057,13.670977112665575,55.97256837048139,46.31939909847306,0.0,0.1215639039874076,0,0,0
4548,210875.03396754424,2011-02-02 21:26:22,12.703019723773096,4,37,0.7401175498962402,4.199814796447754,13.558219157814964,13.670977112665575,55.97749942166366,46.31939909847306,0.0,0.1215639039874076,0,0,0
4549,210882.7525885628,2011-02-02 21:26:30,20.421640732286622,4,37,0.6900888085365295,4.199814796447754,13.55974981392761,13.670977112665575,55.983927825997085,46.31939909847306,3.23295607813634e-05,0.1215639039874076,0,0,0
4550,210893.3461649096,2011-02-02 21:26:41,31.015217074092355,4,37,0.6400600075721741,4.199814796447754,13.561702549252567,13.670977112665575,55.99212887280592,46.31939909847306,0.0,0.1215639039874076,0,0,0
4551,210908.76765279748,2011-02-02 21:26:56,46.43670497200715,4,37,0.5900312662124634,4.199814796447754,13.564330210333768,13.670977112665575,56.00316444831436,46.31939909847306,3.23295607813634e-05,0.1215639039874076,0,0,0
4552,210933.40789651143,2011-02-02 21:27:21,71.07694868595577,4,37,0.5400024652481079,4.199814796447754,13.568183573769252,13.670977112665575,56.019347700130616,46.31939909847306,0.0,0.1215639039874076,0,0,0
4553,210977.4070888068,2011-02-02 21:28:05,115.07614098136897,4,37,0.4899737238883972,4.199653148651123,13.574449860567412,13.670977112665575,56.04566464104562,46.31939909847306,-3.23295607813634e-05,0.1215639039874076,0,0,0
4554,211055.6872963553,2011-02-02 21:29:23,193.35634853480985,4,37,0.4399449527263641,4.199814796447754,13.58452222209945,13.670977112665575,56.08796622208603,46.31939909847306,0.0,0.1215639039874076,0,0,0
4555,211168.4195445897,2011-02-02 21:31:16,306.0885967542182,4,37,0.389916181564331,4.199814796447754,13.597483506408684,13.670977112665575,56.14240064105645,46.31939909847306,0.0,0.1215639039874076,0,0,0
4556,211311.62024052572,2011-02-02 21:33:39,449.2892926952558,4,37,0.3397068083286285,4.199814796447754,13.61197091005288,13.670977112665575,56.20324447958035,46.31939909847306,0.0,0.1215639039874076,0,0,0
4557,211489.41406892697,2011-02-02 21:36:37,627.083121096425,4,37,0.2896780371665954,4.199653148651123,13.627485154656457,13.670977112665575,56.26840076252524,46.31939909847306,-3.23295607813634e-05,0.1215639039874076,0,0,0
4558,211709.28536213227,2011-02-02 21:40:17,846.9544143017984,4,37,0.2396492660045623,4.199653148651123,13.643620177074943,13.670977112665575,56.3361641645195,46.31939909847306,3.24249267578125e-05,0.1215639039874076,0,0,0
4559,211994.01500020447,2011-02-02 21:45:01,1131.6840523739936,4,37,0.1896204948425293,4.199653148651123,13.660550701524445,13.670977112665575,56.40726848983638,46.31939909847306,0.0,0.1215639039874076,0,0,0
4560,212380.8989416879,2011-02-02 21:51:28,1518.5679938623955,4,37,0.1395917236804962,4.199814796447754,13.678134485276097,13.670977112665575,56.48111633950587,46.31939909847306,0.0,0.1215639039874076,0,0,0
4561,212972.6389105491,2011-02-02 22:01:20,2110.3079627136094,4,37,0.0895629599690437,4.199653148651123,13.696667420755665,13.670977112665575,56.55895036095576,46.31939909847306,-3.23295607813634e-05,0.1215639039874076,0,0,0
4562,213862.88941935028,2011-02-02 22:16:10,3000.5584715248,4,37,0.0496483072638511,4.199653148651123,13.713345526775685,13.670977112665575,56.6289944980935,46.31939909847306,-6.47544875391759e-05,0.1215639039874076,0,0,0
4563,213892.91112269845,2011-02-02 22:16:40,30.014993378882757,5,37,0.0,4.188807010650635,13.713345526775685,13.670977112665575,56.6289944980935,46.31939909847306,-3.23295607813634e-05,0.1215639039874076,0,0,0
4564,213922.9106142921,2011-02-02 22:17:10,60.01448496753447,5,37,0.0,4.187026023864746,13.713345526775685,13.670977112665575,56.6289944980935,46.31939909847306,-3.24249267578125e-05,0.1215639039874076,0,0,0
4565,213923.1060372616,2011-02-02 22:17:11,0.187711003578149,6,37,-1.9243103452026844e-05,4.187188148498535,13.713345526775685,13.670977113668949,56.6289944980935,46.319399102674375,0.0,0.1208627671003341,0,0,0
4566,213927.93383421205,2011-02-02 22:17:16,5.01550793400475,6,37,0.0003419754502829,4.187026023864746,13.71334612438392,13.670977113834892,56.62899700042973,46.31939910336921,-6.47544875391759e-05,0.1208627671003341,0,0,0
4567,213935.26961666212,2011-02-02 22:17:23,7.327985489604861,7,37,-1.0997490882873535,3.986935377120972,13.71334612438392,13.673215337416298,56.62899700042973,46.32835072015893,-0.0025253773201256,0.1208627671003341,0,0,0
4568,213965.2847691677,2011-02-02 22:17:53,37.34313799508005,7,37,-1.0997490882873535,3.914248466491699,13.71334612438392,13.682382980408327,56.62899700042973,46.36456546464887,-0.0019426345825195,0.1208627671003341,0,0,0
4569,213995.2999810361,2011-02-02 22:18:23,67.35834986851846,7,37,-1.0993878841400146,3.837352752685547,13.71334612438392,13.691550657768182,56.62899700042973,46.40010677900888,-0.0021692751906812,0.1208627671003341,0,0,0
4570,214025.31494396908,2011-02-02 22:18:53,97.37331279650824,7,37,-1.0993878841400146,3.755276679992676,13.71334612438392,13.70071821125266,56.62899700042973,46.43490404704629,-0.0021045207977294,0.1208627671003341,0,0,0
4571,214055.33028099945,2011-02-02 22:19:23,127.3886498369012,7,37,-1.099568486213684,3.6867990493774414,13.71334612438392,13.709885936579475,56.62899700042973,46.46900449303399,-0.0015864849556237,0.1208627671003341,0,0,0
4572,214085.3451741535,2011-02-02 22:19:53,157.40354298096796,7,37,-1.099568486213684,3.634186267852783,13.71334612438392,13.719053455378656,56.62899700042973,46.50255026251939,-0.0011979580158367,0.1208627671003341,0,0,0
4573,214115.3602744038,2011-02-02 22:20:23,187.418643231207,7,37,-1.099568486213684,3.593390941619873,13.71334612438392,13.728221017676224,56.62899700042973,46.53567241550522,-0.0010036944877356,0.1208627671003341,0,0,0
4574,214145.37543515983,2011-02-02 22:20:53,217.43380398223263,7,37,-1.099568486213684,3.56069016456604,13.71334612438392,13.737388728691,56.62899700042973,46.56846004787106,-0.0007770538213662,0.1208627671003341,0,0,0
4575,214175.39067312327,2011-02-02 22:21:23,247.4490419757704,7,37,-1.099568486213684,3.5330076217651367,13.71334612438392,13.746556464197225,56.62899700042973,46.60097292179665,-0.0006475448608398,0.1208627671003341,0,0,0
4576,214205.40567532412,2011-02-02 22:21:53,277.4640441515778,7,37,-1.099568486213684,3.508886814117432,13.71334612438392,13.755724140571711,56.62899700042973,46.63324878592727,-0.0005827426793985,0.1208627671003341,0,0,0
4577,214235.42273386504,2011-02-02 22:22:23,307.4811027175422,7,37,-1.099568486213684,3.487517833709717,13.71334612438392,13.76489248311952,56.62899700042973,46.6653185729641,-0.0004856586456298,0.1208627671003341,0,0,0
4578,214265.4358977693,2011-02-02 22:22:53,337.49426659674884,7,37,-1.099568486213684,3.468091487884521,13.71334612438392,13.774059529989527,56.62899700042973,46.69719760728669,-0.0004856586456298,0.1208627671003341,0,0,0
4579,214295.4510316384,2011-02-02 22:23:23,367.50940046577625,7,37,-1.0993878841400146,3.450445890426636,13.71334612438392,13.783227264195324,56.62899700042973,46.72891023299715,-0.0004209041653666,0.1208627671003341,0,0,0
4580,214325.46613601383,2011-02-02 22:23:53,397.5245048713717,7,37,-1.0993878841400146,3.4337716102600098,13.71334612438392,13.792394895410988,56.62899700042973,46.76046614075079,-0.0004856586456298,0.1208627671003341,0,0,0
4581,214355.48124029412,2011-02-02 22:24:23,427.53960912157993,7,37,-1.0997490882873535,3.4182307720184326,13.71334612438392,13.80156261354181,56.62899700042973,46.7918751458361,-0.0004532813909463,0.1208627671003341,0,0,0
4582,214385.49635470973,2011-02-02 22:24:53,457.5547235371234,7,37,-1.0997490882873535,3.403337240219116,13.71334612438392,13.810730351886884,56.62899700042973,46.823143880906834,-0.0003885269106831,0.1208627671003341,0,0,0
4583,214415.51147287452,2011-02-02 22:25:23,487.5698417020112,7,37,-1.099568486213684,3.3889293670654297,13.71334612438392,13.819898102391432,56.62899700042973,46.854278893443855,-0.0003885269106831,0.1208627671003341,0,0,0
4584,214445.5293836846,2011-02-02 22:25:53,517.5877525671674,7,37,-1.0997490882873535,3.374845266342163,13.71334612438392,13.829066709716203,56.62899700042973,46.88528620666719,-0.0003237724304199,0.1208627671003341,0,0,0
4585,214475.5417300914,2011-02-02 22:26:23,547.6000989288689,7,37,-1.0993878841400146,3.3605992794036865,13.71334612438392,13.83823368349864,56.62899700042973,46.91615748325587,-0.0003561496851034,0.1208627671003341,0,0,0
4586,214505.5568233392,2011-02-02 22:26:53,577.6151921716431,7,37,-1.0993878841400146,3.346353530883789,13.71334612438392,13.84740148565836,56.62899700042973,46.946900928370844,-0.0003561496851034,0.1208627671003341,0,0,0
4587,214535.57192213583,2011-02-02 22:27:23,607.6302909632468,7,37,-1.0993878841400146,3.3314599990844727,13.71334612438392,13.856569231532218,56.62899700042973,46.977511034651165,-0.0003885269106831,0.1208627671003341,0,0,0
4588,214565.58708590936,2011-02-02 22:27:53,637.6454547368055,7,37,-1.099568486213684,3.3159189224243164,13.71334612438392,13.865737033537329,56.62899700042973,47.007982123147485,-0.0004209041653666,0.1208627671003341,0,0,0
4589,214595.60232556207,2011-02-02 22:28:23,667.6606943894784,7,37,-1.0997490882873535,3.2990827560424805,13.71334612438392,13.87490476085438,56.62899700042973,47.03830511148558,-0.0004532813909463,0.1208627671003341,0,0,0
4590,214625.61734813367,2011-02-02 22:28:53,697.675716986181,7,37,-1.0993878841400146,3.2812752723693848,13.71334612438392,13.884072444996775,56.62899700042973,47.06846994022532,-0.0004856586456298,0.1208627671003341,0,0,0
4591,214655.63254265388,2011-02-02 22:29:23,727.6909114813072,7,37,-1.099568486213684,3.2620110511779785,13.71334612438392,13.8932401665246,56.62899700042973,47.098464518355726,-0.0005504131549969,0.1208627671003341,0,0,0
4592,214685.6475411505,2011-02-02 22:29:53,757.7059099729324,7,37,-1.0993878841400146,3.241451501846313,13.71334612438392,13.902407914815724,56.62899700042973,47.12827620208219,-0.0005504131549969,0.1208627671003341,0,0,0
4593,214715.66294092225,2011-02-02 22:30:23,787.7213097897837,7,37,-1.0997490882873535,3.218949317932129,13.71334612438392,13.911575710167616,56.62899700042973,47.15789166300701,-0.0006475448608398,0.1208627671003341,0,0,0
4594,214745.67776296413,2011-02-02 22:30:53,817.7361317915421,7,37,-1.099568486213684,3.194342613220215,13.71334612438392,13.920743361342662,56.62899700042973,47.187292294254526,-0.0007122993702068,0.1208627671003341,0,0,0
4595,214775.69288160012,2011-02-02 22:31:23,847.7512504276042,7,37,-1.099568486213684,3.1669840812683105,13.71334612438392,13.929911097754228,56.62899700042973,47.216454464874445,-0.0007770538213662,0.1208627671003341,0,0,0
4596,214805.7080239704,2011-02-02 22:31:53,877.7663927978192,7,37,-1.099568486213684,3.136549472808838,13.71334612438392,13.939078766418511,56.62899700042973,47.24535136772143,-0.0008418083307333,0.1208627671003341,0,0,0
4597,214835.72544819268,2011-02-02 22:32:23,907.7838171604616,7,37,-1.099568486213684,3.1019060611724854,13.71334612438392,13.948247200465858,56.62899700042973,47.27395329481951,-0.0009713172912597,0.1208627671003341,0,0,0
4598,214865.73822590947,2011-02-02 22:32:53,937.7965947368828,7,37,-1.0993878841400146,3.062567710876465,13.71334612438392,13.957414201508072,56.62899700042973,47.30221144029458,-0.0011008263099938,0.1208627671003341,0,0,0
4599,214895.7535681378,2011-02-02 22:33:24,967.8119369752304,7,37,-1.099568486213684,3.016106605529785,13.71334612438392,13.966582100488438,56.62899700042973,47.330081210610864,-0.0013274669181555,0.1208627671003341,0,0,0
4600,214925.7690545655,2011-02-02 22:33:54,997.8274233929178,7,37,-1.099568486213684,2.9609034061431885,13.71334612438392,13.975749973168538,56.62899700042973,47.35748726596728,-0.0015864849556237,0.1208627671003341,0,0,0
4601,214955.77033461657,2011-02-02 22:34:24,1027.8287034790555,7,37,-1.0997490882873535,2.892425775527954,13.71334612438392,13.98491359612794,56.62899700042973,47.38431822194731,-0.0020397664047777,0.1208627671003341,0,0,0
4602,214985.78320122987,2011-02-02 22:34:54,1057.841570082359,7,37,-1.099568486213684,2.8051693439483643,13.71334612438392,13.994080630756423,56.62899700042973,47.410451079869794,-0.0025578022468835,0.1208627671003341,0,0,0
4603,215015.7981801026,2011-02-02 22:35:24,1087.8565489300256,7,37,-1.099568486213684,2.700915098190308,13.71334612438392,14.003248434800255,56.62899700042973,47.43570041743326,-0.0029139041434973,0.1208627671003341,0,0,0
4604,215016.0794489912,2011-02-02 22:35:24,1088.1378178186403,7,37,-1.099568486213684,2.699781894683838,13.71334612438392,14.003334345923802,56.62899700042973,47.4359324186138,-0.0029462813399732,0.1208627671003341,0,0,0
4605,215076.0890076597,2011-02-02 22:36:24,60.014609588127335,8,37,0.0,3.7636947631835938,13.71334612438392,14.003334345923802,56.62899700042973,47.4359324186138,0.0007122993702068,0.1208627671003341,0,0,0
4606,215076.27038079512,2011-02-02 22:36:24,0.185382730806009,9,37,-1.9243103452026844e-05,3.763856649398804,13.71334612438392,14.00333434691473,56.62899700042973,47.43593242234351,0.0,0.1224850863218307,0,0,0
4607,215081.09841653577,2011-02-02 22:36:29,5.013418476433573,9,37,0.0003419754502829,3.7682275772094727,13.713346720300189,14.003334347083326,56.6289992448474,47.43593242297841,0.0006475448608398,0.1224850863218307,0,0,0
