Data_Point,Test_Time(s),Date_Time,Step_Time(s),Step_Index,Cycle_Index,Current(A),Voltage(V),Charge_Capacity(Ah),Discharge_Capacity(Ah),Charge_Energy(Wh),Discharge_Energy(Wh),dV/dt(V/s),Internal_Resistance(Ohm),Is_FC_Data,AC_Impedance(Ohm),ACI_Phase_Angle(Deg)
4718,220692.83205136136,2011-02-03 00:10:02,30.015118856611863,1,39,0.0,3.788301467895508,14.04537077238112,14.33190004084338,58.0056797345583,48.539092032992,0.0004532813909463,0.1216739267110824,0,0,0
4719,220722.8471603333,2011-02-03 00:10:32,60.03022783360066,1,39,0.0,3.801414251327514,14.04537077238112,14.33190004084338,58.0056797345583,48.539092032992,0.0002913951757363,0.1216739267110824,0,0,0
4720,220752.86227870872,2011-02-03 00:11:02,90.04534620400074,1,39,0.0,3.811613082885742,14.04537077238112,14.33190004084338,58.0056797345583,48.539092032992,0.0002590179501567,0.1216739267110824,0,0,0
4721,220782.83050472892,2011-02-03 00:11:32,120.01357222924828,1,39,0.0,3.81986927986145,14.04537077238112,14.33190004084338,58.0056797345583,48.539092032992,0.0001942634553415,0.1216739267110824,0,0,0
4722,220812.8451052704,2011-02-03 00:12:02,30.015277426817608,2,39,0.5501165986061096,3.944683074951172,14.049956366196446,14.33190004084338,58.02368370494332,48.539092032992,0.0007446765666827,0.1216739267110824,0,0,0
4723,220842.86007682988,2011-02-03 00:12:32,60.03024899634474,2,39,0.5501165986061096,3.966699600219727,14.054541929506154,14.33190004084338,58.04182636252376,48.539092032992,0.0004856586456298,0.1216739267110824,0,0,0
4724,220872.8751816415,2011-02-03 00:13:02,90.04535380795213,2,39,0.5499359965324402,3.9830501079559326,14.059127500435624,14.33190004084338,58.06005524209581,48.539092032992,0.0003561496851034,0.1216739267110824,0,0,0
4725,220902.89028691425,2011-02-03 00:13:32,120.06045908070884,2,39,0.5501165986061096,3.99729585647583,14.063712927827735,14.33190004084338,58.07835250582127,48.539092032992,0.0003885269106831,0.1216739267110824,0,0,0
4726,220932.9054045979,2011-02-03 00:14:02,150.07557678444738,2,39,0.5499359965324402,4.009437561035156,14.06829839960643,14.33190004084338,58.09670998777329,48.539092032992,0.0002914428769145,0.1216739267110824,0,0,0
4727,220962.92063141864,2011-02-03 00:14:32,180.090803575064,2,39,0.5501165986061096,4.0206074714660645,14.07288391142412,14.33190004084338,58.11512171799056,48.539092032992,0.0002913475036621,0.1216739267110824,0,0,0
4728,220992.9356175344,2011-02-03 00:15:02,210.10578969585737,2,39,0.5501165986061096,4.031291961669922,14.077469311729532,14.33190004084338,58.13358223740431,48.539092032992,0.0003237724304199,0.1216739267110824,0,0,0
4729,221022.9507480701,2011-02-03 00:15:32,240.12092022656464,2,39,0.5501165986061096,4.040519237518311,14.082054779864343,14.33190004084338,58.152088130486575,48.539092032992,0.0002590179501567,0.1216739267110824,0,0,0
4730,221052.96590482115,2011-02-03 00:16:02,270.13607697762114,2,39,0.5499359965324402,4.049261093139648,14.086640227345264,14.33190004084338,58.17063560452503,48.539092032992,0.0002265930233988,0.1216739267110824,0,0,0
4731,221082.9809593023,2011-02-03 00:16:32,300.1511314638021,2,39,0.5499359965324402,4.057517528533936,14.091225660295247,14.33190004084338,58.18922170078614,48.539092032992,0.0002590179501567,0.1216739267110824,0,0,0
4732,221112.99607324167,2011-02-03 00:17:02,330.16624540315865,2,39,0.5499359965324402,4.064802169799805,14.095811117434724,14.33190004084338,58.20784371226805,48.539092032992,0.0001942634553415,0.1216739267110824,0,0,0
4733,221143.0112039128,2011-02-03 00:17:33,360.18137607922824,2,39,0.5499359965324402,4.071763515472412,14.10039654413178,14.33190004084338,58.226499105141386,48.539092032992,0.0001619339018361,0.1216739267110824,0,0,0
4734,221173.02888973203,2011-02-03 00:18:03,390.19906191855085,2,39,0.5499359965324402,4.078562736511231,14.104982341145854,14.33190004084338,58.24518741075166,48.539092032992,0.0001942634553415,0.1216739267110824,0,0,0
4735,221203.0434512095,2011-02-03 00:18:33,420.21362339600233,2,39,0.5501165986061096,4.085038185119629,14.10956767938781,14.33190004084338,58.26390361961623,48.539092032992,0.0001619339018361,0.1216739267110824,0,0,0
4736,221233.05666266225,2011-02-03 00:19:03,450.2268348337394,2,39,0.5499359965324402,4.090866088867188,14.114152823047217,14.33190004084338,58.282647417940105,48.539092032992,0.0001619339018361,0.1216739267110824,0,0,0
4737,221263.07168585045,2011-02-03 00:19:33,480.24185803695366,2,39,0.5501165986061096,4.096855640411377,14.11873824165216,14.33190004084338,58.3014194092683,48.539092032992,0.0001618385285837,0.1216739267110824,0,0,0
4738,221293.0869044356,2011-02-03 00:20:03,510.2570765970573,2,39,0.5501165986061096,4.102359771728516,14.123323764041553,14.33190004084338,58.32021800380496,48.539092032992,0.0001295089750783,0.1216739267110824,0,0,0
4739,221323.1018681255,2011-02-03 00:20:33,540.2720402869459,2,39,0.5499359965324402,4.107702255249023,14.127909189917624,14.33190004084338,58.33904128797028,48.539092032992,0.0001619339018361,0.1216739267110824,0,0,0
4740,221353.1171164448,2011-02-03 00:21:03,570.287288601206,2,39,0.5499359965324402,4.112882614135742,14.132494645921016,14.33190004084338,58.35788907502874,48.539092032992,0.0001295089750783,0.1216739267110824,0,0,0
4741,221383.13209764828,2011-02-03 00:21:33,600.3022698097567,2,39,0.5501165986061096,4.118062496185303,14.1370800886763,14.33190004084338,58.37676056255695,48.539092032992,0.0001295089750783,0.1216739267110824,0,0,0
4742,221413.14734987228,2011-02-03 00:22:03,630.3175220387735,2,39,0.5499359965324402,4.122919082641602,14.141665586730635,14.33190004084338,58.39565570560357,48.539092032992,9.70840483205393e-05,0.1216739267110824,0,0,0
4743,221443.16232687532,2011-02-03 00:22:33,660.3324990268053,2,39,0.5499359965324402,4.1279377937316895,14.146251064437603,14.33190004084338,58.41457356396587,48.539092032992,9.71794142969884e-05,0.1216739267110824,0,0,0
4744,221473.17746736587,2011-02-03 00:23:03,690.347639522348,2,39,0.5501165986061096,4.132956027984619,14.15083657438726,14.33190004084338,58.433513980652414,48.539092032992,0.0001295089750783,0.1216739267110824,0,0,0
4745,221503.19255710492,2011-02-03 00:23:33,720.3627292664024,2,39,0.5499359965324402,4.137812614440918,14.155422161763338,14.33190004084338,58.45247667269483,48.539092032992,0.0001618385285837,0.1216739267110824,0,0,0
4746,221533.2077124976,2011-02-03 00:24:03,750.377884654061,2,39,0.5499359965324402,4.142345428466797,14.160007744592114,14.33190004084338,58.47146113534019,48.539092032992,0.0001295089750783,0.1216739267110824,0,0,0
4747,221563.2229132985,2011-02-03 00:24:33,780.393085464928,2,39,0.5499359965324402,4.147202014923096,14.164593208960069,14.33190004084338,58.49046676569245,48.539092032992,0.0001295089750783,0.1216739267110824,0,0,0
4748,221593.2378966624,2011-02-03 00:25:03,810.4080688188254,2,39,0.5499359965324402,4.151896953582764,14.169178599704724,14.33190004084338,58.50949364934007,48.539092032992,0.0001619339018361,0.1216739267110824,0,0,0
4749,221623.2530213485,2011-02-03 00:25:33,840.4231935049662,2,39,0.5501165986061096,4.156591415405273,14.173764036049915,14.33190004084338,58.52854200715221,48.539092032992,0.0001618385285837,0.1216739267110824,0,0,0
4750,221653.26815767365,2011-02-03 00:26:03,870.4383298301151,2,39,0.5501165986061096,4.161124229431152,14.17834952231454,14.33190004084338,58.54761170854439,48.539092032992,0.0001618385285837,0.1216739267110824,0,0,0
4751,221683.28327945256,2011-02-03 00:26:33,900.4534516140226,2,39,0.5501165986061096,4.1654953956604,14.182935002661978,14.33190004084338,58.56670250572473,48.539092032992,6.47544875391759e-05,0.1216739267110824,0,0,0
4752,221713.29835886587,2011-02-03 00:27:03,930.4685310223172,2,39,0.5499359965324402,4.17018985748291,14.18752046697478,14.33190004084338,58.58581439780954,48.539092032992,9.70840483205393e-05,0.1216739267110824,0,0,0
4753,221743.31348562217,2011-02-03 00:27:33,960.48365778363,2,39,0.5501165986061096,4.174722671508789,14.192105872930377,14.33190004084338,58.6049472674166,48.539092032992,6.47544875391759e-05,0.1216739267110824,0,0,0
4754,221773.32863052367,2011-02-03 00:28:03,990.4988026851538,2,39,0.5499359965324402,4.179417610168457,14.196691355784193,14.33190004084338,58.624101583381474,48.539092032992,9.71794142969884e-05,0.1216739267110824,0,0,0
4755,221803.34569281392,2011-02-03 00:28:33,1020.5158649854252,2,39,0.5499359965324402,4.184112071990967,14.201277166394147,14.33190004084338,58.64327834865093,48.539092032992,0.0001295089750783,0.1216739267110824,0,0,0
4756,221833.35882122972,2011-02-03 00:29:03,1050.5289933962338,2,39,0.5499359965324402,4.188644886016846,14.205862309166683,14.33190004084338,58.66247340607464,48.539092032992,9.70840483205393e-05,0.1216739267110824,0,0,0
4757,221863.3739466928,2011-02-03 00:29:33,1080.5441188542984,2,39,0.5499359965324402,4.193339824676514,14.210447748719757,14.33190004084338,58.68169091074636,48.539092032992,0.0001295089750783,0.1216739267110824,0,0,0
4758,221893.38905418612,2011-02-03 00:30:03,1110.5592263475894,2,39,0.5499359965324402,4.197872161865234,14.21503316451073,14.33190004084338,58.700929492959744,48.539092032992,0.0001295089750783,0.1216739267110824,0,0,0
4759,221906.18571377423,2011-02-03 00:30:16,1123.3558859407292,2,39,0.5501165986061096,4.200138568878174,14.216988137767585,14.33190004084338,58.70913825058828,48.539092032992,0.0001618385285837,0.1216739267110824,0,0,0
4760,221936.20372545003,2011-02-03 00:30:46,30.01520659528363,3,39,0.0,4.091189861297607,14.216988137767585,14.33190004084338,58.70913825058828,48.539092032992,-0.0004208564641885,0.1216739267110824,0,0,0
4761,221966.2187673649,2011-02-03 00:31:16,60.03024845499553,3,39,0.0,4.079371929168701,14.216988137767585,14.33190004084338,58.70913825058828,48.539092032992,-0.0002266883820993,0.1216739267110824,0,0,0
4762,221996.2339243516,2011-02-03 00:31:46,90.04540543161417,3,39,0.0,4.071925163269043,14.216988137767585,14.33190004084338,58.70913825058828,48.539092032992,-0.0001619339018361,0.1216739267110824,0,0,0
4763,222026.2021226176,2011-02-03 00:32:16,120.01360366258984,3,39,0.0,4.066583156585693,14.216988137767585,14.33190004084338,58.70913825058828,48.539092032992,-0.0001295089750783,0.1216739267110824,0,0,0
4764,222026.2069240903,2011-02-03 00:32:16,2.676671088e-06,4,39,0.940413236618042,4.199653148651123,14.2169881384668,14.33190004084338,58.709138253524735,48.539092032992,0.0,0.1216739267110824,0,0,0
4765,222027.0037903061,2011-02-03 00:32:17,0.796868897482958,4,39,0.889842689037323,4.199814796447754,14.21718880267766,14.33190004084338,58.7099809822963,48.539092032992,3.23295607813634e-05,0.1216739267110824,0,0,0
4766,222029.37873794136,2011-02-03 00:32:19,3.171816537755637,4,39,0.8396332859992981,4.199653148651123,14.217757691797766,14.33190004084338,58.712370152904086,48.539092032992,0.0,0.1216739267110824,0,0,0
4767,222033.222457418,2011-02-03 00:32:23,7.015536014374287,4,39,0.7896045446395874,4.199653148651123,14.21862575561325,14.33190004084338,58.716015773538665,48.539092032992,0.0,0.1216739267110824,0,0,0
4768,222038.65982926663,2011-02-03 00:32:28,12.452907858046208,4,39,0.7395757436752319,4.199653148651123,14.219778899581785,14.33190004084338,58.72085867362682,48.539092032992,0.0,0.1216739267110824,0,0,0
4769,222046.33158202504,2011-02-03 00:32:36,20.124660616459487,4,39,0.6895470023155212,4.199653148651123,14.221299272115928,14.33190004084338,58.72724385211463,48.539092032992,-3.23295607813634e-05,0.1216739267110824,0,0,0
4770,222056.8939177406,2011-02-03 00:32:47,30.686996332012093,4,39,0.6393375992774963,4.199653148651123,14.22324477981187,14.33190004084338,58.73541451716633,48.539092032992,0.0,0.1216739267110824,0,0,0
4771,222072.31551836448,2011-02-03 00:33:02,46.108596960887134,4,39,0.5893087983131409,4.199814796447754,14.225869727135343,14.33190004084338,58.74643864563059,48.539092032992,3.23295607813634e-05,0.1216739267110824,0,0,0
4772,222096.8932253176,2011-02-03 00:33:27,70.68630391398563,4,39,0.5392800569534302,4.199814796447754,14.229708788209877,14.33190004084338,58.76256180108648,48.539092032992,0.0,0.1216739267110824,0,0,0
4773,222141.0019714749,2011-02-03 00:34:11,114.79505007634413,4,39,0.4892512857913971,4.199653148651123,14.235980552417614,14.33190004084338,58.788901680849776,48.539092032992,0.0,0.1216739267110824,0,0,0
4774,222217.82865941525,2011-02-03 00:35:28,191.62173801165983,4,39,0.4390419125556946,4.199653148651123,14.245847601824863,14.33190004084338,58.83034093208206,48.539092032992,0.0,0.1216739267110824,0,0,0
4775,222330.01425513843,2011-02-03 00:37:20,303.80733373484685,4,39,0.3890131413936615,4.199653148651123,14.258720571630358,14.33190004084338,58.88440436708967,48.539092032992,-3.23295607813634e-05,0.1216739267110824,0,0,0
4776,222472.51182621092,2011-02-03 00:39:42,446.30490481237854,4,39,0.3389843702316284,4.199814796447754,14.273102956247037,14.33190004084338,58.9448069952107,48.539092032992,3.23295607813634e-05,0.1216739267110824,0,0,0
4777,222649.60258296627,2011-02-03 00:42:39,623.3956615877263,4,39,0.2889555990695953,4.199653148651123,14.288521025828317,14.33190004084338,59.00955917813042,48.539092032992,-3.23295607813634e-05,0.1216739267110824,0,0,0
4778,222869.69269277493,2011-02-03 00:46:19,843.4857713613159,4,39,0.2389268279075622,4.199653148651123,14.304620513449809,14.33190004084338,59.0771731795257,48.539092032992,-3.23295607813634e-05,0.1216739267110824,0,0,0
4779,223153.9867091037,2011-02-03 00:51:04,1127.7797877001142,4,39,0.1888980567455291,4.199814796447754,14.321452706606436,14.33190004084338,59.14786440986558,48.539092032992,0.0,0.1216739267110824,0,0,0
4780,223538.97806436487,2011-02-03 00:57:29,1512.7711429512783,4,39,0.1386886835098266,4.199814796447754,14.338867074440504,14.33190004084338,59.22100080117292,48.539092032992,3.23295607813634e-05,0.1216739267110824,0,0,0
4781,224131.4836066056,2011-02-03 01:07:21,2105.276685201965,4,39,0.0886599123477935,4.199653148651123,14.35731628420594,14.33190004084338,59.29848312156666,48.539092032992,-6.47544875391759e-05,0.1216739267110824,0,0,0
4782,224996.42198646304,2011-02-03 01:21:46,2970.2150650644685,4,39,0.0498289167881011,4.199653148651123,14.373527224701196,14.33190004084338,59.36656522480285,48.539092032992,-3.23295607813634e-05,0.1216739267110824,0,0,0
4783,225026.4299882767,2011-02-03 01:22:16,30.015108631126807,5,39,0.0,4.188807010650635,14.373527224701196,14.33190004084338,59.36656522480285,48.539092032992,0.0,0.1216739267110824,0,0,0
4784,225056.4294763817,2011-02-03 01:22:46,60.01459673609612,5,39,0.0,4.187026023864746,14.373527224701196,14.33190004084338,59.36656522480285,48.539092032992,-3.24249267578125e-05,0.1216739267110824,0,0,0
4785,225056.61093422552,2011-02-03 01:22:47,0.187542914648817,6,39,-1.9243103452026844e-05,4.186864376068115,14.373527224701196,14.331900041845854,59.36656522480285,48.53909203718922,0.0,0.1231847554445266,0,0,0
4786,225061.43904970988,2011-02-03 01:22:52,5.015658388984854,6,39,0.0005225847125984,4.186864376068115,14.373527957777814,14.33190004193028,59.36656829428183,48.53909203754269,-6.47544875391759e-05,0.1231847554445266,0,0,0
4787,225068.49530008915,2011-02-03 01:22:59,7.062377893750578,7,39,-1.0997490882873535,3.9867734909057617,14.373527957777814,14.334057137186026,59.36656829428183,48.54771810157241,-0.0025901317130774,0.1231847554445266,0,0,0
4788,225098.51039453488,2011-02-03 01:23:29,37.077472334510624,7,39,-1.0993878841400146,3.913439273834229,14.373527957777814,14.343224699225948,59.36656829428183,48.58392715474918,-0.0019425868522375,0.1231847554445266,0,0,0
4789,225128.5255142787,2011-02-03 01:23:59,67.0925920733212,7,39,-1.0993878841400146,3.8349244594573975,14.373527957777814,14.35239221869646,59.36656829428183,48.61945406523111,-0.0022664070129394,0.1231847554445266,0,0,0
4790,225158.5406068799,2011-02-03 01:24:29,97.10768467950892,7,39,-1.0993878841400146,3.751067876815796,14.373527957777814,14.361559678575016,59.36656829428183,48.654220965233065,-0.0021368502639234,0.1231847554445266,0,0,0
4791,225188.55577378624,2011-02-03 01:24:59,127.122851641013,7,39,-1.099568486213684,3.680647373199463,14.373527957777814,14.370727206473854,59.36656829428183,48.68827253874492,-0.0016836166614666,0.1231847554445266,0,0,0
4792,225218.571042762,2011-02-03 01:25:29,157.13812056163053,7,39,-1.099568486213684,3.626901388168335,14.373527957777814,14.379894814562736,59.36656829428183,48.72175696833794,-0.0012303352123126,0.1231847554445266,0,0,0
4793,225248.58601417116,2011-02-03 01:25:59,187.1530919757704,7,39,-1.0993878841400146,3.585620641708374,14.373527957777814,14.389062341501877,59.36656829428183,48.754807913688445,-0.0009389400365762,0.1231847554445266,0,0,0
4794,225278.60110498287,2011-02-03 01:26:29,217.1681828075357,7,39,-1.0997490882873535,3.551948308944702,14.373527957777814,14.398229893097188,59.36656829428183,48.787519488426085,-0.0008418083307333,0.1231847554445266,0,0,0
4795,225308.61650436863,2011-02-03 01:26:59,247.18358219331256,7,39,-1.099568486213684,3.524103879928589,14.373527957777814,14.407397573209424,59.36656829428183,48.819952422079,-0.0007122993702068,0.1231847554445266,0,0,0
4796,225338.63335306657,2011-02-03 01:27:29,277.20043089122123,7,39,-1.0993878841400146,3.499821186065674,14.373527957777814,14.416565667228047,59.36656829428183,48.85214748888867,-0.0006151676061563,0.1231847554445266,0,0,0
4797,225368.64645091115,2011-02-03 01:27:59,307.2135287208119,7,39,-1.099568486213684,3.478128433227539,14.373527957777814,14.42573266078266,59.36656829428183,48.88412912058542,-0.0005504131549969,0.1231847554445266,0,0,0
4798,225398.66155274533,2011-02-03 01:28:29,337.2286305399612,7,39,-1.0993878841400146,3.459025859832764,14.373527957777814,14.43490019180784,59.36656829428183,48.91592459334771,-0.0004209041653666,0.1231847554445266,0,0,0
4799,225428.6766818826,2011-02-03 01:28:59,367.24375968722046,7,39,-1.099568486213684,3.441056489944458,14.373527957777814,14.444067796678574,59.36656829428183,48.94755139747864,-0.0004532813909463,0.1231847554445266,0,0,0
4800,225458.6918415108,2011-02-03 01:29:29,397.25891931544766,7,39,-1.099568486213684,3.424544334411621,14.373527957777814,14.453235427851382,59.36656829428183,48.979021929512975,-0.0004209041653666,0.1231847554445266,0,0,0
4801,225488.70692406697,2011-02-03 01:29:59,427.27400186657513,7,39,-1.099568486213684,3.408841371536255,14.373527957777814,14.462403041604144,59.36656829428183,49.01034516843468,-0.0004532813909463,0.1231847554445266,0,0,0
4802,225518.72206293343,2011-02-03 01:30:29,457.28914072804525,7,39,-1.099568486213684,3.3939478397369385,14.373527957777814,14.471570613020432,59.36656829428183,49.04152714596281,-0.0003885269106831,0.1231847554445266,0,0,0
4803,225548.73717479763,2011-02-03 01:30:59,487.3042525972424,7,39,-1.099568486213684,3.379054307937622,14.373527957777814,14.480738212396991,59.36656829428183,49.07257416892795,-0.0004209041653666,0.1231847554445266,0,0,0
4804,225578.7522711381,2011-02-03 01:31:29,517.3193489327247,7,39,-1.099568486213684,3.364808320999145,14.373527957777814,14.489905785631418,59.36656829428183,49.10348628648287,-0.0003237724304199,0.1231847554445266,0,0,0
4805,225608.76740328787,2011-02-03 01:31:59,547.3344811175544,7,39,-1.099929690361023,3.3497531414031982,14.373527957777814,14.499073411844376,59.36656829428183,49.134264390584896,-0.0003884792386088,0.1231847554445266,0,0,0
4806,225638.78252404425,2011-02-03 01:32:29,577.3496018438261,7,39,-1.0993878841400146,3.335021495819092,14.373527957777814,14.508241101648968,59.36656829428183,49.16490697423323,-0.0003885269106831,0.1231847554445266,0,0,0
4807,225668.7976342092,2011-02-03 01:32:59,607.3647120037632,7,39,-1.099568486213684,3.3193185329437256,14.373527957777814,14.517408715740633,59.36656829428183,49.19540837685657,-0.0003885269106831,0.1231847554445266,0,0,0
4808,225698.8127297677,2011-02-03 01:33:29,637.3798075673216,7,39,-1.0993878841400146,3.3024823665618896,14.373527957777814,14.526576219934997,59.36656829428183,49.22576175274819,-0.0004532813909463,0.1231847554445266,0,0,0
4809,225728.82783909555,2011-02-03 01:33:59,667.3949168951849,7,39,-1.099568486213684,3.284351110458374,14.373527957777814,14.53574374872372,59.36656829428183,49.25595601174323,-0.0005180359003134,0.1231847554445266,0,0,0
4810,225758.84304918456,2011-02-03 01:34:29,697.4101270092385,7,39,-1.099568486213684,3.264763116836548,14.373527957777814,14.544911293449054,59.36656829428183,49.28597599328194,-0.0005504131549969,0.1231847554445266,0,0,0
4811,225788.85820676768,2011-02-03 01:34:59,727.4252845923686,7,39,-1.099568486213684,3.243879795074463,14.373527957777814,14.55407891676492,59.36656829428183,49.31581072365092,-0.0006151676061563,0.1231847554445266,0,0,0
4812,225818.8733102359,2011-02-03 01:35:29,757.440388070653,7,39,-1.099568486213684,3.2213776111602783,14.373527957777814,14.563246485378333,59.36656829428183,49.34544641903299,-0.0005504131549969,0.1231847554445266,0,0,0
4813,225848.88830156976,2011-02-03 01:35:59,787.4553793693514,7,39,-1.0993878841400146,3.1962852478027344,14.373527957777814,14.572414061242656,59.36656829428183,49.37486552653457,-0.0007122993702068,0.1231847554445266,0,0,0
4814,225878.90364933183,2011-02-03 01:36:29,817.470727231716,7,39,-1.099568486213684,3.16957426071167,14.373527957777814,14.581581712367552,59.36656829428183,49.404049013593614,-0.0007770538213662,0.1231847554445266,0,0,0
4815,225908.9185396288,2011-02-03 01:36:59,847.485617428437,7,39,-1.099568486213684,3.140110969543457,14.373527957777814,14.590749240066824,59.36656829428183,49.43297435924556,-0.0008094310760498,0.1231847554445266,0,0,0
4816,225938.93559813965,2011-02-03 01:37:29,877.5026759743515,7,39,-1.0997490882873535,3.106762647628784,14.373527957777814,14.599917426245188,59.36656829428183,49.46161429507033,-0.0009388923645019,0.1231847554445266,0,0,0
4817,225968.9487650013,2011-02-03 01:37:59,907.5158428109288,7,39,-1.099568486213684,3.069366931915283,14.373527957777814,14.60908447788032,59.36656829428183,49.489926077833005,-0.0010360718006268,0.1231847554445266,0,0,0
4818,225998.96394350156,2011-02-03 01:38:29,937.5310213262284,7,39,-1.0997490882873535,3.025334119796753,14.373527957777814,14.618252082187942,59.36656829428183,49.517869469926936,-0.0012626647949218,0.1231847554445266,0,0,0
4819,226028.97912768097,2011-02-03 01:38:59,967.5462055056448,7,39,-1.099568486213684,2.9733686447143555,14.373527957777814,14.627419772774246,59.36656829428183,49.54537595233662,-0.0015217304462566,0.1231847554445266,0,0,0
4820,226058.9940948044,2011-02-03 01:39:29,997.5611726090408,7,39,-1.099568486213684,2.90861439704895,14.373527957777814,14.636587315855971,59.36656829428183,49.57234847866898,-0.0019102573860436,0.1231847554445266,0,0,0
4821,226089.00923478365,2011-02-03 01:39:59,1027.5763125832846,7,39,-1.099568486213684,2.8257288932800293,14.373527957777814,14.645754968527129,59.36656829428183,49.59864607957898,-0.0023959160316735,0.1231847554445266,0,0,0
4822,226119.02432893368,2011-02-03 01:40:29,1057.5914067283074,7,39,-1.099568486213684,2.7260072231292725,14.373527957777814,14.654922625110116,59.36656829428183,49.62410583317947,-0.002816820051521,0.1231847554445266,0,0,0
4823,226126.2585905245,2011-02-03 01:40:36,1064.8256683191184,7,39,-1.099568486213684,2.699943780899048,14.373527957777814,14.657132214497524,59.36656829428183,49.63010067146936,-0.0028815269470214,0.1231847554445266,0,0,0
4824,226186.2694742779,2011-02-03 01:41:37,60.0144448525556,8,39,0.0,3.766608715057373,14.373527957777814,14.657132214497524,59.36656829428183,49.63010067146936,0.0007446765666827,0.1231847554445266,0,0,0
4825,226186.45435728147,2011-02-03 01:41:37,0.187417171257596,9,39,-1.9243103452026844e-05,3.766446828842163,14.373527957777814,14.657132215499328,59.36656829428183,49.6301006752426,0.0,0.122962400317192,0,0,0
4826,226191.2825429558,2011-02-03 01:41:42,5.015602770366143,9,39,0.0003419754502829,3.770979642868042,14.37352863539533,14.65713221566642,59.36657084832643,49.63010067587193,0.0005827903514727,0.122962400317192,0,0,0
