Data_Point,Test_Time(s),Date_Time,Step_Time(s),Step_Index,Cycle_Index,Current(A),Voltage(V),Charge_Capacity(Ah),Discharge_Capacity(Ah),Charge_Energy(Wh),Discharge_Energy(Wh),dV/dt(V/s),Internal_Resistance(Ohm),Is_FC_Data,AC_Impedance(Ohm),ACI_Phase_Angle(Deg)
5778,274948.21083070943,2011-02-03 15:14:29,30.015141748665904,1,49,0.0,3.795748233795166,17.231755219315396,17.499995934276722,71.22541658577543,59.15677736722326,0.0004209041653666,0.1244679987430572,0,0,0
5779,274978.2259204936,2011-02-03 15:14:59,60.03023153783276,1,49,0.0,3.8093466758728023,17.231755219315396,17.499995934276722,71.22541658577543,59.15677736722326,0.0003237724304199,0.1244679987430572,0,0,0
5780,275008.2436572448,2011-02-03 15:15:29,90.0479683291434,1,49,0.0,3.81970739364624,17.231755219315396,17.499995934276722,71.22541658577543,59.15677736722326,0.0002590179501567,0.1244679987430572,0,0,0
5781,275038.2092682977,2011-02-03 15:15:59,120.01357933696288,1,49,0.0,3.828125476837158,17.231755219315396,17.499995934276722,71.22541658577543,59.15677736722326,0.0002266406954731,0.1244679987430572,0,0,0
5782,275068.2106584875,2011-02-03 15:16:29,30.01508015014344,2,49,0.5501165986061096,3.9540724754333496,17.236340839103725,17.499995934276722,71.24346186732437,59.15677736722326,0.0008094310760498,0.1244679987430572,0,0,0
5783,275098.2257598455,2011-02-03 15:16:59,60.03018150814338,2,49,0.5499359965324402,3.976898431777954,17.240926496500496,17.499995934276722,71.26164929342447,59.15677736722326,0.0005827903514727,0.1244679987430572,0,0,0
5784,275128.2429877084,2011-02-03 15:17:29,90.04740939611031,2,49,0.5499359965324402,3.993896484375,17.245512346976685,17.499995934276722,71.27992684517737,59.15677736722326,0.0003885269106831,0.1244679987430572,0,0,0
5785,275158.25598272175,2011-02-03 15:17:59,120.06040437937628,2,49,0.5497553944587708,4.0084662437438965,17.250097537136778,17.499995934276722,71.29827374180076,59.15677736722326,0.0003885269106831,0.1244679987430572,0,0,0
5786,275188.27110086154,2011-02-03 15:18:29,150.0755225242142,2,49,0.5499359965324402,4.021578788757324,17.254683033447847,17.499995934276722,71.31668442885594,59.15677736722326,0.0003885269106831,0.1244679987430572,0,0,0
5787,275218.2862148059,2011-02-03 15:18:59,180.0906364986582,2,49,0.5499359965324402,4.0329108238220215,17.259268503160502,17.499995934276722,71.33515129645747,59.15677736722326,0.0003237724304199,0.1244679987430572,0,0,0
5788,275248.30133366754,2011-02-03 15:19:29,210.10575532519508,2,49,0.5501165986061096,4.043595314025879,17.26385401548337,17.499995934276722,71.35366933370143,59.15677736722326,0.0002914428769145,0.1244679987430572,0,0,0
5789,275278.3164246998,2011-02-03 15:19:59,240.12084636247263,2,49,0.5499359965324402,4.053146362304688,17.268439616264175,17.499995934276722,71.37223424621635,59.15677736722326,0.0002265930233988,0.1244679987430572,0,0,0
5790,275308.3315475413,2011-02-03 15:20:30,270.13596923409114,2,49,0.5499359965324402,4.062211990356445,17.2730250906591,17.499995934276722,71.39084113871337,59.15677736722326,0.0002590179501567,0.1244679987430572,0,0,0
5791,275338.3491902181,2011-02-03 15:21:00,300.15361191083935,2,49,0.5499359965324402,4.070306301116943,17.27761101089692,17.499995934276722,71.40948901088203,59.15677736722326,0.0002265930233988,0.1244679987430572,0,0,0
5792,275368.36189917347,2011-02-03 15:21:30,330.1663208612233,2,49,0.5501165986061096,4.078400611877441,17.282196163601892,17.499995934276722,71.42817040754953,59.15677736722326,0.0002590179501567,0.1244679987430572,0,0,0
5793,275398.37701008026,2011-02-03 15:22:00,360.18143175799685,2,49,0.5499359965324402,4.085361957550049,17.28678170462322,17.499995934276722,71.44688758246738,59.15677736722326,0.0001942634553415,0.1244679987430572,0,0,0
5794,275428.3919960106,2011-02-03 15:22:30,390.1964176782906,2,49,0.5501165986061096,4.092161178588867,17.29136721625671,17.499995934276722,71.46563675488832,59.15677736722326,0.0001619339018361,0.1244679987430572,0,0,0
5795,275458.4071600699,2011-02-03 15:23:00,420.2115817325488,2,49,0.5499359965324402,4.098636627197266,17.295952772440312,17.499995934276722,71.48441647743608,59.15677736722326,0.0001942634553415,0.1244679987430572,0,0,0
5796,275488.42221748835,2011-02-03 15:23:30,450.22663915103794,2,49,0.5499359965324402,4.104626178741455,17.300538302079477,17.499995934276722,71.5032248876739,59.15677736722326,0.0001618385285837,0.1244679987430572,0,0,0
5797,275518.437327924,2011-02-03 15:24:00,480.2417495816497,2,49,0.5499359965324402,4.110616207122803,17.305123841589282,17.499995934276722,71.52206089822668,59.15677736722326,0.0001619339018361,0.1244679987430572,0,0,0
5798,275548.452572108,2011-02-03 15:24:30,510.2569937706283,2,49,0.5501165986061096,4.116281986236572,17.30970940248858,17.499995934276722,71.5409234532759,59.15677736722326,0.0001619339018361,0.1244679987430572,0,0,0
5799,275578.4675625345,2011-02-03 15:25:00,540.2719841971528,2,49,0.5499359965324402,4.121786117553711,17.31429495634488,17.499995934276722,71.55981152701575,59.15677736722326,0.0001295089750783,0.1244679987430572,0,0,0
5800,275608.48279222235,2011-02-03 15:25:30,570.2872138849904,2,49,0.5499359965324402,4.1271281242370605,17.318880506864886,17.499995934276722,71.57872446786776,59.15677736722326,0.0001295089750783,0.1244679987430572,0,0,0
5801,275638.49781187164,2011-02-03 15:26:00,600.3022335343471,2,49,0.5501165986061096,4.132308483123779,17.323466022774742,17.499995934276722,71.59766150964734,59.15677736722326,0.0001618385285837,0.1244679987430572,0,0,0
5802,275668.5130430332,2011-02-03 15:26:30,630.3174647008699,2,49,0.5501165986061096,4.137488842010498,17.32805159696158,17.499995934276722,71.61662248153864,59.15677736722326,0.0001295089750783,0.1244679987430572,0,0,0
5803,275698.5279712597,2011-02-03 15:27:00,660.3323929474228,2,49,0.5499359965324402,4.142507553100586,17.33263720954314,17.499995934276722,71.63560699674663,59.15677736722326,0.0001619339018361,0.1244679987430572,0,0,0
5804,275728.5451370679,2011-02-03 15:27:30,690.349558765693,2,49,0.5499359965324402,4.147525787353516,17.337223064896644,17.499995934276722,71.65461567232732,59.15677736722326,0.0001295089750783,0.1244679987430572,0,0,0
5805,275758.5582329777,2011-02-03 15:28:00,720.3626546404115,2,49,0.5501165986061096,4.152544498443604,17.341808229094664,17.499995934276722,71.67364426272601,59.15677736722326,0.0001619339018361,0.1244679987430572,0,0,0
5806,275788.5734743547,2011-02-03 15:28:30,750.3778960223945,2,49,0.5499359965324402,4.157077312469482,17.34639372530375,17.499995934276722,71.69269660539948,59.15677736722326,9.71794142969884e-05,0.1244679987430572,0,0,0
5807,275818.58860153705,2011-02-03 15:29:00,780.3930232498687,2,49,0.5497553944587708,4.162095546722412,17.350979205056777,17.499995934276722,71.7117710778284,59.15677736722326,0.0001295089750783,0.1244679987430572,0,0,0
5808,275848.60359184333,2011-02-03 15:29:30,810.4080135109813,2,49,0.5499359965324402,4.166952133178711,17.355564716255568,17.499995934276722,71.73086771794878,59.15677736722326,0.0001295089750783,0.1244679987430572,0,0,0
5809,275878.61877539614,2011-02-03 15:30:00,840.423197063836,2,49,0.5499359965324402,4.17180871963501,17.36015027481662,17.499995934276722,71.74998647149563,59.15677736722326,0.0001618385285837,0.1244679987430572,0,0,0
5810,275908.6338184589,2011-02-03 15:30:30,870.4382401165211,2,49,0.5499359965324402,4.176503658294678,17.364735778538712,17.499995934276722,71.76912680869319,59.15677736722326,0.0001295089750783,0.1244679987430572,0,0,0
5811,275938.6489380874,2011-02-03 15:31:00,900.4533597450569,2,49,0.5499359965324402,4.181198120117188,17.3693213661162,17.499995934276722,71.7882891985989,59.15677736722326,0.0001295089750783,0.1244679987430572,0,0,0
5812,275968.6640435156,2011-02-03 15:31:30,930.4684651732008,2,49,0.5499359965324402,4.185893058776856,17.373906907143944,17.499995934276722,71.80747302527362,59.15677736722326,9.71794142969884e-05,0.1244679987430572,0,0,0
5813,275998.67916194105,2011-02-03 15:32:00,960.4835836087634,2,49,0.5497553944587708,4.190587520599365,17.378492396763093,17.499995934276722,71.8266785007289,59.15677736722326,9.70840483205393e-05,0.1244679987430572,0,0,0
5814,276028.6942690835,2011-02-03 15:32:30,990.4986907461672,2,49,0.5501165986061096,4.195605754852295,17.383077868562847,17.499995934276722,71.84590579016621,59.15677736722326,0.0001618385285837,0.1244679987430572,0,0,0
5815,276056.9594212998,2011-02-03 15:32:58,1018.7638429925352,2,49,0.5501165986061096,4.200138568878174,17.387395938011057,17.499995934276722,71.86403166887538,59.15677736722326,0.0001295089750783,0.1244679987430572,0,0,0
5816,276086.97819982376,2011-02-03 15:33:28,30.01511935284864,3,49,0.0,4.091513633728027,17.387395938011057,17.499995934276722,71.86403166887538,59.15677736722326,-0.0004208564641885,0.1244679987430572,0,0,0
5817,276116.9958657083,2011-02-03 15:33:58,60.03278529257534,3,49,0.0,4.080019474029541,17.387395938011057,17.499995934276722,71.86403166887538,59.15677736722326,-0.0002590179501567,0.1244679987430572,0,0,0
5818,276147.00843153696,2011-02-03 15:34:28,90.04535107113112,3,49,0.0,4.072734832763672,17.387395938011057,17.499995934276722,71.86403166887538,59.15677736722326,-0.0001618385285837,0.1244679987430572,0,0,0
5819,276176.9767122636,2011-02-03 15:34:58,120.0136317977112,3,49,0.0,4.067554473876953,17.387395938011057,17.499995934276722,71.86403166887538,59.15677736722326,-9.70840483205393e-05,0.1244679987430572,0,0,0
5820,276176.9823881265,2011-02-03 15:34:58,0.015639543554706,4,49,0.9293960928916932,4.199653148651123,17.38740003092813,17.499995934276722,71.86404885803735,59.15677736722326,-3.23295607813634e-05,0.1244679987430572,0,0,0
5821,276177.9042206167,2011-02-03 15:34:59,0.937472063836022,4,49,0.8786448836326599,4.199814796447754,17.387629531382494,17.499995934276722,71.86501269249707,59.15677736722326,0.0,0.1244679987430572,0,0,0
5822,276180.4041784208,2011-02-03 15:35:02,3.43742983281409,4,49,0.8286161422729492,4.199653148651123,17.388220823840673,17.499995934276722,71.86749596155687,59.15677736722326,-3.23295607813634e-05,0.1244679987430572,0,0,0
5823,276184.4353695344,2011-02-03 15:35:06,7.468620946435733,4,49,0.7785873413085938,4.199653148651123,17.389119042190988,17.499995934276722,71.8712682453051,59.15677736722326,0.0,0.1244679987430572,0,0,0
5824,276190.18535840587,2011-02-03 15:35:12,13.218609842993306,4,49,0.7285585999488831,4.199814796447754,17.39032063574336,17.499995934276722,71.87631463976021,59.15677736722326,0.0,0.1244679987430572,0,0,0
5825,276198.1538970009,2011-02-03 15:35:20,21.187148438030167,4,49,0.6785297989845276,4.199976921081543,17.39187518877256,17.499995934276722,71.88284338412426,59.15677736722326,3.24249267578125e-05,0.1244679987430572,0,0,0
5826,276209.35681244824,2011-02-03 15:35:31,32.3900638603134,4,49,0.6283204555511475,4.199653148651123,17.39390439512241,17.499995934276722,71.89136559301828,59.15677736722326,-3.23295607813634e-05,0.1244679987430572,0,0,0
5827,276225.93467335857,2011-02-03 15:35:47,48.967924795644535,4,49,0.578291654586792,4.199976921081543,17.396674931449205,17.499995934276722,71.9030011720961,59.15677736722326,0.0,0.1244679987430572,0,0,0
5828,276252.95193187974,2011-02-03 15:36:14,75.98518331688209,4,49,0.5282629132270813,4.199653148651123,17.400811429328918,17.499995934276722,71.92037349350049,59.15677736722326,-3.23295607813634e-05,0.1244679987430572,0,0,0
5829,276301.13663397345,2011-02-03 15:37:03,124.16988553086154,4,49,0.4782341122627258,4.199814796447754,17.40751563039542,17.499995934276722,71.94852947285214,59.15677736722326,3.23295607813634e-05,0.1244679987430572,0,0,0
5830,276383.82258992246,2011-02-03 15:38:25,206.85584133455689,4,49,0.4282053411006927,4.199814796447754,17.41788730088722,17.499995934276722,71.99208793676472,59.15677736722326,3.23295607813634e-05,0.1244679987430572,0,0,0
5831,276498.3206404747,2011-02-03 15:40:20,321.35389188670223,4,49,0.3781765699386596,4.199653148651123,17.430684273333785,17.499995934276722,72.04583212201223,59.15677736722326,-3.23295607813634e-05,0.1244679987430572,0,0,0
5832,276643.8963015947,2011-02-03 15:42:45,466.92955300672446,4,49,0.3281477987766266,4.199814796447754,17.44494186879307,17.499995934276722,72.10571064985457,59.15677736722326,0.0,0.1244679987430572,0,0,0
5833,276824.5045637658,2011-02-03 15:45:46,647.5378152129153,4,49,0.2779384255409241,4.199653148651123,17.460119854380785,17.499995934276722,72.16945454834956,59.15677736722326,-3.23295607813634e-05,0.1244679987430572,0,0,0
5834,277052.49871552404,2011-02-03 15:49:34,875.531966936056,4,49,0.2279096692800521,4.199653148651123,17.476102461720064,17.499995934276722,72.2365776016538,59.15677736722326,0.0,0.1244679987430572,0,0,0
5835,277348.11868901795,2011-02-03 15:54:30,1171.15194046007,4,49,0.1778808981180191,4.199814796447754,17.492699510764616,17.499995934276722,72.30628123408097,59.15677736722326,3.23295607813634e-05,0.1244679987430572,0,0,0
5836,277758.5493202824,2011-02-03 16:01:20,1581.5825717195164,4,49,0.127852126955986,4.199653148651123,17.50998417339974,17.499995934276722,72.37887255007693,59.15677736722326,0.0,0.1244679987430572,0,0,0
5837,278422.3817044849,2011-02-03 16:12:24,2245.414955897005,4,49,0.0778233557939529,4.199814796447754,17.528542801709033,17.499995934276722,72.45681431192696,59.15677736722326,3.23295607813634e-05,0.1244679987430572,0,0,0
5838,279091.5420518912,2011-02-03 16:23:33,2914.575303303233,4,49,0.0498289167881011,4.199814796447754,17.5402409343806,17.499995934276722,72.50594363019934,59.15677736722326,0.0,0.1244679987430572,0,0,0
5839,279121.5480247293,2011-02-03 16:24:03,30.01306577470002,5,49,0.0,4.188807010650635,17.5402409343806,17.499995934276722,72.50594363019934,59.15677736722326,-3.23295607813634e-05,0.1244679987430572,0,0,0
5840,279151.54766318406,2011-02-03 16:24:33,60.01270422938709,5,49,0.0,4.187188148498535,17.5402409343806,17.499995934276722,72.50594363019934,59.15677736722326,0.0,0.1244679987430572,0,0,0
5841,279151.7288919614,2011-02-03 16:24:34,0.187449642185138,6,49,-1.9243103452026844e-05,4.187026023864746,17.5402409343806,17.499995935278697,72.50594363019934,59.15677737141856,0.0,0.1230734884738922,0,0,0
5842,279156.55691079993,2011-02-03 16:24:38,5.01546847566242,6,49,0.0007031940040178,4.187026023864746,17.540241651451414,17.49999593545949,72.5059466326806,59.15677737217557,0.0,0.1230734884738922,0,0,0
5843,279163.769411488,2011-02-03 16:24:46,7.218496955489065,7,49,-1.0997490882873535,3.986935377120972,17.540241651451414,17.502200703391043,72.5059466326806,59.165595068147255,-0.0025901317130774,0.1230734884738922,0,0,0
5844,279193.7846864487,2011-02-03 16:25:16,37.23377192117277,7,49,-1.099568486213684,3.912953615188599,17.540241651451414,17.511368345623886,72.5059466326806,59.20180438722576,-0.0019749640487134,0.1230734884738922,0,0,0
5845,279223.8015590061,2011-02-03 16:25:46,67.25064451363397,7,49,-1.099568486213684,3.832010746002197,17.540241651451414,17.520536462335468,72.5059466326806,59.23731947248001,-0.0023311139084398,0.1230734884738922,0,0,0
5846,279253.8147952156,2011-02-03 16:26:16,97.26388069804744,7,49,-1.099929690361023,3.744754314422608,17.540241651451414,17.52970335024053,72.5059466326806,59.272043313096034,-0.0022339820861816,0.1230734884738922,0,0,0
5847,279283.82984023815,2011-02-03 16:26:46,127.27892570560472,7,49,-1.099568486213684,3.671743869781494,17.540241651451414,17.538870873446562,72.5059466326806,59.3060253346284,-0.0017159462440758,0.1230734884738922,0,0,0
5848,279313.8449812099,2011-02-03 16:27:16,157.29406668234677,7,49,-1.099568486213684,3.6162168979644775,17.540241651451414,17.548038404287286,72.5059466326806,59.339419726387135,-0.0013274669181555,0.1230734884738922,0,0,0
5849,279343.86004835763,2011-02-03 16:27:46,187.3091338350967,7,49,-1.099568486213684,3.573641061782837,17.540241651451414,17.557205805039278,72.5059466326806,59.3723679636,-0.0010036944877356,0.1230734884738922,0,0,0
5850,279373.8751703972,2011-02-03 16:28:16,217.32425586962893,7,49,-1.099568486213684,3.5389974117279053,17.540241651451414,17.566373366586053,72.5059466326806,59.40496569155753,-0.0008094310760498,0.1230734884738922,0,0,0
5851,279403.8904191726,2011-02-03 16:28:46,247.3395046701009,7,49,-1.099568486213684,3.5100200176239014,17.540241651451414,17.575541003803835,72.5059466326806,59.437273798367976,-0.0007122516399249,0.1230734884738922,0,0,0
5852,279433.90560324176,2011-02-03 16:29:16,277.3546887091675,7,49,-1.099568486213684,3.4852514266967773,17.540241651451414,17.584708634438773,72.5059466326806,59.469335748216174,-0.0005827903514727,0.1230734884738922,0,0,0
5853,279463.9205193029,2011-02-03 16:29:46,307.36960477536326,7,49,-1.099568486213684,3.4630730152130127,17.540241651451414,17.593876107856047,72.5059466326806,59.50118239453204,-0.0005504131549969,0.1230734884738922,0,0,0
5854,279493.935632335,2011-02-03 16:30:16,337.38471786259606,7,49,-1.0993878841400146,3.4436466693878174,17.540241651451414,17.60304367681802,72.5059466326806,59.53283974384836,-0.0004856586456298,0.1230734884738922,0,0,0
5855,279523.9507614472,2011-02-03 16:30:46,367.399846914618,7,49,-1.099568486213684,3.425353765487671,17.540241651451414,17.612211264026005,72.5059466326806,59.56432427756132,-0.0004532813909463,0.1230734884738922,0,0,0
5856,279553.96587626875,2011-02-03 16:31:16,397.41496176624815,7,49,-1.099568486213684,3.408679485321045,17.540241651451414,17.621378819687127,72.5059466326806,59.595648847648256,-0.0003885269106831,0.1230734884738922,0,0,0
5857,279583.981098087,2011-02-03 16:31:46,427.4301835694346,7,49,-1.099568486213684,3.392490863800049,17.540241651451414,17.630546417940373,72.5059466326806,59.62682249861954,-0.0003885269106831,0.1230734884738922,0,0,0
5858,279613.99612318986,2011-02-03 16:32:16,457.44520866235854,7,49,-1.0993878841400146,3.3767879009246826,17.540241651451414,17.639713952033738,72.5059466326806,59.65785077394171,-0.0004209041653666,0.1230734884738922,0,0,0
5859,279644.01120622223,2011-02-03 16:32:46,487.4602916896727,7,49,-1.0993878841400146,3.3612468242645264,17.540241651451414,17.648881501457964,72.5059466326806,59.68873625397304,-0.0003885269106831,0.1230734884738922,0,0,0
5860,279674.026323946,2011-02-03 16:33:16,517.4754094184738,7,49,-1.0997490882873535,3.34522032737732,17.540241651451414,17.658049066892275,72.5059466326806,59.71947770270307,-0.0004532813909463,0.1230734884738922,0,0,0
5861,279704.04142538924,2011-02-03 16:33:46,547.4905108566736,7,49,-1.099568486213684,3.329355478286743,17.540241651451414,17.667216689958803,72.5059466326806,59.75007399829723,-0.0004209041653666,0.1230734884738922,0,0,0
5862,279734.05656985467,2011-02-03 16:34:16,577.505655327123,7,49,-1.099568486213684,3.3123574256896973,17.540241651451414,17.676384256942978,72.5059466326806,59.7805208798662,-0.0004532813909463,0.1230734884738922,0,0,0
5863,279764.07165831554,2011-02-03 16:34:46,607.5207437829667,7,49,-1.0993878841400146,3.294873714447021,17.540241651451414,17.68555176751755,72.5059466326806,59.81080764109666,-0.0004209041653666,0.1230734884738922,0,0,0
5864,279794.0869867795,2011-02-03 16:35:16,637.5360722870847,7,49,-1.0993878841400146,3.275933027267456,17.540241651451414,17.69471935158754,72.5059466326806,59.8409278576676,-0.0005180359003134,0.1230734884738922,0,0,0
5865,279824.10186879087,2011-02-03 16:35:46,667.5509542583054,7,49,-1.099568486213684,3.25569748878479,17.540241651451414,17.703886742381115,72.5059466326806,59.87086820961216,-0.0005504131549969,0.1230734884738922,0,0,0
5866,279854.1033510559,2011-02-03 16:36:16,697.552436563435,7,49,-1.0997490882873535,3.2333571910858154,17.540241651451414,17.71305014711555,72.5059466326806,59.900601536065096,-0.0006475448608398,0.1230734884738922,0,0,0
5867,279884.1165242233,2011-02-03 16:36:46,727.5656097307906,7,49,-1.0997490882873535,3.209398031234741,17.540241651451414,17.722217081403677,72.5059466326806,59.9301354055726,-0.0007122993702068,0.1230734884738922,0,0,0
5868,279914.1317492996,2011-02-03 16:37:16,757.5808347720472,7,49,-1.099568486213684,3.1826870441436768,17.540241651451414,17.7313846680298,72.5059466326806,59.959438472371566,-0.0007770538213662,0.1230734884738922,0,0,0
5869,279944.14676867326,2011-02-03 16:37:46,787.595854266017,7,49,-1.0993878841400146,3.1537094116210938,17.540241651451414,17.740552269287942,72.5059466326806,59.98848563071193,-0.0007770538213662,0.1230734884738922,0,0,0
5870,279974.1620554333,2011-02-03 16:38:16,817.611140905796,7,49,-1.0997490882873535,3.120360851287842,17.540241651451414,17.7497198379197,72.5059466326806,60.01724764990744,-0.0009389400365762,0.1230734884738922,0,0,0
5871,280004.17691914405,2011-02-03 16:38:46,847.6260046265307,7,49,-1.099568486213684,3.08296537399292,17.540241651451414,17.758887371856392,72.5059466326806,60.04568712537254,-0.0011008263099938,0.1230734884738922,0,0,0
5872,280034.1922697983,2011-02-03 16:39:16,877.6413552808538,7,49,-1.099568486213684,3.0395798683166504,17.540241651451414,17.768055002572577,72.5059466326806,60.07375692060902,-0.0012303352123126,0.1230734884738922,0,0,0
5873,280064.207158752,2011-02-03 16:39:46,907.6562442194391,7,49,-1.099568486213684,2.988100290298462,17.540241651451414,17.777222527886828,72.5059466326806,60.10139295545552,-0.0014569759368896,0.1230734884738922,0,0,0
5874,280094.2222949518,2011-02-03 16:40:16,937.6713804794258,7,49,-1.099568486213684,2.926907539367676,17.540241651451414,17.786390042597354,72.5059466326806,60.12851487677805,-0.0017807483673095,0.1230734884738922,0,0,0
5875,280124.2373790718,2011-02-03 16:40:46,967.6864645393132,7,49,-1.099568486213684,2.851630687713623,17.540241651451414,17.79555756317538,72.5059466326806,60.15501643036019,-0.0022340298164635,0.1230734884738922,0,0,0
5876,280154.25250432943,2011-02-03 16:41:16,997.7015898269534,7,49,-1.0997490882873535,2.7588701248168945,17.540241651451414,17.804725188551263,72.5059466326806,60.18074787344992,-0.0026549338363111,0.1230734884738922,0,0,0
5877,280171.3953445821,2011-02-03 16:41:33,1014.8444300795828,7,49,-1.099568486213684,2.699943780899048,17.540241651451414,17.80996120883987,72.5059466326806,60.19504136988205,-0.0028167725540697,0.1230734884738922,0,0,0
5878,280231.41877297824,2011-02-03 16:42:33,60.014599713516766,8,49,0.0,3.771465301513672,17.540241651451414,17.80996120883987,72.5059466326806,60.19504136988205,0.0007122993702068,0.1230734884738922,0,0,0
5879,280231.6029625025,2011-02-03 16:42:34,0.187435582143188,9,49,-1.9243103452026844e-05,3.771627187728882,17.540241651451414,17.80996120984177,72.5059466326806,60.19504137366085,0.0,0.1238831803202629,0,0,0
5880,280236.43360231334,2011-02-03 16:42:39,5.018075503177149,9,49,0.0005225847125984,3.775836229324341,17.54024235586106,17.809961210106245,72.50594929118085,60.19504137465847,0.0005827903514727,0.1238831803202629,0,0,0
