Data_Point,Test_Time(s),Date_Time,Step_Time(s),Step_Index,Cycle_Index,Current(A),Voltage(V),Charge_Capacity(Ah),Discharge_Capacity(Ah),Charge_Energy(Wh),Discharge_Energy(Wh),dV/dt(V/s),Internal_Resistance(Ohm),Is_FC_Data,AC_Impedance(Ohm),ACI_Phase_Angle(Deg)
5357,253421.78522375348,2011-02-03 09:15:38,30.01781421928499,1,45,0.0,3.7934818267822266,15.970504760685609,16.24453439206222,65.99205658869471,54.94860589197415,0.0004532813909463,0.122962400317192,0,0,0
5358,253451.7975878293,2011-02-03 09:16:08,60.03017829012308,1,45,0.0,3.8067564964294434,15.970504760685609,16.24453439206222,65.99205658869471,54.94860589197415,0.0003561496851034,0.122962400317192,0,0,0
5359,253481.8126997687,2011-02-03 09:16:38,90.04529020944508,1,45,0.0,3.816955327987671,15.970504760685609,16.24453439206222,65.99205658869471,54.94860589197415,0.0002266406954731,0.122962400317192,0,0,0
5360,253511.7819380067,2011-02-03 09:17:08,120.014528261976,1,45,0.0,3.825373411178589,15.970504760685609,16.24453439206222,65.99205658869471,54.94860589197415,0.0001942634553415,0.122962400317192,0,0,0
5361,253541.7755035134,2011-02-03 09:17:38,30.000026291295228,2,45,0.5497553944587708,3.9505109786987305,15.975087960311493,16.24453439206222,66.0100776250542,54.94860589197415,0.0007446765666827,0.122962400317192,0,0,0
5362,253571.79049901257,2011-02-03 09:18:08,60.01502176038743,2,45,0.5501165986061096,3.973175048828125,15.979673440666632,16.24453439206222,66.02824824020578,54.94860589197415,0.0005180359003134,0.122962400317192,0,0,0
5363,253601.80575981791,2011-02-03 09:18:38,90.03028266101668,2,45,0.5499359965324402,3.990011215209961,15.984258938625464,16.24453439206222,66.04650721517784,54.94860589197415,0.0003885269106831,0.122962400317192,0,0,0
5364,253631.8208240033,2011-02-03 09:19:08,120.0453468714334,2,45,0.5499359965324402,4.0042572021484375,15.988844252814165,16.24453439206222,66.06483628356698,54.94860589197415,0.0002914428769145,0.122962400317192,0,0,0
5365,253661.8378466648,2011-02-03 09:19:38,150.0623694176255,2,45,0.5501165986061096,4.017045974731445,15.993429882413608,16.24453439206222,66.08322825617653,54.94860589197415,0.0003561019839253,0.122962400317192,0,0,0
5366,253691.85097456432,2011-02-03 09:20:08,180.07549728708472,2,45,0.5499359965324402,4.028540134429932,15.998014962609332,16.24453439206222,66.10167365397265,54.94860589197415,0.0002914428769145,0.122962400317192,0,0,0
5367,253721.86612129543,2011-02-03 09:20:39,210.09064410839324,2,45,0.5499359965324402,4.039224147796631,16.002600354668505,16.24453439206222,66.12017086029485,54.94860589197415,0.0002913475036621,0.122962400317192,0,0,0
5368,253751.88363945685,2011-02-03 09:21:09,240.108162199636,2,45,0.5501165986061096,4.0489373207092285,16.007186066079687,16.24453439206222,66.13871565606166,54.94860589197415,0.0002913475036621,0.122962400317192,0,0,0
5369,253781.8964204768,2011-02-03 09:21:39,270.1209432447022,2,45,0.5499359965324402,4.057679176330566,16.011771128481083,16.24453439206222,66.15730041927839,54.94860589197415,0.0002913475036621,0.122962400317192,0,0,0
5370,253811.9115527168,2011-02-03 09:22:09,300.136075469632,2,45,0.5499359965324402,4.0659356117248535,16.0163565332455,16.24453439206222,66.17592559669234,54.94860589197415,0.0002266883820993,0.122962400317192,0,0,0
5371,253841.92649343444,2011-02-03 09:22:39,330.15101627247907,2,45,0.5499359965324402,4.073544025421143,16.020941821662404,16.24453439206222,66.1945866329922,54.94860589197415,0.0001942634553415,0.122962400317192,0,0,0
5372,253871.94165946363,2011-02-03 09:23:09,360.16618230165955,2,45,0.5501165986061096,4.08082914352417,16.02552711836766,16.24453439206222,66.21328158311776,54.94860589197415,0.0002266883820993,0.122962400317192,0,0,0
5373,253901.9567840896,2011-02-03 09:23:39,390.18130685747553,2,45,0.5499359965324402,4.087304592132568,16.030112411825915,16.24453439206222,66.23200823715909,54.94860589197415,0.0001619339018361,0.122962400317192,0,0,0
5374,253931.97185376863,2011-02-03 09:24:09,420.1963765114593,2,45,0.5501165986061096,4.093941688537598,16.03469779005768,16.24453439206222,66.25076541086446,54.94860589197415,0.0001618385285837,0.122962400317192,0,0,0
5375,253961.98695440983,2011-02-03 09:24:39,450.21147715768535,2,45,0.5499359965324402,4.099931716918945,16.039283131575342,16.24453439206222,66.26955130827542,54.94860589197415,0.0001295089750783,0.122962400317192,0,0,0
5376,253992.00224434788,2011-02-03 09:25:09,480.2267670906722,2,45,0.5497553944587708,4.105921268463135,16.04386850595303,16.24453439206222,66.28836481515738,54.94860589197415,0.0001618385285837,0.122962400317192,0,0,0
5377,254022.01717886003,2011-02-03 09:25:39,510.2417015777784,2,45,0.5499359965324402,4.111587524414063,16.048453759847536,16.24453439206222,66.3072042690783,54.94860589197415,0.0001619339018361,0.122962400317192,0,0,0
5378,254052.0323130198,2011-02-03 09:26:09,540.2568357726179,2,45,0.5501165986061096,4.117091178894043,16.053039072535384,16.24453439206222,66.32606945225504,54.94860589197415,0.0001942634553415,0.122962400317192,0,0,0
5379,254082.04741576625,2011-02-03 09:26:39,570.2719385090534,2,45,0.5501165986061096,4.122433662414551,16.05762443095827,16.24453439206222,66.344959603076,54.94860589197415,0.0001942634553415,0.122962400317192,0,0,0
5380,254112.06256471787,2011-02-03 09:27:09,600.2870875759586,2,45,0.5501165986061096,4.1276140213012695,16.062209755337285,16.24453439206222,66.36387363367861,54.94860589197415,0.0001619339018361,0.122962400317192,0,0,0
5381,254142.0776307177,2011-02-03 09:27:39,630.3021536810976,2,45,0.5499359965324402,4.132632255554199,16.06679508376572,16.24453439206222,66.38281115166315,54.94860589197415,0.0001295089750783,0.122962400317192,0,0,0
5382,254172.09274668217,2011-02-03 09:28:09,660.3172694299639,2,45,0.5501165986061096,4.137327194213867,16.07138047461804,16.24453439206222,66.40177184477318,54.94860589197415,6.47544875391759e-05,0.122962400317192,0,0,0
5383,254202.10788728792,2011-02-03 09:28:39,690.3324100558315,2,45,0.5499359965324402,4.142507553100586,16.07596592341614,16.24453439206222,66.42075545528404,54.94860589197415,0.0001295089750783,0.122962400317192,0,0,0
5384,254232.12320555656,2011-02-03 09:29:09,720.3477284246893,2,45,0.5501165986061096,4.147364139556885,16.080551347170726,16.24453439206222,66.43976159577491,54.94860589197415,0.0001295089750783,0.122962400317192,0,0,0
5385,254262.13809160795,2011-02-03 09:29:39,750.3626143206915,2,45,0.5501165986061096,4.152220726013184,16.08513665707064,16.24453439206222,66.4587896841342,54.94860589197415,0.0001295089750783,0.122962400317192,0,0,0
5386,254292.13950681585,2011-02-03 09:30:09,780.3640295887443,2,45,0.5499359965324402,4.157077312469482,16.089719916533074,16.24453439206222,66.47783121938816,54.94860589197415,0.0001295089750783,0.122962400317192,0,0,0
5387,254322.15263859005,2011-02-03 09:30:39,810.3771613128104,2,45,0.5501165986061096,4.161771774291992,16.094304907780554,16.24453439206222,66.4969018260378,54.94860589197415,0.0001295089750783,0.122962400317192,0,0,0
5388,254352.16775973732,2011-02-03 09:31:09,840.3922824601315,2,45,0.5499359965324402,4.16646671295166,16.098890297425232,16.24453439206222,66.51599595288384,54.94860589197415,0.0001295089750783,0.122962400317192,0,0,0
5389,254382.1828726091,2011-02-03 09:31:39,870.407395331827,2,45,0.5499359965324402,4.17116117477417,16.103475630556325,16.24453439206222,66.53511158011572,54.94860589197415,9.70840483205393e-05,0.122962400317192,0,0,0
5390,254412.19797700463,2011-02-03 09:32:09,900.4224997273974,2,45,0.5499359965324402,4.176017761230469,16.108060931895483,16.24453439206222,66.55424868037176,54.94860589197415,0.0001295089750783,0.122962400317192,0,0,0
5391,254442.21309425225,2011-02-03 09:32:39,930.4376169749992,2,45,0.5501165986061096,4.180712699890137,16.11264623175716,16.24453439206222,66.57340738986453,54.94860589197415,0.0001295089750783,0.122962400317192,0,0,0
5392,254472.22825327897,2011-02-03 09:33:09,960.4527760017272,2,45,0.5501165986061096,4.185245513916016,16.11723159534541,16.24453439206222,66.59258795005907,54.94860589197415,9.71794142969884e-05,0.122962400317192,0,0,0
5393,254502.2434492979,2011-02-03 09:33:39,990.4679720407014,2,45,0.5499359965324402,4.189939975738525,16.12181691238874,16.24453439206222,66.61178986601246,54.94860589197415,9.70840483205393e-05,0.122962400317192,0,0,0
5394,254532.25841502787,2011-02-03 09:34:09,1020.4829377706744,2,45,0.5499359965324402,4.194796562194824,16.126402234056812,16.24453439206222,66.63101338333169,54.94860589197415,0.0001295089750783,0.122962400317192,0,0,0
5395,254562.27353788944,2011-02-03 09:34:39,1050.4980606072056,2,45,0.5499359965324402,4.199491024017334,16.13098755359262,16.24453439206222,66.65025850883288,54.94860589197415,0.0001295089750783,0.122962400317192,0,0,0
5396,254565.4297440714,2011-02-03 09:34:42,1053.6542667891513,2,45,0.5501165986061096,4.200138568878174,16.131469732949274,16.24453439206222,66.65228354079397,54.94860589197415,0.0001942634553415,0.122962400317192,0,0,0
5397,254595.44175903956,2011-02-03 09:35:12,30.01511763356365,3,45,0.0,4.091513633728027,16.131469732949274,16.24453439206222,66.65228354079397,54.94860589197415,-0.0004532813909463,0.122962400317192,0,0,0
5398,254625.4588637054,2011-02-03 09:35:42,60.03222233451062,3,45,0.0,4.07985782623291,16.131469732949274,16.24453439206222,66.65228354079397,54.94860589197415,-0.0002590179501567,0.122962400317192,0,0,0
5399,254655.47210216548,2011-02-03 09:36:12,90.04546077955828,3,45,0.0,4.072572708129883,16.131469732949274,16.24453439206222,66.65228354079397,54.94860589197415,-0.0001619339018361,0.122962400317192,0,0,0
5400,254685.44022291337,2011-02-03 09:36:42,120.0135815173972,3,45,0.0,4.067230701446533,16.131469732949274,16.24453439206222,66.65228354079397,54.94860589197415,-0.0001295089750783,0.122962400317192,0,0,0
5401,254685.4547942607,2011-02-03 09:36:42,0.015616997362658,4,45,0.9358980059623718,4.199653148651123,16.131473792926062,16.24453439206222,66.65230059128828,54.94860589197415,0.0,0.122962400317192,0,0,0
5402,254686.204753936,2011-02-03 09:36:43,0.765576667617755,4,45,0.8853274583816528,4.199814796447754,16.131661499901437,16.24453439206222,66.65308891034873,54.94860589197415,3.23295607813634e-05,0.122962400317192,0,0,0
5403,254688.5821014775,2011-02-03 09:36:46,3.142924219207872,4,45,0.8351180553436279,4.199814796447754,16.132227849878593,16.24453439206222,66.65546741643819,54.94860589197415,3.23295607813634e-05,0.122962400317192,0,0,0
5404,254692.4077506574,2011-02-03 09:36:49,6.968573399086955,4,45,0.7850892543792725,4.199653148651123,16.133087063507613,16.24453439206222,66.65907587013257,54.94860589197415,0.0,0.122962400317192,0,0,0
5405,254697.98570818384,2011-02-03 09:36:55,12.546530915512507,4,45,0.7350605130195618,4.199814796447754,16.134262756202418,16.24453439206222,66.66401347596853,54.94860589197415,0.0,0.122962400317192,0,0,0
5406,254705.65750605977,2011-02-03 09:37:03,20.2183288214473,4,45,0.6848511099815369,4.199653148651123,16.135773153186264,16.24453439206222,66.67035676614056,54.94860589197415,-3.23295607813634e-05,0.122962400317192,0,0,0
5407,254716.407454128,2011-02-03 09:37:13,30.96827697492212,4,45,0.6348223686218262,4.199814796447754,16.137739775646967,16.24453439206222,66.6786160906375,54.94860589197415,3.23295607813634e-05,0.122962400317192,0,0,0
5408,254732.18843347425,2011-02-03 09:37:29,46.74925623592646,4,45,0.5847935676574707,4.199814796447754,16.140405936445134,16.24453439206222,66.68981334135762,54.94860589197415,0.0,0.122962400317192,0,0,0
5409,254757.64096590155,2011-02-03 09:37:55,72.20178867832136,4,45,0.53476482629776,4.199653148651123,16.144348604390387,16.24453439206222,66.70637161700792,54.94860589197415,0.0,0.122962400317192,0,0,0
5410,254802.8433974244,2011-02-03 09:38:40,117.4042201560042,4,45,0.4847360551357269,4.199653148651123,16.150719565044515,16.24453439206222,66.73312810033968,54.94860589197415,0.0,0.122962400317192,0,0,0
5411,254881.4358231365,2011-02-03 09:39:58,195.99664587818876,4,45,0.4345266819000244,4.199814796447754,16.160718171843694,16.24453439206222,66.77511978649831,54.94860589197415,0.0,0.122962400317192,0,0,0
5412,254993.99639058963,2011-02-03 09:41:51,308.5572133463401,4,45,0.3843173086643219,4.199491024017334,16.173494498162608,16.24453439206222,66.82877718169763,54.94860589197415,-6.47544875391759e-05,0.122962400317192,0,0,0
5413,255136.1658542776,2011-02-03 09:44:13,450.7266770092384,4,45,0.3342885375022888,4.199653148651123,16.187660816342422,16.24453439206222,66.88827231680955,54.94860589197415,-3.23295607813634e-05,0.122962400317192,0,0,0
5414,255313.69407878217,2011-02-03 09:47:11,628.2549015638978,4,45,0.2842597663402557,4.199814796447754,16.202880377695397,16.24453439206222,66.95219080674052,54.94860589197415,0.0,0.122962400317192,0,0,0
5415,255535.9092801629,2011-02-03 09:50:53,850.470103019834,4,45,0.234050378203392,4.199653148651123,16.218836501799686,16.24453439206222,67.01920266952682,54.94860589197415,3.24249267578125e-05,0.122962400317192,0,0,0
5416,255822.73240836663,2011-02-03 09:55:40,1137.2932310982756,4,45,0.1840216070413589,4.199491024017334,16.235439203801533,16.24453439206222,67.08893000778951,54.94860589197415,-3.24249267578125e-05,0.122962400317192,0,0,0
5417,256217.44642110183,2011-02-03 10:02:14,1532.0072438735774,4,45,0.1339928358793258,4.199814796447754,16.25274627060812,16.24453439206222,67.16161538153665,54.94860589197415,-3.24249267578125e-05,0.122962400317192,0,0,0
5418,256829.87133690543,2011-02-03 10:12:27,2144.4321596471204,4,45,0.0837834626436233,4.199653148651123,16.270958762594585,16.24453439206222,67.23810341086023,54.94860589197415,-3.23295607813634e-05,0.122962400317192,0,0,0
5419,257616.6079342288,2011-02-03 10:25:34,2931.168756970449,4,45,0.0498289167881011,4.199653148651123,16.28526046391651,16.24453439206222,67.29816705702486,54.94860589197415,-6.47544875391759e-05,0.122962400317192,0,0,0
5420,257646.62521963991,2011-02-03 10:26:04,30.015258324208027,5,45,0.0,4.188644886016846,16.28526046391651,16.24453439206222,67.29816705702486,54.94860589197415,-6.47544875391759e-05,0.122962400317192,0,0,0
5421,257676.62456151049,2011-02-03 10:26:34,60.01460018469107,5,45,0.0,4.187026023864746,16.28526046391651,16.24453439206222,67.29816705702486,54.94860589197415,-6.47544875391759e-05,0.122962400317192,0,0,0
5422,257676.8151790729,2011-02-03 10:26:34,0.187562097458281,6,45,-1.9243103452026844e-05,4.187026023864746,16.28526046391651,16.244534393064797,67.29816705702486,54.94860589617196,0.0,0.1231847554445266,0,0,0
5423,257681.6432064527,2011-02-03 10:26:39,5.015589487260557,6,45,0.0003419754502829,4.187026023864746,16.28526110162953,16.244534393148644,67.29816972721267,54.94860589652303,-6.47544875391759e-05,0.1231847554445266,0,0,0
5424,257688.64611481343,2011-02-03 10:26:46,6.999880641367716,7,45,-1.0997490882873535,3.986935377120972,16.28526110162953,16.246672406034993,67.29816972721267,54.95715605641118,-0.0025901317130774,0.1231847554445266,0,0,0
5425,257718.6613605763,2011-02-03 10:27:16,37.01512643434405,7,45,-1.099568486213684,3.9131155014038086,16.28526110162953,16.25584004611328,67.29816972721267,54.99336531572872,-0.0019749640487134,0.1231847554445266,0,0,0
5426,257748.67836102244,2011-02-03 10:27:46,67.03212684536847,7,45,-1.099568486213684,3.832820177078247,16.28526110162953,16.265008227474386,67.29816972721267,55.02888553320485,-0.0023311139084398,0.1231847554445266,0,0,0
5427,257778.69147413512,2011-02-03 10:28:16,97.04523996807428,7,45,-1.099568486213684,3.746858835220337,16.28526110162953,16.27417525944928,67.29816972721267,55.0636232437151,-0.0022016048897057,0.1231847554445266,0,0,0
5428,257808.70660791392,2011-02-03 10:28:46,127.0603737569018,7,45,-1.099568486213684,3.674495697021485,16.28526110162953,16.283342910408308,67.29816972721267,55.097628042212776,-0.0017483711708337,0.1231847554445266,0,0,0
5429,257838.7217115376,2011-02-03 10:29:16,157.07547739558592,7,45,-1.099568486213684,3.6194546222686768,16.28526110162953,16.29251057386132,67.29816972721267,55.13105033325631,-0.0012627125252038,0.1231847554445266,0,0,0
5430,257868.73692315532,2011-02-03 10:29:46,187.09068911864955,7,45,-1.099568486213684,3.577364444732666,16.28526110162953,16.301678241298468,67.29816972721267,55.164031272672254,-0.0010036944877356,0.1231847554445266,0,0,0
5431,257898.75190943657,2011-02-03 10:30:16,217.10567526450532,7,45,-1.099568486213684,3.5432064533233643,16.28526110162953,16.310845879486592,67.29816972721267,55.19666492125276,-0.0008094310760498,0.1231847554445266,0,0,0
5432,257928.76723768507,2011-02-03 10:30:46,247.1210035179987,7,45,-1.099568486213684,3.514228820800781,16.28526110162953,16.320013595039914,67.29816972721267,55.2290126396458,-0.0007770538213662,0.1231847554445266,0,0,0
5433,257958.78216728492,2011-02-03 10:31:16,277.1359331078997,7,45,-1.0993878841400146,3.489784240722656,16.28526110162953,16.329181187804817,67.29816972721267,55.26111666149264,-0.0006799221155233,0.1231847554445266,0,0,0
5434,257988.79732814129,2011-02-03 10:31:46,307.1510940093001,7,45,-1.0993878841400146,3.468091487884521,16.28526110162953,16.33834884475184,67.29816972721267,55.29300902288399,-0.0005504131549969,0.1231847554445266,0,0,0
5435,258018.8124952531,2011-02-03 10:32:16,337.166261081079,7,45,-1.099568486213684,3.448665142059326,16.28526110162953,16.34751652731547,67.29816972721267,55.3247124747418,-0.0005180359003134,0.1231847554445266,0,0,0
5436,258048.82745397565,2011-02-03 10:32:46,367.1812198035874,7,45,-1.099568486213684,3.4306960105896,16.28526110162953,16.35668420374646,67.29816972721267,55.35624479248072,-0.000453233718872,0.1231847554445266,0,0,0
5437,258078.84272950777,2011-02-03 10:33:16,397.1964953757827,7,45,-1.0997490882873535,3.414183616638184,16.28526110162953,16.365851893294316,67.29816972721267,55.387619966197605,-0.0004532813909463,0.1231847554445266,0,0,0
5438,258108.85765437587,2011-02-03 10:33:46,427.2114202439156,7,45,-1.0997490882873535,3.3983187675476074,16.28526110162953,16.37501943611374,67.29816972721267,55.41884684135383,-0.0003885269106831,0.1231847554445266,0,0,0
5439,258138.87284458036,2011-02-03 10:34:16,457.2266104132608,7,45,-1.0997490882873535,3.382939577102661,16.28526110162953,16.384187095888496,67.29816972721267,55.44993130384792,-0.0004209041653666,0.1231847554445266,0,0,0
5440,258168.8879772463,2011-02-03 10:34:46,487.2417430792899,7,45,-1.099568486213684,3.3680460453033447,16.28526110162953,16.393354770952033,67.29816972721267,55.48087627437285,-0.0003561496851034,0.1231847554445266,0,0,0
5441,258198.90308117075,2011-02-03 10:35:16,517.2568470036862,7,45,-1.0993878841400146,3.3528287410736084,16.28526110162953,16.40252247034995,67.29816972721267,55.51168327176402,-0.0003885269106831,0.1231847554445266,0,0,0
5442,258228.9181769147,2011-02-03 10:35:46,547.2719427476942,7,45,-1.099568486213684,3.3372879028320312,16.28526110162953,16.41169020531194,67.29816972721267,55.54234998801734,-0.0004209041653666,0.1231847554445266,0,0,0
5443,258258.93327487423,2011-02-03 10:36:16,577.2870407122366,7,45,-1.0997490882873535,3.321099281311035,16.28526110162953,16.420857824623226,67.29816972721267,55.57287117364939,-0.0004532813909463,0.1231847554445266,0,0,0
5444,258288.9483860317,2011-02-03 10:36:46,607.3021518646473,7,45,-1.0993878841400146,3.304263114929199,16.28526110162953,16.43002540206878,67.29816972721267,55.60324091720668,-0.0004532813909463,0.1231847554445266,0,0,0
5445,258318.96611501856,2011-02-03 10:37:16,637.3198808765693,7,45,-1.099568486213684,3.2864556312561035,16.28526110162953,16.439193876951652,67.29816972721267,55.633454432680615,-0.0004532813909463,0.1231847554445266,0,0,0
5446,258348.98058113336,2011-02-03 10:37:46,667.3343470013726,7,45,-1.099568486213684,3.2673532962799072,16.28526110162953,16.44836133440926,67.29816972721267,55.663495827863606,-0.0005180359003134,0.1231847554445266,0,0,0
5447,258378.99380276143,2011-02-03 10:38:16,697.34756859442,7,45,-1.099568486213684,3.247117519378662,16.28526110162953,16.457528423243424,67.29816972721267,55.693355950734535,-0.0005504131549969,0.1231847554445266,0,0,0
5448,258409.00890202424,2011-02-03 10:38:46,727.362667857198,7,45,-1.099568486213684,3.224453449249268,16.28526110162953,16.466696034886173,67.29816972721267,55.7230211030663,-0.0006151676061563,0.1231847554445266,0,0,0
5449,258439.02401482576,2011-02-03 10:39:16,757.3777806837811,7,45,-1.099568486213684,3.1995229721069336,16.28526110162953,16.475863718107462,67.29816972721267,55.75246926687798,-0.0006799221155233,0.1231847554445266,0,0,0
5450,258469.0391164845,2011-02-03 10:39:46,787.3928823174682,7,45,-1.0993878841400146,3.17200255393982,16.28526110162953,16.485031404390895,67.29816972721267,55.78167641121006,-0.0007122993702068,0.1231847554445266,0,0,0
5451,258499.0542273612,2011-02-03 10:40:16,817.4079931941917,7,45,-1.0997490882873535,3.142053604125977,16.28526110162953,16.49419913348167,67.29816972721267,55.81062017824674,-0.0008094310760498,0.1231847554445266,0,0,0
5452,258529.06935120028,2011-02-03 10:40:46,847.4231170332213,7,45,-1.099568486213684,3.108705282211304,16.28526110162953,16.503366892389167,67.29816972721267,55.83927573125124,-0.0009388923645019,0.1231847554445266,0,0,0
5453,258559.0844988186,2011-02-03 10:41:16,877.4382646465036,7,45,-1.0997490882873535,3.070500135421753,16.28526110162953,16.512534658892093,67.29816972721267,55.86760650065289,-0.0010684489971026,0.1231847554445266,0,0,0
5454,258589.09972009543,2011-02-03 10:41:46,907.4534859283908,7,45,-1.0997490882873535,3.025657892227173,16.28526110162953,16.521702461060833,67.29816972721267,55.89555648786967,-0.0013274193042889,0.1231847554445266,0,0,0
5455,258619.11468828152,2011-02-03 10:42:16,937.4684541245103,7,45,-1.0997490882873535,2.972721099853516,16.28526110162953,16.530870188403387,67.29816972721267,55.92306084050489,-0.0015541076427325,0.1231847554445266,0,0,0
5456,258649.1297769128,2011-02-03 10:42:46,967.4835427407536,7,45,-1.099568486213684,2.90845251083374,16.28526110162953,16.540037891040456,67.29816972721267,55.95002964851151,-0.0018778800731524,0.1231847554445266,0,0,0
5457,258679.1450702543,2011-02-03 10:43:16,997.4988361774732,7,45,-1.099568486213684,2.8288047313690186,16.28526110162953,16.549205680890324,67.29816972721267,55.976343009558505,-0.0023635388351976,0.1231847554445266,0,0,0
5458,258709.16004632504,2011-02-03 10:43:46,1027.5138121529812,7,45,-1.0997490882873535,2.729244947433472,16.28526110162953,16.558373441129092,67.29816972721267,56.0018340058843,-0.0028491974808275,0.1231847554445266,0,0,0
5459,258717.2693065868,2011-02-03 10:43:55,1035.623072419723,7,45,-1.099568486213684,2.699943780899048,16.28526110162953,16.56085031542038,67.29816972721267,56.00855832910199,-0.0029462813399732,0.1231847554445266,0,0,0
5460,258777.28897628337,2011-02-03 10:44:55,60.01459107699189,8,45,0.0,3.769198894500733,16.28526110162953,16.56085031542038,67.29816972721267,56.00855832910199,0.0007446765666827,0.1231847554445266,0,0,0
5461,258777.4827239344,2011-02-03 10:44:55,0.187624202242512,9,45,-1.9243103452026844e-05,3.769198894500733,16.28526110162953,16.56085031642329,67.29816972721267,56.00855833288215,0.0,0.1223743334412574,0,0,0
5462,258782.31063096423,2011-02-03 10:45:00,5.015531222045714,9,45,0.0001613661734154,3.773407936096192,16.285261709494094,16.560850316579476,67.29817201993818,56.00855833347109,0.0005827903514727,0.1223743334412574,0,0,0
