Data_Point,Test_Time(s),Date_Time,Step_Time(s),Step_Index,Cycle_Index,Current(A),Voltage(V),Charge_Capacity(Ah),Discharge_Capacity(Ah),Charge_Energy(Wh),Discharge_Energy(Wh),dV/dt(V/s),Internal_Resistance(Ohm),Is_FC_Data,AC_Impedance(Ohm),ACI_Phase_Angle(Deg)
1387,64196.07452235841,2011-02-01 04:41:12,30.01517255544588,1,11,0.0,3.7607808113098153,4.077450028597597,4.437908807931543,16.81140997784793,15.117969965536568,0.0003885269106831,0.1199430525302887,0,0,0
1388,64226.09223030283,2011-02-01 04:41:43,60.03288050487368,1,11,0.0,3.773084163665772,4.077450028597597,4.437908807931543,16.81140997784793,15.117969965536568,0.0002913951757363,0.1199430525302887,0,0,0
1389,64256.10482504356,2011-02-01 04:42:13,90.04547521052469,1,11,0.0,3.782473564147949,4.077450028597597,4.437908807931543,16.81140997784793,15.117969965536568,0.0002266406954731,0.1199430525302887,0,0,0
1390,64286.072919205166,2011-02-01 04:42:42,120.01356937212746,1,11,0.0,3.7900822162628174,4.077450028597597,4.437908807931543,16.81140997784793,15.117969965536568,0.0001942634553415,0.1199430525302887,0,0,0
1391,64316.089258675165,2011-02-01 04:43:13,30.015180044109936,2,11,0.5501165986061096,3.912144184112549,4.082036107136448,4.437908807931543,16.8292699555772,15.117969965536568,0.0007446765666827,0.1199430525302887,0,0,0
1392,64346.10429549733,2011-02-01 04:43:43,60.03021682115426,2,11,0.5501165986061096,3.932379722595215,4.086622117235568,4.437908807931543,16.847260790363503,15.117969965536568,0.0004532813909463,0.1199430525302887,0,0,0
1393,64376.11956224753,2011-02-01 04:44:13,90.04548359642493,2,11,0.5501165986061096,3.9469494819641113,4.091208225765475,4.437908807931543,16.86533029693984,15.117969965536568,0.0003237724304199,0.1199430525302887,0,0,0
1394,64406.13455175176,2011-02-01 04:44:43,120.0604731307258,2,11,0.5501165986061096,3.9590909481048575,4.09579420081734,4.437908807931543,16.883459385664466,15.117969965536568,0.0003237724304199,0.1199430525302887,0,0,0
1395,64436.149672036925,2011-02-01 04:45:13,150.07559342592305,2,11,0.5499359965324402,3.969451665878296,4.100380191547293,4.437908807931543,16.901640021018355,15.117969965536568,0.0002590179501567,0.1199430525302887,0,0,0
1396,64466.16471791165,2011-02-01 04:45:43,180.09063927056664,2,11,0.5501165986061096,3.979002952575684,4.104966256648712,4.437908807931543,16.91986712874013,15.117969965536568,0.0002590179501567,0.1199430525302887,0,0,0
1397,64496.17998752399,2011-02-01 04:46:13,210.1059088478207,2,11,0.5499359965324402,3.9880685806274414,4.109552198059062,4.437908807931543,16.938136504756866,15.117969965536568,0.0002266406954731,0.1199430525302887,0,0,0
1398,64526.19496670248,2011-02-01 04:46:43,240.12088803132423,2,11,0.5497553944587708,3.9963245391845694,4.114138014200243,4.437908807931543,16.956444655133183,15.117969965536568,0.0001942634553415,0.1199430525302887,0,0,0
1399,64556.210065423904,2011-02-01 04:47:13,270.13598674774056,2,11,0.5499359965324402,4.003933429718018,4.118723952314491,4.437908807931543,16.974789719624237,15.117969965536568,0.0001619339018361,0.1199430525302887,0,0,0
1400,64586.22520796454,2011-02-01 04:47:43,300.1511292883803,2,11,0.5499359965324402,4.011218070983887,4.123309907516344,4.437908807931543,16.99316902635714,15.117969965536568,0.0001942634553415,0.1199430525302887,0,0,0
1401,64616.24042523143,2011-02-01 04:48:13,330.1663465602733,2,11,0.5499359965324402,4.018017292022705,4.127895928042685,4.437908807931543,17.01158064246388,15.117969965536568,0.0001942634553415,0.1199430525302887,0,0,0
1402,64646.2574915868,2011-02-01 04:48:43,360.1834129457262,2,11,0.5501165986061096,4.024492740631104,4.132482185145113,4.437908807931543,17.030023389997396,15.117969965536568,0.0001618385285837,0.1199430525302887,0,0,0
1403,64676.27053526142,2011-02-01 04:49:13,390.1964566153336,2,11,0.5499359965324402,4.030482769012451,4.137067825873305,4.437908807931543,17.048492291655208,15.117969965536568,0.0001619339018361,0.1199430525302887,0,0,0
1404,64706.28567138607,2011-02-01 04:49:43,420.21159273998273,2,11,0.5501165986061096,4.036310195922852,4.141653742632127,4.437908807931543,17.066989421764642,15.117969965536568,0.0001295089750783,0.1199430525302887,0,0,0
1405,64736.30075839331,2011-02-01 04:50:13,450.2266797221537,2,11,0.5497553944587708,4.04181432723999,4.146239734058529,4.437908807931543,17.08551286406592,15.117969965536568,0.0001295089750783,0.1199430525302887,0,0,0
1406,64766.3158899215,2011-02-01 04:50:43,480.2418112453346,2,11,0.5499359965324402,4.047156810760498,4.150825676241361,4.437908807931543,17.10406105431533,15.117969965536568,0.0001295089750783,0.1199430525302887,0,0,0
1407,64796.3309861417,2011-02-01 04:51:13,510.2569074956044,2,11,0.5499359965324402,4.052337169647217,4.155411584985139,4.437908807931543,17.12263309850246,15.117969965536568,0.0001295089750783,0.1199430525302887,0,0,0
1408,64826.3461040359,2011-02-01 04:51:43,540.2720253647552,2,11,0.5501165986061096,4.0573554039001465,4.159997576841435,4.437908807931543,17.141228582942297,15.117969965536568,0.0001295089750783,0.1199430525302887,0,0,0
1409,64856.36121886749,2011-02-01 04:52:13,570.287140191323,2,11,0.5499359965324402,4.062050342559815,4.164583621513076,4.437908807931543,17.159846520068076,15.117969965536568,0.0001619339018361,0.1199430525302887,0,0,0
1410,64886.37655911588,2011-02-01 04:52:43,600.3024804647737,2,11,0.5501165986061096,4.066744804382324,4.169169582526476,4.437908807931543,17.178485669801756,15.117969965536568,0.0001295089750783,0.1199430525302887,0,0,0
1411,64916.39146806934,2011-02-01 04:53:13,630.3173894232549,2,11,0.5499359965324402,4.071277618408203,4.173755438789253,4.437908807931543,17.197145559858942,15.117969965536568,0.0001618385285837,0.1199430525302887,0,0,0
1412,64946.40656703138,2011-02-01 04:53:43,660.332488360221,2,11,0.5501165986061096,4.075810432434082,4.178341296215614,4.437908807931543,17.215826139994792,15.117969965536568,0.0001295089750783,0.1199430525302887,0,0,0
1413,64976.42167663492,2011-02-01 04:54:13,690.3475979637712,2,11,0.5501165986061096,4.08018159866333,4.18292719466173,4.437908807931543,17.234527185629616,15.117969965536568,0.0001295089750783,0.1199430525302887,0,0,0
1414,65006.43681087488,2011-02-01 04:54:43,720.3627322137481,2,11,0.550297200679779,4.08455228805542,4.187513134333208,4.437908807931543,17.25324828211916,15.117969965536568,0.0001295089750783,0.1199430525302887,0,0,0
1415,65036.45197839778,2011-02-01 04:55:13,750.3778997266262,2,11,0.5499359965324402,4.088761329650879,4.192099027964715,4.437908807931543,17.271988772805972,15.117969965536568,0.0001295089750783,0.1199430525302887,0,0,0
1416,65066.46714627657,2011-02-01 04:55:43,780.3930676555415,2,11,0.5501165986061096,4.092970371246338,4.196684913241557,4.437908807931543,17.290748552032195,15.117969965536568,0.0001295089750783,0.1199430525302887,0,0,0
1417,65096.4822610881,2011-02-01 04:56:13,810.4081824420093,2,11,0.5501165986061096,4.097017765045166,4.201270862968869,4.437908807931543,17.309527718271298,15.117969965536568,0.0001295089750783,0.1199430525302887,0,0,0
1418,65126.49754718653,2011-02-01 04:56:43,840.4234686306642,2,11,0.5501165986061096,4.101064682006836,4.205856831594288,4.437908807931543,17.32832590555889,15.117969965536568,9.70840483205393e-05,0.1199430525302887,0,0,0
1419,65156.51237747393,2011-02-01 04:57:13,870.438298797773,2,11,0.5499359965324402,4.105273723602295,4.210442755450913,4.437908807931543,17.347142803704315,15.117969965536568,9.70840483205393e-05,0.1199430525302887,0,0,0
1420,65186.52761198881,2011-02-01 04:57:43,900.4535334028656,2,11,0.5499359965324402,4.109321117401123,4.21502872360533,4.437908807931543,17.36597868549774,15.117969965536568,9.71794142969884e-05,0.1199430525302887,0,0,0
1421,65216.54259254072,2011-02-01 04:58:13,930.468513879592,2,11,0.5499359965324402,4.113206386566162,4.219614667088853,4.437908807931543,17.384833159342325,15.117969965536568,6.47544875391759e-05,0.1199430525302887,0,0,0
1422,65246.56039884528,2011-02-01 04:58:43,960.4863202142262,2,11,0.5499359965324402,4.117414951324463,4.224201042160311,4.437908807931543,17.40370801630008,15.117969965536568,9.70840483205393e-05,0.1199430525302887,0,0,0
1423,65276.57288109566,2011-02-01 04:59:13,990.4988024495668,2,11,0.5497553944587708,4.121300220489502,4.22878665864663,4.437908807931543,17.42259822308004,15.117969965536568,9.70840483205393e-05,0.1199430525302887,0,0,0
1424,65306.5880111602,2011-02-01 04:59:43,1020.5139324840372,2,11,0.5499359965324402,4.125509262084961,4.23337262368525,4.437908807931543,17.44150842342104,15.117969965536568,6.47544875391759e-05,0.1199430525302887,0,0,0
1425,65336.60309724013,2011-02-01 05:00:13,1050.5290185639594,2,11,0.5501165986061096,4.129556655883789,4.237958587430257,4.437908807931543,17.460437140141654,15.117969965536568,9.71794142969884e-05,0.1199430525302887,0,0,0
1426,65366.61829204603,2011-02-01 05:00:43,1080.5442133798854,2,11,0.5499359965324402,4.133603572845459,4.24254463468744,4.437908807931543,17.47938477490536,15.117969965536568,9.70840483205393e-05,0.1199430525302887,0,0,0
1427,65396.633302863374,2011-02-01 05:01:13,1110.5592242022424,2,11,0.5501165986061096,4.137488842010498,4.247130598365305,4.437908807931543,17.498350490775035,15.117969965536568,6.47544875391759e-05,0.1199430525302887,0,0,0
1428,65426.64854568895,2011-02-01 05:01:43,1140.5744670328356,2,11,0.5501165986061096,4.141697883605957,4.251716578575444,4.437908807931543,17.517334877727933,15.117969965536568,0.0001295089750783,0.1199430525302887,0,0,0
1429,65456.663648355214,2011-02-01 05:02:13,1170.5895696740338,2,11,0.5499359965324402,4.145745277404785,4.256302620369042,4.437908807931543,17.536338225073642,15.117969965536568,0.0001295089750783,0.1199430525302887,0,0,0
1430,65486.678655242766,2011-02-01 05:02:43,1200.604576601684,2,11,0.5501165986061096,4.149954319000244,4.260888541908349,4.437908807931543,17.55535995302426,15.117969965536568,0.0001295089750783,0.1199430525302887,0,0,0
1431,65516.693763117,2011-02-01 05:03:13,1230.619684440837,2,11,0.5501165986061096,4.153839588165283,4.265474504812056,4.437908807931543,17.57440060862825,15.117969965536568,6.47544875391759e-05,0.1199430525302887,0,0,0
1432,65546.70888134705,2011-02-01 05:03:43,1260.6348026708874,2,11,0.5501165986061096,4.158372402191162,4.270060366803254,4.437908807931543,17.593459591101215,15.117969965536568,0.0001619339018361,0.1199430525302887,0,0,0
1433,65576.72401010334,2011-02-01 05:04:13,1290.6499314271723,2,11,0.5499359965324402,4.162095546722412,4.274646299794967,4.437908807931543,17.61253772730527,15.117969965536568,9.70840483205393e-05,0.1199430525302887,0,0,0
1434,65606.73910937614,2011-02-01 05:04:43,1320.6650307049877,2,11,0.5501165986061096,4.166304588317871,4.279232198894667,4.437908807931543,17.631634684588676,15.117969965536568,9.70840483205393e-05,0.1199430525302887,0,0,0
1435,65636.7542166188,2011-02-01 05:05:13,1350.680137967704,2,11,0.5499359965324402,4.17051362991333,4.283818052981302,4.437908807931543,17.650750425040194,15.117969965536568,9.70840483205393e-05,0.1199430525302887,0,0,0
1436,65666.76933006193,2011-02-01 05:05:43,1380.6952514058114,2,11,0.5501165986061096,4.174561023712158,4.288403624799297,4.437908807931543,17.66988409219369,15.117969965536568,0.0001295089750783,0.1199430525302887,0,0,0
1437,65696.78438664835,2011-02-01 05:06:13,1410.7103079771894,2,11,0.5499359965324402,4.178770065307617,4.292989398919343,4.437908807931543,17.689037635001135,15.117969965536568,9.71794142969884e-05,0.1199430525302887,0,0,0
1438,65726.79969957864,2011-02-01 05:06:43,1440.72562096263,2,11,0.5501165986061096,4.182979106903076,4.297575812329223,4.437908807931543,17.708213131243287,15.117969965536568,9.71794142969884e-05,0.1199430525302887,0,0,0
1439,65756.81488163277,2011-02-01 05:07:13,1470.7408029916871,2,11,0.5501165986061096,4.187349796295166,4.302162420969733,4.437908807931543,17.727408708468545,15.117969965536568,0.0001618385285837,0.1199430525302887,0,0,0
1440,65786.82991406397,2011-02-01 05:07:43,1500.7558353928252,2,11,0.5499359965324402,4.191397190093994,4.30674914327154,4.437908807931543,17.746624303200928,15.117969965536568,6.47544875391759e-05,0.1199430525302887,0,0,0
1441,65816.84490253062,2011-02-01 05:08:13,1530.7708238594653,2,11,0.5501165986061096,4.195767879486084,4.311335933289969,4.437908807931543,17.765859660455245,15.117969965536568,0.0001295089750783,0.1199430525302887,0,0,0
1442,65846.17255155588,2011-02-01 05:08:43,1560.0984729047782,2,11,0.550297200679779,4.200138568878174,4.315817673372912,4.437908807931543,17.784673313340136,15.117969965536568,0.0001618385285837,0.1199430525302887,0,0,0
1443,65876.19195014687,2011-02-01 05:09:13,30.015169402587983,3,11,0.0,4.089247226715088,4.315817673372912,4.437908807931543,17.784673313340136,15.117969965536568,-0.0004856109735555,0.1199430525302887,0,0,0
1444,65906.20702465293,2011-02-01 05:09:43,60.03024387357722,3,11,0.0,4.076781749725342,4.315817673372912,4.437908807931543,17.784673313340136,15.117969965536568,-0.0002590179501567,0.1199430525302887,0,0,0
1445,65936.22213029662,2011-02-01 05:10:13,90.04534950222093,3,11,0.0,4.068525791168213,4.315817673372912,4.437908807931543,17.784673313340136,15.117969965536568,-0.0001295089750783,0.1199430525302887,0,0,0
1446,65966.19051211515,2011-02-01 05:10:43,120.01373132075324,3,11,0.0,4.062859535217285,4.315817673372912,4.437908807931543,17.784673313340136,15.117969965536568,-0.0001295089750783,0.1199430525302887,0,0,0
1447,65966.20445856848,2011-02-01 05:10:43,0.015613854529751,4,11,0.9642536640167236,4.199814796447754,4.315821855516303,4.437908807931543,17.784690877567826,15.117969965536568,0.0,0.1199430525302887,0,0,0
1448,65966.95445002294,2011-02-01 05:10:44,0.765605314013387,4,11,0.913863718509674,4.199814796447754,4.316015686201691,4.437908807931543,17.785504926137463,15.117969965536568,0.0,0.1199430525302887,0,0,0
1449,65969.23566952886,2011-02-01 05:10:46,3.046824814923347,4,11,0.8638349175453186,4.199814796447754,4.316577527302202,4.437908807931543,17.787864524637023,15.117969965536568,0.0,0.1199430525302887,0,0,0
1450,65972.87609199177,2011-02-01 05:10:50,6.687247282843395,4,11,0.8136255741119385,4.199653148651123,4.31742423246733,4.437908807931543,17.791420496817175,15.117969965536568,-3.23295607813634e-05,0.1199430525302887,0,0,0
1451,65978.06350230941,2011-02-01 05:10:55,11.8746576004812,4,11,0.7634161710739136,4.199653148651123,4.318558733220023,4.437908807931543,17.796185154272468,15.117969965536568,-3.23295607813634e-05,0.1199430525302887,0,0,0
1452,65985.110406122,2011-02-01 05:11:02,18.9215614431352,4,11,0.7132067680358887,4.199814796447754,4.320001685730727,4.437908807931543,17.802245263838458,15.117969965536568,0.0,0.1199430525302887,0,0,0
1453,65994.64135542024,2011-02-01 05:11:11,28.452510701286283,4,11,0.663178026676178,4.199653148651123,4.321820593494887,4.437908807931543,17.809884303335203,15.117969965536568,0.0,0.1199430525302887,0,0,0
1454,66008.23488080813,2011-02-01 05:11:25,42.046036094188594,4,11,0.6131492257118225,4.199814796447754,4.324224531145912,4.437908807931543,17.819980378989484,15.117969965536568,0.0,0.1199430525302887,0,0,0
1455,66029.0782734309,2011-02-01 05:11:46,62.88942871194361,4,11,0.5629398822784424,4.199653148651123,4.327618069914519,4.437908807931543,17.83423258800848,15.117969965536568,0.0,0.1199430525302887,0,0,0
1456,66065.67140292903,2011-02-01 05:12:23,99.48255821508992,4,11,0.5129110813140869,4.199814796447754,4.333061554423978,4.437908807931543,17.857094136751243,15.117969965536568,3.23295607813634e-05,0.1199430525302887,0,0,0
1457,66133.84226374984,2011-02-01 05:13:31,167.6534190459299,4,11,0.4628823399543762,4.199814796447754,4.342257209041732,4.437908807931543,17.89571402692528,15.117969965536568,0.0,0.1199430525302887,0,0,0
1458,66242.69963901358,2011-02-01 05:15:20,276.51079429963914,4,11,0.4128535687923431,4.199814796447754,4.355463640567995,4.437908807931543,17.951178395609436,15.117969965536568,3.23295607813634e-05,0.1199430525302887,0,0,0
1459,66383.54109941874,2011-02-01 05:17:40,417.3522547348777,4,11,0.36282479763031,4.199653148651123,4.370613678833906,4.437908807931543,18.014805008656776,15.117969965536568,-3.23295607813634e-05,0.1199430525302887,0,0,0
1460,66558.31925893015,2011-02-01 05:20:35,592.1304142262253,4,11,0.312796026468277,4.199653148651123,4.38699407601269,4.437908807931543,18.08359906682574,15.117969965536568,0.0,0.1199430525302887,0,0,0
1461,66774.55021400278,2011-02-01 05:24:11,808.361369298868,4,11,0.2627672553062439,4.199814796447754,4.404243502879997,4.437908807931543,18.156042979212,15.117969965536568,0.0,0.1199430525302887,0,0,0
1462,67043.82663397063,2011-02-01 05:28:41,1077.6377892616986,4,11,0.2127384841442108,4.199653148651123,4.421975121373612,4.437908807931543,18.23051244937957,15.117969965536568,-6.47544875391759e-05,0.1199430525302887,0,0,0
1463,67394.32067912047,2011-02-01 05:34:31,1428.1318344015085,4,11,0.1627097129821777,4.199814796447754,4.440174187967293,4.437908807931543,18.306945154488627,15.117969965536568,3.23295607813634e-05,0.1199430525302887,0,0,0
1464,67888.34355977109,2011-02-01 05:42:45,1922.1547150771923,4,11,0.1126809492707252,4.199653148651123,4.458897314100525,4.437908807931543,18.385578855578608,15.117969965536568,-3.23295607813634e-05,0.1199430525302887,0,0,0
1465,68731.0167759248,2011-02-01 05:56:48,2764.827931210864,4,11,0.0626521781086921,4.199653148651123,4.478816327962943,4.437908807931543,18.46923496311519,15.117969965536568,-3.23295607813634e-05,0.1199430525302887,0,0,0
1466,69093.0263613693,2011-02-01 06:02:50,3126.8375166553565,4,11,0.0498289167881011,4.199814796447754,4.484467062602767,4.437908807931543,18.49296683684485,15.117969965536568,3.23295607813634e-05,0.1199430525302887,0,0,0
1467,69123.03849682865,2011-02-01 06:03:20,30.015365416114008,5,11,0.0,4.189130783081055,4.484467062602767,4.437908807931543,18.49296683684485,15.117969965536568,-6.47544875391759e-05,0.1199430525302887,0,0,0
1468,69153.03807246678,2011-02-01 06:03:50,60.01494114948024,5,11,0.0,4.187349796295166,4.484467062602767,4.437908807931543,18.49296683684485,15.117969965536568,-3.24249267578125e-05,0.1199430525302887,0,0,0
1469,69153.22312570958,2011-02-01 06:03:50,0.187616608316111,6,11,-1.9243103452026844e-05,4.187349796295166,4.484467062602767,4.437908808934411,18.49296683684485,15.117969969735926,0.0,0.1207534819841384,0,0,0
1470,69158.05103700503,2011-02-01 06:03:55,5.015527893750578,6,11,0.0007031940040178,4.187188148498535,4.48446772395164,4.437908809017384,18.49296960623509,15.117969970083362,-3.23295607813634e-05,0.1207534819841384,0,0,0
1471,69166.33012827288,2011-02-01 06:04:04,8.281105558083224,7,11,-1.0997490882873535,3.9870972633361816,4.48446772395164,4.440438211203101,18.49296960623509,15.128088069761658,-0.0022987364791333,0.1207534819841384,0,0,0
1472,69196.34522614218,2011-02-01 06:04:34,38.296203442425735,7,11,-1.0993878841400146,3.920562028884888,4.48446772395164,4.449605992200188,18.49296960623509,15.164331662695378,-0.0017483711708337,0.1207534819841384,0,0,0
1473,69226.36034180585,2011-02-01 06:05:04,68.31131911109226,7,11,-1.0993878841400146,3.853703260421753,4.48446772395164,4.458773740552218,18.49296960623509,15.199972121032152,-0.0018455028766766,0.1207534819841384,0,0,0
1474,69256.3756056137,2011-02-01 06:05:34,98.32658291395478,7,11,-1.099568486213684,3.7865207195281982,4.48446772395164,4.467941483573186,18.49296960623509,15.234989631180907,-0.0017159938579425,0.1207534819841384,0,0,0
1475,69286.39058336364,2011-02-01 06:06:04,128.34156063381042,7,11,-1.0993878841400146,3.729051351547241,4.48446772395164,4.477108865649424,18.49296960623509,15.26942826108414,-0.0013922214275225,0.1207534819841384,0,0,0
1476,69316.40569743834,2011-02-01 06:06:34,158.35667471351675,7,11,-1.0993878841400146,3.683723211288452,4.48446772395164,4.486275907365988,18.49296960623509,15.303396231009204,-0.0010360718006268,0.1207534819841384,0,0,0
1477,69346.42080325745,2011-02-01 06:07:04,188.3717805276227,7,11,-1.0993878841400146,3.64794659614563,4.48446772395164,4.495442913144248,18.49296960623509,15.336994841696736,-0.0008418083307333,0.1207534819841384,0,0,0
1478,69376.43592980824,2011-02-01 06:07:34,218.38690708342327,7,11,-1.0993878841400146,3.618321418762207,4.48446772395164,4.504609877252955,18.49296960623509,15.370295279867296,-0.0007770538213662,0.1207534819841384,0,0,0
1479,69406.45106604317,2011-02-01 06:08:04,248.4020433484222,7,11,-1.099568486213684,3.592905282974243,4.48446772395164,4.513776816466881,18.49296960623509,15.403345211135232,-0.0006151676061563,0.1207534819841384,0,0,0
1480,69436.46614816322,2011-02-01 06:08:34,278.4171254384003,7,11,-1.099568486213684,3.5704033374786377,4.48446772395164,4.522943858284977,18.49296960623509,15.436176758984251,-0.0006151676061563,0.1207534819841384,0,0,0
1481,69466.48127530047,2011-02-01 06:09:04,308.43225259570005,7,11,-1.099568486213684,3.5500056743621826,4.48446772395164,4.532110849682261,18.49296960623509,15.468812100057796,-0.0005504131549969,0.1207534819841384,0,0,0
1482,69496.49637413719,2011-02-01 06:09:34,338.4473514173787,7,11,-1.099568486213684,3.531550645828247,4.48446772395164,4.54127782839559,18.49296960623509,15.501268977191982,-0.0004532813909463,0.1207534819841384,0,0,0
1483,69526.51370960327,2011-02-01 06:10:04,368.4646869135384,7,11,-1.099568486213684,3.514390707015991,4.48446772395164,4.550445579342177,18.49296960623509,15.533565548178068,-0.0004209041653666,0.1207534819841384,0,0,0
1484,69556.52670109282,2011-02-01 06:10:34,398.477678393072,7,11,-1.0993878841400146,3.498526096343994,4.48446772395164,4.559612016057791,18.49296960623509,15.565705583301597,-0.0003561496851034,0.1207534819841384,0,0,0
1485,69586.54172600531,2011-02-01 06:11:04,428.4927032804837,7,11,-1.0993878841400146,3.483470678329468,4.48446772395164,4.568779075995129,18.49296960623509,15.597706096143082,-0.0003561496851034,0.1207534819841384,0,0,0
1486,69616.556971287,2011-02-01 06:11:34,458.5079485571733,7,11,-1.0997490882873535,3.469386577606201,4.48446772395164,4.577946077271742,18.49296960623509,15.629573043244523,-0.0003237724304199,0.1207534819841384,0,0,0
1487,69646.57197454051,2011-02-01 06:12:04,488.5229518156791,7,11,-1.099568486213684,3.4559500217437744,4.48446772395164,4.5871130288986,18.49296960623509,15.661314624657408,-0.0003885269106831,0.1207534819841384,0,0,0
1488,69676.58709473544,2011-02-01 06:12:34,518.5380720106265,7,11,-1.099568486213684,3.4431610107421875,4.48446772395164,4.596280125301101,18.49296960623509,15.69293787739749,-0.0003885269106831,0.1207534819841384,0,0,0
1489,69706.60218782283,2011-02-01 06:13:04,548.5531650980134,7,11,-1.0993878841400146,3.431181669235229,4.48446772395164,4.605447176307306,18.49296960623509,15.72444715555384,-0.0003237247583456,0.1207534819841384,0,0,0
1490,69736.61729960682,2011-02-01 06:13:34,578.5682768819981,7,11,-1.099568486213684,3.4193639755249023,4.48446772395164,4.614614279762352,18.49296960623509,15.755847439350465,-0.0002913951757363,0.1207534819841384,0,0,0
1491,69766.63250288884,2011-02-01 06:14:04,608.5834802793115,7,11,-1.099568486213684,3.407870054244995,4.48446772395164,4.623781396170995,18.49296960623509,15.787141077340264,-0.0003237724304199,0.1207534819841384,0,0,0
1492,69796.6475474954,2011-02-01 06:14:34,638.5985247705821,7,11,-1.0993878841400146,3.396538019180298,4.48446772395164,4.632948458898645,18.49296960623509,15.81832926270426,-0.0003237724304199,0.1207534819841384,0,0,0
1493,69826.6626471692,2011-02-01 06:15:04,668.6136244443845,7,11,-1.0997490882873535,3.3847203254699707,4.48446772395164,4.642115458932008,18.49296960623509,15.849411679387211,-0.0003561496851034,0.1207534819841384,0,0,0
1494,69856.6778970674,2011-02-01 06:15:34,698.6288743476048,7,11,-1.099568486213684,3.3732264041900635,4.48446772395164,4.651282610790386,18.49296960623509,15.880387914229456,-0.0003237724304199,0.1207534819841384,0,0,0
1495,69886.69309451991,2011-02-01 06:16:04,728.6440718502267,7,11,-1.099568486213684,3.3610849380493164,4.48446772395164,4.660449671759519,18.49296960623509,15.91125624687435,-0.0003561496851034,0.1207534819841384,0,0,0
1496,69916.70802036047,2011-02-01 06:16:34,758.658997635646,7,11,-1.099568486213684,3.3482961654663086,4.48446772395164,4.66961592029082,18.49296960623509,15.942007079619891,-0.0003561496851034,0.1207534819841384,0,0,0
1497,69946.7231053627,2011-02-01 06:17:04,788.6740826378821,7,11,-1.0992072820663452,3.335345268249512,4.48446772395164,4.678782332900521,18.49296960623509,15.97264059718211,-0.0003561496851034,0.1207534819841384,0,0,0
1498,69976.7382143447,2011-02-01 06:17:34,818.6891916248959,7,11,-1.099568486213684,3.321746826171875,4.48446772395164,4.687948688071671,18.49296960623509,16.003151807821787,-0.0003561496851034,0.1207534819841384,0,0,0
1499,70006.75329155751,2011-02-01 06:18:04,848.7042688577686,7,11,-1.0993878841400146,3.3068532943725586,4.48446772395164,4.697114995863978,18.49296960623509,16.033532248734904,-0.0004209041653666,0.1207534819841384,0,0,0
1500,70036.76843005809,2011-02-01 06:18:34,878.7194073332768,7,11,-1.0993878841400146,3.2911503314971924,4.48446772395164,4.706281949261355,18.49296960623509,16.063774812722105,-0.0004532813909463,0.1207534819841384,0,0,0
1501,70066.78368145504,2011-02-01 06:19:04,908.7346587602948,7,11,-1.0993878841400146,3.2743141651153564,4.48446772395164,4.715448927517481,18.49296960623509,16.09386795063913,-0.0004209041653666,0.1207534819841384,0,0,0
1502,70096.79887391008,2011-02-01 06:19:34,938.7498512002992,7,11,-1.0993878841400146,3.25634503364563,4.48446772395164,4.724616013238519,18.49296960623509,16.123802310278723,-0.0004856586456298,0.1207534819841384,0,0,0
1503,70126.81617282006,2011-02-01 06:20:04,968.7671501503748,7,11,-1.099568486213684,3.2362711429595947,4.48446772395164,4.733783771473505,18.49296960623509,16.153565283864676,-0.0005180359003134,0.1207534819841384,0,0,0
1504,70156.82906680662,2011-02-01 06:20:34,998.7800440918136,7,11,-1.0993878841400146,3.21474027633667,4.48446772395164,4.742950125411872,18.49296960623509,16.183131961957635,-0.0005504131549969,0.1207534819841384,0,0,0
1505,70186.84404270694,2011-02-01 06:21:04,1028.7950199921345,7,11,-1.0993878841400146,3.191104888916016,4.48446772395164,4.752117219704614,18.49296960623509,16.212494279991578,-0.0006151676061563,0.1207534819841384,0,0,0
1506,70216.85916227031,2011-02-01 06:21:34,1058.8101395705448,7,11,-1.099568486213684,3.165041446685791,4.48446772395164,4.761284316887316,18.49296960623509,16.241629280692568,-0.0007122993702068,0.1207534819841384,0,0,0
1507,70246.87699556212,2011-02-01 06:22:04,1088.8279728924397,7,11,-1.099568486213684,3.135740041732788,4.48446772395164,4.770452281613756,18.49296960623509,16.27051533535614,-0.0008418083307333,0.1207534819841384,0,0,0
1508,70276.88939434449,2011-02-01 06:22:34,1118.840371619652,7,11,-1.0993878841400146,3.1022298336029053,4.48446772395164,4.779618570176195,18.49296960623509,16.299108070313586,-0.0009713172912597,0.1207534819841384,0,0,0
1509,70306.90453754175,2011-02-01 06:23:04,1148.8555148219407,7,11,-1.0993878841400146,3.0645103454589844,4.48446772395164,4.788785773637446,18.49296960623509,16.327377787692832,-0.0010360718006268,0.1207534819841384,0,0,0
1510,70336.91961972698,2011-02-01 06:23:34,1178.8705970071564,7,11,-1.099568486213684,3.020639419555664,4.48446772395164,4.797952945062418,18.49296960623509,16.355275410816173,-0.0012950897216796,0.1207534819841384,0,0,0
1511,70366.93475875385,2011-02-01 06:24:04,1208.885736049076,7,11,-1.099568486213684,2.967864513397217,4.48446772395164,4.807120138565464,18.49296960623509,16.382732106674133,-0.0015864849556237,0.1207534819841384,0,0,0
1512,70396.94985381616,2011-02-01 06:24:34,1238.9008310913352,7,11,-1.099568486213684,2.9023008346557617,4.48446772395164,4.816287269589489,18.49296960623509,16.409649045224484,-0.0019102573860436,0.1207534819841384,0,0,0
1513,70426.96498137947,2011-02-01 06:25:04,1268.9159586546473,7,11,-1.099568486213684,2.818929672241211,4.48446772395164,4.82545438795978,18.49296960623509,16.435889776114657,-0.0024930476211011,0.1207534819841384,0,0,0
1514,70456.98007903824,2011-02-01 06:25:34,1298.9310563435024,7,11,-1.099568486213684,2.7185604572296143,4.48446772395164,4.834621570447005,18.49296960623509,16.46128233788707,-0.0027520656585693,0.1207534819841384,0,0,0
1515,70462.22999812699,2011-02-01 06:25:39,1304.180975402156,7,11,-1.0997490882873535,2.699943780899048,4.48446772395164,4.836225005381516,18.49296960623509,16.465626399697193,-0.0028167725540697,0.1207534819841384,0,0,0
1516,70522.24144524118,2011-02-01 06:26:40,60.01474950183535,8,11,0.0,3.742002248764038,4.48446772395164,4.836225005381516,18.49296960623509,16.465626399697193,0.0007770538213662,0.1207534819841384,0,0,0
1517,70522.42658468286,2011-02-01 06:26:40,0.187564929516641,9,11,-1.9243103452026844e-05,3.742002248764038,4.48446772395164,4.836225006384108,18.49296960623509,16.465626403448894,0.0,0.1213444769382476,0,0,0
1518,70527.25455003305,2011-02-01 06:26:45,5.015530249622135,9,11,0.0008838032954372,3.746373176574707,4.484468632580138,4.836225006384108,18.492973008545476,16.465626403448894,0.0006151676061563,0.1213444769382476,0,0,0
