Data_Point,Test_Time(s),Date_Time,Step_Time(s),Step_Index,Cycle_Index,Current(A),Voltage(V),Charge_Capacity(Ah),Discharge_Capacity(Ah),Charge_Energy(Wh),Discharge_Energy(Wh),dV/dt(V/s),Internal_Resistance(Ohm),Is_FC_Data,AC_Impedance(Ohm),ACI_Phase_Angle(Deg)
5463,258812.3475743069,2011-02-03 10:45:30,30.01512181398254,1,46,0.0,3.792186737060547,16.285261709494094,16.560850316579476,67.29817201993818,56.00855833347109,0.0004209041653666,0.1223743334412574,0,0,0
5464,258842.36267382032,2011-02-03 10:46:00,60.030221317360194,1,46,0.0,3.8056232929229736,16.285261709494094,16.560850316579476,67.29817201993818,56.00855833347109,0.0003561496851034,0.1223743334412574,0,0,0
5465,258872.37792305183,2011-02-03 10:46:30,90.045470553919,1,46,0.0,3.815822124481201,16.285261709494094,16.560850316579476,67.29817201993818,56.00855833347109,0.0002266406954731,0.1223743334412574,0,0,0
5466,258902.34603574968,2011-02-03 10:47:00,120.01358325171968,1,46,0.0,3.824402093887329,16.285261709494094,16.560850316579476,67.29817201993818,56.00855833347109,0.0002266406954731,0.1223743334412574,0,0,0
5467,258932.353761278,2011-02-03 10:47:30,30.015099558515068,2,46,0.5501165986061096,3.949215888977051,16.289847043369505,16.560850316579476,67.31619521923241,56.00855833347109,0.0007446765666827,0.1223743334412574,0,0,0
5468,258962.36886841545,2011-02-03 10:48:00,60.030206665844105,2,46,0.5499359965324402,3.9715561866760254,16.29443235505817,16.560850316579476,67.33435868528468,56.00855833347109,0.0004856586456298,0.1223743334412574,0,0,0
5469,258992.38399652008,2011-02-03 10:48:30,90.04533478554242,2,46,0.5497553944587708,3.9885542392730713,16.2990177325483,16.560850316579476,67.35261061374018,56.00855833347109,0.0003885269106831,0.1223743334412574,0,0,0
5470,259022.3991024795,2011-02-03 10:49:00,120.06044072997317,2,46,0.5501165986061096,4.002962112426758,16.30360293475175,16.560850316579476,67.37093256833334,56.00855833347109,0.0003561973571777,0.1223743334412574,0,0,0
5471,259052.41433383652,2011-02-03 10:49:30,150.07567210200807,2,46,0.5499359965324402,4.015750885009766,16.3081881587448,16.560850316579476,67.3893164359428,56.00855833347109,0.0003561019839253,0.1223743334412574,0,0,0
5472,259082.4293244285,2011-02-03 10:50:00,180.09066267890742,2,46,0.5499359965324402,4.027245044708252,16.31277338263,16.560850316579476,67.40775603895801,56.00855833347109,0.0002914428769145,0.1223743334412574,0,0,0
5473,259112.44445505945,2011-02-03 10:50:30,210.10579331487708,2,46,0.5499359965324402,4.037605285644531,16.317358635618305,16.560850316579476,67.42624641518572,56.00855833347109,0.0002265930233988,0.1223743334412574,0,0,0
5474,259142.4595510942,2011-02-03 10:51:00,240.1208893445973,2,46,0.5501165986061096,4.047642230987549,16.32194382232586,16.560850316579476,67.44478265783751,56.00855833347109,0.0003237724304199,0.1223743334412574,0,0,0
5475,259172.47480318285,2011-02-03 10:51:30,270.1361414483019,2,46,0.5501165986061096,4.056384086608887,16.326529097153973,16.560850316579476,67.46336160773298,56.00855833347109,0.0002913475036621,0.1223743334412574,0,0,0
5476,259202.48985464647,2011-02-03 10:52:00,300.1511929069373,2,46,0.5501165986061096,4.064316749572754,16.331114273418315,16.560850316579476,67.48197896046256,56.00855833347109,0.0001942634553415,0.1223743334412574,0,0,0
5477,259232.50725882885,2011-02-03 10:52:30,330.16859710933403,2,46,0.5497553944587708,4.071925163269043,16.33569978138437,16.560850316579476,67.50063377762179,56.00855833347109,0.0001942634553415,0.1223743334412574,0,0,0
5478,259262.52002253567,2011-02-03 10:53:00,360.1813607861131,2,46,0.5497553944587708,4.07921028137207,16.340284629368803,16.560850316579476,67.51931977777689,56.00855833347109,0.0001942634553415,0.1223743334412574,0,0,0
5479,259292.53512424452,2011-02-03 10:53:30,390.1964625050125,2,46,0.5497553944587708,4.0858473777771,16.34486989542906,16.560850316579476,67.53803933614286,56.00855833347109,0.0001618385285837,0.1223743334412574,0,0,0
5480,259322.5502869003,2011-02-03 10:54:00,420.2116251908602,2,46,0.5497553944587708,4.092322826385498,16.349455161672477,16.560850316579476,67.55678917400616,56.00855833347109,0.0001942634553415,0.1223743334412574,0,0,0
5481,259352.5653682184,2011-02-03 10:54:30,450.2267064738271,2,46,0.5501165986061096,4.098474502563477,16.354040412027988,16.560850316579476,67.57556774100871,56.00855833347109,0.0001618385285837,0.1223743334412574,0,0,0
5482,259382.58257218177,2011-02-03 10:55:00,480.2439104371665,2,46,0.5497553944587708,4.104140758514404,16.35862597011718,16.560850316579476,67.59437483768717,56.00855833347109,0.0001295089750783,0.1223743334412574,0,0,0
5483,259412.5955902776,2011-02-03 10:55:30,510.2569285280237,2,46,0.5497553944587708,4.109806537628174,16.363210833553087,16.560850316579476,67.61320532964709,56.00855833347109,0.0001618385285837,0.1223743334412574,0,0,0
5484,259442.61071075324,2011-02-03 10:56:00,540.2720489986582,2,46,0.5499359965324402,4.115148544311523,16.367796043744484,16.560850316579476,67.63206256525122,56.00855833347109,9.70840483205393e-05,0.1223743334412574,0,0,0
5485,259472.62584276265,2011-02-03 10:56:30,570.2871810130633,2,46,0.5499359965324402,4.120652675628662,16.37238127120101,16.560850316579476,67.65094447668375,56.00855833347109,0.0001295089750783,0.1223743334412574,0,0,0
5486,259502.64104733287,2011-02-03 10:57:00,600.3023855883124,2,46,0.5501165986061096,4.125833034515381,16.376966483400004,16.560850316579476,67.66985030493073,56.00855833347109,0.0001618385285837,0.1223743334412574,0,0,0
5487,259532.6560530124,2011-02-03 10:57:30,630.3173912678521,2,46,0.5499359965324402,4.130851745605469,16.381551685229283,16.560850316579476,67.6887794141252,56.00855833347109,0.0001619339018361,0.1223743334412574,0,0,0
5488,259562.67129239943,2011-02-03 10:58:00,660.3326306799253,2,46,0.5501165986061096,4.135869979858398,16.386136991046804,16.560850316579476,67.70773204068315,56.00855833347109,0.0001618385285837,0.1223743334412574,0,0,0
5489,259592.686265192,2011-02-03 10:58:30,690.3476034474382,2,46,0.5497553944587708,4.140564918518066,16.390722225680733,16.560850316579476,67.72670707707667,56.00855833347109,6.47544875391759e-05,0.1223743334412574,0,0,0
5490,259622.70137098603,2011-02-03 10:59:00,720.3627092364817,2,46,0.5497553944587708,4.145583152770996,16.395307505598105,16.560850316579476,67.74570470559345,56.00855833347109,9.70840483205393e-05,0.1223743334412574,0,0,0
5491,259652.71648324124,2011-02-03 10:59:30,750.3778214966533,2,46,0.5499359965324402,4.150439739227295,16.399892732741375,16.560850316579476,67.76472433746142,56.00855833347109,0.0001295089750783,0.1223743334412574,0,0,0
5492,259682.7318524067,2011-02-03 11:00:01,780.3931907473242,2,46,0.5501165986061096,4.155134677886963,16.40447798473442,16.560850316579476,67.78376595388262,56.00855833347109,9.71794142969884e-05,0.1223743334412574,0,0,0
5493,259712.74918075505,2011-02-03 11:00:31,810.4105190355193,2,46,0.5501165986061096,4.159991264343262,16.409063505143486,16.560850316579476,67.80283052060372,56.00855833347109,0.0001295089750783,0.1223743334412574,0,0,0
5494,259742.7621040897,2011-02-03 11:01:01,840.4234423451525,2,46,0.5501165986061096,4.164685726165772,16.413648450915773,16.560850316579476,67.82191436641982,56.00855833347109,0.0001618385285837,0.1223743334412574,0,0,0
5495,259772.7769416352,2011-02-03 11:01:31,870.438279885638,2,46,0.5497553944587708,4.16938066482544,16.418233594538563,16.560850316579476,67.84102060084523,56.00855833347109,0.0001295089750783,0.1223743334412574,0,0,0
5496,259802.79206600555,2011-02-03 11:02:01,900.4534042559918,2,46,0.5501165986061096,4.174075126647949,16.422818821772147,16.560850316579476,67.86014879986983,56.00855833347109,0.0001295089750783,0.1223743334412574,0,0,0
5497,259832.80719635083,2011-02-03 11:02:31,930.4685346012368,2,46,0.5499359965324402,4.178607940673828,16.42740404781313,16.560850316579476,67.87929846434903,56.00855833347109,9.70840483205393e-05,0.1223743334412574,0,0,0
5498,259862.82228152847,2011-02-03 11:03:01,960.4836198039732,2,46,0.5499359965324402,4.183302879333496,16.43198926149782,16.560850316579476,67.89846955134742,56.00855833347109,9.71794142969884e-05,0.1223743334412574,0,0,0
5499,259892.83752567737,2011-02-03 11:03:31,990.4988639528516,2,46,0.5501165986061096,4.188321113586426,16.436574542292774,16.560850316579476,67.91766229990986,56.00855833347109,0.0001618385285837,0.1223743334412574,0,0,0
5500,259922.852591582,2011-02-03 11:04:01,1020.5139299627532,2,46,0.5501165986061096,4.192853927612305,16.441159751655142,16.560850316579476,67.93687626879633,56.00855833347109,0.0001618385285837,0.1223743334412574,0,0,0
5501,259952.8676569703,2011-02-03 11:04:31,1050.528995230806,2,46,0.5499359965324402,4.197386741638184,16.445745007434546,16.560850316579476,67.95611180846193,56.00855833347109,9.71794142969884e-05,0.1223743334412574,0,0,0
5502,259968.69552053147,2011-02-03 11:04:46,1066.3568588069495,2,46,0.5501165986061096,4.200138568878174,16.448162883841515,16.560850316579476,67.96626365299502,56.00855833347109,0.0001942634553415,0.1223743334412574,0,0,0
5503,259998.705790872,2011-02-03 11:05:17,30.01513924241957,3,46,0.0,4.091837406158447,16.448162883841515,16.560850316579476,67.96626365299502,56.00855833347109,-0.0004532813909463,0.1223743334412574,0,0,0
5504,260028.7227960048,2011-02-03 11:05:47,60.03214441029952,3,46,0.0,4.08018159866333,16.448162883841515,16.560850316579476,67.96626365299502,56.00855833347109,-0.0002265930233988,0.1223743334412574,0,0,0
5505,260058.736115963,2011-02-03 11:06:17,90.04546433842808,3,46,0.0,4.072896480560303,16.448162883841515,16.560850316579476,67.96626365299502,56.00855833347109,-0.0001619339018361,0.1223743334412574,0,0,0
5506,260088.7043659329,2011-02-03 11:06:47,120.01371430835312,3,46,0.0,4.067716121673584,16.448162883841515,16.560850316579476,67.96626365299502,56.00855833347109,-0.0001295089750783,0.1223743334412574,0,0,0
5507,260088.71740876144,2011-02-03 11:06:47,0.015972408155711,4,46,0.9313827753067015,4.199814796447754,16.448167068276668,16.560850316579476,67.96628122684768,56.00855833347109,0.0,0.1223743334412574,0,0,0
5508,260089.6389354946,2011-02-03 11:06:48,0.937499116258984,4,46,0.8809928297996521,4.199491024017334,16.448397152460938,16.560850316579476,67.96724751194256,56.00855833347109,-6.47544875391759e-05,0.1223743334412574,0,0,0
5509,260092.17014998995,2011-02-03 11:06:50,3.468713626654123,4,46,0.8309640288352966,4.199653148651123,16.44899738392558,16.560850316579476,67.96976830890127,56.00855833347109,-3.23295607813634e-05,0.1223743334412574,0,0,0
5510,260096.13881120985,2011-02-03 11:06:54,7.437374841528116,4,46,0.7809352874755859,4.199814796447754,16.44988405978007,16.560850316579476,67.97349210578024,56.00855833347109,0.0,0.1223743334412574,0,0,0
5511,260101.8420562764,2011-02-03 11:07:00,13.140619918103582,4,46,0.7309064865112305,4.199653148651123,16.45107966558906,16.560850316579476,67.97851332466801,56.00855833347109,-6.47544875391759e-05,0.1223743334412574,0,0,0
5512,260109.73233302883,2011-02-03 11:07:08,21.030896665535643,4,46,0.6806971430778503,4.199653148651123,16.452624028893652,16.560850316579476,67.9849992490333,56.00855833347109,0.0,0.1223743334412574,0,0,0
5513,260120.84168357868,2011-02-03 11:07:19,32.140247225392514,4,46,0.6306683421134949,4.199653148651123,16.45464327352613,16.560850316579476,67.99347959407216,56.00855833347109,0.0,0.1223743334412574,0,0,0
5514,260137.0599930311,2011-02-03 11:07:35,48.35855664270952,4,46,0.5806396007537842,4.199653148651123,16.457364308593338,16.560850316579476,68.00490727255723,56.00855833347109,-3.23295607813634e-05,0.1223743334412574,0,0,0
5515,260163.55954510355,2011-02-03 11:08:02,74.85810871518247,4,46,0.5306107997894287,4.199653148651123,16.461439637911564,16.560850316579476,68.02202268375737,56.00855833347109,-3.23295607813634e-05,0.1223743334412574,0,0,0
5516,260211.0274896669,2011-02-03 11:08:49,122.3260532785558,4,46,0.4805820286273956,4.199491024017334,16.468076690507555,16.560850316579476,68.04989657501893,56.00855833347109,-6.47544875391759e-05,0.1223743334412574,0,0,0
5517,260292.5887288708,2011-02-03 11:10:11,203.8872925074802,4,46,0.4305532872676849,4.199653148651123,16.47836317114987,16.560850316579476,68.09309724479863,56.00855833347109,3.24249267578125e-05,0.1223743334412574,0,0,0
5518,260407.46409339545,2011-02-03 11:12:06,318.7626570421666,4,46,0.3805245161056518,4.199814796447754,16.491274143406056,16.560850316579476,68.1473200879957,56.00855833347109,3.23295607813634e-05,0.1223743334412574,0,0,0
5519,260551.50606419728,2011-02-03 11:14:30,462.8046278089238,4,46,0.3304957449436188,4.199653148651123,16.505466293353987,16.560850316579476,68.20692356459749,56.00855833347109,-6.47544875391759e-05,0.1223743334412574,0,0,0
5520,260731.3779204683,2011-02-03 11:17:29,642.6764840799377,4,46,0.2804669737815857,4.199653148651123,16.520699001194348,16.560850316579476,68.27089710912398,56.00855833347109,0.0,0.1223743334412574,0,0,0
5521,260957.56158719576,2011-02-03 11:21:16,868.8601508324593,4,46,0.2304381877183914,4.199814796447754,16.53669956875131,16.560850316579476,68.33809552802676,56.00855833347109,0.0,0.1223743334412574,0,0,0
5522,261248.82233411577,2011-02-03 11:26:07,1160.1208977675128,4,46,0.1804094314575195,4.199653148651123,16.553247503882517,16.560850316579476,68.40759317538908,56.00855833347109,-3.23295607813634e-05,0.1223743334412574,0,0,0
5523,261652.3779347285,2011-02-03 11:32:50,1563.6764983701687,4,46,0.1303806602954864,4.199814796447754,16.570526905647807,16.560850316579476,68.48016249002056,56.00855833347109,3.23295607813634e-05,0.1223743334412574,0,0,0
5524,262291.38268980995,2011-02-03 11:43:29,2202.6812534216047,4,46,0.0801712721586227,4.199653148651123,16.588872006487783,16.560850316579476,68.55720752064613,56.00855833347109,0.0,0.1223743334412574,0,0,0
5525,263016.31001207663,2011-02-03 11:55:34,2927.6085757133164,4,46,0.0498289167881011,4.199653148651123,16.60174037109292,16.560850316579476,68.6112515347769,56.00855833347109,-3.23295607813634e-05,0.1223743334412574,0,0,0
5526,263046.34120383934,2011-02-03 11:56:05,30.01755348445356,5,46,0.0,4.188807010650635,16.60174037109292,16.560850316579476,68.6112515347769,56.00855833347109,-6.47544875391759e-05,0.1223743334412574,0,0,0
5527,263076.3406206065,2011-02-03 11:56:35,60.016970266664615,5,46,0.0,4.187188148498535,16.60174037109292,16.560850316579476,68.6112515347769,56.00855833347109,0.0,0.1223743334412574,0,0,0
5528,263076.5268978493,2011-02-03 11:56:35,0.187604057034455,6,46,0.0017868496943265,4.187511920928955,16.601740464209655,16.560850316579476,68.61125192470433,56.00855833347109,0.0,0.1230734884738922,0,0,0
5529,263081.35482826736,2011-02-03 11:56:40,5.015534480165952,6,46,0.0007031940040178,4.187026023864746,16.601741179882126,16.560850316579476,68.61125492144967,56.00855833347109,-6.47544875391759e-05,0.1230734884738922,0,0,0
5530,263088.76215394965,2011-02-03 11:56:47,7.406092887272895,7,46,-1.099568486213684,3.986935377120972,16.601741179882126,16.563112395588433,68.61125492144967,56.01760561146303,-0.0025253773201256,0.1230734884738922,0,0,0
5531,263118.77726769354,2011-02-03 11:57:17,37.42120662612974,7,46,-1.0993878841400146,3.9136011600494394,16.601741179882126,16.572279976784777,68.61125492144967,56.05381703414748,-0.0019425868522375,0.1230734884738922,0,0,0
5532,263148.7923901992,2011-02-03 11:57:47,67.43632912682378,7,46,-1.0993878841400146,3.833791255950928,16.601741179882126,16.581447533766635,68.61125492144967,56.08934017523118,-0.0022987842094153,0.1230734884738922,0,0,0
5533,263178.8075126247,2011-02-03 11:58:17,97.4514515573429,7,46,-1.099568486213684,3.7486395835876474,16.601741179882126,16.590615111160915,68.61125492144967,56.124091407421005,-0.0021368502639234,0.1230734884738922,0,0,0
5534,263208.8245455768,2011-02-03 11:58:47,127.46848453453222,7,46,-1.0993878841400146,3.6772477626800537,16.601741179882126,16.599783314189164,68.61125492144967,56.158118641708406,-0.0017159938579425,0.1230734884738922,0,0,0
5535,263238.8378579161,2011-02-03 11:59:17,157.4817968536969,7,46,-1.099568486213684,3.622854232788086,16.601741179882126,16.608950339678454,68.61125492144967,56.191566896963565,-0.0012950897216796,0.1230734884738922,0,0,0
5536,263268.85284615715,2011-02-03 11:59:47,187.49678508976217,7,46,-1.099568486213684,3.580925941467285,16.601741179882126,16.618117882605038,68.61125492144967,56.22457960322431,-0.0010036944877356,0.1230734884738922,0,0,0
5537,263298.8681100502,2011-02-03 12:00:17,217.5120489828496,7,46,-1.099568486213684,3.5469298362731934,16.601741179882126,16.627285531925022,68.61125492144967,56.25724730877796,-0.0008418083307333,0.1230734884738922,0,0,0
5538,263328.88262625487,2011-02-03 12:00:47,247.5265648867177,7,46,-1.099568486213684,3.51859974861145,16.601741179882126,16.636452963410314,68.61125492144967,56.28963079815348,-0.0007122993702068,0.1230734884738922,0,0,0
5539,263358.882739132,2011-02-03 12:01:17,277.52667806456094,7,46,-1.0997490882873535,3.4938313961029053,16.601741179882126,16.64561604798413,68.61125492144967,56.32175735623474,-0.0006475448608398,0.1230734884738922,0,0,0
5540,263388.8977046213,2011-02-03 12:01:47,307.54164360405935,7,46,-1.099568486213684,3.4723005294799805,16.601741179882126,16.654783578886903,68.61125492144967,56.35368701756321,-0.0005180359003134,0.1230734884738922,0,0,0
5541,263418.91223249503,2011-02-03 12:02:17,337.5561711519479,7,46,-1.099568486213684,3.452874183654785,16.601741179882126,16.66395099816496,68.61125492144967,56.38542830022247,-0.0004856586456298,0.1230734884738922,0,0,0
5542,263448.912296766,2011-02-03 12:02:47,367.5562357035998,7,46,-1.099568486213684,3.4353904724121094,16.601741179882126,16.673113981248864,68.61125492144967,56.41698543325895,-0.0004856586456298,0.1230734884738922,0,0,0
5543,263478.92699921475,2011-02-03 12:03:17,397.5709378716956,7,46,-1.099568486213684,3.4188783168792725,16.601741179882126,16.682281449511787,68.61125492144967,56.448402558215335,-0.0004209041653666,0.1230734884738922,0,0,0
5544,263508.94257870445,2011-02-03 12:03:47,427.58651767212126,7,46,-1.0997490882873535,3.4030134677886963,16.601741179882126,16.691449221665632,68.61125492144967,56.47967386211224,-0.0004209041653666,0.1230734884738922,0,0,0
5545,263538.9577517912,2011-02-03 12:04:17,457.60169073382895,7,46,-1.099568486213684,3.38779616355896,16.601741179882126,16.700616862041606,68.61125492144967,56.510802251238296,-0.0004209041653666,0.1230734884738922,0,0,0
5546,263568.9727338268,2011-02-03 12:04:47,487.6166727644282,7,46,-1.099568486213684,3.3727407455444336,16.601741179882126,16.709784442351772,68.61125492144967,56.541791633047005,-0.0004209041653666,0.1230734884738922,0,0,0
5547,263598.98787308927,2011-02-03 12:05:17,517.6318120720102,7,46,-1.099568486213684,3.3573615550994877,16.601741179882126,16.718952081681707,68.61125492144967,56.572641883935255,-0.0004209041653666,0.1230734884738922,0,0,0
5548,263629.00308409054,2011-02-03 12:05:47,547.6470230281625,7,46,-1.099568486213684,3.34198260307312,16.601741179882126,16.7281196792963,68.61125492144967,56.603350902001104,-0.0004209041653666,0.1230734884738922,0,0,0
5549,263659.0181983858,2011-02-03 12:06:17,577.6621373234061,7,46,-1.099568486213684,3.326279640197754,16.601741179882126,16.737287214772394,68.61125492144967,56.63391785988997,-0.0004532813909463,0.1230734884738922,0,0,0
5550,263689.0332092533,2011-02-03 12:06:47,607.6771482159381,7,46,-1.099568486213684,3.309767246246338,16.601741179882126,16.74645477641086,68.61125492144967,56.664336450101366,-0.0004209041653666,0.1230734884738922,0,0,0
5551,263719.04829807,2011-02-03 12:07:17,637.6922370026065,7,46,-1.099568486213684,3.291959762573242,16.601741179882126,16.755622353109718,68.61125492144967,56.69459706658544,-0.0004532813909463,0.1230734884738922,0,0,0
5552,263749.0634069417,2011-02-03 12:07:47,667.7073458693204,7,46,-1.099568486213684,3.272695302963257,16.601741179882126,16.764789865763976,68.61125492144967,56.72468799005576,-0.0005504131549969,0.1230734884738922,0,0,0
5553,263779.07853179326,2011-02-03 12:08:17,697.7224707258861,7,46,-1.099568486213684,3.252297878265381,16.601741179882126,16.773957432756678,68.61125492144967,56.754598963644895,-0.0005504131549969,0.1230734884738922,0,0,0
5554,263809.0936383041,2011-02-03 12:08:48,727.737577241741,7,46,-1.0993878841400146,3.230119466781616,16.601741179882126,16.783125065461537,68.61125492144967,56.78431365803506,-0.0005827903514727,0.1230734884738922,0,0,0
5555,263839.1115468335,2011-02-03 12:09:18,757.755485806163,7,46,-1.0993878841400146,3.205836534500122,16.601741179882126,16.79229351697224,68.61125492144967,56.81381912267354,-0.0006475448608398,0.1230734884738922,0,0,0
5556,263869.12595265795,2011-02-03 12:09:48,787.7698916156421,7,46,-1.099568486213684,3.178963661193848,16.601741179882126,16.80146087067254,68.61125492144967,56.84308698034878,-0.0007122993702068,0.1230734884738922,0,0,0
5557,263899.13900432753,2011-02-03 12:10:18,817.7829432601251,7,46,-1.0997490882873535,3.149014711380005,16.601741179882126,16.810627811249766,68.61125492144967,56.87209405765094,-0.0008741855854168,0.1230734884738922,0,0,0
5558,263929.15409281844,2011-02-03 12:10:48,847.798031756069,7,46,-1.099568486213684,3.115989923477173,16.601741179882126,16.819795368411775,68.61125492144967,56.90081636885122,-0.0009713172912597,0.1230734884738922,0,0,0
5559,263959.1692176249,2011-02-03 12:11:18,877.8131565925846,7,46,-1.0993878841400146,3.077461242675781,16.601741179882126,16.82896293759022,68.61125492144967,56.92920957835368,-0.0010684489971026,0.1230734884738922,0,0,0
5560,263989.18432283244,2011-02-03 12:11:48,907.8282617650916,7,46,-1.099568486213684,3.033104419708252,16.601741179882126,16.838130577388018,68.61125492144967,56.95722664983931,-0.0013274669181555,0.1230734884738922,0,0,0
5561,264019.19943439594,2011-02-03 12:12:18,937.843373323514,7,46,-1.0993878841400146,2.979682207107544,16.601741179882126,16.84729818744526,68.61125492144967,56.98479386297692,-0.0015541076427325,0.1230734884738922,0,0,0
5562,264049.2145492826,2011-02-03 12:12:48,967.8584882152442,7,46,-1.0993878841400146,2.9155755043029785,16.601741179882126,16.856465760270762,68.61125492144967,57.0118258956029,-0.0018778800731524,0.1230734884738922,0,0,0
5563,264079.2297096978,2011-02-03 12:13:18,997.8736486304329,7,46,-1.0997490882873535,2.835280179977417,16.601741179882126,16.86563339894355,68.61125492144967,57.03820159759394,-0.0023635388351976,0.1230734884738922,0,0,0
5564,264109.2451089934,2011-02-03 12:13:48,1027.8890479560596,7,46,-1.0997490882873535,2.7345871925354004,16.601741179882126,16.87480108040347,68.61125492144967,57.06374897637957,-0.0029139518737792,0.1230734884738922,0,0,0
5565,264118.856538889,2011-02-03 12:13:57,1037.5004778467105,7,46,-1.099568486213684,2.699943780899048,16.601741179882126,16.87773669029916,68.61125492144967,57.071726682549134,-0.0029139041434973,0.1230734884738922,0,0,0
5566,264178.8562704668,2011-02-03 12:14:57,60.01461180866159,8,46,0.0,3.7685513496398926,16.601741179882126,16.87773669029916,68.61125492144967,57.071726682549134,0.0007122993702068,0.1230734884738922,0,0,0
5567,264179.045670799,2011-02-03 12:14:58,0.185090702982819,9,46,-1.9243103452026844e-05,3.768713235855103,16.601741179882126,16.877736691288526,68.61125492144967,57.07172668627778,0.0,0.1209722384810447,0,0,0
5568,264183.8756320636,2011-02-03 12:15:03,5.015051957571178,9,46,0.0007031940040178,3.773084163665772,16.60174187137324,16.877736691551913,68.61125752918936,57.07172668727058,0.0005827903514727,0.1209722384810447,0,0,0
