Data_Point,Test_Time(s),Date_Time,Step_Time(s),Step_Index,Cycle_Index,Current(A),Voltage(V),Charge_Capacity(Ah),Discharge_Capacity(Ah),Charge_Energy(Wh),Discharge_Energy(Wh),dV/dt(V/s),Internal_Resistance(Ohm),Is_FC_Data,AC_Impedance(Ohm),ACI_Phase_Angle(Deg)
4384,203780.96374271932,2011-02-02 19:28:07,30.014853129337737,1,36,0.0,3.7800452709198,13.03138239116131,13.335255515335362,53.80268566480098,45.19041588130543,0.0004856586456298,0.1223743334412574,0,0,0
4385,203810.97883399724,2011-02-02 19:28:37,60.02994439718992,1,36,0.0,3.7929961681365967,13.03138239116131,13.335255515335362,53.80268566480098,45.19041588130543,0.0003237724304199,0.1223743334412574,0,0,0
4386,203840.9939499416,2011-02-02 19:29:07,90.04506034655603,1,36,0.0,3.802871227264404,13.03138239116131,13.335255515335362,53.80268566480098,45.19041588130543,0.0002590179501567,0.1223743334412574,0,0,0
4387,203870.9622334501,2011-02-02 19:29:37,120.01334388514452,1,36,0.0,3.8109655380249023,13.03138239116131,13.335255515335362,53.80268566480098,45.19041588130543,0.0001618862152099,0.1223743334412574,0,0,0
4388,203900.97085687768,2011-02-02 19:30:07,30.01506994470835,2,36,0.5499359965324402,3.934969902038574,13.035967770829496,13.335255515335362,53.82064545078575,45.19041588130543,0.0007446765666827,0.1223743334412574,0,0,0
4389,203930.9860016037,2011-02-02 19:30:37,60.030214710894846,2,36,0.5499359965324402,3.956500768661499,13.040553131749627,13.335255515335362,53.83874162766145,45.19041588130543,0.0004856586456298,0.1223743334412574,0,0,0
4390,203961.00109667104,2011-02-02 19:31:07,90.04530974312902,2,36,0.5499359965324402,3.972527503967285,13.04513846220534,13.335255515335362,53.85692157338969,45.19041588130543,0.0004209041653666,0.1223743334412574,0,0,0
4391,203991.0162047608,2011-02-02 19:31:37,120.06041783290664,2,36,0.5497553944587708,3.985964059829712,13.049723813537234,13.335255515335362,53.875168601750445,45.19041588130543,0.0003237724304199,0.1223743334412574,0,0,0
4392,204021.03147156612,2011-02-02 19:32:07,150.07568464827725,2,36,0.5499359965324402,3.99794340133667,13.05430911837283,13.335255515335362,53.89347394944717,45.19041588130543,0.0002266406954731,0.1223743334412574,0,0,0
4393,204051.0464796818,2011-02-02 19:32:37,180.09069277892593,2,36,0.5499359965324402,4.008951663970947,13.058894283752222,13.335255515335362,53.911831231839145,45.19041588130543,0.0002590179501567,0.1223743334412574,0,0,0
4394,204081.06169367555,2011-02-02 19:33:07,210.10590678768625,2,36,0.5497553944587708,4.018988609313965,13.063479572776371,13.335255515335362,53.93023717140938,45.19041588130543,0.0002590179501567,0.1223743334412574,0,0,0
4395,204111.0766839366,2011-02-02 19:33:37,240.12089700869865,2,36,0.5501165986061096,4.028540134429932,13.068064812497187,13.335255515335362,53.948687305441176,45.19041588130543,0.0002590179501567,0.1223743334412574,0,0,0
4396,204141.09205319232,2011-02-02 19:34:07,270.136266274407,2,36,0.5501165986061096,4.036957740783691,13.07265009655231,13.335255515335362,53.96717852904276,45.19041588130543,0.0002265930233988,0.1223743334412574,0,0,0
4397,204171.10704947845,2011-02-02 19:34:37,300.1512626407353,2,36,0.5501165986061096,4.0450520515441895,13.077235346057398,13.335255515335362,53.985707540853646,45.19041588130543,0.0002265930233988,0.1223743334412574,0,0,0
4398,204201.12202984988,2011-02-02 19:35:07,330.16624292698725,2,36,0.5499359965324402,4.052175045013428,13.081820580839407,13.335255515335362,54.0042718299828,45.19041588130543,0.0001295089750783,0.1223743334412574,0,0,0
4399,204231.1371441953,2011-02-02 19:35:37,360.18135726734323,2,36,0.5499359965324402,4.059460163116455,13.086405756395257,13.335255515335362,54.022869013099815,45.19041588130543,0.0001619339018361,0.1223743334412574,0,0,0
4400,204261.15229129727,2011-02-02 19:36:07,390.1965043693514,2,36,0.5499359965324402,4.0657734870910645,13.09099103633061,13.335255515335362,54.04149739505565,45.19041588130543,0.0001618385285837,0.1223743334412574,0,0,0
4401,204291.16745105584,2011-02-02 19:36:37,420.2116641379284,2,36,0.5497553944587708,4.072087287902832,13.095576174767382,13.335255515335362,54.060154549092495,45.19041588130543,0.0001295089750783,0.1223743334412574,0,0,0
4402,204321.1825315368,2011-02-02 19:37:07,450.2267446138839,2,36,0.5501165986061096,4.0780768394470215,13.100161367105317,13.335255515335362,54.07883993370943,45.19041588130543,0.0001295089750783,0.1223743334412574,0,0,0
4403,204351.1976677867,2011-02-02 19:37:37,480.2418808588328,2,36,0.5499359965324402,4.08390474319458,13.10474660858781,13.335255515335362,54.097552344260976,45.19041588130543,0.0001618385285837,0.1223743334412574,0,0,0
4404,204381.2128966275,2011-02-02 19:38:07,510.2571097196089,2,36,0.5501165986061096,4.089247226715088,13.109331854806356,13.335255515335362,54.116290514993565,45.19041588130543,0.0001295089750783,0.1223743334412574,0,0,0
4405,204411.22790183587,2011-02-02 19:38:37,540.2721149329868,2,36,0.5499359965324402,4.0945892333984375,13.113916995000384,13.335255515335362,54.13505300313513,45.19041588130543,9.70840483205393e-05,0.1223743334412574,0,0,0
4406,204441.24510623023,2011-02-02 19:39:07,570.2893193424381,2,36,0.5497553944587708,4.099769592285156,13.118502526199014,13.335255515335362,54.15384114745907,45.19041588130543,0.0001295089750783,0.1223743334412574,0,0,0
4407,204471.25813552405,2011-02-02 19:39:37,600.3023485961165,2,36,0.5499359965324402,4.104949951171875,13.123087492518351,13.335255515335362,54.172650496521285,45.19041588130543,0.0001618385285837,0.1223743334412574,0,0,0
4408,204501.27339448984,2011-02-02 19:40:07,630.3176075669361,2,36,0.5501165986061096,4.109806537628174,13.127672755801246,13.335255515335362,54.19148388335564,45.19041588130543,0.0001295089750783,0.1223743334412574,0,0,0
4409,204531.2909442851,2011-02-02 19:40:37,660.3351573822449,2,36,0.5497553944587708,4.114663124084473,13.132258330152792,13.335255515335362,54.2103409553107,45.19041588130543,9.70840483205393e-05,0.1223743334412574,0,0,0
4410,204561.3035208606,2011-02-02 19:41:07,690.3477339526975,2,36,0.5499359965324402,4.119357585906982,13.13684315986258,13.335255515335362,54.22921694835754,45.19041588130543,0.0001295089750783,0.1223743334412574,0,0,0
4411,204591.3185935772,2011-02-02 19:41:37,720.3628066542768,2,36,0.5499359965324402,4.12405252456665,13.141428338937596,13.335255515335362,54.24811596376826,45.19041588130543,9.71794142969884e-05,0.1223743334412574,0,0,0
4412,204621.3337206292,2011-02-02 19:42:07,750.3779336962892,2,36,0.5499359965324402,4.12874698638916,13.14601358777528,13.335255515335362,54.26703665708724,45.19041588130543,0.0001295089750783,0.1223743334412574,0,0,0
4413,204651.34886775631,2011-02-02 19:42:37,780.3930808484223,2,36,0.5497553944587708,4.133279800415039,13.150598786609589,13.335255515335362,54.285978227165735,45.19041588130543,9.70840483205393e-05,0.1223743334412574,0,0,0
4414,204681.36392330512,2011-02-02 19:43:07,810.4081363721891,2,36,0.5499359965324402,4.137812614440918,13.155184022438096,13.335255515335362,54.304940864387234,45.19041588130543,9.70840483205393e-05,0.1223743334412574,0,0,0
4415,204711.37916553923,2011-02-02 19:43:37,840.4233786363707,2,36,0.5499359965324402,4.142345428466797,13.159769250039806,13.335255515335362,54.32392429529416,45.19041588130543,9.70840483205393e-05,0.1223743334412574,0,0,0
4416,204741.3941724469,2011-02-02 19:44:07,870.4383855289336,2,36,0.5499359965324402,4.146878242492676,13.16435439969594,13.335255515335362,54.342928210852136,45.19041588130543,0.0001295089750783,0.1223743334412574,0,0,0
4417,204771.40930101264,2011-02-02 19:44:37,900.453514094744,2,36,0.5499359965324402,4.151411056518555,13.168939573407382,13.335255515335362,54.361953065761774,45.19041588130543,9.70840483205393e-05,0.1223743334412574,0,0,0
4418,204801.42452059028,2011-02-02 19:45:07,930.468733657346,2,36,0.5501165986061096,4.155943870544434,13.173524752948692,13.335255515335362,54.3809983765448,45.19041588130543,0.0001295089750783,0.1223743334412574,0,0,0
4419,204831.43963786296,2011-02-02 19:45:37,960.4838509600852,2,36,0.5499359965324402,4.160315036773682,13.178110001714533,13.335255515335362,54.40006449055346,45.19041588130543,0.0001295089750783,0.1223743334412574,0,0,0
4420,204861.45464224424,2011-02-02 19:46:07,990.4988553363768,2,36,0.5501165986061096,4.165009498596191,13.182695190988635,13.335255515335362,54.419150890335445,45.19041588130543,0.0001618385285837,0.1223743334412574,0,0,0
4421,204891.46988551595,2011-02-02 19:46:37,1020.5140985980444,2,36,0.5499359965324402,4.16921854019165,13.18728039630737,13.335255515335362,54.43825781474087,45.19041588130543,6.47544875391759e-05,0.1223743334412574,0,0,0
4422,204921.48486834852,2011-02-02 19:47:07,1050.5290814206176,2,36,0.5501165986061096,4.173751354217529,13.191865563572048,13.335255515335362,54.45738499336059,45.19041588130543,9.70840483205393e-05,0.1223743334412574,0,0,0
4423,204951.50010819169,2011-02-02 19:47:37,1080.5443212888276,2,36,0.5499359965324402,4.178284168243408,13.196450803814844,13.335255515335362,54.47653299059768,45.19041588130543,0.0001295089750783,0.1223743334412574,0,0,0
4424,204981.51512916436,2011-02-02 19:48:08,1110.5593422314075,2,36,0.5497553944587708,4.182655334472656,13.201036018332736,13.335255515335362,54.49570148622109,45.19041588130543,9.71794142969884e-05,0.1223743334412574,0,0,0
4425,205011.5328401012,2011-02-02 19:48:38,1140.577053198356,2,36,0.5499359965324402,4.187349796295166,13.205621650659047,13.335255515335362,54.51489236023184,45.19041588130543,0.0001618385285837,0.1223743334412574,0,0,0
4426,205041.5473975336,2011-02-02 19:49:08,1170.5916106357383,2,36,0.5499359965324402,4.191720962524414,13.210206760479606,13.335255515335362,54.53410165460665,45.19041588130543,9.71794142969884e-05,0.1223743334412574,0,0,0
4427,205071.5604664912,2011-02-02 19:49:38,1200.6046795582836,2,36,0.5497553944587708,4.196091651916504,13.214791607884075,13.335255515335362,54.55333047240703,45.19041588130543,0.0001295089750783,0.1223743334412574,0,0,0
4428,205096.0760601689,2011-02-02 19:50:02,1225.1202732460133,2,36,0.5501165986061096,4.200138568878174,13.218536694577534,13.335255515335362,54.56905267613939,45.19041588130543,0.0001942634553415,0.1223743334412574,0,0,0
4429,205126.08944438177,2011-02-02 19:50:32,30.015111152410626,3,36,0.0,4.091027736663818,13.218536694577534,13.335255515335362,54.56905267613939,45.19041588130543,-0.0004532813909463,0.1223743334412574,0,0,0
4430,205156.1045683912,2011-02-02 19:51:02,60.03023515685246,3,36,0.0,4.079048156738281,13.218536694577534,13.335255515335362,54.56905267613939,45.19041588130543,-0.0002590179501567,0.1223743334412574,0,0,0
4431,205186.1217002148,2011-02-02 19:51:32,90.04736702550974,3,36,0.0,4.071439743041992,13.218536694577534,13.335255515335362,54.56905267613939,45.19041588130543,-0.0001942634553415,0.1223743334412574,0,0,0
4432,205216.0879407165,2011-02-02 19:52:02,120.01360748712176,3,36,0.0,4.066259384155273,13.218536694577534,13.335255515335362,54.56905267613939,45.19041588130543,-9.70840483205393e-05,0.1223743334412574,0,0,0
4433,205216.0886225961,2011-02-02 19:52:02,2.656621117e-06,4,36,0.947998821735382,4.199814796447754,13.218536695277107,13.335255515335362,54.56905267907748,45.19041588130543,0.0,0.1223743334412574,0,0,0
4434,205216.8542330629,2011-02-02 19:52:03,0.765613103427003,4,36,0.8974282741546631,4.199814796447754,13.218731146460216,13.335255515335362,54.569869325938136,45.19041588130543,0.0,0.1223743334412574,0,0,0
4435,205219.1979409241,2011-02-02 19:52:05,3.109320989620284,4,36,0.8470382690429688,4.199814796447754,13.219297431906204,13.335255515335362,54.57224757343791,45.19041588130543,0.0,0.1223743334412574,0,0,0
4436,205222.9322576654,2011-02-02 19:52:09,6.843637705897776,4,36,0.7968288660049438,4.199653148651123,13.220148452807058,13.335255515335362,54.57582166186314,45.19041588130543,-3.23295607813634e-05,0.1223743334412574,0,0,0
4437,205228.2761360546,2011-02-02 19:52:15,12.18751612017644,4,36,0.7468001246452332,4.199814796447754,13.221292418356294,13.335255515335362,54.580626019079176,45.19041588130543,3.23295607813634e-05,0.1223743334412574,0,0,0
4438,205235.6664292141,2011-02-02 19:52:22,19.577809254603785,4,36,0.6967713236808777,4.199653148651123,13.222771670317025,13.335255515335362,54.58683851795012,45.19041588130543,-3.23295607813634e-05,0.1223743334412574,0,0,0
4439,205245.8225098921,2011-02-02 19:52:32,29.73388993260125,4,36,0.646742582321167,4.199653148651123,13.224663056873982,13.335255515335362,54.59478188972419,45.19041588130543,-3.23295607813634e-05,0.1223743334412574,0,0,0
4440,205260.5409912665,2011-02-02 19:52:47,44.452371301937134,4,36,0.5967137813568115,4.199976921081543,13.227198431573711,13.335255515335362,54.60542986590402,45.19041588130543,3.24249267578125e-05,0.1223743334412574,0,0,0
4441,205283.77497754412,2011-02-02 19:53:10,67.68635758467258,4,36,0.5466850399971008,4.199653148651123,13.2308746649198,13.335255515335362,54.62086919429582,45.19041588130543,0.0,0.1223743334412574,0,0,0
4442,205324.8524020553,2011-02-02 19:53:51,108.7637821208242,4,36,0.4966562688350677,4.199653148651123,13.236799389421114,13.335255515335362,54.64575164619632,45.19041588130543,0.0,0.1223743334412574,0,0,0
4443,205398.96049220345,2011-02-02 19:55:05,182.8718722439002,4,36,0.4466274976730346,4.199653148651123,13.246467446079754,13.335255515335362,54.68635537731814,45.19041588130543,-3.23295607813634e-05,0.1223743334412574,0,0,0
4444,205509.1774140104,2011-02-02 19:56:55,293.08879405094234,4,36,0.3965987265110016,4.199653148651123,13.259343086251546,13.335255515335362,54.74043046462056,45.19041588130543,0.0,0.1223743334412574,0,0,0
4445,205649.3781285347,2011-02-02 19:59:16,433.2895085752183,4,36,0.3465699553489685,4.199814796447754,13.273782909520614,13.335255515335362,54.80107453378928,45.19041588130543,0.0,0.1223743334412574,0,0,0
4446,205822.71894828812,2011-02-02 20:02:09,606.6303283286807,4,36,0.2965411841869354,4.199653148651123,13.289241404624477,13.335255515335362,54.86599679752304,45.19041588130543,-3.23295607813634e-05,0.1223743334412574,0,0,0
4447,206039.934011451,2011-02-02 20:05:46,823.845391486474,4,36,0.2465124130249023,4.199814796447754,13.30559635625476,13.335255515335362,54.93468403949346,45.19041588130543,0.0,0.1223743334412574,0,0,0
4448,206316.06993666152,2011-02-02 20:10:22,1099.9813167070236,4,36,0.1963030397891998,4.199814796447754,13.322531472609253,13.335255515335362,55.00580778156135,45.19041588130543,3.23295607813634e-05,0.1223743334412574,0,0,0
4449,206688.8136288528,2011-02-02 20:16:35,1472.7250088883063,4,36,0.1462742686271667,4.199653148651123,13.34018905746132,13.335255515335362,55.07996579827926,45.19041588130543,-6.47544875391759e-05,0.1223743334412574,0,0,0
4450,207246.50741850972,2011-02-02 20:25:53,2030.4187985452204,4,36,0.0962455049157142,4.199653148651123,13.358726452051632,13.335255515335362,55.15781871400453,45.19041588130543,-3.23295607813634e-05,0.1223743334412574,0,0,0
4451,208231.56874535704,2011-02-02 20:42:18,3015.4801253975293,4,36,0.0498289167881011,4.199814796447754,13.377925950872932,13.335255515335362,55.23845236170525,45.19041588130543,3.23295607813634e-05,0.1223743334412574,0,0,0
4452,208261.5890738653,2011-02-02 20:42:48,30.015382303201825,5,36,0.0,4.188807010650635,13.377925950872932,13.335255515335362,55.23845236170525,45.19041588130543,-9.70840483205393e-05,0.1223743334412574,0,0,0
4453,208291.588342378,2011-02-02 20:43:18,60.01465076074216,5,36,0.0,4.187188148498535,13.377925950872932,13.335255515335362,55.23845236170525,45.19041588130543,-3.23295607813634e-05,0.1223743334412574,0,0,0
4454,208291.7819454219,2011-02-02 20:43:18,0.187678918612542,6,36,-1.9243103452026844e-05,4.187188148498535,13.377925950872932,13.335255516338565,55.23845236170525,45.19041588550602,0.0,0.1228515282273292,0,0,0
4455,208296.60979767525,2011-02-02 20:43:23,5.015531171920787,6,36,0.0007031940040178,4.187026023864746,13.37792666429428,13.335255516504594,55.23845534898288,45.19041588620122,-6.47544875391759e-05,0.1228515282273292,0,0,0
4456,208304.2407479347,2011-02-02 20:43:31,7.624886102285696,7,36,-1.0997490882873535,3.9867734909057617,13.37792666429428,13.337584409856206,55.23845534898288,45.19973050813884,-0.0024606226943433,0.1228515282273292,0,0,0
4457,208334.2559912816,2011-02-02 20:44:01,37.6401294591906,7,36,-1.099568486213684,3.914896011352539,13.37792666429428,13.346751949246457,55.23845534898288,45.23594621157954,-0.0018778800731524,0.1228515282273292,0,0,0
4458,208364.27097262547,2011-02-02 20:44:31,67.65511079806595,7,36,-1.099568486213684,3.8384859561920166,13.37792666429428,13.355919477425498,55.23845534898288,45.27149448660653,-0.0022016526199877,0.1228515282273292,0,0,0
4459,208394.28608174785,2011-02-02 20:45:01,97.67021992041704,7,36,-1.0993878841400146,3.758352518081665,13.37792666429428,13.365087072521147,55.23845534898288,45.30631172361264,-0.0020397664047777,0.1228515282273292,0,0,0
4460,208424.30119555685,2011-02-02 20:45:31,127.6853337294488,7,36,-1.099568486213684,3.691008090972901,13.37792666429428,13.374254669822632,55.23845534898288,45.34044532215394,-0.0015864849556237,0.1228515282273292,0,0,0
4461,208454.31631448865,2011-02-02 20:46:01,157.70045265623554,7,36,-1.099568486213684,3.639366626739502,13.37792666429428,13.383422269584043,55.23845534898288,45.37403570177511,-0.0012303352123126,0.1228515282273292,0,0,0
4462,208484.3314364179,2011-02-02 20:46:31,187.71557459051792,7,36,-1.099568486213684,3.5993807315826416,13.37792666429428,13.39258981664596,55.23845534898288,45.40720937241044,-0.0009713172912597,0.1228515282273292,0,0,0
4463,208514.3487039948,2011-02-02 20:47:01,217.73284216740183,7,36,-1.0993878841400146,3.5666799545288086,13.37792666429428,13.40175812545756,55.23845534898288,45.44005462473009,-0.0007770538213662,0.1228515282273292,0,0,0
4464,208544.36165828165,2011-02-02 20:47:31,247.7457964542398,7,36,-1.099568486213684,3.539321184158325,13.37792666429428,13.410925037961617,55.23845534898288,45.47262093089163,-0.0006475448608398,0.1228515282273292,0,0,0
4465,208574.3767946469,2011-02-02 20:48:01,277.7609328495635,7,36,-1.099568486213684,3.515200138092041,13.37792666429428,13.420092666310998,55.23845534898288,45.5049549017529,-0.0006151676061563,0.1228515282273292,0,0,0
4466,208604.39215543144,2011-02-02 20:48:31,307.7762936441593,7,36,-1.0993878841400146,3.4938313961029053,13.37792666429428,13.429260372542812,55.23845534898288,45.537081211263136,-0.0005180359003134,0.1228515282273292,0,0,0
4467,208634.40713805857,2011-02-02 20:49:01,337.7912762612203,7,36,-1.099568486213684,3.47472882270813,13.37792666429428,13.43842791708042,55.23845534898288,45.56902102037443,-0.0004532813909463,0.1228515282273292,0,0,0
4468,208664.4222584841,2011-02-02 20:49:31,367.8063966616799,7,36,-1.0993878841400146,3.456921339035034,13.37792666429428,13.447595519588718,55.23845534898288,45.60079213732641,-0.0004209041653666,0.1228515282273292,0,0,0
4469,208694.43772674148,2011-02-02 20:50:01,397.82186494416857,7,36,-1.0997490882873535,3.440247058868408,13.37792666429428,13.456763244185506,55.23845534898288,45.63240667759799,-0.0004532813909463,0.1228515282273292,0,0,0
4470,208724.45240272937,2011-02-02 20:50:31,427.8365409520651,7,36,-1.0997490882873535,3.424706220626831,13.37792666429428,13.465930698977768,55.23845534898288,45.66387341207768,-0.0003885269106831,0.1228515282273292,0,0,0
4471,208754.46747546105,2011-02-02 20:51:01,457.85161363359447,7,36,-1.0993878841400146,3.4101364612579346,13.37792666429428,13.47509831762086,55.23845534898288,45.69520188806119,-0.0003561496851034,0.1228515282273292,0,0,0
4472,208784.48259392663,2011-02-02 20:51:31,487.8667320992319,7,36,-1.0997490882873535,3.395404815673828,13.37792666429428,13.484265927186833,55.23845534898288,45.72639658592938,-0.0004209041653666,0.1228515282273292,0,0,0
4473,208814.49771133965,2011-02-02 20:52:01,517.8818495172584,7,36,-1.0993878841400146,3.381158828735352,13.37792666429428,13.493433529258947,55.23845534898288,45.75745976362104,-0.0003885269106831,0.1228515282273292,0,0,0
4474,208844.51297884173,2011-02-02 20:52:31,547.897117024353,7,36,-1.099568486213684,3.366912841796875,13.37792666429428,13.50260113669336,55.23845534898288,45.78839145598939,-0.0003885269106831,0.1228515282273292,0,0,0
4475,208874.52793539385,2011-02-02 20:53:01,577.9120735764521,7,36,-1.099568486213684,3.3525049686431885,13.37792666429428,13.511768725436536,55.23845534898288,45.81919319483958,-0.0003885269106831,0.1228515282273292,0,0,0
4476,208904.54318022443,2011-02-02 20:53:31,607.9273184020174,7,36,-1.099568486213684,3.337935447692871,13.37792666429428,13.520936397982496,55.23845534898288,45.84986088348507,-0.0003561496851034,0.1228515282273292,0,0,0
4477,208934.55819191897,2011-02-02 20:54:01,637.9423300915358,7,36,-1.099568486213684,3.322394371032715,13.37792666429428,13.530103996589482,55.23845534898288,45.88038910896517,-0.0004209041653666,0.1228515282273292,0,0,0
4478,208964.57330106635,2011-02-02 20:54:31,667.9574392339368,7,36,-1.099568486213684,3.305881977081299,13.37792666429428,13.539271490426456,55.23845534898288,45.91077119052877,-0.0004532813909463,0.1228515282273292,0,0,0
4479,208994.58840370257,2011-02-02 20:55:01,697.9725418801474,7,36,-1.0993878841400146,3.288722038269043,13.37792666429428,13.548439042564642,55.23845534898288,45.941000264083904,-0.0004856586456298,0.1228515282273292,0,0,0
4480,209024.60352691,2011-02-02 20:55:31,727.9876650876029,7,36,-1.099568486213684,3.2699434757232666,13.37792666429428,13.557606558710315,55.23845534898288,45.97106400264721,-0.0005179882282391,0.1228515282273292,0,0,0
4481,209054.61866272383,2011-02-02 20:56:01,758.0028009365648,7,36,-1.099568486213684,3.2498695850372314,13.37792666429428,13.566774176708298,55.23845534898288,46.00095037090773,-0.0005180359003134,0.1228515282273292,0,0,0
4482,209084.6363772497,2011-02-02 20:56:31,788.0205154473457,7,36,-1.099568486213684,3.2278530597686768,13.37792666429428,13.575942527556217,55.23845534898288,46.03064737891653,-0.0006475448608398,0.1228515282273292,0,0,0
4483,209114.6488993544,2011-02-02 20:57:01,818.0330375219779,7,36,-1.099568486213684,3.2042176723480225,13.37792666429428,13.585109328906643,55.23845534898288,46.06013008306305,-0.0006475448608398,0.1228515282273292,0,0,0
4484,209144.6506253268,2011-02-02 20:57:31,848.0347635294889,7,36,-1.099568486213684,3.178316116333008,13.37792666429428,13.594272809756268,55.23845534898288,46.08937571860805,-0.0007446765666827,0.1228515282273292,0,0,0
4485,209174.66348806547,2011-02-02 20:58:01,878.0476262481108,7,36,-1.0997490882873535,3.149176597595215,13.37792666429428,13.603439660095948,55.23845534898288,46.11838116746232,-0.0008418083307333,0.1228515282273292,0,0,0
4486,209204.6785975287,2011-02-02 20:58:31,908.0627357012862,7,36,-1.099568486213684,3.1167993545532227,13.37792666429428,13.612607123353936,55.23845534898288,46.14710617273251,-0.0009065627818927,0.1228515282273292,0,0,0
4487,209234.6937258639,2011-02-02 20:59:01,938.0778640365218,7,36,-1.099568486213684,3.079403877258301,13.37792666429428,13.62177474211723,55.23845534898288,46.17551145380206,-0.0010036944877356,0.1228515282273292,0,0,0
4488,209264.70882630465,2011-02-02 20:59:31,968.0929644772356,7,36,-1.0993878841400146,3.0355327129364014,13.37792666429428,13.6309423249153,55.23845534898288,46.20354652354624,-0.0012627125252038,0.1228515282273292,0,0,0
4489,209294.72410092948,2011-02-02 21:00:01,998.1082391120948,7,36,-1.099568486213684,2.983243703842163,13.37792666429428,13.640110002478895,55.23845534898288,46.23114513393804,-0.0015541076427325,0.1228515282273292,0,0,0
4490,209324.73906514567,2011-02-02 21:00:31,1028.1232033232827,7,36,-1.0993878841400146,2.9204320907592773,13.37792666429428,13.649277498563404,55.23845534898288,46.25821615636126,-0.0018455028766766,0.1228515282273292,0,0,0
4491,209354.754317505,2011-02-02 21:01:01,1058.138455677612,7,36,-1.099568486213684,2.841269969940185,13.37792666429428,13.658445116389789,55.23845534898288,46.284642280401535,-0.0023635388351976,0.1228515282273292,0,0,0
4492,209384.7694945115,2011-02-02 21:01:31,1088.1536326841513,7,36,-1.099568486213684,2.740900754928589,13.37792666429428,13.667612714193616,55.23845534898288,46.31024606021461,-0.0028491974808275,0.1228515282273292,0,0,0
4493,209395.7847480727,2011-02-02 21:01:42,1099.1688862453343,7,36,-1.0997490882873535,2.699943780899048,13.37792666429428,13.670977111579138,55.23845534898288,46.31939909438528,-0.0029786587692797,0.1228515282273292,0,0,0
4494,209455.792316816,2011-02-02 21:02:43,60.014138143141366,8,36,0.0,3.762399673461914,13.37792666429428,13.670977111579138,55.23845534898288,46.31939909438528,0.0007122993702068,0.1228515282273292,0,0,0
4495,209455.9898486233,2011-02-02 21:02:43,0.189475245612141,9,36,-1.9243103452026844e-05,3.762561559677124,13.37792666429428,13.670977112591942,55.23845534898288,46.31939909819601,0.0,0.1215639039874076,0,0,0
4496,209460.81585386832,2011-02-02 21:02:48,5.015480490607359,9,36,0.0007031940040178,3.766932487487793,13.377927644269368,13.670977112665575,55.238459038688646,46.31939909847306,0.0006151676061563,0.1215639039874076,0,0,0
