Data_Point,Test_Time(s),Date_Time,Step_Time(s),Step_Index,Cycle_Index,Current(A),Voltage(V),Charge_Capacity(Ah),Discharge_Capacity(Ah),Charge_Energy(Wh),Discharge_Energy(Wh),dV/dt(V/s),Internal_Resistance(Ohm),Is_FC_Data,AC_Impedance(Ohm),ACI_Phase_Angle(Deg)
5569,264213.893079659,2011-02-03 12:15:33,30.015115012029984,1,47,0.0,3.791701078414917,16.60174187137324,16.877736691551913,68.61125752918936,57.07172668727058,0.0004209041653666,0.1209722384810447,0,0,0
5570,264243.9081922701,2011-02-03 12:16:03,60.03022763310096,1,47,0.0,3.804975748062134,16.60174187137324,16.877736691551913,68.61125752918936,57.07172668727058,0.0002913951757363,0.1209722384810447,0,0,0
5571,264273.92329751776,2011-02-03 12:16:33,90.04533286575774,1,47,0.0,3.815498352050781,16.60174187137324,16.877736691551913,68.61125752918936,57.07172668727058,0.0002266406954731,0.1209722384810447,0,0,0
5572,264303.8916713664,2011-02-03 12:17:03,120.0137067194392,1,47,0.0,3.823754549026489,16.60174187137324,16.877736691551913,68.61125752918936,57.07172668727058,0.0002266406954731,0.1209722384810447,0,0,0
5573,264333.9130978905,2011-02-03 12:17:33,30.01511303710787,2,47,0.5499359965324402,3.949054002761841,16.606327524126723,16.877736691551913,68.62928029092451,57.07172668727058,0.0008094310760498,0.1209722384810447,0,0,0
5574,264363.92823288235,2011-02-03 12:18:03,60.030248028933656,2,47,0.5501165986061096,3.9715561866760254,16.61091319380522,16.877736691551913,68.6474437098931,57.07172668727058,0.0005180359003134,0.1209722384810447,0,0,0
5575,264393.9453872571,2011-02-03 12:18:33,90.04740243877048,2,47,0.5499359965324402,3.9882304668426514,16.615499122429252,16.877736691551913,68.66569631090458,57.07172668727058,0.0003885269106831,0.1209722384810447,0,0,0
5576,264423.9585681437,2011-02-03 12:19:03,120.06058329027732,2,47,0.5499359965324402,4.002476215362549,16.620084346800798,16.877736691551913,68.68401701882972,57.07172668727058,0.0003561019839253,0.1209722384810447,0,0,0
5577,264453.97356246994,2011-02-03 12:19:33,150.07557761652117,2,47,0.5499359965324402,4.015265464782715,16.624669796842745,16.877736691551913,68.70240040481836,57.07172668727058,0.0003237724304199,0.1209722384810447,0,0,0
5578,264483.98870500055,2011-02-03 12:20:03,180.09072015716092,2,47,0.5499359965324402,4.026921272277832,16.62925534782359,16.877736691551913,68.72083985004302,57.07172668727058,0.0002914428769145,0.1209722384810447,0,0,0
5579,264514.0039177712,2011-02-03 12:20:33,210.10593292282303,2,47,0.5501165986061096,4.0374436378479,16.633840884859065,16.877736691551913,68.73932985366527,57.07172668727058,0.0002590179501567,0.1209722384810447,0,0,0
5580,264544.01889707,2011-02-03 12:21:03,240.12091221660137,2,47,0.5501165986061096,4.046994686126709,16.638426397155772,16.877736691551913,68.75786610752807,57.07172668727058,0.0002265930233988,0.1209722384810447,0,0,0
5581,264574.0340301571,2011-02-03 12:21:33,270.13604530368,2,47,0.5499359965324402,4.055898666381836,16.64301193905246,16.877736691551913,68.77644478319905,57.07172668727058,0.0002266883820993,0.1209722384810447,0,0,0
5582,264604.0491324274,2011-02-03 12:22:03,300.15114756894104,2,47,0.5499359965324402,4.064154624938965,16.64759748360698,16.877736691551913,68.7950625306382,57.07172668727058,0.0001942634553415,0.1209722384810447,0,0,0
5583,264634.0642403517,2011-02-03 12:22:33,330.1662554983189,2,47,0.5499359965324402,4.071763515472412,16.652182961755404,16.877736691551913,68.81371618433478,57.07172668727058,0.0001942634553415,0.1209722384810447,0,0,0
5584,264664.0793619552,2011-02-03 12:23:03,360.1813771017767,2,47,0.5499359965324402,4.07888650894165,16.656768514980346,16.877736691551913,68.83240399479897,57.07172668727058,0.0001942634553415,0.1209722384810447,0,0,0
5585,264694.0945711269,2011-02-03 12:23:33,390.1965862985441,2,47,0.5499359965324402,4.085685729980469,16.661354028057247,16.877736691551913,68.85112348284893,57.07172668727058,0.0001942634553415,0.1209722384810447,0,0,0
5586,264724.10959330754,2011-02-03 12:24:03,420.2116084792097,2,47,0.5499359965324402,4.091999053955078,16.665939469959643,16.877736691551913,68.86987288415975,57.07172668727058,0.0001618385285837,0.1209722384810447,0,0,0
5587,264754.1247963941,2011-02-03 12:24:33,450.2268115757735,2,47,0.5497553944587708,4.098150730133057,16.670525015734906,16.877736691551913,68.88865131879336,57.07172668727058,0.0001942634553415,0.1209722384810447,0,0,0
5588,264784.1398019283,2011-02-03 12:25:03,480.24181708488845,2,47,0.5501165986061096,4.104140758514404,16.675110557259497,16.877736691551913,68.90745707274898,57.07172668727058,0.0001619339018361,0.1209722384810447,0,0,0
5589,264814.15519143443,2011-02-03 12:25:33,510.2572065860298,2,47,0.5499359965324402,4.109644889831543,16.679696104960325,16.877736691551913,68.92628914002118,57.07172668727058,0.0001295089750783,0.1209722384810447,0,0,0
5590,264844.17010150064,2011-02-03 12:26:03,540.2721166472593,2,47,0.5499359965324402,4.114986896514893,16.684281542720825,16.877736691551913,68.94514613021168,57.07172668727058,0.0001618385285837,0.1209722384810447,0,0,0
5591,264874.18513292435,2011-02-03 12:26:33,570.2871480659489,2,47,0.5499359965324402,4.120328903198242,16.688866966988474,16.877736691551913,68.96402751962097,57.07172668727058,0.0001618385285837,0.1209722384810447,0,0,0
5592,264904.200386602,2011-02-03 12:27:03,600.3024017485887,2,47,0.5499359965324402,4.12534761428833,16.693452540830105,16.877736691551913,68.98293347830649,57.07172668727058,9.71794142969884e-05,0.1209722384810447,0,0,0
5593,264934.21537178545,2011-02-03 12:27:33,630.317386962121,2,47,0.5497553944587708,4.13036584854126,16.698038055989272,16.877736691551913,69.00186261827646,57.07172668727058,6.47544875391759e-05,0.1209722384810447,0,0,0
5594,264964.23043016135,2011-02-03 12:28:03,660.3324453079213,2,47,0.5501165986061096,4.135708332061768,16.7026235115526,16.877736691551913,69.02081454939153,57.07172668727058,0.0001619339018361,0.1209722384810447,0,0,0
5595,264994.24765762326,2011-02-03 12:28:33,690.3496727648139,2,47,0.5501165986061096,4.140564918518066,16.707209662766843,16.877736691551913,69.03979204876597,57.07172668727058,0.0001619339018361,0.1209722384810447,0,0,0
5596,265024.2607044056,2011-02-03 12:29:03,720.3627195521917,2,47,0.5501165986061096,4.145421504974365,16.711795794683518,16.877736691551913,69.05879191178815,57.07172668727058,0.0001295089750783,0.1209722384810447,0,0,0
5597,265054.2758105706,2011-02-03 12:29:33,750.3778257422344,2,47,0.5501165986061096,4.150278091430664,16.716382126383568,16.877736691551913,69.07781491026232,57.07172668727058,0.0001295089750783,0.1209722384810447,0,0,0
5598,265084.291066183,2011-02-03 12:30:03,780.3930813296214,2,47,0.5499359965324402,4.154810905456543,16.72096845148981,16.877736691551913,69.09685986550608,57.07172668727058,0.0001295089750783,0.1209722384810447,0,0,0
5599,265114.3060350408,2011-02-03 12:30:33,810.4080501823776,2,47,0.550297200679779,4.159829139709473,16.725554481216122,16.877736691551913,69.11592537822608,57.07172668727058,0.0001618385285837,0.1209722384810447,0,0,0
5600,265144.3211610302,2011-02-03 12:31:03,840.4231761767791,2,47,0.5499359965324402,4.164361953735352,16.73013998475183,16.877736691551913,69.13501039157639,57.07172668727058,0.0001295089750783,0.1209722384810447,0,0,0
5601,265174.336287982,2011-02-03 12:31:33,870.4383031185416,2,47,0.5497553944587708,4.16905689239502,16.734725543055088,16.877736691551913,69.15411723058934,57.07172668727058,0.0001295089750783,0.1209722384810447,0,0,0
5602,265204.353938809,2011-02-03 12:32:03,900.4559539806902,2,47,0.5501165986061096,4.173751354217529,16.73931140264705,16.877736691551913,69.17324694531546,57.07172668727058,9.70840483205393e-05,0.1209722384810447,0,0,0
5603,265234.3665097956,2011-02-03 12:32:33,930.4685249722384,2,47,0.5499359965324402,4.178446292877197,16.743896497462913,16.877736691551913,69.19239496630938,57.07172668727058,0.0001295089750783,0.1209722384810447,0,0,0
5604,265264.38160985534,2011-02-03 12:33:03,960.4836249969152,2,47,0.5501165986061096,4.183302879333496,16.748481982845053,16.877736691551913,69.21156613668188,57.07172668727058,0.0001619339018361,0.1209722384810447,0,0,0
5605,265294.3967302508,2011-02-03 12:33:33,990.4987454224374,2,47,0.5501165986061096,4.187835693359375,16.75306750253691,16.877736691551913,69.23075880251743,57.07172668727058,9.71794142969884e-05,0.1209722384810447,0,0,0
5606,265324.4118514332,2011-02-03 12:34:03,1020.513866574771,2,47,0.550297200679779,4.192530155181885,16.757652962154815,16.877736691551913,69.24997267461227,57.07172668727058,0.0001295089750783,0.1209722384810447,0,0,0
5607,265354.42695084633,2011-02-03 12:34:33,1050.5289659829111,2,47,0.5499359965324402,4.1972246170043945,16.76223841307287,16.877736691551913,69.26920786660557,57.07172668727058,0.0001618385285837,0.1209722384810447,0,0,0
5608,265372.3173970631,2011-02-03 12:34:51,1068.4194122347235,2,47,0.5501165986061096,4.200138568878174,16.764971540119642,16.877736691551913,69.28068308964814,57.07172668727058,0.0001942634553415,0.1209722384810447,0,0,0
5609,265402.34154656273,2011-02-03 12:35:21,30.015238244162376,3,47,0.0,4.091837406158447,16.764971540119642,16.877736691551913,69.28068308964814,57.07172668727058,-0.0004532813909463,0.1209722384810447,0,0,0
5610,265432.35666567,2011-02-03 12:35:51,60.03035737144885,3,47,0.0,4.080343246459961,16.764971540119642,16.877736691551913,69.28068308964814,57.07172668727058,-0.0002266883820993,0.1209722384810447,0,0,0
5611,265462.37170236185,2011-02-03 12:36:21,90.0453940632808,3,47,0.0,4.072734832763672,16.764971540119642,16.877736691551913,69.28068308964814,57.07172668727058,-0.0001942634553415,0.1209722384810447,0,0,0
5612,265492.3399107331,2011-02-03 12:36:51,120.0136024044542,3,47,0.0,4.067878246307373,16.764971540119642,16.877736691551913,69.28068308964814,57.07172668727058,-9.70840483205393e-05,0.1209722384810447,0,0,0
5613,265492.3509749687,2011-02-03 12:36:52,2.566396249e-06,4,47,0.9393296241760254,4.199814796447754,16.76497154078928,16.877736691551913,69.28068309246049,57.07172668727058,0.0,0.1209722384810447,0,0,0
5614,265493.05397050484,2011-02-03 12:36:52,0.702998067491286,4,47,0.8885784149169922,4.199653148651123,16.76514819804648,16.877736691551913,69.28142500583655,57.07172668727058,-3.23295607813634e-05,0.1209722384810447,0,0,0
5615,265495.3509419745,2011-02-03 12:36:55,2.999969577254079,4,47,0.8383690118789673,4.199814796447754,16.765697525614875,16.877736691551913,69.28373203024356,57.07172668727058,0.0,0.1209722384810447,0,0,0
5616,265499.100793764,2011-02-03 12:36:58,6.74982137673895,4,47,0.7881596684455872,4.199653148651123,16.766543154720598,16.877736691551913,69.28728345040612,57.07172668727058,3.24249267578125e-05,0.1209722384810447,0,0,0
5617,265504.56937658,2011-02-03 12:37:04,12.2184041476449,4,47,0.7381308674812317,4.199814796447754,16.767700616161267,16.877736691551913,69.29214448814825,57.07172668727058,0.0,0.1209722384810447,0,0,0
5618,265512.1161292648,2011-02-03 12:37:11,19.76515683241309,4,47,0.688102126121521,4.199814796447754,16.769192756040244,16.877736691551913,69.29841111143278,57.07172668727058,3.23295607813634e-05,0.1209722384810447,0,0,0
5619,265522.58489724575,2011-02-03 12:37:22,30.23392487353096,4,47,0.6380733251571655,4.199814796447754,16.771116875284083,16.877736691551913,69.30649193550703,57.07172668727058,0.0,0.1209722384810447,0,0,0
5620,265537.88154730934,2011-02-03 12:37:37,45.53057488702612,4,47,0.5880445837974548,4.199653148651123,16.773715211946623,16.877736691551913,69.31740430047732,57.07172668727058,-3.23295607813634e-05,0.1209722384810447,0,0,0
5621,265562.5216491497,2011-02-03 12:38:02,70.17067677249453,4,47,0.5380157828330994,4.199814796447754,16.777554855264587,16.877736691551913,69.33352988636933,57.07172668727058,0.0,0.1209722384810447,0,0,0
5622,265606.03641245404,2011-02-03 12:38:45,113.68544005675685,4,47,0.4879870116710663,4.199814796447754,16.783727116363682,16.877736691551913,69.35945187874364,57.07172668727058,3.23295607813634e-05,0.1209722384810447,0,0,0
5623,265681.9101152672,2011-02-03 12:40:01,189.5591428348345,4,47,0.4379582405090332,4.199491024017334,16.79344731353107,16.877736691551913,69.400274344977,57.07172668727058,-3.24249267578125e-05,0.1209722384810447,0,0,0
5624,265791.29901191074,2011-02-03 12:41:50,298.9480394884173,4,47,0.3879294693470001,4.199653148651123,16.80596587325588,16.877736691551913,69.45284927103042,57.07172668727058,-3.23295607813634e-05,0.1209722384810447,0,0,0
5625,265931.39026376035,2011-02-03 12:44:11,439.039291378127,4,47,0.3379007279872894,4.199653148651123,16.820061258754492,16.877736691551913,69.51204663302802,57.07172668727058,-3.23295607813634e-05,0.1209722384810447,0,0,0
5626,266105.18417330296,2011-02-03 12:47:04,612.8332008756439,4,47,0.2878719568252563,4.199653148651123,16.83513962641254,16.877736691551913,69.57537221060365,57.07172668727058,-3.23295607813634e-05,0.1209722384810447,0,0,0
5627,266323.6512245002,2011-02-03 12:50:43,831.3002521079459,4,47,0.2376625686883926,4.199653148651123,16.851051380462454,16.877736691551913,69.64219772655478,57.07172668727058,0.0,0.1209722384810447,0,0,0
5628,266605.1444007487,2011-02-03 12:55:24,1112.7934283163422,4,47,0.1876337975263595,4.199653148651123,16.867618358542284,16.877736691551913,69.71177503805609,57.07172668727058,-3.23295607813634e-05,0.1209722384810447,0,0,0
5629,266986.1066883736,2011-02-03 13:01:45,1493.7557159763564,4,47,0.1376050263643264,4.199653148651123,16.884705226126567,16.877736691551913,69.7835357120055,57.07172668727058,-3.23295607813634e-05,0.1209722384810447,0,0,0
5630,267575.31551880913,2011-02-03 13:11:35,2082.964546411826,4,47,0.0875762552022934,4.199653148651123,16.90284072773035,16.877736691551913,69.85970041244003,57.07172668727058,0.0,0.1209722384810447,0,0,0
5631,268410.4417658085,2011-02-03 13:25:30,2918.090793381196,4,47,0.0498289167881011,4.199653148651123,16.9183718533876,16.877736691551913,69.92492736023371,57.07172668727058,-3.23295607813634e-05,0.1209722384810447,0,0,0
5632,268440.45495086315,2011-02-03 13:26:00,30.01490937451803,5,47,0.0,4.188807010650635,16.9183718533876,16.877736691551913,69.92492736023371,57.07172668727058,-9.70840483205393e-05,0.1209722384810447,0,0,0
5633,268470.45455432555,2011-02-03 13:26:30,60.0145128620562,5,47,0.0,4.187026023864746,16.9183718533876,16.877736691551913,69.92492736023371,57.07172668727058,-3.24249267578125e-05,0.1209722384810447,0,0,0
5634,268470.6567878541,2011-02-03 13:26:30,0.187432845322188,6,47,-1.9243103452026844e-05,4.187026023864746,16.9183718533876,16.8777366925538,69.92492736023371,57.07172669146551,0.0,0.1230734884738922,0,0,0
5635,268475.4848230834,2011-02-03 13:26:35,5.015468024538079,6,47,0.0001613661734154,4.186864376068115,16.918372549041926,16.87773669272093,69.92493027304893,57.07172669216528,-9.70840483205393e-05,0.1230734884738922,0,0,0
5636,268482.8589952589,2011-02-03 13:26:42,7.359156266772572,7,47,-1.0997490882873535,3.986611604690552,16.918372549041926,16.87998444941721,69.92493027304893,57.08071602001625,-0.0025577545166015,0.1230734884738922,0,0,0
5637,268512.87412366935,2011-02-03 13:27:12,37.37428470727043,7,47,-1.0997490882873535,3.9131155014038086,16.918372549041926,16.889152100086402,69.92493027304893,57.11692442756775,-0.0019749640487134,0.1230734884738922,0,0,0
5638,268542.88934571814,2011-02-03 13:27:42,67.38950672599401,7,47,-1.0992072820663452,3.832982063293457,16.918372549041926,16.898319814900635,69.92493027304893,57.15244244995445,-0.0022987364791333,0.1230734884738922,0,0,0
5639,268572.9043654477,2011-02-03 13:28:12,97.40452645555077,7,47,-1.099568486213684,3.747182607650757,16.918372549041926,16.907487393971987,69.92493027304893,57.187183670561645,-0.0021692276932299,0.1230734884738922,0,0,0
5640,268602.91946281074,2011-02-03 13:28:42,127.41962382360651,7,47,-1.099568486213684,3.675143241882324,16.918372549041926,16.916655022308227,69.92493027304893,57.22119303128091,-0.0017159938579425,0.1230734884738922,0,0,0
5641,268632.9346100431,2011-02-03 13:29:12,157.43477107598935,7,47,-1.099568486213684,3.620264053344727,16.918372549041926,16.925822606152952,69.92493027304893,57.25462259796986,-0.0012950897216796,0.1230734884738922,0,0,0
5642,268662.9496948949,2011-02-03 13:29:42,187.4498559027885,7,47,-1.099568486213684,3.578011989593506,16.918372549041926,16.934990260949704,69.92493027304893,57.28761154038634,-0.0010360718006268,0.1230734884738922,0,0,0
5643,268692.9648423328,2011-02-03 13:30:12,217.46500334564607,7,47,-1.0993878841400146,3.544015884399414,16.918372549041926,16.94415790034374,69.92493027304893,57.3202531270151,-0.0008094310760498,0.1230734884738922,0,0,0
5644,268722.9799123577,2011-02-03 13:30:43,247.4800733755668,7,47,-1.099568486213684,3.515362024307251,16.918372549041926,16.953325564726207,69.92493027304893,57.3526086092157,-0.0006799221155233,0.1230734884738922,0,0,0
5645,268752.99772454693,2011-02-03 13:31:13,277.49788557982976,7,47,-1.099568486213684,3.490593671798706,16.918372549041926,16.962494012688488,69.92493027304893,57.38472185943322,-0.0005827903514727,0.1230734884738922,0,0,0
5646,268783.0121992732,2011-02-03 13:31:43,307.5123603160955,7,47,-1.0993878841400146,3.468577146530152,16.918372549041926,16.971661431817356,69.92493027304893,57.41661737164022,-0.0005504131549969,0.1230734884738922,0,0,0
5647,268813.025251479,2011-02-03 13:32:13,337.5254124868904,7,47,-1.099568486213684,3.448665142059326,16.918372549041926,16.98082841302471,69.92493027304893,57.44832143139955,-0.0005827903514727,0.1230734884738922,0,0,0
5648,268843.0403675838,2011-02-03 13:32:43,367.5405285916439,7,47,-1.0993878841400146,3.4306960105896,16.918372549041926,16.9899960193858,69.92493027304893,57.4798549515926,-0.0004856109735555,0.1230734884738922,0,0,0
5649,268873.05562969745,2011-02-03 13:33:13,397.5557907153213,7,47,-1.099568486213684,3.4136979579925537,16.918372549041926,16.999163723393796,69.92493027304893,57.51122801667672,-0.0004532813909463,0.1230734884738922,0,0,0
5650,268903.0705858285,2011-02-03 13:33:43,427.570746846371,7,47,-1.0993878841400146,3.397671222686768,16.918372549041926,17.008331309594727,69.92493027304893,57.54244932677546,-0.0004209041653666,0.1230734884738922,0,0,0
5651,268933.0856752568,2011-02-03 13:34:13,457.5858362946883,7,47,-1.0997490882873535,3.3818063735961914,16.918372549041926,17.017498893765346,69.92493027304893,57.57352553922167,-0.0004532813909463,0.1230734884738922,0,0,0
5652,268963.1007944492,2011-02-03 13:34:43,487.6009554620747,7,47,-1.099568486213684,3.366427183151245,16.918372549041926,17.02666650994561,69.92493027304893,57.60446051755917,-0.0004856586456298,0.1230734884738922,0,0,0
5653,268993.1159582128,2011-02-03 13:35:13,517.6161192256084,7,47,-1.099568486213684,3.3513717651367188,16.918372549041926,17.035834092340313,69.92493027304893,57.63525518142716,-0.0004209041653666,0.1230734884738922,0,0,0
5654,269023.1310614053,2011-02-03 13:35:43,547.6312224131682,7,47,-1.0992072820663452,3.335669040679932,16.918372549041926,17.045001690612864,69.92493027304893,57.66590739284242,-0.0003885269106831,0.1230734884738922,0,0,0
5655,269053.14619243226,2011-02-03 13:36:13,577.6463534451248,7,47,-1.099568486213684,3.319156646728516,16.918372549041926,17.054169293789087,69.92493027304893,57.69641262518072,-0.0004532813909463,0.1230734884738922,0,0,0
5656,269083.1613127575,2011-02-03 13:36:43,607.6614738054844,7,47,-1.099568486213684,3.30151104927063,16.918372549041926,17.063336840281874,69.92493027304893,57.7267615730192,-0.0004856586456298,0.1230734884738922,0,0,0
5657,269113.176415103,2011-02-03 13:37:13,637.6765761158581,7,47,-1.0997490882873535,3.2833797931671143,16.918372549041926,17.07250437187179,69.92493027304893,57.75694669126977,-0.0005180359003134,0.1230734884738922,0,0,0
5658,269143.1915142004,2011-02-03 13:37:43,667.6916752382862,7,47,-1.0997490882873535,3.263953685760498,16.918372549041926,17.081671948837684,69.92493027304893,57.786959438486925,-0.0005180359003134,0.1230734884738922,0,0,0
5659,269173.2067571813,2011-02-03 13:38:13,697.7069182042167,7,47,-1.099568486213684,3.243232250213623,16.918372549041926,17.0908396057039,69.92493027304893,57.81678736411585,-0.0005504131549969,0.1230734884738922,0,0,0
5660,269203.22175313166,2011-02-03 13:38:43,727.7219141394708,7,47,-1.099568486213684,3.2204062938690186,16.918372549041926,17.100007148942854,69.92493027304893,57.84641799503069,-0.0006799221155233,0.1230734884738922,0,0,0
5661,269233.2372540655,2011-02-03 13:39:13,757.7374151134364,7,47,-1.099568486213684,3.1953139305114746,16.918372549041926,17.10917487194085,69.92493027304893,57.87582855461636,-0.0006799221155233,0.1230734884738922,0,0,0
5662,269263.2520781775,2011-02-03 13:39:43,787.7522392003917,7,47,-1.099568486213684,3.1676316261291504,16.918372549041926,17.118342360043133,69.92493027304893,57.90499601486063,-0.0007446765666827,0.1230734884738922,0,0,0
5663,269293.2670983632,2011-02-03 13:40:13,817.7672594211728,7,47,-1.099568486213684,3.136387586593628,16.918372549041926,17.127509927983642,69.92493027304893,57.93389472855666,-0.0009065627818927,0.1230734884738922,0,0,0
5664,269323.28222933,2011-02-03 13:40:43,847.7823903428546,7,47,-1.099568486213684,3.1019060611724854,16.918372549041926,17.136677533617576,69.92493027304893,57.96249382558748,-0.0009713172912597,0.1230734884738922,0,0,0
5665,269353.2973552442,2011-02-03 13:41:13,877.797516257056,7,47,-1.0993878841400146,3.061758279800415,16.918372549041926,17.14584522174909,69.92493027304893,57.9907508281251,-0.0011008263099938,0.1230734884738922,0,0,0
5666,269383.31448599003,2011-02-03 13:41:43,907.8146470380024,7,47,-1.099568486213684,3.014325857162476,16.918372549041926,17.155013467210487,69.92493027304893,58.01861137679951,-0.0013922214275225,0.1230734884738922,0,0,0
5667,269413.32765630033,2011-02-03 13:42:13,937.8278173382122,7,47,-1.0992072820663452,2.9576656818389893,16.918372549041926,17.164180410700776,69.92493027304893,58.04599091269372,-0.0015864849556237,0.1230734884738922,0,0,0
5668,269443.3426863656,2011-02-03 13:42:43,967.8428473784664,7,47,-1.0993878841400146,2.889349937438965,16.918372549041926,17.17334715352952,69.92493027304893,58.07280233614731,-0.0020073889754712,0.1230734884738922,0,0,0
5669,269473.3579023844,2011-02-03 13:43:13,997.8580634072612,7,47,-1.099568486213684,2.801769733428955,16.918372549041926,17.182514022643296,69.92493027304893,58.09889817350475,-0.0025578022468835,0.1230734884738922,0,0,0
5670,269502.7167124325,2011-02-03 13:43:42,1027.216873450369,7,47,-1.099568486213684,2.699943780899048,16.918372549041926,17.191481308559133,69.92493027304893,58.12357453388701,-0.0028491497505456,0.1230734884738922,0,0,0
5671,269562.7324795604,2011-02-03 13:44:42,60.01459016973071,8,47,0.0,3.770170211791992,16.918372549041926,17.191481308559133,69.92493027304893,58.12357453388701,0.0007446765666827,0.1230734884738922,0,0,0
5672,269562.92218308314,2011-02-03 13:44:43,0.187490032851106,9,47,-1.9243103452026844e-05,3.770170211791992,16.918372549041926,17.191481309561325,69.92493027304893,58.12357453766544,0.0,0.1246928721666336,0,0,0
5673,269567.7529141814,2011-02-03 13:44:48,5.018221251426632,9,47,0.0005225847125984,3.774541139602661,16.918373113962225,17.191481309812637,69.92493240436124,58.12357453861308,0.0006151676061563,0.1246928721666336,0,0,0
