Data_Point,Test_Time(s),Date_Time,Step_Time(s),Step_Index,Cycle_Index,Current(A),Voltage(V),Charge_Capacity(Ah),Discharge_Capacity(Ah),Charge_Energy(Wh),Discharge_Energy(Wh),dV/dt(V/s),Internal_Resistance(Ohm),Is_FC_Data,AC_Impedance(Ohm),ACI_Phase_Angle(Deg)
10016,338477.3344054648,2010-09-04 11:31:38,30.01528306085937,1,29,0.0,3.458540201187134,29.64938541586051,29.640424661000207,117.95923525586774,108.51752340994123,0.0006475448608398,0.0867940634489059,0,0,0
10017,338507.3494929081,2010-09-04 11:32:08,60.03037058939202,1,29,0.0,3.477966547012329,29.64938541586051,29.640424661000207,117.95923525586774,108.51752340994123,0.0004532813909463,0.0867940634489059,0,0,0
10018,338537.3646024164,2010-09-04 11:32:38,90.04548001249267,1,29,0.0,3.4922125339508057,29.64938541586051,29.640424661000207,117.95923525586774,108.51752340994123,0.0003561496851034,0.0867940634489059,0,0,0
10019,338567.3329179096,2010-09-04 11:33:08,120.01379550572196,1,29,0.0,3.502897024154663,29.64938541586051,29.640424661000207,117.95923525586774,108.51752340994123,0.0002266406954731,0.0867940634489059,0,0,0
10020,338597.33939191984,2010-09-04 11:33:38,30.01518489119035,2,29,0.550297200679779,3.630786657333374,29.65397202051725,29.640424661000207,117.97576273507832,108.51752340994123,0.0012303352123126,0.0867940634489059,0,0,0
10021,338627.3546294472,2010-09-04 11:34:08,60.03042230829144,2,29,0.5501165986061096,3.668182373046875,29.658558593566216,29.640424661000207,117.9925063103002,108.51752340994123,0.0008741855854168,0.0867940634489059,0,0,0
10022,338657.3697629553,2010-09-04 11:34:38,90.04555585150682,2,29,0.550297200679779,3.695864677429199,29.663145158338715,29.640424661000207,118.0093964786807,108.51752340994123,0.0006475448608398,0.0867940634489059,0,0,0
10023,338687.3849159371,2010-09-04 11:35:08,120.06070878304388,2,29,0.550297200679779,3.717881202697754,29.667731672839626,29.640424661000207,118.02639960372622,108.51752340994123,0.0005180359003134,0.0867940634489059,0,0,0
10024,338717.4000308989,2010-09-04 11:35:38,150.07582374996144,2,29,0.5499359965324402,3.73520302772522,29.67231819006125,29.640424661000207,118.04349314045967,108.51752340994123,0.0003885269106831,0.0867940634489059,0,0,0
10025,338747.4012623739,2010-09-04 11:36:08,180.07705536028254,2,29,0.5501165986061096,3.748477697372437,29.676902529117346,29.640424661000207,118.06064883954993,108.51752340994123,0.0003237724304199,0.0867940634489059,0,0,0
10026,338777.41494641954,2010-09-04 11:36:38,210.09073929061665,2,29,0.550297200679779,3.756895542144776,29.681488775447228,29.640424661000207,118.0778609953837,108.51752340994123,0.0001618862152099,0.0867940634489059,0,0,0
10027,338807.4299455328,2010-09-04 11:37:08,240.1057383987785,2,29,0.550297200679779,3.761914014816284,29.686075281977377,29.640424661000207,118.09510409390076,108.51752340994123,9.713172767078504e-05,0.0867940634489059,0,0,0
10028,338837.44508241426,2010-09-04 11:37:38,270.12087526527654,2,29,0.5501165986061096,3.765637397766113,29.69066187344632,29.640424661000207,118.11236698639664,108.51752340994123,9.713172767078504e-05,0.0867940634489059,0,0,0
10029,338867.46038143995,2010-09-04 11:38:08,300.1361742809001,2,29,0.5501165986061096,3.768875122070313,29.695248424340367,29.640424661000207,118.12964539115328,108.51752340994123,9.713172767078504e-05,0.0867940634489059,0,0,0
10030,338897.4754429135,2010-09-04 11:38:38,330.1512357544958,2,29,0.5501165986061096,3.771789073944092,29.6998352781218,29.640424661000207,118.14693950843804,108.51752340994123,9.713172767078504e-05,0.0867940634489059,0,0,0
10031,338927.49059816083,2010-09-04 11:39:08,360.166391006817,2,29,0.5499359965324402,3.775188684463501,29.70442257228468,29.640424661000207,118.16424964187912,108.51752340994123,9.713172767078504e-05,0.0867940634489059,0,0,0
10032,338957.5057632076,2010-09-04 11:39:38,390.18155607861127,2,29,0.5499359965324402,3.77810263633728,29.7090098156038,29.640424661000207,118.18157372195476,108.51752340994123,9.713172767078504e-05,0.0867940634489059,0,0,0
10033,338987.5209443043,2010-09-04 11:40:08,420.19673714526976,2,29,0.5501165986061096,3.78101658821106,29.71359705595909,29.640424661000207,118.19891189308125,108.51752340994123,3.237724376958795e-05,0.0867940634489059,0,0,0
10034,339017.53614501987,2010-09-04 11:40:38,450.2119378508745,2,29,0.5499359965324402,3.784254312515259,29.718183974297663,29.640424661000207,118.21626285731205,108.51752340994123,6.47544875391759e-05,0.0867940634489059,0,0,0
10035,339047.5513271292,2010-09-04 11:41:08,480.2271199801814,2,29,0.5501165986061096,3.787168264389038,29.722770400335776,29.640424661000207,118.23362584271914,108.51752340994123,6.47544875391759e-05,0.0867940634489059,0,0,0
10036,339077.566450868,2010-09-04 11:41:38,510.2422437089361,2,29,0.5501165986061096,3.7902441024780273,29.727356802842145,29.640424661000207,118.25100253004464,108.51752340994123,6.47544875391759e-05,0.0867940634489059,0,0,0
10037,339107.5817431417,2010-09-04 11:42:08,540.257535982757,2,29,0.5501165986061096,3.7933199405670166,29.731943342089387,29.640424661000207,118.26839343828593,108.51752340994123,9.713172767078504e-05,0.0867940634489059,0,0,0
10038,339137.5970556009,2010-09-04 11:42:38,570.2728484769733,2,29,0.5499359965324402,3.796072006225586,29.736529846221263,29.640424661000207,118.28579797670716,108.51752340994123,6.47544875391759e-05,0.0867940634489059,0,0,0
10039,339167.61196710577,2010-09-04 11:43:08,600.2877599417009,2,29,0.5499359965324402,3.799147844314575,29.741116323026525,29.640424661000207,118.3032161196346,108.51752340994123,6.47544875391759e-05,0.0867940634489059,0,0,0
10040,339197.62725193094,2010-09-04 11:43:38,630.3030447619451,2,29,0.5501165986061096,3.802223682403565,29.74570284087472,29.640424661000207,118.32064826810354,108.51752340994123,9.713172767078504e-05,0.0867940634489059,0,0,0
10041,339227.642318808,2010-09-04 11:44:08,660.3181116490331,2,29,0.5501165986061096,3.805461406707764,29.75028939860955,29.640424661000207,118.33809453936864,108.51752340994123,0.0001295089750783,0.0867940634489059,0,0,0
10042,339257.6574878848,2010-09-04 11:44:38,690.3332807308215,2,29,0.5499359965324402,3.808213472366333,29.75487592607695,29.640424661000207,118.35555497562343,108.51752340994123,3.237724376958795e-05,0.0867940634489059,0,0,0
10043,339287.6726359543,2010-09-04 11:45:08,720.3484287952281,2,29,0.5499359965324402,3.811613082885742,29.759462501894344,29.640424661000207,118.37303023179015,108.51752340994123,6.47544875391759e-05,0.0867940634489059,0,0,0
10044,339317.68781285547,2010-09-04 11:45:38,750.3636056864801,2,29,0.5499359965324402,3.815012693405152,29.764048939381475,29.640424661000207,118.39052011817132,108.51752340994123,6.47544875391759e-05,0.0867940634489059,0,0,0
10045,339347.7029787143,2010-09-04 11:46:08,780.3787715702982,2,29,0.5499359965324402,3.818412303924561,29.768635395418453,29.640424661000207,118.40802563642504,108.51752340994123,9.713172767078504e-05,0.0867940634489059,0,0,0
10046,339377.71816018195,2010-09-04 11:46:38,810.3939530279312,2,29,0.5501165986061096,3.82197380065918,29.77322188909593,29.640424661000207,118.4255471036688,108.51752340994123,9.713172767078504e-05,0.0867940634489059,0,0,0
10047,339407.7333215044,2010-09-04 11:47:08,840.4091143453685,2,29,0.550297200679779,3.825535297393799,29.777808329433448,29.640424661000207,118.44308428228145,108.51752340994123,9.713172767078504e-05,0.0867940634489059,0,0,0
10048,339437.74863092095,2010-09-04 11:47:38,870.4244237919892,2,29,0.5499359965324402,3.828934907913208,29.78239477298867,29.640424661000207,118.46063765134213,108.51752340994123,9.713172767078504e-05,0.0867940634489059,0,0,0
10049,339467.7636615477,2010-09-04 11:48:08,900.4394543936426,2,29,0.550297200679779,3.832658290863037,29.786981188340327,29.640424661000207,118.47820708750336,108.51752340994123,0.0001618862152099,0.0867940634489059,0,0,0
10050,339497.7789784328,2010-09-04 11:48:38,930.45477127379,2,29,0.5499359965324402,3.8357338905334473,29.791567663394645,29.640424661000207,118.49579253979157,108.51752340994123,9.713172767078504e-05,0.0867940634489059,0,0,0
10051,339527.7940504728,2010-09-04 11:49:08,960.4698433187328,2,29,0.5499359965324402,3.8392953872680655,29.79615403244551,29.640424661000207,118.51339325771256,108.51752340994123,9.713172767078504e-05,0.0867940634489059,0,0,0
10052,339557.809162763,2010-09-04 11:49:38,990.4849556089794,2,29,0.5501165986061096,3.842694997787476,29.8007404244024,29.640424661000207,118.5310093880356,108.51752340994123,9.713172767078504e-05,0.0867940634489059,0,0,0
10053,339587.82434151386,2010-09-04 11:50:08,1020.5001343498412,2,29,0.5501165986061096,3.845770835876465,29.80532685377269,29.640424661000207,118.54864058985964,108.51752340994123,9.713172767078504e-05,0.0867940634489059,0,0,0
10054,339617.83951043023,2010-09-04 11:50:38,1050.5153033013048,2,29,0.550297200679779,3.849170446395874,29.809913237576385,29.640424661000207,118.56628640131876,108.51752340994123,9.713172767078504e-05,0.0867940634489059,0,0,0
10055,339647.8548288092,2010-09-04 11:51:08,1080.530621675175,2,29,0.5499359965324402,3.852084398269653,29.81449957382323,29.640424661000207,118.58394654929263,108.51752340994123,6.47544875391759e-05,0.0867940634489059,0,0,0
10056,339677.86999260774,2010-09-04 11:51:38,1110.5457854737965,2,29,0.550297200679779,3.855322122573853,29.819086009891212,29.640424661000207,118.60162119608192,108.51752340994123,9.713172767078504e-05,0.0867940634489059,0,0,0
10057,339707.8850232946,2010-09-04 11:52:08,1140.560816140612,2,29,0.5501165986061096,3.858236074447632,29.82367240094253,29.640424661000207,118.61930948868611,108.51752340994123,6.47544875391759e-05,0.0867940634489059,0,0,0
10058,339737.9030183496,2010-09-04 11:52:38,1170.5788111905829,2,29,0.5501165986061096,3.861150026321411,29.828259214572952,29.640424661000207,118.6370126453877,108.51752340994123,9.713172767078504e-05,0.0867940634489059,0,0,0
10059,339767.9154097836,2010-09-04 11:53:09,1200.5912026296307,2,29,0.5501165986061096,3.863578319549561,29.832845236515247,29.640424661000207,118.65472548168646,108.51752340994123,3.237724376958795e-05,0.0867940634489059,0,0,0
10060,339797.9308101168,2010-09-04 11:53:39,1230.6066029577562,2,29,0.5501165986061096,3.86633038520813,29.83743174605204,29.640424661000207,118.67245219624998,108.51752340994123,6.47544875391759e-05,0.0867940634489059,0,0,0
10061,339827.9458287887,2010-09-04 11:54:09,1260.621621639702,2,29,0.5499359965324402,3.868596792221069,29.842018184930826,29.640424661000207,118.69019010559444,108.51752340994123,6.47544875391759e-05,0.0867940634489059,0,0,0
10062,339857.9609104275,2010-09-04 11:54:39,1290.6367032986057,2,29,0.5501165986061096,3.870863199234009,29.846604597388453,29.640424661000207,118.70793851837364,108.51752340994123,6.47544875391759e-05,0.0867940634489059,0,0,0
10063,339887.97604500334,2010-09-04 11:55:09,1320.6518378743947,2,29,0.5499359965324402,3.8729677200317374,29.851191023268843,29.640424661000207,118.72569695114542,108.51752340994123,3.237724376958795e-05,0.0867940634489059,0,0,0
10064,339917.99121678685,2010-09-04 11:55:39,1350.6670096228293,2,29,0.550297200679779,3.875072240829468,29.85577748821751,29.640424661000207,118.74346470053167,108.51752340994123,9.713172767078504e-05,0.0867940634489059,0,0,0
10065,339948.0064222443,2010-09-04 11:56:09,1380.6822152055893,2,29,0.5501165986061096,3.876691102981568,29.86036385034233,29.640424661000207,118.76124052842938,108.51752340994123,6.47544875391759e-05,0.0867940634489059,0,0,0
10066,339978.0215871106,2010-09-04 11:56:39,1410.697379966609,2,29,0.5499359965324402,3.878309965133667,29.86495018088463,29.640424661000207,118.77902397043876,108.51752340994123,3.237724376958795e-05,0.0867940634489059,0,0,0
10067,340008.03675306455,2010-09-04 11:57:09,1440.712545920602,2,29,0.5497553944587708,3.8797669410705566,29.869536544257564,29.640424661000207,118.796814692975,108.51752340994123,3.237724376958795e-05,0.0867940634489059,0,0,0
10068,340038.05190287833,2010-09-04 11:57:39,1470.7276957143188,2,29,0.5499359965324402,3.8812239170074463,29.87412294971455,29.640424661000207,118.8146122182502,108.51752340994123,3.237724376958795e-05,0.0867940634489059,0,0,0
10069,340068.06748606724,2010-09-04 11:58:09,1500.7432789382767,2,29,0.550297200679779,3.882519006729126,29.878709487325818,29.640424661000207,118.83241640008607,108.51752340994123,3.237724376958795e-05,0.0867940634489059,0,0,0
10070,340098.08247501,2010-09-04 11:58:39,1530.758267851029,2,29,0.5501165986061096,3.8838140964508057,29.88329590948693,29.640424661000207,118.85022597484728,108.51752340994123,6.47544875391759e-05,0.0867940634489059,0,0,0
10071,340128.097419868,2010-09-04 11:59:09,1560.77321270397,2,29,0.5501165986061096,3.8847854137420654,29.887882363651137,29.640424661000207,118.8680411339552,108.51752340994123,3.237724376958795e-05,0.0867940634489059,0,0,0
10072,340158.1125865538,2010-09-04 11:59:39,1590.7883793947992,2,29,0.5501165986061096,3.886080503463745,29.89246882016739,29.640424661000207,118.88586161757296,108.51752340994123,3.237724376958795e-05,0.0867940634489059,0,0,0
10073,340188.12775216694,2010-09-04 12:00:09,1620.803544997918,2,29,0.550297200679779,3.887213706970215,29.89705539496348,29.640424661000207,118.90368778245896,108.51752340994123,3.237724376958795e-05,0.0867940634489059,0,0,0
10074,340218.1429386822,2010-09-04 12:00:39,1650.8187315281934,2,29,0.5499359965324402,3.8881850242614746,29.901641853103097,29.640424661000207,118.92151851927098,108.51752340994123,6.47544875391759e-05,0.0867940634489059,0,0,0
10075,340248.1581008317,2010-09-04 12:01:09,1680.8338936626667,2,29,0.5501165986061096,3.889318227767944,29.906228341720848,29.640424661000207,118.93935439995768,108.51752340994123,3.237724376958795e-05,0.0867940634489059,0,0,0
10076,340278.1732856778,2010-09-04 12:01:39,1710.8490785338074,2,29,0.5501165986061096,3.890451431274414,29.910814839306056,29.640424661000207,118.95719523437508,108.51752340994123,3.237724376958795e-05,0.0867940634489059,0,0,0
10077,340308.1884379226,2010-09-04 12:02:09,1740.8642307936702,2,29,0.5501165986061096,3.891584634780884,29.91540131185719,29.640424661000207,118.97504091034313,108.51752340994123,6.47544875391759e-05,0.0867940634489059,0,0,0
10078,340338.2037475898,2010-09-04 12:02:39,1770.879540430766,2,29,0.5501165986061096,3.892555952072144,29.919987759124385,29.640424661000207,118.99289139580893,108.51752340994123,3.237724376958795e-05,0.0867940634489059,0,0,0
10079,340368.218773204,2010-09-04 12:03:09,1800.894566044989,2,29,0.5501165986061096,3.8935272693634033,29.924574239127452,29.640424661000207,119.01074694625213,108.51752340994123,3.237724376958795e-05,0.0867940634489059,0,0,0
10080,340398.233983278,2010-09-04 12:03:39,1830.9097761239552,2,29,0.5501165986061096,3.894660472869873,29.92916069864585,29.640424661000207,119.02860732665864,108.51752340994123,3.237724376958795e-05,0.0867940634489059,0,0,0
10081,340428.24911457056,2010-09-04 12:04:09,1860.924907401524,2,29,0.5501165986061096,3.895793676376343,29.93374713402807,29.640424661000207,119.0464719132237,108.51752340994123,3.237724376958795e-05,0.0867940634489059,0,0,0
10082,340458.2642997775,2010-09-04 12:04:39,1890.9400926185265,2,29,0.5501165986061096,3.8967649936676025,29.93833352466657,29.640424661000207,119.06434141262162,108.51752340994123,3.237724376958795e-05,0.0867940634489059,0,0,0
10083,340488.2794854557,2010-09-04 12:05:09,1920.955278311716,2,29,0.5501165986061096,3.897898197174072,29.942919923596836,29.640424661000207,119.08221584807328,108.51752340994123,6.47544875391759e-05,0.0867940634489059,0,0,0
10084,340518.29462202644,2010-09-04 12:05:39,1950.9704148975136,2,29,0.5497553944587708,3.898707628250122,29.9475063179248,29.640424661000207,119.10009530415482,108.51752340994123,-3.237724376958795e-05,0.0867940634489059,0,0,0
10085,340548.30979384505,2010-09-04 12:06:09,1980.985586681036,2,29,0.5501165986061096,3.899840831756592,29.95209282945456,29.640424661000207,119.11798026406596,108.51752340994123,3.237724376958795e-05,0.0867940634489059,0,0,0
10086,340578.32497473626,2010-09-04 12:06:39,2011.000767602332,2,29,0.5501165986061096,3.901135921478272,29.956679309782903,29.640424661000207,119.13587003178849,108.51752340994123,3.237724376958795e-05,0.0867940634489059,0,0,0
10087,340608.3401327154,2010-09-04 12:07:09,2041.015925571424,2,29,0.5499359965324402,3.9021072387695312,29.96126576013586,29.640424661000207,119.15376486901448,108.51752340994123,0.0,0.0867940634489059,0,0,0
10088,340638.35556583526,2010-09-04 12:07:39,2071.031358686264,2,29,0.5501165986061096,3.903240442276001,29.965852280044988,29.640424661000207,119.17166508340402,108.51752340994123,0.0,0.0867940634489059,0,0,0
10089,340668.3704927936,2010-09-04 12:08:09,2101.0462856345816,2,29,0.5501165986061096,3.9045355319976807,29.97043863660782,29.640424661000207,119.18956986878622,108.51752340994123,3.237724376958795e-05,0.0867940634489059,0,0,0
10090,340698.38568786514,2010-09-04 12:08:39,2131.0614807312068,2,29,0.5501165986061096,3.9056687355041504,29.97502513348587,29.640424661000207,119.20748034523984,108.51752340994123,3.237724376958795e-05,0.0867940634489059,0,0,0
10091,340728.40081511263,2010-09-04 12:09:09,2161.0766079486566,2,29,0.5499359965324402,3.90664005279541,29.97961157863057,29.640424661000207,119.2253958941877,108.51752340994123,-3.237724376958795e-05,0.0867940634489059,0,0,0
10092,340758.41597892635,2010-09-04 12:09:39,2191.091771767328,2,29,0.550297200679779,3.9080970287323,29.984198048760028,29.640424661000207,119.24331690959406,108.51752340994123,6.47544875391759e-05,0.0867940634489059,0,0,0
10093,340788.4311518477,2010-09-04 12:10:09,2221.1069447037235,2,29,0.5501165986061096,3.90906834602356,29.98878443361504,29.640424661000207,119.26124299046948,108.51752340994123,3.237724376958795e-05,0.0867940634489059,0,0,0
10094,340818.44633447827,2010-09-04 12:10:39,2251.122127324254,2,29,0.550297200679779,3.910525321960449,29.99337083615253,29.640424661000207,119.27917463379558,108.51752340994123,6.47544875391759e-05,0.0867940634489059,0,0,0
10095,340848.46149472304,2010-09-04 12:11:09,2281.137287558993,2,29,0.5501165986061096,3.911496639251709,29.997957314086037,29.640424661000207,119.29711202810726,108.51752340994123,3.237724376958795e-05,0.0867940634489059,0,0,0
10096,340878.4767864906,2010-09-04 12:11:39,2311.15257934159,2,29,0.5499359965324402,3.9126298427581783,30.00254378081336,29.640424661000207,119.31505500812256,108.51752340994123,0.0,0.0867940634489059,0,0,0
10097,340908.49186593894,2010-09-04 12:12:09,2341.1676588050213,2,29,0.5501165986061096,3.9139246940612793,30.00713022727778,29.640424661000207,119.33300358466394,108.51752340994123,0.0,0.0867940634489059,0,0,0
10098,340938.5070252013,2010-09-04 12:12:39,2371.182818057312,2,29,0.5501165986061096,3.915219783782959,30.011716730646533,29.640424661000207,119.35095813470367,108.51752340994123,0.0,0.0867940634489059,0,0,0
10099,340968.5222314106,2010-09-04 12:13:09,2401.198024281671,2,29,0.550297200679779,3.9166767597198486,30.01630325333979,29.640424661000207,119.36891836688838,108.51752340994123,6.47544875391759e-05,0.0867940634489059,0,0,0
10100,340998.5373423324,2010-09-04 12:13:39,2431.213135203507,2,29,0.5501165986061096,3.9178099632263184,30.02088962878583,29.640424661000207,119.38688393084394,108.51752340994123,6.47544875391759e-05,0.0867940634489059,0,0,0
10101,341028.5527574023,2010-09-04 12:14:09,2461.2285502483114,2,29,0.5501165986061096,3.919105052947998,30.02547612079774,29.640424661000207,119.40485581374148,108.51752340994123,3.237724376958795e-05,0.0867940634489059,0,0,0
10102,341058.5679159529,2010-09-04 12:14:39,2491.2437088239158,2,29,0.5499359965324402,3.9204001426696777,30.030062561390515,29.640424661000207,119.42283351008456,108.51752340994123,3.237724376958795e-05,0.0867940634489059,0,0,0
10103,341088.5829895165,2010-09-04 12:15:09,2521.258782367593,2,29,0.5499359965324402,3.921695232391357,30.03464904148197,29.640424661000207,119.4408173003529,108.51752340994123,0.0,0.0867940634489059,0,0,0
10104,341118.5981720569,2010-09-04 12:15:39,2551.273964907924,2,29,0.5499359965324402,3.922990322113037,30.03923540912845,29.640424661000207,119.45880678622498,108.51752340994123,3.237724376958795e-05,0.0867940634489059,0,0,0
10105,341148.61319675884,2010-09-04 12:16:09,2581.288989629924,2,29,0.5499359965324402,3.924447298049927,30.043821756497053,29.640424661000207,119.47680227601693,108.51752340994123,3.237724376958795e-05,0.0867940634489059,0,0,0
10106,341178.6283729483,2010-09-04 12:16:39,2611.3041657943645,2,29,0.5501165986061096,3.925904273986816,30.048408224910578,29.640424661000207,119.49480456792251,108.51752340994123,9.713172767078504e-05,0.0867940634489059,0,0,0
10107,341208.64353227586,2010-09-04 12:17:09,2641.319325116829,2,29,0.5501165986061096,3.927199363708496,30.052994619250786,29.640424661000207,119.51281265866808,108.51752340994123,3.237724376958795e-05,0.0867940634489059,0,0,0
10108,341238.6587013576,2010-09-04 12:17:39,2671.3344942086437,2,29,0.5501165986061096,3.928494453430176,30.05758102210153,29.640424661000207,119.53082714077463,108.51752340994123,3.237724376958795e-05,0.0867940634489059,0,0,0
10109,341268.6738739732,2010-09-04 12:18:09,2701.3496668192265,2,29,0.5501165986061096,3.929789543151856,30.062167488657888,29.640424661000207,119.54884823329284,108.51752340994123,0.0,0.0867940634489059,0,0,0
10110,341298.68906008743,2010-09-04 12:18:39,2731.364852933465,2,29,0.5501165986061096,3.931246519088745,30.06675387983903,29.640424661000207,119.5668754372998,108.51752340994123,3.237724376958795e-05,0.0867940634489059,0,0,0
10111,341328.7042291492,2010-09-04 12:19:09,2761.380022000216,2,29,0.550297200679779,3.9327034950256343,30.071340275497644,29.640424661000207,119.58490908930824,108.51752340994123,3.237724376958795e-05,0.0867940634489059,0,0,0
10112,341358.7196225651,2010-09-04 12:19:39,2791.395415406089,2,29,0.5501165986061096,3.9339985847473145,30.07592672446989,29.640424661000207,119.60294950280044,108.51752340994123,0.0,0.0867940634489059,0,0,0
10113,341388.7345458142,2010-09-04 12:20:09,2821.4103386702245,2,29,0.5499359965324402,3.935617446899414,30.080513108444944,29.640424661000207,119.62099626328644,108.51752340994123,3.237724376958795e-05,0.0867940634489059,0,0,0
10114,341418.7498016422,2010-09-04 12:20:39,2851.425594498211,2,29,0.550297200679779,3.937074422836304,30.085099614168698,29.640424661000207,119.63904993976058,108.51752340994123,6.47544875391759e-05,0.0867940634489059,0,0,0
10115,341448.76501620235,2010-09-04 12:21:09,2881.440809053333,2,29,0.5499359965324402,3.938369512557984,30.089686045468607,29.640424661000207,119.65711009636718,108.51752340994123,0.0,0.0867940634489059,0,0,0
10116,341478.7801553545,2010-09-04 12:21:39,2911.455948205528,2,29,0.550297200679779,3.940150260925293,30.094272422207464,29.640424661000207,119.6751766842567,108.51752340994123,9.713172767078504e-05,0.0867940634489059,0,0,0
10117,341508.7953521604,2010-09-04 12:22:09,2941.4711450264504,2,29,0.5499359965324402,3.9414453506469727,30.098858845093527,29.640424661000207,119.69325026951242,108.51752340994123,3.237724376958795e-05,0.0867940634489059,0,0,0
10118,341538.8105819184,2010-09-04 12:22:39,2971.4863747594004,2,29,0.5501165986061096,3.9429023265838623,30.10344532847092,29.640424661000207,119.71133077946544,108.51752340994123,6.47544875391759e-05,0.0867940634489059,0,0,0
10119,341568.8255947608,2010-09-04 12:23:09,3001.5013876068047,2,29,0.5501165986061096,3.944359302520752,30.10803167470209,29.640424661000207,119.7294175793736,108.51752340994123,6.47544875391759e-05,0.0867940634489059,0,0,0
10120,341598.84088615247,2010-09-04 12:23:39,3031.516678998427,2,29,0.5499359965324402,3.9458162784576416,30.11261807786548,29.640424661000207,119.74751153618486,108.51752340994123,6.47544875391759e-05,0.0867940634489059,0,0,0
10121,341628.8559155812,2010-09-04 12:24:09,3061.5317084522194,2,29,0.5501165986061096,3.947435140609741,30.117204521374383,29.640424661000207,119.76561250323844,108.51752340994123,3.237724376958795e-05,0.0867940634489059,0,0,0
10122,341658.87166130013,2010-09-04 12:24:39,3091.5474541410904,2,29,0.5501165986061096,3.948892116546631,30.121791034682957,29.640424661000207,119.78372076075202,108.51752340994123,3.237724376958795e-05,0.0867940634489059,0,0,0
10123,341688.8734373824,2010-09-04 12:25:09,3121.549230223403,2,29,0.5501165986061096,3.9505109786987305,30.12637540479068,29.640424661000207,119.80182762250986,108.51752340994123,6.47544875391759e-05,0.0867940634489059,0,0,0
10124,341718.885814972,2010-09-04 12:25:40,3151.561607827972,2,29,0.5501165986061096,3.95212984085083,30.130961439931696,29.640424661000207,119.81994821589916,108.51752340994123,3.237724376958795e-05,0.0867940634489059,0,0,0
10125,341748.9012547033,2010-09-04 12:26:10,3181.5770475593017,2,29,0.550297200679779,3.9537487030029297,30.13554878008493,29.640424661000207,119.83808123550251,108.51752340994123,9.713172767078504e-05,0.0867940634489059,0,0,0
10126,341778.9162444982,2010-09-04 12:26:40,3211.5920373442277,2,29,0.550297200679779,3.9552056789398193,30.140136108131824,29.640424661000207,119.85622156528568,108.51752340994123,3.237724376958795e-05,0.0867940634489059,0,0,0
10127,341808.9314567526,2010-09-04 12:27:10,3241.6072495936023,2,29,0.5501165986061096,3.956824541091919,30.14472270417385,29.640424661000207,119.8743663560198,108.51752340994123,3.237724376958795e-05,0.0867940634489059,0,0,0
10128,341838.9464758105,2010-09-04 12:27:40,3271.622268651485,2,29,0.5501165986061096,3.9584434032440186,30.14930914327732,29.640424661000207,119.8925178349821,108.51752340994123,3.237724376958795e-05,0.0867940634489059,0,0,0
10129,341868.961649584,2010-09-04 12:28:10,3301.637442424967,2,29,0.5499359965324402,3.960224151611328,30.15389564505608,29.640424661000207,119.91067719963644,108.51752340994123,6.47544875391759e-05,0.0867940634489059,0,0,0
10130,341898.9768423648,2010-09-04 12:28:40,3331.6526351957955,2,29,0.5499359965324402,3.9616811275482178,30.158482094548297,29.640424661000207,119.92884404890532,108.51752340994123,0.0,0.0867940634489059,0,0,0
10131,341928.9920153263,2010-09-04 12:29:10,3361.6678081672785,2,29,0.5501165986061096,3.9634618759155273,30.163068549485423,29.640424661000207,119.94701866429756,108.51752340994123,3.237724376958795e-05,0.0867940634489059,0,0,0
10132,341959.00715126045,2010-09-04 12:29:40,3391.6829441114783,2,29,0.550297200679779,3.965404510498047,30.16765503978313,29.640424661000207,119.96520131271316,108.51752340994123,3.237724376958795e-05,0.0867940634489059,0,0,0
10133,341989.0223196455,2010-09-04 12:30:10,3421.698112511567,2,29,0.5501165986061096,3.9670233726501465,30.17224153754308,29.640424661000207,119.98339197698668,108.51752340994123,3.237724376958795e-05,0.0867940634489059,0,0,0
10134,342019.03763731767,2010-09-04 12:30:40,3451.713430158626,2,29,0.5501165986061096,3.968804121017456,30.17682805055426,29.640424661000207,120.00159065907287,108.51752340994123,3.237724376958795e-05,0.0867940634489059,0,0,0
10135,342049.05288844387,2010-09-04 12:31:10,3481.728681309957,2,29,0.5501165986061096,3.9705848693847656,30.181414553825967,29.640424661000207,120.0197974989641,108.51752340994123,9.713172767078504e-05,0.0867940634489059,0,0,0
10136,342079.06783250987,2010-09-04 12:31:40,3511.7436253408496,2,29,0.5501165986061096,3.972365617752075,30.18600096429548,29.640424661000207,120.03801228092128,108.51752340994123,3.237724376958795e-05,0.0867940634489059,0,0,0
10137,342109.08302994235,2010-09-04 12:32:10,3541.758822788334,2,29,0.5499359965324402,3.9741463661193848,30.19058752219154,29.640424661000207,120.05623605881904,108.51752340994123,3.237724376958795e-05,0.0867940634489059,0,0,0
10138,342139.0981797711,2010-09-04 12:32:40,3571.773972612126,2,29,0.5501165986061096,3.976089000701904,30.195174046564517,29.640424661000207,120.07446823208,108.51752340994123,6.47544875391759e-05,0.0867940634489059,0,0,0
10139,342169.1133608077,2010-09-04 12:33:10,3601.7891536787843,2,29,0.550297200679779,3.977869749069214,30.19976057979193,29.640424661000207,120.09270902396706,108.51752340994123,3.237724376958795e-05,0.0867940634489059,0,0,0
10140,342199.1285250224,2010-09-04 12:33:40,3631.804317853343,2,29,0.5501165986061096,3.979812383651733,30.20434704476169,29.640424661000207,120.11095800316208,108.51752340994123,3.237724376958795e-05,0.0867940634489059,0,0,0
10141,342229.1437106103,2010-09-04 12:34:10,3661.8195034512937,2,29,0.5501165986061096,3.981755018234253,30.20893347233213,29.640424661000207,120.12921600060407,108.51752340994123,6.47544875391759e-05,0.0867940634489059,0,0,0
10142,342259.1588666295,2010-09-04 12:34:40,3691.834659460502,2,29,0.5501165986061096,3.9838595390319824,30.213519932741264,29.640424661000207,120.14748303174176,108.51752340994123,6.47544875391759e-05,0.0867940634489059,0,0,0
10143,342289.1740380221,2010-09-04 12:35:10,3721.8498308680873,2,29,0.550297200679779,3.985802173614502,30.21810632483696,29.640424661000207,120.16575872075592,108.51752340994123,6.47544875391759e-05,0.0867940634489059,0,0,0
10144,342319.1892166577,2010-09-04 12:35:40,3751.865009508698,2,29,0.5501165986061096,3.987906694412232,30.22269277997832,29.640424661000207,120.18404374448326,108.51752340994123,6.47544875391759e-05,0.0867940634489059,0,0,0
10145,342349.2043788323,2010-09-04 12:36:10,3781.8801716732473,2,29,0.550297200679779,3.989849328994751,30.22727915297329,29.640424661000207,120.20233743706348,108.51752340994123,9.713172767078504e-05,0.0867940634489059,0,0,0
10146,342379.2195823849,2010-09-04 12:36:40,3811.8953752459975,2,29,0.5501165986061096,3.9917919635772714,30.231865547789752,29.640424661000207,120.22064045760789,108.51752340994123,6.47544875391759e-05,0.0867940634489059,0,0,0
10147,342409.23472159734,2010-09-04 12:37:10,3841.9105144433047,2,29,0.550297200679779,3.993896484375,30.236451922878487,29.640424661000207,120.23895264351462,108.51752340994123,6.47544875391759e-05,0.0867940634489059,0,0,0
10148,342439.2499830343,2010-09-04 12:37:40,3871.925775885284,2,29,0.5501165986061096,3.9956769943237305,30.2410383052895,29.640424661000207,120.25727420229204,108.51752340994123,0.0,0.0867940634489059,0,0,0
10149,342469.2650308037,2010-09-04 12:38:10,3901.940823654724,2,29,0.5499359965324402,3.99778151512146,30.245624706582404,29.640424661000207,120.27560523875698,108.51752340994123,3.237724376958795e-05,0.0867940634489059,0,0,0
10150,342499.28024645656,2010-09-04 12:38:40,3931.956039297557,2,29,0.5501165986061096,3.9998860359191895,30.250211108111053,29.640424661000207,120.29394555948936,108.51752340994123,3.237724376958795e-05,0.0867940634489059,0,0,0
10151,342529.29544887145,2010-09-04 12:39:10,3961.9712417174346,2,29,0.5501165986061096,4.001990795135498,30.254797565004218,29.640424661000207,120.31229568578374,108.51752340994123,6.47544875391759e-05,0.0867940634489059,0,0,0
10152,342559.31058758753,2010-09-04 12:39:40,3991.9863804385545,2,29,0.5501165986061096,4.003933429718018,30.259384022657017,29.640424661000207,120.33065539626514,108.51752340994123,0.0,0.0867940634489059,0,0,0
10153,342589.3263195322,2010-09-04 12:40:10,4022.0021123781576,2,29,0.550297200679779,4.006199836730957,30.26397051635993,29.640424661000207,120.3490249336802,108.51752340994123,9.71794142969884e-05,0.0867940634489059,0,0,0
10154,342619.32685035083,2010-09-04 12:40:40,4052.002643327215,2,29,0.5499359965324402,4.008304119110107,30.26855473211909,29.640424661000207,120.36739512577552,108.51752340994123,6.47544875391759e-05,0.0867940634489059,0,0,0
10155,342649.34047537943,2010-09-04 12:41:10,4082.016268230436,2,29,0.5501165986061096,4.010408878326416,30.273140902430352,29.640424661000207,120.38578290585784,108.51752340994123,6.47544875391759e-05,0.0867940634489059,0,0,0
10156,342679.3556807517,2010-09-04 12:41:40,4112.031473602671,2,29,0.5501165986061096,4.012675285339356,30.277727337601487,29.640424661000207,120.40418167228984,108.51752340994123,6.47544875391759e-05,0.0867940634489059,0,0,0
10157,342709.3708181294,2010-09-04 12:42:10,4142.046610960394,2,29,0.5497553944587708,4.014779567718506,30.28231382202015,29.640424661000207,120.42259072079158,108.51752340994123,6.47544875391759e-05,0.0867940634489059,0,0,0
10158,342739.38598707085,2010-09-04 12:42:40,4172.061779901833,2,29,0.5499359965324402,4.017045974731445,30.286900268934303,29.640424661000207,120.44100975451276,108.51752340994123,6.47544875391759e-05,0.0867940634489059,0,0,0
10159,342769.4011751651,2010-09-04 12:43:10,4202.076967996005,2,29,0.5499359965324402,4.019150733947754,30.29148669796484,29.640424661000207,120.45943893300196,108.51752340994123,3.24249267578125e-05,0.0867940634489059,0,0,0
10160,342799.41636491835,2010-09-04 12:43:40,4232.092157754326,2,29,0.5501165986061096,4.021578788757324,30.29607311174775,29.640424661000207,120.47787826074884,108.51752340994123,6.47544875391759e-05,0.0867940634489059,0,0,0
10161,342829.4315059452,2010-09-04 12:44:10,4262.107298776181,2,29,0.5501165986061096,4.023845195770264,30.300659551692007,29.640424661000207,120.49632814200244,108.51752340994123,6.47544875391759e-05,0.0867940634489059,0,0,0
10162,342859.4466660296,2010-09-04 12:44:40,4292.122458860545,2,29,0.5499359965324402,4.025949954986572,30.30524593028608,29.640424661000207,120.51478823215308,108.51752340994123,0.0,0.0867940634489059,0,0,0
10163,342889.4618580235,2010-09-04 12:45:10,4322.137650854437,2,29,0.5499359965324402,4.028378009796143,30.309832300197144,29.640424661000207,120.53325892358572,108.51752340994123,6.47544875391759e-05,0.0867940634489059,0,0,0
10164,342919.47701858403,2010-09-04 12:45:40,4352.152811414988,2,29,0.5499359965324402,4.030644416809082,30.314418778842327,29.640424661000207,120.5517407255269,108.51752340994123,6.47544875391759e-05,0.0867940634489059,0,0,0
10165,342949.49218533,2010-09-04 12:46:10,4382.16797817098,2,29,0.5501165986061096,4.033234596252441,30.31900519895017,29.640424661000207,120.57023312290484,108.51752340994123,6.47544875391759e-05,0.0867940634489059,0,0,0
10166,342979.50736602576,2010-09-04 12:46:40,4412.183158871726,2,29,0.550297200679779,4.035501003265381,30.32359157026232,29.640424661000207,120.58873618420532,108.51752340994123,3.24249267578125e-05,0.0867940634489059,0,0,0
10167,343009.5226686704,2010-09-04 12:47:10,4442.198461521408,2,29,0.5501165986061096,4.037929058074951,30.32817801506443,29.640424661000207,120.60725055102615,108.51752340994123,6.47544875391759e-05,0.0867940634489059,0,0,0
10168,343039.5378522583,2010-09-04 12:47:40,4472.21364510935,2,29,0.5501165986061096,4.04035758972168,30.332764422815025,29.640424661000207,120.6257758747379,108.51752340994123,6.47544875391759e-05,0.0867940634489059,0,0,0
10169,343069.55284598307,2010-09-04 12:48:10,4502.228638829081,2,29,0.5499359965324402,4.04278564453125,30.33735077769687,29.640424661000207,120.64431219998558,108.51752340994123,6.47544875391759e-05,0.0867940634489059,0,0,0
10170,343099.56792033376,2010-09-04 12:48:40,4532.243713179771,2,29,0.5501165986061096,4.0452141761779785,30.34193713127565,29.640424661000207,120.6628598598227,108.51752340994123,6.47544875391759e-05,0.0867940634489059,0,0,0
10171,343129.58322543453,2010-09-04 12:49:10,4562.259018265523,2,29,0.5501165986061096,4.047804355621338,30.34652355473285,29.640424661000207,120.6814192654656,108.51752340994123,6.47544875391759e-05,0.0867940634489059,0,0,0
10172,343159.59840873175,2010-09-04 12:49:40,4592.274201572765,2,29,0.5501165986061096,4.050556182861328,30.35111000403729,29.640424661000207,120.69999037866567,108.51752340994123,9.70840483205393e-05,0.0867940634489059,0,0,0
10173,343189.6135822797,2010-09-04 12:50:10,4622.2893751156735,2,29,0.5501165986061096,4.052822589874268,30.355696441206387,29.640424661000207,120.718573001046,108.51752340994123,6.47544875391759e-05,0.0867940634489059,0,0,0
10174,343219.628738319,2010-09-04 12:50:40,4652.304531159968,2,29,0.5501165986061096,4.055412769317627,30.36028289082133,29.640424661000207,120.7371674914728,108.51752340994123,6.47544875391759e-05,0.0867940634489059,0,0,0
10175,343249.6439106489,2010-09-04 12:51:10,4682.319703489851,2,29,0.5501165986061096,4.058002948760986,30.364869347025344,29.640424661000207,120.7557739157686,108.51752340994123,6.47544875391759e-05,0.0867940634489059,0,0,0
10176,343279.65922301274,2010-09-04 12:51:40,4712.335015853743,2,29,0.5501165986061096,4.060593128204346,30.3694558685509,29.640424661000207,120.7743926042932,108.51752340994123,3.23295607813634e-05,0.0867940634489059,0,0,0
10177,343309.67427269195,2010-09-04 12:52:10,4742.350065532944,2,29,0.5499359965324402,4.063345432281494,30.374042263799016,29.640424661000207,120.79302246265034,108.51752340994123,9.71794142969884e-05,0.0867940634489059,0,0,0
10178,343339.68941830023,2010-09-04 12:52:40,4772.365211141228,2,29,0.5501165986061096,4.0659356117248535,30.378628715817097,29.640424661000207,120.811664861283,108.51752340994123,6.47544875391759e-05,0.0867940634489059,0,0,0
10179,343369.7045969709,2010-09-04 12:53:10,4802.380389806903,2,29,0.5501165986061096,4.068849563598633,30.38321513950415,29.640424661000207,120.83031949055687,108.51752340994123,9.71794142969884e-05,0.0867940634489059,0,0,0
10180,343399.7197713409,2010-09-04 12:53:40,4832.395564186896,2,29,0.5501165986061096,4.071439743041992,30.387801550968003,29.640424661000207,120.84898646381087,108.51752340994123,6.47544875391759e-05,0.0867940634489059,0,0,0
10181,343429.7350634994,2010-09-04 12:54:10,4862.410856350442,2,29,0.5501165986061096,4.074191570281982,30.39238800600087,29.640424661000207,120.86766615089708,108.51752340994123,9.70840483205393e-05,0.0867940634489059,0,0,0
10182,343459.7500904069,2010-09-04 12:54:40,4892.425883272927,2,29,0.550297200679779,4.076943874359131,30.396974430452165,29.640424661000207,120.88635840719586,108.51752340994123,6.47544875391759e-05,0.0867940634489059,0,0,0
10183,343489.7652537293,2010-09-04 12:55:10,4922.441046600374,2,29,0.5501165986061096,4.07985782623291,30.40156083460148,29.640424661000207,120.90506338636108,108.51752340994123,6.47544875391759e-05,0.0867940634489059,0,0,0
10184,343519.7806299574,2010-09-04 12:55:40,4952.456422798359,2,29,0.5501165986061096,4.0826096534729,30.4061472823138,29.640424661000207,120.92378140319332,108.51752340994123,6.47544875391759e-05,0.0867940634489059,0,0,0
10185,343549.7956378273,2010-09-04 12:56:10,4982.47143069342,2,29,0.5499359965324402,4.085361957550049,30.410733723936083,29.640424661000207,120.94251240216936,108.51752340994123,6.47544875391759e-05,0.0867940634489059,0,0,0
10186,343579.8108106084,2010-09-04 12:56:40,5012.486603459391,2,29,0.5501165986061096,4.088113784790039,30.415320137183578,29.640424661000207,120.96125641131891,108.51752340994123,6.47544875391759e-05,0.0867940634489059,0,0,0
10187,343609.8261186364,2010-09-04 12:57:10,5042.501911507527,2,29,0.550297200679779,4.091351509094238,30.41990654745725,29.640424661000207,120.98001369186768,108.51752340994123,9.70840483205393e-05,0.0867940634489059,0,0,0
10188,343639.8417560856,2010-09-04 12:57:40,5072.51754893658,2,29,0.5499359965324402,4.094103813171387,30.424493026091906,29.640424661000207,120.99878456381025,108.51752340994123,6.47544875391759e-05,0.0867940634489059,0,0,0
10189,343669.8435674408,2010-09-04 12:58:10,5102.5193603720045,2,29,0.5499359965324402,4.096855640411377,30.429077340715946,29.640424661000207,121.017560090041,108.51752340994123,3.23295607813634e-05,0.0867940634489059,0,0,0
10190,343699.8559278976,2010-09-04 12:58:41,5132.531720738611,2,29,0.5501165986061096,4.100093364715576,30.433663311709665,29.640424661000207,121.03635600894684,108.51752340994123,9.70840483205393e-05,0.0867940634489059,0,0,0
10191,343729.8713350527,2010-09-04 12:59:11,5162.54712789375,2,29,0.5499359965324402,4.103007316589356,30.438249632678826,29.640424661000207,121.05516704733608,108.51752340994123,6.47544875391759e-05,0.0867940634489059,0,0,0
10192,343759.88630781026,2010-09-04 12:59:41,5192.562100661264,2,29,0.5499359965324402,4.105921268463135,30.442835318345004,29.640424661000207,121.07398926266887,108.51752340994123,6.47544875391759e-05,0.0867940634489059,0,0,0
10193,343789.9015380244,2010-09-04 13:00:11,5222.577330875412,2,29,0.5499359965324402,4.109158992767334,30.44742079261185,29.640424661000207,121.0928245571328,108.51752340994123,6.47544875391759e-05,0.0867940634489059,0,0,0
10194,343819.91671202844,2010-09-04 13:00:41,5252.592505741618,2,29,0.5499359965324402,4.112235069274902,30.45200640153945,29.640424661000207,121.11167454827374,108.51752340994123,6.47544875391759e-05,0.0867940634489059,0,0,0
10195,343849.9317185752,2010-09-04 13:01:11,5282.607511426169,2,29,0.5499359965324402,4.1153106689453125,30.456591917299985,29.640424661000207,121.13053833076656,108.51752340994123,9.71794142969884e-05,0.0867940634489059,0,0,0
10196,343879.9469411753,2010-09-04 13:01:41,5312.622734046392,2,29,0.5497553944587708,4.118386268615723,30.461177491951062,29.640424661000207,121.14941674237043,108.51752340994123,6.47544875391759e-05,0.0867940634489059,0,0,0
10197,343909.96218733425,2010-09-04 13:02:11,5342.637980200268,2,29,0.5499359965324402,4.121623992919922,30.465763007577937,29.640424661000207,121.1683094294209,108.51752340994123,6.47544875391759e-05,0.0867940634489059,0,0,0
10198,343939.97723913874,2010-09-04 13:02:41,5372.653031994741,2,29,0.550297200679779,4.12502384185791,30.47034905776229,29.640424661000207,121.18721895924696,108.51752340994123,9.71794142969884e-05,0.0867940634489059,0,0,0
10199,343969.9925456129,2010-09-04 13:03:11,5402.668338463941,2,29,0.5501165986061096,4.12809944152832,30.474935534984024,29.640424661000207,121.20614507732706,108.51752340994123,6.47544875391759e-05,0.0867940634489059,0,0,0
10200,344000.0077231758,2010-09-04 13:03:41,5432.6835160268665,2,29,0.550297200679779,4.131499290466309,30.479521960062424,29.640424661000207,121.22508590303627,108.51752340994123,9.71794142969884e-05,0.0867940634489059,0,0,0
10201,344030.0227848399,2010-09-04 13:04:11,5462.698577685926,2,29,0.5499359965324402,4.134737014770508,30.4841084994086,29.640424661000207,121.244042285248,108.51752340994123,9.71794142969884e-05,0.0867940634489059,0,0,0
10202,344060.0380729634,2010-09-04 13:04:41,5492.713865814415,2,29,0.5501165986061096,4.137812614440918,30.488695001128345,29.640424661000207,121.26301368464688,108.51752340994123,6.47544875391759e-05,0.0867940634489059,0,0,0
10203,344090.0531275298,2010-09-04 13:05:11,5522.728920380795,2,29,0.5499359965324402,4.141374111175537,30.493281520206537,29.640424661000207,121.28200041804766,108.51752340994123,9.70840483205393e-05,0.0867940634489059,0,0,0
10204,344120.06828279217,2010-09-04 13:05:41,5552.744075633116,2,29,0.5501165986061096,4.144773960113525,30.49786809996799,29.640424661000207,121.3010028426673,108.51752340994123,6.47544875391759e-05,0.0867940634489059,0,0,0
10205,344150.0834668562,2010-09-04 13:06:11,5582.759259697245,2,29,0.550297200679779,4.148497104644775,30.50245454737741,29.640424661000207,121.32002059854716,108.51752340994123,0.0001618385285837,0.0867940634489059,0,0,0
10206,344180.0986368854,2010-09-04 13:06:41,5612.774429731408,2,29,0.5499359965324402,4.151573181152344,30.50704101737825,29.640424661000207,121.339054104393,108.51752340994123,3.24249267578125e-05,0.0867940634489059,0,0,0
10207,344210.1138081927,2010-09-04 13:07:11,5642.789601033731,2,29,0.5497553944587708,4.154972553253174,30.511627438922684,29.640424661000207,121.3581032002791,108.51752340994123,6.47544875391759e-05,0.0867940634489059,0,0,0
10208,344240.1289792645,2010-09-04 13:07:41,5672.804772105479,2,29,0.5501165986061096,4.158534049987793,30.516213907520736,29.640424661000207,121.37716847492824,108.51752340994123,6.47544875391759e-05,0.0867940634489059,0,0,0
10209,344270.14417249645,2010-09-04 13:08:11,5702.819965337456,2,29,0.5501165986061096,4.162095546722412,30.52080044248927,29.640424661000207,121.39625011918469,108.51752340994123,6.47544875391759e-05,0.0867940634489059,0,0,0
10210,344300.15937536245,2010-09-04 13:08:41,5732.835168233521,2,29,0.5501165986061096,4.165657043457031,30.52538693978301,29.640424661000207,121.41534777569272,108.51752340994123,9.70840483205393e-05,0.0867940634489059,0,0,0
10211,344330.1745554116,2010-09-04 13:09:11,5762.850348262593,2,29,0.5499359965324402,4.16905689239502,30.529973376561816,29.640424661000207,121.43446156001174,108.51752340994123,6.47544875391759e-05,0.0867940634489059,0,0,0
10212,344360.1898284625,2010-09-04 13:09:41,5792.865621333554,2,29,0.5501165986061096,4.1727800369262695,30.534559905458536,29.640424661000207,121.45359218151944,108.51752340994123,9.70840483205393e-05,0.0867940634489059,0,0,0
10213,344390.20486323955,2010-09-04 13:10:11,5822.880656090564,2,29,0.5499359965324402,4.176503658294678,30.539146256285363,29.640424661000207,121.47273859532189,108.51752340994123,9.71794142969884e-05,0.0867940634489059,0,0,0
10214,344420.2201449821,2010-09-04 13:10:41,5852.895937853188,2,29,0.5499359965324402,4.180226802825928,30.54373273846918,29.640424661000207,121.49190235154924,108.51752340994123,0.0001295089750783,0.0867940634489059,0,0,0
10215,344450.2351889822,2010-09-04 13:11:11,5882.910981853234,2,29,0.5501165986061096,4.183788299560547,30.54831921315988,29.640424661000207,121.51108296592422,108.51752340994123,6.47544875391759e-05,0.0867940634489059,0,0,0
10216,344480.2503631967,2010-09-04 13:11:41,5912.926156067816,2,29,0.5499359965324402,4.187511920928955,30.55290571450679,29.640424661000207,121.53028070149954,108.51752340994123,9.71794142969884e-05,0.0867940634489059,0,0,0
10217,344510.26557633333,2010-09-04 13:12:11,5942.941369174327,2,29,0.5501165986061096,4.191397190093994,30.55749215613148,29.640424661000207,121.54949538768392,108.51752340994123,0.0001295089750783,0.0867940634489059,0,0,0
10218,344540.28072031256,2010-09-04 13:12:41,5972.956513163577,2,29,0.5501165986061096,4.195281982421875,30.562078661023428,29.640424661000207,121.56872770764733,108.51752340994123,0.0001294136018259,0.0867940634489059,0,0,0
10219,344570.2959198051,2010-09-04 13:13:11,6002.971712646134,2,29,0.5501165986061096,4.199005603790283,30.566665136597045,29.640424661000207,121.5879772398884,108.51752340994123,9.71794142969884e-05,0.0867940634489059,0,0,0
10220,344578.0770542614,2010-09-04 13:13:19,6010.752847102393,2,29,0.5501165986061096,4.200138568878174,30.5678541415738,29.640424661000207,121.59297041729684,108.51752340994123,0.0001618385285837,0.0867940634489059,0,0,0
10221,344608.0806401202,2010-09-04 13:13:49,30.01515002429131,3,29,0.0,4.119357585906982,30.5678541415738,29.640424661000207,121.59297041729684,108.51752340994123,-0.0003561973571777,0.0867940634489059,0,0,0
10222,344638.09584915155,2010-09-04 13:14:19,60.03035906567136,3,29,0.0,4.109158992767334,30.5678541415738,29.640424661000207,121.59297041729684,108.51752340994123,-0.0001619339018361,0.0867940634489059,0,0,0
10223,344668.1109886446,2010-09-04 13:14:49,90.04549854869057,3,29,0.0,4.103007316589356,30.5678541415738,29.640424661000207,121.59297041729684,108.51752340994123,-0.0001295089750783,0.0867940634489059,0,0,0
10224,344698.0792899575,2010-09-04 13:15:19,120.01379986157808,3,29,0.0,4.0992841720581055,30.5678541415738,29.640424661000207,121.59297041729684,108.51752340994123,-3.23295607813634e-05,0.0867940634489059,0,0,0
10225,344698.0851828944,2010-09-04 13:15:19,2.711758537e-06,4,29,1.0041683912277222,4.199653148651123,30.567854142330205,29.640424661000207,121.59297042047348,108.51752340994123,0.0,0.0867940634489059,0,0,0
10226,344698.97596253135,2010-09-04 13:15:20,0.890782353712329,4,29,0.9537783265113832,4.199814796447754,30.56809489246887,29.640424661000207,121.59398150575836,108.51752340994123,3.23295607813634e-05,0.0867940634489059,0,0,0
10227,344701.0538710788,2010-09-04 13:15:22,2.968690896156575,4,29,0.9035689830780028,4.199814796447754,30.568629871716013,29.640424661000207,121.59622826426344,108.51752340994123,3.23295607813634e-05,0.0867940634489059,0,0,0
10228,344704.1633325936,2010-09-04 13:15:25,6.078152390959006,4,29,0.853359580039978,4.199814796447754,30.56938762919411,29.640424661000207,121.59941063069684,108.51752340994123,3.23295607813634e-05,0.0867940634489059,0,0,0
10229,344708.3507762567,2010-09-04 13:15:29,10.265596059024029,4,29,0.8033308386802673,4.199814796447754,30.570349930171812,29.640424661000207,121.6034520148688,108.51752340994123,0.0,0.0867940634489059,0,0,0
10230,344713.6942986336,2010-09-04 13:15:35,15.60911842592307,4,29,0.7533020377159119,4.199653148651123,30.571503747825812,29.640424661000207,121.60829774607228,108.51752340994123,0.0,0.0867940634489059,0,0,0
10231,344720.5849477715,2010-09-04 13:15:42,22.49976756377433,4,29,0.7030926942825317,4.199653148651123,30.57289565326961,29.640424661000207,121.61414340102358,108.51752340994123,-3.23295607813634e-05,0.0867940634489059,0,0,0
10232,344729.56933329965,2010-09-04 13:15:51,31.484153091936825,4,29,0.6530638933181763,4.199814796447754,30.57458510144688,29.640424661000207,121.6212386408222,108.51752340994123,0.0,0.0867940634489059,0,0,0
10233,344741.8188739741,2010-09-04 13:16:03,43.733693766387,4,29,0.6030351519584656,4.199814796447754,30.5767179441634,29.640424661000207,121.63019604358422,108.51752340994123,-3.24249267578125e-05,0.0867940634489059,0,0,0
10234,344759.77180812,2010-09-04 13:16:21,61.6866279423332,4,29,0.5530063509941101,4.199653148651123,30.57959238739626,29.640424661000207,121.64226797304748,108.51752340994123,0.0,0.0867940634489059,0,0,0
10235,344788.47443823074,2010-09-04 13:16:49,90.3892580230729,4,29,0.50279700756073,4.199653148651123,30.58378610769856,29.640424661000207,121.65988055948468,108.51752340994123,-3.23295607813634e-05,0.0867940634489059,0,0,0
10236,344839.0519135566,2010-09-04 13:17:40,140.9667333589099,4,29,0.4527682065963745,4.199653148651123,30.59046974837364,29.640424661000207,121.68795021275642,108.51752340994123,-3.23295607813634e-05,0.0867940634489059,0,0,0
10237,344920.26932940184,2010-09-04 13:19:01,222.1841492041704,4,29,0.4027394354343414,4.199653148651123,30.600087733121264,29.640424661000207,121.72834331111278,108.51752340994123,0.0,0.0867940634489059,0,0,0
10238,345028.20534293866,2010-09-04 13:20:49,330.1201627409852,4,29,0.3527106642723083,4.199653148651123,30.611391513240218,29.640424661000207,121.77581640499436,108.51752340994123,0.0,0.0867940634489059,0,0,0
10239,345158.2191032135,2010-09-04 13:22:59,460.1339230057992,4,29,0.3026818931102752,4.199653148651123,30.623211835386886,29.640424661000207,121.82545883896262,108.51752340994123,-3.23295607813634e-05,0.0867940634489059,0,0,0
10240,345316.13838051306,2010-09-04 13:25:37,618.0532003053764,4,29,0.2526531219482422,4.199653148651123,30.63537359869049,29.640424661000207,121.87653523849092,108.51752340994123,0.0,0.0867940634489059,0,0,0
10241,345511.18236047967,2010-09-04 13:28:52,813.0971803070729,4,29,0.2026243656873703,4.199653148651123,30.647664526060257,29.640424661000207,121.92815409447005,108.51752340994123,-3.23295607813634e-05,0.0867940634489059,0,0,0
10242,345764.0066891839,2010-09-04 13:33:05,1065.9215089862423,4,29,0.1525955945253372,4.199653148651123,30.66007590128686,29.640424661000207,121.98027876437884,108.51752340994123,-3.23295607813634e-05,0.0867940634489059,0,0,0
10243,346134.1887450192,2010-09-04 13:39:15,1436.1035648215552,4,29,0.1025668233633041,4.199814796447754,30.673066292004155,29.640424661000207,122.03483515215048,108.51752340994123,0.0,0.0867940634489059,0,0,0
10244,346812.1786163709,2010-09-04 13:50:33,2114.0934361932814,4,29,0.0525380559265613,4.199653148651123,30.68715654559116,29.640424661000207,122.09401069971922,108.51752340994123,-3.23295607813634e-05,0.0867940634489059,0,0,0
10245,346865.677781231,2010-09-04 13:51:27,2167.592601053395,4,29,0.0498289167881011,4.199653148651123,30.68792286563548,29.640424661000207,122.09722904676612,108.51752340994123,0.0,0.0867940634489059,0,0,0
10246,346895.6998092881,2010-09-04 13:51:57,30.01500887249761,5,29,0.0,4.192368507385254,30.68792286563548,29.640424661000207,122.09722904676612,108.51752340994123,0.0,0.0867940634489059,0,0,0
10247,346925.69938211923,2010-09-04 13:52:27,60.01458170363059,5,29,0.0,4.190911293029785,30.68792286563548,29.640424661000207,122.09722904676612,108.51752340994123,-6.47544875391759e-05,0.0867940634489059,0,0,0
10248,346925.8792445085,2010-09-04 13:52:27,0.187426960655788,6,29,-1.9243103452026844e-05,4.191235065460205,30.68792286563548,29.64042466200206,122.09722904676612,108.51752341414024,0.0,0.0931148082017898,0,0,0
10249,346930.7072960034,2010-09-04 13:52:32,5.015478440497857,6,29,0.0008838032954372,4.190911293029785,30.68792380761835,29.640424662086904,122.09723299467178,108.51752341449584,-6.47544875391759e-05,0.0931148082017898,0,0,0
10250,346960.73060345685,2010-09-04 13:53:02,30.01515123230204,7,29,-1.099568486213684,4.021740913391113,30.68792380761835,29.649592439315075,122.09723299467178,108.55458778012655,-0.0009065627818927,0.0931148082017898,0,0,0
10251,346990.7457621177,2010-09-04 13:53:32,60.03030988810574,7,29,-1.0993878841400146,3.995353221893311,30.68792380761835,29.65876019879189,122.09723299467178,108.59132755292,-0.0006151676061563,0.0931148082017898,0,0,0
10252,347020.76093476336,2010-09-04 13:54:02,90.0454825337765,7,29,-1.099568486213684,3.977222204208374,30.68792380761835,29.667927891500117,122.09723299467178,108.6278675974328,-0.0004209041653666,0.0931148082017898,0,0,0
10253,347050.77626735764,2010-09-04 13:54:32,120.06081527345076,7,29,-1.099568486213684,3.963299989700317,30.68792380761835,29.67709551804084,122.09723299467178,108.66426255772208,-0.0002913951757363,0.0931148082017898,0,0,0
10254,347080.7912877338,2010-09-04 13:55:02,150.0758355343317,7,29,-1.099568486213684,3.9514822959899902,30.68792380761835,29.68626310265628,122.09723299467178,108.7005410794442,-0.0003237724304199,0.0931148082017898,0,0,0
10255,347110.8064803543,2010-09-04 13:55:32,180.09102812471082,7,29,-1.099568486213684,3.9412834644317623,30.68792380761835,29.695430739597757,122.09723299467178,108.73671955360012,-0.0002590179501567,0.0931148082017898,0,0,0
10256,347140.82164151134,2010-09-04 13:56:02,210.1061892817484,7,29,-1.099568486213684,3.931732177734375,30.68792380761835,29.70459835563392,122.09723299467178,108.77280734050498,-0.0002266406954731,0.0931148082017898,0,0,0
10257,347170.8368174803,2010-09-04 13:56:32,240.12136525070176,7,29,-1.099568486213684,3.922666549682617,30.68792380761835,29.71376601918514,122.09723299467178,108.80881062719416,-0.0002266406954731,0.0931148082017898,0,0,0
10258,347200.851996156,2010-09-04 13:57:02,270.13654395647615,7,29,-1.0997490882873535,3.914248466491699,30.68792380761835,29.722933640980298,122.09723299467178,108.84473320555529,-0.0002266406954731,0.0931148082017898,0,0,0
10259,347230.8671768918,2010-09-04 13:57:32,300.1517246622351,7,29,-1.099568486213684,3.90583062171936,30.68792380761835,29.732101297627352,122.09723299467178,108.8805784188168,-0.0002266406954731,0.0931148082017898,0,0,0
10260,347260.882498604,2010-09-04 13:58:02,330.1670464045004,7,29,-1.0993878841400146,3.897898197174072,30.68792380761835,29.74126897866986,122.09723299467178,108.916348574105,-0.0001295089750783,0.0931148082017898,0,0,0
10261,347290.8977764068,2010-09-04 13:58:32,360.1823241771801,7,29,-1.099568486213684,3.889803886413574,30.68792380761835,29.75043663805345,122.09723299467178,108.9520456611206,-0.0002590179501567,0.0931148082017898,0,0,0
10262,347320.9127611141,2010-09-04 13:59:02,390.1973089897128,7,29,-1.0997490882873535,3.882033348083496,30.68792380761835,29.75960422531369,122.09723299467178,108.98767090181256,-0.0002266406954731,0.0931148082017898,0,0,0
10263,347350.9279348073,2010-09-04 13:59:32,420.2124826078072,7,29,-1.0993878841400146,3.874586582183838,30.68792380761835,29.76877192863764,122.09723299467178,109.023225988401,-0.0001618862152099,0.0931148082017898,0,0,0
10264,347380.9430260401,2010-09-04 14:00:02,450.22757381049695,7,29,-1.099568486213684,3.86713981628418,30.68792380761835,29.77793962266944,122.09723299467178,109.05871173007478,-0.0001618862152099,0.0931148082017898,0,0,0
10265,347410.9582135027,2010-09-04 14:00:32,480.2427612730961,7,29,-1.0993878841400146,3.8596930503845215,30.68792380761835,29.78710734115715,122.09723299467178,109.09412958221267,-0.0001942634553415,0.0931148082017898,0,0,0
10266,347440.9733812812,2010-09-04 14:01:02,510.2579290516364,7,29,-1.0997490882873535,3.852408170700073,30.68792380761835,29.796275086643032,122.09723299467178,109.12948064469366,-0.0001942634553415,0.0931148082017898,0,0,0
10267,347470.9885498317,2010-09-04 14:01:32,540.2730976021006,7,29,-1.099568486213684,3.845285177230835,30.68792380761835,29.805442838150505,122.09723299467178,109.1647657488036,-0.0001942634553415,0.0931148082017898,0,0,0
10268,347501.00372014655,2010-09-04 14:02:02,570.2882679169622,7,29,-1.099568486213684,3.8381621837615967,30.68792380761835,29.81461059854924,122.09723299467178,109.19998602345292,-0.0002266406954731,0.0931148082017898,0,0,0
10269,347531.01892116794,2010-09-04 14:02:32,600.3034689634165,7,29,-1.099568486213684,3.831363201141357,30.68792380761835,29.82377840579738,122.09723299467178,109.23514257381947,-0.0001295089750783,0.0931148082017898,0,0,0
10270,347561.0340756984,2010-09-04 14:03:02,630.3186234688762,7,29,-1.099568486213684,3.824563980102539,30.68792380761835,29.832946169580183,122.09723299467178,109.2702360415732,-0.0001942634553415,0.0931148082017898,0,0,0
10271,347591.04924344696,2010-09-04 14:03:32,660.3337912173416,7,29,-1.099568486213684,3.8177647590637207,30.68792380761835,29.842113906084407,122.09723299467178,109.30526749195369,-0.0001942634553415,0.0931148082017898,0,0,0
10272,347621.06441363145,2010-09-04 14:04:02,690.348961406891,7,29,-1.0993878841400146,3.811289310455322,30.68792380761835,29.851281606206413,122.09723299467178,109.34023777636426,-0.0001295089750783,0.0931148082017898,0,0,0
10273,347651.07960309903,2010-09-04 14:04:32,720.3641508895246,7,29,-1.099568486213684,3.804813861846924,30.68792380761835,29.860449321230693,122.09723299467178,109.37514786233608,-0.0001295089750783,0.0931148082017898,0,0,0
10274,347681.0947671383,2010-09-04 14:05:02,750.379314933758,7,29,-1.099568486213684,3.798500299453736,30.68792380761835,29.869617024321048,122.09723299467178,109.40999917321798,-0.0001295089750783,0.0931148082017898,0,0,0
10275,347711.1099346511,2010-09-04 14:05:32,780.3944824215738,7,29,-1.099568486213684,3.792024850845337,30.68792380761835,29.87878473060086,122.09723299467178,109.44479280826766,-0.0001942634553415,0.0931148082017898,0,0,0
10276,347741.12512952223,2010-09-04 14:06:02,810.4096772976496,7,29,-1.0997490882873535,3.7858731746673584,30.68792380761835,29.88795242275395,122.09723299467178,109.47952969827584,-0.0001942634553415,0.0931148082017898,0,0,0
10277,347771.14030054386,2010-09-04 14:06:32,840.4248483192727,7,29,-1.099568486213684,3.77988338470459,30.68792380761835,29.89712016646697,122.09723299467178,109.51421102103949,-0.0001942634553415,0.0931148082017898,0,0,0
10278,347801.1554622673,2010-09-04 14:07:02,870.4400100326969,7,29,-1.0997490882873535,3.774217367172241,30.68792380761835,29.9062878985512,122.09723299467178,109.54883767324816,-0.0001295089750783,0.0931148082017898,0,0,0
10279,347831.1706633839,2010-09-04 14:07:32,900.4552111543386,7,29,-1.099568486213684,3.7682275772094727,30.68792380761835,29.9154556360692,122.09723299467178,109.58341070319796,-0.0001618862152099,0.0931148082017898,0,0,0
10280,347861.18581302225,2010-09-04 14:08:02,930.470360792668,7,29,-1.0993878841400146,3.762561559677124,30.68792380761835,29.92462334610591,122.09723299467178,109.61793102623795,-0.0001618862152099,0.0931148082017898,0,0,0
10281,347891.20381993684,2010-09-04 14:08:32,960.4883677072088,7,29,-1.099568486213684,3.757057428359986,30.68792380761835,29.933791903724035,122.09723299467178,109.6524029087356,-0.0001295089750783,0.0931148082017898,0,0,0
10282,347921.2162190249,2010-09-04 14:09:03,990.5007667953206,7,29,-1.099568486213684,3.751553535461426,30.68792380761835,29.94295874848111,122.09723299467178,109.68681788130364,-0.0001618862152099,0.0931148082017898,0,0,0
10283,347951.2315950324,2010-09-04 14:09:33,1020.5161428128569,7,29,-1.0997490882873535,3.746049404144287,30.68792380761835,29.952126525088516,122.09723299467178,109.7211866722959,-0.0001942634553415,0.0931148082017898,0,0,0
10284,347981.24664254626,2010-09-04 14:10:03,1050.5311903266604,7,29,-1.099568486213684,3.740869045257568,30.68792380761835,29.96129425472549,122.09723299467178,109.75550661896696,-0.0001618862152099,0.0931148082017898,0,0,0
10285,348011.2617091426,2010-09-04 14:10:33,1080.5462569129986,7,29,-1.0993878841400146,3.7356886863708496,30.68792380761835,29.970461929719058,122.09723299467178,109.78977860709324,-0.0001295089750783,0.0931148082017898,0,0,0
10286,348041.276855618,2010-09-04 14:11:03,1110.5614033884451,7,29,-1.0997490882873535,3.730832099914551,30.68792380761835,29.979629656198927,122.09723299467178,109.82400385050656,-9.713172767078504e-05,0.0931148082017898,0,0,0
10287,348071.2920307148,2010-09-04 14:11:33,1140.5765784902374,7,29,-1.0997490882873535,3.725651741027832,30.68792380761835,29.98879729066645,122.09723299467178,109.85818293437482,-0.0001618862152099,0.0931148082017898,0,0,0
10288,348101.30721013737,2010-09-04 14:12:03,1170.591757912798,7,29,-1.099568486213684,3.720795154571533,30.68792380761835,29.99796494062676,122.09723299467178,109.89231699108105,-9.713172767078504e-05,0.0931148082017898,0,0,0
10289,348131.32238868275,2010-09-04 14:12:33,1200.6069364832351,7,29,-1.099568486213684,3.716100454330444,30.68792380761835,30.007132710020024,122.09723299467178,109.92640704396564,-0.0001295089750783,0.0931148082017898,0,0,0
10290,348161.33770185366,2010-09-04 14:13:03,1230.622249654138,7,29,-1.099568486213684,3.711405754089356,30.68792380761835,30.016300593193236,122.09723299467178,109.96045382850248,-0.0001295089750783,0.0931148082017898,0,0,0
10291,348191.3527228714,2010-09-04 14:13:33,1260.6372706468428,7,29,-1.0992072820663452,3.706872940063477,30.68792380761835,30.0254683084558,122.09723299467178,109.99445690812664,-6.47544875391759e-05,0.0931148082017898,0,0,0
10292,348221.3681505577,2010-09-04 14:14:03,1290.6526983281408,7,29,-1.099568486213684,3.7020163536071777,30.68792380761835,30.034636186957144,122.09723299467178,110.028418456375,-0.0001618862152099,0.0931148082017898,0,0,0
10293,348251.383451042,2010-09-04 14:14:33,1320.667998812425,7,29,-1.099568486213684,3.697645425796509,30.68792380761835,30.043804020545696,122.09723299467178,110.06233832332614,-9.713172767078504e-05,0.0931148082017898,0,0,0
10294,348281.39831450715,2010-09-04 14:15:03,1350.682862302585,7,29,-1.099568486213684,3.69327449798584,30.68792380761835,30.05297167763152,122.09723299467178,110.09621686910388,-9.713172767078504e-05,0.0931148082017898,0,0,0
10295,348311.4135674429,2010-09-04 14:15:33,1380.6981152133008,7,29,-1.0997490882873535,3.688903570175171,30.68792380761835,30.06213951377724,122.09723299467178,110.13005588945894,-9.713172767078504e-05,0.0931148082017898,0,0,0
10296,348341.4285959193,2010-09-04 14:16:03,1410.7131436896573,7,29,-1.099568486213684,3.684532642364502,30.68792380761835,30.071307205557364,122.09723299467178,110.16385483304478,-0.0001618862152099,0.0931148082017898,0,0,0
10297,348371.44380364736,2010-09-04 14:16:33,1440.7283514177643,7,29,-1.0993878841400146,3.680485486984253,30.68792380761835,30.08047496468567,122.09723299467178,110.19761512677796,-9.713172767078504e-05,0.0931148082017898,0,0,0
10298,348401.4590915152,2010-09-04 14:17:03,1470.7436392856043,7,29,-1.099568486213684,3.676276445388794,30.68792380761835,30.08964276473204,122.09723299467178,110.231337143837,-9.713172767078504e-05,0.0931148082017898,0,0,0
10299,348431.4741226031,2010-09-04 14:17:33,1500.7586704035443,7,29,-1.099568486213684,3.672229528427124,30.68792380761835,30.098810526992025,122.09723299467178,110.26502105066852,-9.70840483205393e-05,0.0931148082017898,0,0,0
10300,348461.4894315986,2010-09-04 14:18:03,1530.773979373978,7,29,-1.0997490882873535,3.668020486831665,30.68792380761835,30.10797837854636,122.09723299467178,110.29866828881418,-0.0001295089750783,0.0931148082017898,0,0,0
10301,348491.5046231564,2010-09-04 14:18:33,1560.7891709267712,7,29,-1.099568486213684,3.664297103881836,30.68792380761835,30.11714616681165,122.09723299467178,110.33227897671102,-9.713172767078504e-05,0.0931148082017898,0,0,0
10302,348521.5196786951,2010-09-04 14:19:03,1590.8042264655755,7,29,-1.099568486213684,3.660411834716797,30.68792380761835,30.1263139103145,122.09723299467178,110.36585375465988,-9.713172767078504e-05,0.0931148082017898,0,0,0
10303,348551.53484468424,2010-09-04 14:19:33,1620.8193924546565,7,29,-1.099568486213684,3.656526565551758,30.68792380761835,30.135481719211626,122.09723299467178,110.39939347634818,-6.47544875391759e-05,0.0931148082017898,0,0,0
10304,348581.55003291875,2010-09-04 14:20:03,1650.8345807142416,7,29,-1.099568486213684,3.6528031826019287,30.68792380761835,30.144649540012107,122.09723299467178,110.43289903458052,-9.713172767078504e-05,0.0931148082017898,0,0,0
10305,348611.5653055887,2010-09-04 14:20:33,1680.8498533591412,7,29,-1.099568486213684,3.6490797996521,30.68792380761835,30.15381734458791,122.09723299467178,110.46637072127942,-0.0001295089750783,0.0931148082017898,0,0,0
10306,348641.5803554985,2010-09-04 14:21:03,1710.8649032739288,7,29,-1.099568486213684,3.6456801891326895,30.68792380761835,30.16298504862036,122.09723299467178,110.49980853803702,-9.713172767078504e-05,0.0931148082017898,0,0,0
10307,348671.5955939382,2010-09-04 14:21:33,1740.8801417085658,7,29,-1.099568486213684,3.641956806182861,30.68792380761835,30.172152800551768,122.09723299467178,110.53321421818995,-0.0001295089750783,0.0931148082017898,0,0,0
10308,348701.6108327738,2010-09-04 14:22:03,1770.8953805442025,7,29,-1.0997490882873535,3.638557195663452,30.68792380761835,30.181320576014983,122.09723299467178,110.56658823810844,-9.713172767078504e-05,0.0931148082017898,0,0,0
10309,348731.62610757904,2010-09-04 14:22:33,1800.9106553544989,7,29,-1.0993878841400146,3.635481357574463,30.68792380761835,30.190488352918408,122.09723299467178,110.5999312182168,-6.47544875391759e-05,0.0931148082017898,0,0,0
10310,348761.6410493744,2010-09-04 14:23:03,1830.9255971448067,7,29,-1.099568486213684,3.6320817470550537,30.68792380761835,30.19965604449109,122.09723299467178,110.6332436508948,-9.713172767078504e-05,0.0931148082017898,0,0,0
10311,348791.6565082183,2010-09-04 14:23:33,1860.941056008822,7,29,-1.099568486213684,3.6288440227508554,30.68792380761835,30.208823880571465,122.09723299467178,110.66652687638609,-6.47544875391759e-05,0.0931148082017898,0,0,0
10312,348821.67140312184,2010-09-04 14:24:03,1890.9559509022488,7,29,-1.0997490882873535,3.6256062984466553,30.68792380761835,30.217991595628025,122.09723299467178,110.69978082255729,-0.0001618862152099,0.0931148082017898,0,0,0
10313,348851.68661590747,2010-09-04 14:24:33,1920.9711636879608,7,29,-1.0997490882873535,3.622530460357666,30.68792380761835,30.22715936316693,122.09723299467178,110.7330069930664,-0.0001295089750783,0.0931148082017898,0,0,0
10314,348881.7018834998,2010-09-04 14:25:03,1950.9864312752552,7,29,-1.099568486213684,3.619616508483887,30.68792380761835,30.236327216255045,122.09723299467178,110.766205877256,-0.0001295089750783,0.0931148082017898,0,0,0
10315,348911.7169334948,2010-09-04 14:25:33,1981.0014812652305,7,29,-1.099568486213684,3.6167025566101074,30.68792380761835,30.245495016434987,122.09723299467178,110.79937749068824,-9.713172767078504e-05,0.0931148082017898,0,0,0
10316,348941.73223965825,2010-09-04 14:26:03,2011.0167874286683,7,29,-1.0997490882873535,3.613788604736328,30.68792380761835,30.25466290243903,122.09723299467178,110.83252277467638,-9.713172767078504e-05,0.0931148082017898,0,0,0
10317,348971.74734599865,2010-09-04 14:26:33,2041.031893799161,7,29,-1.0993878841400146,3.6111984252929688,30.68792380761835,30.263830546559344,122.09723299467178,110.86564117214664,-6.47544875391759e-05,0.0931148082017898,0,0,0
10318,349001.7624038432,2010-09-04 14:27:03,2071.046951613637,7,29,-1.099568486213684,3.6082844734191895,30.68792380761835,30.272997397713183,122.09723299467178,110.89873112403184,-0.0001295089750783,0.0931148082017898,0,0,0
10319,349031.77753130626,2010-09-04 14:27:33,2101.062079101762,7,29,-1.0993878841400146,3.60553240776062,30.68792380761835,30.282164374101527,122.09723299467178,110.93179594837616,-6.47544875391759e-05,0.0931148082017898,0,0,0
10320,349061.7927553952,2010-09-04 14:28:03,2131.077303165582,7,29,-1.099568486213684,3.6029422283172607,30.68792380761835,30.29133116721086,122.09723299467178,110.96483470700493,-6.47544875391759e-05,0.0931148082017898,0,0,0
10321,349091.80804485193,2010-09-04 14:28:33,2161.092592652457,7,29,-1.0993878841400146,3.600028276443481,30.68792380761835,30.30049799328821,122.09723299467178,110.99784844757173,-9.713172767078504e-05,0.0931148082017898,0,0,0
10322,349121.82311805483,2010-09-04 14:29:03,2191.1076658302227,7,29,-1.099568486213684,3.597438097000122,30.68792380761835,30.30966494784557,122.09723299467178,111.03083740233176,-3.237724376958795e-05,0.0931148082017898,0,0,0
10323,349151.8382359841,2010-09-04 14:29:33,2221.122783784586,7,29,-1.0993878841400146,3.5945241451263428,30.68792380761835,30.318831902663035,122.09723299467178,111.06380096337466,-6.47544875391759e-05,0.0931148082017898,0,0,0
10324,349181.85359774606,2010-09-04 14:30:03,2251.138145526543,7,29,-1.099568486213684,3.5917723178863525,30.68792380761835,30.32799959452976,122.09723299467178,111.09674164374792,-9.70840483205393e-05,0.0931148082017898,0,0,0
10325,349211.86887541856,2010-09-04 14:30:33,2281.153423188948,7,29,-1.0993878841400146,3.589020252227783,30.68792380761835,30.337167372931823,122.09723299467178,111.12965694504484,-3.237724376958795e-05,0.0931148082017898,0,0,0
10326,349241.883835314,2010-09-04 14:31:03,2311.1683830843795,7,29,-1.0997490882873535,3.585944414138794,30.68792380761835,30.346335015382163,122.09723299467178,111.16254597889862,-0.0001295089750783,0.0931148082017898,0,0,0
10327,349271.89903675136,2010-09-04 14:31:33,2341.1835845268206,7,29,-1.0993878841400146,3.5833542346954346,30.68792380761835,30.355502677868184,122.09723299467178,111.19540882361989,-6.47544875391759e-05,0.0931148082017898,0,0,0
10328,349301.9141759186,2010-09-04 14:32:03,2371.19872368904,7,29,-1.099568486213684,3.5802783966064453,30.68792380761835,30.364670341030987,122.09723299467178,111.22824518059431,-6.47544875391759e-05,0.0931148082017898,0,0,0
10329,349331.9293614715,2010-09-04 14:32:33,2401.21390924188,7,29,-1.0997490882873535,3.577202558517456,30.68792380761835,30.37383804119676,122.09723299467178,111.26105478930084,-0.0001295089750783,0.0931148082017898,0,0,0
10330,349361.9445266535,2010-09-04 14:33:03,2431.2290744289617,7,29,-1.099568486213684,3.5742886066436768,30.68792380761835,30.38300578006749,122.09723299467178,111.29383726499968,-9.713172767078504e-05,0.0931148082017898,0,0,0
10331,349391.959698006,2010-09-04 14:33:33,2461.244245776397,7,29,-1.099568486213684,3.5712127685546875,30.68792380761835,30.392173440160185,122.09723299467178,111.32659158786608,-0.0001295089750783,0.0931148082017898,0,0,0
10332,349421.9748986013,2010-09-04 14:34:03,2491.259446376739,7,29,-1.099568486213684,3.5679750442504883,30.68792380761835,30.401341146553808,122.09723299467178,111.35931746024694,-0.0001295089750783,0.0931148082017898,0,0,0
10333,349451.9900617934,2010-09-04 14:34:33,2521.274609563836,7,29,-1.099568486213684,3.564899206161499,30.68792380761835,30.410508775868465,122.09723299467178,111.39201401982334,-9.713172767078504e-05,0.0931148082017898,0,0,0
10334,349482.0052265845,2010-09-04 14:35:03,2551.2897743599437,7,29,-1.099568486213684,3.5616614818573,30.68792380761835,30.41967647332728,122.09723299467178,111.42468108497894,-0.0001295089750783,0.0931148082017898,0,0,0
10335,349512.02040909475,2010-09-04 14:35:33,2581.3049568651877,7,29,-1.099568486213684,3.5580999851226807,30.68792380761835,30.42884412523733,122.09723299467178,111.45731786299945,-0.0001295089750783,0.0931148082017898,0,0,0
10336,349542.0355742869,2010-09-04 14:36:03,2611.3201220572814,7,29,-1.099568486213684,3.554862260818481,30.68792380761835,30.43801187310124,122.09723299467178,111.48992366227624,-9.713172767078504e-05,0.0931148082017898,0,0,0
10337,349572.0507746867,2010-09-04 14:36:33,2641.3353224621364,7,29,-1.0993878841400146,3.5513007640838623,30.68792380761835,30.44717957766354,122.09723299467178,111.52249710907331,-6.47544875391759e-05,0.0931148082017898,0,0,0
10338,349602.065954425,2010-09-04 14:37:03,2671.350502195472,7,29,-1.099568486213684,3.547577381134033,30.68792380761835,30.45634727566867,122.09723299467178,111.55503741409106,-9.713172767078504e-05,0.0931148082017898,0,0,0
10339,349632.0811276723,2010-09-04 14:37:33,2701.365675467704,7,29,-1.0993878841400146,3.544015884399414,30.68792380761835,30.46551497090715,122.09723299467178,111.58754336236332,-6.47544875391759e-05,0.0931148082017898,0,0,0
10340,349662.0962837065,2010-09-04 14:38:03,2731.380831476912,7,29,-1.099568486213684,3.539968729019165,30.68792380761835,30.474682605764624,122.09723299467178,111.6200136567583,-9.713172767078504e-05,0.0931148082017898,0,0,0
10341,349692.1114797304,2010-09-04 14:38:33,2761.3960275008485,7,29,-1.099568486213684,3.535759687423706,30.68792380761835,30.48385037255745,122.09723299467178,111.65244761432938,-9.713172767078504e-05,0.0931148082017898,0,0,0
10342,349722.12663361937,2010-09-04 14:39:03,2791.411181394784,7,29,-1.099568486213684,3.531712532043457,30.68792380761835,30.49301806911033,122.09723299467178,111.68484304785927,-9.713172767078504e-05,0.0931148082017898,0,0,0
10343,349752.14180948306,2010-09-04 14:39:33,2821.4263572534624,7,29,-1.0993878841400146,3.527179718017578,30.68792380761835,30.50218581228932,122.09723299467178,111.71719906420812,-0.0001295089750783,0.0931148082017898,0,0,0
10344,349782.15699394315,2010-09-04 14:40:03,2851.4415417135788,7,29,-1.099568486213684,3.5223231315612797,30.68792380761835,30.5113535583125,122.09723299467178,111.74951410386409,-0.0001618862152099,0.0931148082017898,0,0,0
10345,349812.1749948277,2010-09-04 14:40:33,2881.4595425980906,7,29,-1.099568486213684,3.5177903175354004,30.68792380761835,30.520522079464,122.09723299467178,111.78178915598698,-0.0001295089750783,0.0931148082017898,0,0,0
10346,349842.1873730939,2010-09-04 14:41:04,2911.471920879346,7,29,-1.099568486213684,3.512771844863892,30.68792380761835,30.529688936155235,122.09723299467178,111.81401351816956,-0.0001295089750783,0.0931148082017898,0,0,0
10347,349872.20300786634,2010-09-04 14:41:34,2941.487555661803,7,29,-1.099568486213684,3.507429838180542,30.68792380761835,30.53885676672025,122.09723299467178,111.84619391739383,-0.0001295089750783,0.0931148082017898,0,0,0
10348,349902.21783145703,2010-09-04 14:42:04,2971.502379237484,7,29,-1.0993878841400146,3.5017638206481934,30.68792380761835,30.54802440743652,122.09723299467178,111.87832309688405,-0.0001295089750783,0.0931148082017898,0,0,0
10349,349932.2328905547,2010-09-04 14:42:34,3001.517438330146,7,29,-1.099568486213684,3.495612144470215,30.68792380761835,30.557192022079235,122.09723299467178,111.91039758499996,-0.0001618862152099,0.0931148082017898,0,0,0
10350,349962.24810502963,2010-09-04 14:43:04,3031.5326528000555,7,29,-1.099568486213684,3.4888129234313965,30.68792380761835,30.56635978307996,122.09723299467178,111.94241283037016,-0.0001942634553415,0.0931148082017898,0,0,0
10351,349992.2632254,2010-09-04 14:43:34,3061.54777317044,7,29,-1.0993878841400146,3.4810423851013184,30.68792380761835,30.575527494609418,122.09723299467178,111.97436207094673,-0.0002590179501567,0.0931148082017898,0,0,0
10352,350022.27839740406,2010-09-04 14:44:04,3091.562945174512,7,29,-1.0997490882873535,3.4723005294799805,30.68792380761835,30.584695139724992,122.09723299467178,112.00623576022204,-0.0002590179501567,0.0931148082017898,0,0,0
10353,350052.2936059643,2010-09-04 14:44:34,3121.578153734693,7,29,-1.099568486213684,3.462101697921753,30.68792380761835,30.593862803693817,122.09723299467178,112.03802314513943,-0.0002913951757363,0.0931148082017898,0,0,0
10354,350082.3087613118,2010-09-04 14:45:04,3151.593309087264,7,29,-1.0993878841400146,3.449636459350586,30.68792380761835,30.60303041876709,122.09723299467178,112.0697074291744,-0.0003885269106831,0.0931148082017898,0,0,0
10355,350112.3239222734,2010-09-04 14:45:34,3181.608470063851,7,29,-1.0993878841400146,3.43425726890564,30.68792380761835,30.61219800925589,122.09723299467178,112.1012643698085,-0.0004532813909463,0.0931148082017898,0,0,0
10356,350142.3393469572,2010-09-04 14:46:04,3211.623894727629,7,29,-1.0993878841400146,3.413859844207764,30.68792380761835,30.62136574690864,122.09723299467178,112.13265932269115,-0.0006151676061563,0.0931148082017898,0,0,0
10357,350172.3544993023,2010-09-04 14:46:34,3241.639047072704,7,29,-1.0997490882873535,3.3865010738372803,30.68792380761835,30.63053344353836,122.09723299467178,112.16383820297185,-0.0008741855854168,0.0931148082017898,0,0,0
10358,350202.36958996864,2010-09-04 14:47:04,3271.6541377490826,7,29,-1.099568486213684,3.348134279251098,30.68792380761835,30.63970110090697,122.09723299467178,112.19471968407444,-0.001230287598446,0.0931148082017898,0,0,0
10359,350232.3847715215,2010-09-04 14:47:34,3301.669319301953,7,29,-1.099568486213684,3.293254852294922,30.68792380761835,30.64886875726538,122.09723299467178,112.22517817293868,-0.0016512393485754,0.0931148082017898,0,0,0
10360,350262.39984860906,2010-09-04 14:48:04,3331.684396409513,7,29,-1.099568486213684,3.2127976417541504,30.68792380761835,30.658036372742547,122.09723299467178,112.25502388184232,-0.0025254250504076,0.0931148082017898,0,0,0
10361,350292.4150067987,2010-09-04 14:48:34,3361.6995545740924,7,29,-1.099568486213684,3.0881457328796387,30.68792380761835,30.66720404836614,122.09723299467178,112.28395304190305,-0.0041119097732007,0.0931148082017898,0,0,0
10362,350317.6646345452,2010-09-04 14:48:59,3386.949182320553,7,29,-1.099568486213684,2.887731075286865,30.68792380761835,30.674916124730807,122.09723299467178,112.3071047126368,-0.0089684966951608,0.0931148082017898,0,0,0
10363,350330.5550693249,2010-09-04 14:49:12,3399.839617095299,7,29,-1.0993878841400146,2.699943780899048,30.68792380761835,30.678853308960107,122.09723299467178,112.31812276409596,-0.012691831216216,0.0931148082017898,0,0,0
10364,350390.56652975787,2010-09-04 14:50:12,60.01483010773004,8,29,0.0,3.416935682296753,30.68792380761835,30.678853308960107,122.09723299467178,112.31812276409596,0.0012303352123126,0.0931148082017898,0,0,0
10365,350390.7514493635,2010-09-04 14:50:12,0.187492529072458,9,29,-1.9243103452026844e-05,3.417097568511963,30.68792380761835,30.678853309962317,122.09723299467178,112.3181227675206,0.0,0.0859051570296287,0,0,0
10366,350395.5796544461,2010-09-04 14:50:17,5.015697621765015,9,29,0.0007031940040178,3.424382448196411,30.687924473677217,30.6788533100463,122.0972352733982,112.31812276780758,0.0010684489971026,0.0859051570296287,0,0,0
