Data_Point,Test_Time(s),Date_Time,Step_Time(s),Step_Index,Cycle_Index,Current(A),Voltage(V),Charge_Capacity(Ah),Discharge_Capacity(Ah),Charge_Energy(Wh),Discharge_Energy(Wh),dV/dt(V/s),Internal_Resistance(Ohm),Is_FC_Data,AC_Impedance(Ohm),ACI_Phase_Angle(Deg)
14548,493171.3277438868,2010-09-06 06:30:08,30.01510920255097,1,42,0.0,3.501116275787353,43.070108287439446,43.04181358686538,171.44370920825116,157.5394224663957,0.0006151676061563,0.0883364379405975,0,0,0
14549,493201.34289218177,2010-09-06 06:30:38,60.030257507557295,1,42,0.0,3.521513700485229,43.070108287439446,43.04181358686538,171.44370920825116,157.5394224663957,0.0004856586456298,0.0883364379405975,0,0,0
14550,493231.3580235295,2010-09-06 06:31:08,90.04538884527591,1,42,0.0,3.535759687423706,43.070108287439446,43.04181358686538,171.44370920825116,157.5394224663957,0.0002913951757363,0.0883364379405975,0,0,0
14551,493261.3262875796,2010-09-06 06:31:38,120.01365289529288,1,42,0.0,3.5469298362731934,43.070108287439446,43.04181358686538,171.44370920825116,157.5394224663957,0.0002590179501567,0.0883364379405975,0,0,0
14552,493291.3507194986,2010-09-06 06:32:08,30.0152353569666,2,42,0.5497553944587708,3.669153690338135,43.07469466257356,43.04181358686538,171.4604267100134,157.5394224663957,0.0010360718006268,0.0883364379405975,0,0,0
14553,493321.3657619147,2010-09-06 06:32:38,60.03027779812764,2,42,0.5501165986061096,3.701530694961548,43.07928081593958,43.04181358686538,171.47733343775295,157.5394224663957,0.0007446765666827,0.0883364379405975,0,0,0
14554,493351.3809842743,2010-09-06 06:33:08,90.04550013263827,2,42,0.5501165986061096,3.7248423099517822,43.0838671182539,43.04181358686538,171.49436548491525,157.5394224663957,0.0005827903514727,0.0883364379405975,0,0,0
14555,493381.3960480586,2010-09-06 06:33:38,120.06056391699312,2,42,0.5501165986061096,3.742002248764038,43.08845335019086,43.04181358686538,171.5114892647812,157.5394224663957,0.0004209041653666,0.0883364379405975,0,0,0
14556,493411.41126747086,2010-09-06 06:34:08,150.07578333423302,2,42,0.5499359965324402,3.754305362701416,43.09303961574027,43.04181358686538,171.528681424327,157.5394224663957,0.0002590179501567,0.0883364379405975,0,0,0
14557,493441.42646923405,2010-09-06 06:34:38,180.09098510248617,2,42,0.5499359965324402,3.762399673461914,43.09762592445741,43.04181358686538,171.54592042168778,157.5394224663957,0.0001618862152099,0.0883364379405975,0,0,0
14558,493471.441677318,2010-09-06 06:35:08,210.1061932165551,2,42,0.5501165986061096,3.767580032348633,43.102212201896975,43.04181358686538,171.56318848898974,157.5394224663957,9.713172767078504e-05,0.0883364379405975,0,0,0
14559,493501.456863713,2010-09-06 06:35:38,240.1213795864308,2,42,0.5499359965324402,3.771303415298462,43.10679852311187,43.04181358686538,171.58047681002458,157.5394224663957,6.47544875391759e-05,0.0883364379405975,0,0,0
14560,493531.4717926863,2010-09-06 06:36:08,270.13630858485766,2,42,0.5499359965324402,3.774864912033081,43.11138471917562,43.04181358686538,171.59778156592554,157.5394224663957,6.47544875391759e-05,0.0883364379405975,0,0,0
14561,493561.4868787412,2010-09-06 06:36:38,300.1513946196675,2,42,0.5501165986061096,3.7784264087677,43.11597101036402,43.04181358686538,171.61510255231292,157.5394224663957,0.0001295089750783,0.0883364379405975,0,0,0
14562,493591.5021307698,2010-09-06 06:37:08,330.1666467584596,2,42,0.5499359965324402,3.7816641330718994,43.12055727405438,43.04181358686538,171.63243913945254,157.5394224663957,6.47544875391759e-05,0.0883364379405975,0,0,0
14563,493621.5171833512,2010-09-06 06:37:38,360.18169921959344,2,42,0.5501165986061096,3.7850637435913086,43.12514344157252,43.04181358686538,171.64979091454003,157.5394224663957,6.47544875391759e-05,0.0883364379405975,0,0,0
14564,493651.5323551398,2010-09-06 06:38:08,390.1968710331904,2,42,0.5499359965324402,3.7884633541107178,43.12972968842776,43.04181358686538,171.66715840821973,157.5394224663957,9.713172767078504e-05,0.0883364379405975,0,0,0
14565,493681.54758724855,2010-09-06 06:38:38,420.2121031169993,2,42,0.5501165986061096,3.791862964630127,43.13431599495425,43.04181358686538,171.6845414133549,157.5394224663957,9.713172767078504e-05,0.0883364379405975,0,0,0
14566,493711.5627596236,2010-09-06 06:39:08,450.22727550202046,2,42,0.5501165986061096,3.795100688934326,43.13890216097791,43.04181358686538,171.70193906938073,157.5394224663957,6.47544875391759e-05,0.0883364379405975,0,0,0
14567,493741.5777368122,2010-09-06 06:39:38,480.24225268052686,2,42,0.5501165986061096,3.798662185668945,43.14348833075356,43.04181358686538,171.7193518301234,157.5394224663957,0.0001295089750783,0.0883364379405975,0,0,0
14568,493771.5928993826,2010-09-06 06:40:08,510.25741525108737,2,42,0.550297200679779,3.801738023757935,43.14807453714776,43.04181358686538,171.73677972845533,157.5394224663957,9.713172767078504e-05,0.0883364379405975,0,0,0
14569,493801.6080212318,2010-09-06 06:40:38,540.2725371051698,2,42,0.5501165986061096,3.804975748062134,43.15266073642783,43.04181358686538,171.75422242431807,157.5394224663957,9.713172767078504e-05,0.0883364379405975,0,0,0
14570,493831.62315621856,2010-09-06 06:41:08,570.2876720919832,2,42,0.5499359965324402,3.808051586151123,43.157246952296525,43.04181358686538,171.7716801060548,157.5394224663957,6.47544875391759e-05,0.0883364379405975,0,0,0
14571,493861.6383150047,2010-09-06 06:41:38,600.3028308981616,2,42,0.5501165986061096,3.811451196670532,43.16183316053896,43.04181358686538,171.78915276336244,157.5394224663957,9.713172767078504e-05,0.0883364379405975,0,0,0
14572,493891.6534472597,2010-09-06 06:42:08,630.3179631331163,2,42,0.550297200679779,3.815012693405152,43.16641942591543,43.04181358686538,171.8066408614062,157.5394224663957,0.0001295089750783,0.0883364379405975,0,0,0
14573,493921.6685871337,2010-09-06 06:42:38,660.3331030020976,2,42,0.5499359965324402,3.8180885314941406,43.17100557978967,43.04181358686538,171.82414393185311,157.5394224663957,6.47544875391759e-05,0.0883364379405975,0,0,0
14574,493951.6838978985,2010-09-06 06:43:08,690.3484138873038,2,42,0.5501165986061096,3.82148814201355,43.17559176321819,43.04181358686538,171.84166264974516,157.5394224663957,3.237724376958795e-05,0.0883364379405975,0,0,0
14575,493981.6997586642,2010-09-06 06:43:38,720.3642746178939,2,42,0.5501165986061096,3.825049638748169,43.18017797303757,43.04181358686538,171.85919717945336,157.5394224663957,9.713172767078504e-05,0.0883364379405975,0,0,0
14576,494011.70009593567,2010-09-06 06:44:08,750.3646119193221,2,42,0.5501165986061096,3.828611135482788,43.18476188194524,43.04181358686538,171.87673900307456,157.5394224663957,9.713172767078504e-05,0.0883364379405975,0,0,0
14577,494041.7135309756,2010-09-06 06:44:38,780.3780468440574,2,42,0.550297200679779,3.832334518432617,43.189347865187855,43.04181358686538,171.89430498760538,157.5394224663957,0.0001295089750783,0.0883364379405975,0,0,0
14578,494071.7286638421,2010-09-06 06:45:08,810.393179715599,2,42,0.5499359965324402,3.835572004318237,43.19393406408546,43.04181358686538,171.91188791213918,157.5394224663957,6.47544875391759e-05,0.0883364379405975,0,0,0
14579,494101.7438103026,2010-09-06 06:45:38,840.4083261709953,2,42,0.5499359965324402,3.839133501052856,43.19852021765384,43.04181358686538,171.92948679996297,157.5394224663957,6.47544875391759e-05,0.0883364379405975,0,0,0
14580,494131.7589407531,2010-09-06 06:46:08,870.4234566265153,2,42,0.5501165986061096,3.842694997787476,43.203106412253895,43.04181358686538,171.9471018091759,157.5394224663957,0.0001295089750783,0.0883364379405975,0,0,0
14581,494161.7768931117,2010-09-06 06:46:38,900.4414089800734,2,42,0.5501165986061096,3.8460946083068848,43.20769309747455,43.04181358686538,171.96473430783584,157.5394224663957,9.713172767078504e-05,0.0883364379405975,0,0,0
14582,494191.7892524056,2010-09-06 06:47:09,930.4537682790184,2,42,0.5501165986061096,3.849332332611084,43.21227886800076,43.04181358686538,171.98237865527014,157.5394224663957,9.713172767078504e-05,0.0883364379405975,0,0,0
14583,494221.8046559418,2010-09-06 06:47:39,960.4691718101268,2,42,0.5501165986061096,3.852570056915283,43.21686512815422,43.04181358686538,172.0000399258281,157.5394224663957,9.713172767078504e-05,0.0883364379405975,0,0,0
14584,494251.8196138271,2010-09-06 06:48:09,990.4841297005614,2,42,0.5499359965324402,3.855645895004273,43.22145131312784,43.04181358686538,172.01771546949,157.5394224663957,6.47544875391759e-05,0.0883364379405975,0,0,0
14585,494281.83464407286,2010-09-06 06:48:39,1020.4991599363028,2,42,0.5499359965324402,3.8587217330932617,43.22603745162153,43.04181358686538,172.03540522310306,157.5394224663957,6.47544875391759e-05,0.0883364379405975,0,0,0
14586,494311.8497680072,2010-09-06 06:49:09,1050.5142838755824,2,42,0.5501165986061096,3.861635684967041,43.23062368313833,43.04181358686538,172.0531092334106,157.5394224663957,6.47544875391759e-05,0.0883364379405975,0,0,0
14587,494341.86501367984,2010-09-06 06:49:39,1080.5295295482588,2,42,0.5501165986061096,3.86454963684082,43.235209873098285,43.04181358686538,172.07082654728052,157.5394224663957,6.47544875391759e-05,0.0883364379405975,0,0,0
14588,494371.8800588328,2010-09-06 06:50:09,1110.5445747011784,2,42,0.5499359965324402,3.8673017024993896,43.23979594062536,43.04181358686538,172.08855624508269,157.5394224663957,6.47544875391759e-05,0.0883364379405975,0,0,0
14589,494401.8952020651,2010-09-06 06:50:39,1140.559717963617,2,42,0.5499359965324402,3.869891881942749,43.24438208367046,43.04181358686538,172.10629854196085,157.5394224663957,3.237724376958795e-05,0.0883364379405975,0,0,0
14590,494431.9103471521,2010-09-06 06:51:09,1170.5748630455903,2,42,0.5501165986061096,3.872482061386109,43.248968220547965,43.04181358686538,172.12405245307755,157.5394224663957,9.713172767078504e-05,0.0883364379405975,0,0,0
14591,494461.92550719134,2010-09-06 06:51:39,1200.5900230597797,2,42,0.5501165986061096,3.874748468399048,43.25355448748768,43.04181358686538,172.1418177695295,157.5394224663957,9.713172767078504e-05,0.0883364379405975,0,0,0
14592,494491.94072738045,2010-09-06 06:52:09,1230.605243253956,2,42,0.5501165986061096,3.876852989196777,43.25814065363786,43.04181358686538,172.15959288236033,157.5394224663957,3.237724376958795e-05,0.0883364379405975,0,0,0
14593,494521.9560601152,2010-09-06 06:52:39,1260.6205760086675,2,42,0.5499359965324402,3.878795623779297,43.26272679149884,43.04181358686538,172.17737740877376,157.5394224663957,3.237724376958795e-05,0.0883364379405975,0,0,0
14594,494551.9710386471,2010-09-06 06:53:09,1290.6355545154847,2,42,0.5499359965324402,3.8805763721466064,43.26731288232703,43.04181358686538,172.19517047679312,157.5394224663957,0.0,0.0883364379405975,0,0,0
14595,494581.9860113344,2010-09-06 06:53:39,1320.6505272027978,2,42,0.5499359965324402,3.882195234298706,43.271899045651566,43.04181358686538,172.21297199507094,157.5394224663957,0.0,0.0883364379405975,0,0,0
14596,494612.0011930176,2010-09-06 06:54:09,1350.6657088809802,2,42,0.5499359965324402,3.883975982666016,43.27648525051958,43.04181358686538,172.2307812629612,157.5394224663957,6.47544875391759e-05,0.0883364379405975,0,0,0
14597,494642.0163557235,2010-09-06 06:54:39,1380.6808715818654,2,42,0.5499359965324402,3.885432958602905,43.281071422930815,43.04181358686538,172.24859720783718,157.5394224663957,3.237724376958795e-05,0.0883364379405975,0,0,0
14598,494672.0314722192,2010-09-06 06:55:09,1410.6959880775937,2,42,0.5499359965324402,3.886728048324585,43.2856575870209,43.04181358686538,172.26641961224118,157.5394224663957,3.237724376958795e-05,0.0883364379405975,0,0,0
14599,494702.0466167999,2010-09-06 06:55:39,1440.71113266333,2,42,0.5501165986061096,3.8881850242614746,43.29024370776874,43.04181358686538,172.2842478326999,157.5394224663957,6.47544875391759e-05,0.0883364379405975,0,0,0
14600,494732.061756719,2010-09-06 06:56:09,1470.726272592461,2,42,0.5499359965324402,3.889318227767944,43.294829817741096,43.04181358686538,172.3020818202814,157.5394224663957,6.47544875391759e-05,0.0883364379405975,0,0,0
14601,494762.07691868814,2010-09-06 06:56:39,1500.74143455651,2,42,0.5501165986061096,3.890451431274414,43.29941600632279,43.04181358686538,172.31992154641998,157.5394224663957,3.237724376958795e-05,0.0883364379405975,0,0,0
14602,494792.0921587318,2010-09-06 06:57:09,1530.756674600157,2,42,0.5501165986061096,3.8917465209960938,43.30400217952758,43.04181358686538,172.3377665910461,157.5394224663957,6.47544875391759e-05,0.0883364379405975,0,0,0
14603,494822.1073418085,2010-09-06 06:57:39,1560.7718576868504,2,42,0.5501165986061096,3.8927178382873535,43.30858839926224,43.04181358686538,172.35561704512128,157.5394224663957,0.0,0.0883364379405975,0,0,0
14604,494852.12232515233,2010-09-06 06:58:09,1590.7868410106728,2,42,0.5501165986061096,3.8938510417938232,43.31317453621346,43.04181358686538,172.373472333905,157.5394224663957,-3.237724376958795e-05,0.0883364379405975,0,0,0
14605,494882.13759020827,2010-09-06 06:58:39,1620.802106091721,2,42,0.5501165986061096,3.894822359085083,43.31776076568317,43.04181358686538,172.39133303601804,157.5394224663957,0.0,0.0883364379405975,0,0,0
14606,494912.15260450926,2010-09-06 06:59:09,1650.8171203827233,2,42,0.5499359965324402,3.8959555625915527,43.32234694590176,43.04181358686538,172.40919806728232,157.5394224663957,0.0,0.0883364379405975,0,0,0
14607,494942.1677689545,2010-09-06 06:59:39,1680.8322848329683,2,42,0.5501165986061096,3.897250652313232,43.326933121779135,43.04181358686538,172.4270683534887,157.5394224663957,3.237724376958795e-05,0.0883364379405975,0,0,0
14608,494972.1828803826,2010-09-06 07:00:09,1710.847396251041,2,42,0.5501165986061096,3.898221969604492,43.33151921683381,43.04181358686538,172.4449433348576,157.5394224663957,3.237724376958795e-05,0.0883364379405975,0,0,0
14609,495002.1980387226,2010-09-06 07:00:39,1740.862554591058,2,42,0.5499359965324402,3.899355173110962,43.33610532417365,43.04181358686538,172.46282343990083,157.5394224663957,3.237724376958795e-05,0.0883364379405975,0,0,0
14610,495032.21315559925,2010-09-06 07:01:09,1770.877671467735,2,42,0.5497553944587708,3.9003264904022217,43.34069138155639,43.04181358686538,172.48070839614616,157.5394224663957,3.237724376958795e-05,0.0883364379405975,0,0,0
14611,495062.22833125753,2010-09-06 07:01:39,1800.8928471509762,2,42,0.5501165986061096,3.9014596939086914,43.34527746951366,43.04181358686538,172.49859862936685,157.5394224663957,0.0,0.0883364379405975,0,0,0
14612,495092.24345551257,2010-09-06 07:02:09,1830.9079713859928,2,42,0.5501165986061096,3.902754783630371,43.34986360086116,43.04181358686538,172.51649422659855,157.5394224663957,6.47544875391759e-05,0.0883364379405975,0,0,0
14613,495122.258603983,2010-09-06 07:02:39,1860.923119851399,2,42,0.5501165986061096,3.903726100921631,43.35444971460465,43.04181358686538,172.5343948863438,157.5394224663957,3.237724376958795e-05,0.0883364379405975,0,0,0
14614,495152.2737259523,2010-09-06 07:03:09,1890.938241810744,2,42,0.5501165986061096,3.905021190643311,43.35903583445088,43.04181358686538,172.552300835105,157.5394224663957,6.47544875391759e-05,0.0883364379405975,0,0,0
14615,495182.2888531698,2010-09-06 07:03:39,1920.9533690281933,2,42,0.5499359965324402,3.9059925079345694,43.36362200007754,43.04181358686538,172.57021211498216,157.5394224663957,3.237724376958795e-05,0.0883364379405975,0,0,0
14616,495212.3040000564,2010-09-06 07:04:09,1950.9685159246887,2,42,0.5501165986061096,3.90728759765625,43.36820810262821,43.04181358686538,172.58812849033816,157.5394224663957,3.237724376958795e-05,0.0883364379405975,0,0,0
14617,495242.31914683245,2010-09-06 07:04:39,1980.98366269086,2,42,0.550297200679779,3.90842080116272,43.37279422115064,43.04181358686538,172.60605021436,157.5394224663957,0.0,0.0883364379405975,0,0,0
14618,495272.3342889972,2010-09-06 07:05:09,2010.9988048906505,2,42,0.5501165986061096,3.9097158908844,43.37738026885867,43.04181358686538,172.62397713713634,157.5394224663957,6.47544875391759e-05,0.0883364379405975,0,0,0
14619,495302.3495021789,2010-09-06 07:05:39,2041.0140180723497,2,42,0.5501165986061096,3.910849094390869,43.38196643047831,43.04181358686538,172.64190993664812,157.5394224663957,3.237724376958795e-05,0.0883364379405975,0,0,0
14620,495332.3645545347,2010-09-06 07:06:09,2071.0290704081717,2,42,0.5499359965324402,3.911982297897339,43.38655249315928,43.04181358686538,172.65984787569602,157.5394224663957,3.237724376958795e-05,0.0883364379405975,0,0,0
14621,495362.379699747,2010-09-06 07:06:39,2101.0442156054323,2,42,0.5499359965324402,3.9131155014038086,43.3911385927509,43.04181358686538,172.67779155251958,157.5394224663957,3.237724376958795e-05,0.0883364379405975,0,0,0
14622,495392.3948255309,2010-09-06 07:07:09,2131.059341399334,2,42,0.5499359965324402,3.914572238922119,43.395724751399854,43.04181358686538,172.69574113365263,157.5394224663957,6.47544875391759e-05,0.0883364379405975,0,0,0
14623,495422.4100967422,2010-09-06 07:07:39,2161.074612600635,2,42,0.5499359965324402,3.915543556213379,43.40031091003553,43.04181358686538,172.71369642567524,157.5394224663957,0.0,0.0883364379405975,0,0,0
14624,495452.42522963387,2010-09-06 07:08:09,2191.089745502252,2,42,0.5501165986061096,3.9168386459350586,43.40489704963177,43.04181358686538,172.73165720886112,157.5394224663957,0.0,0.0883364379405975,0,0,0
14625,495482.4404065301,2010-09-06 07:08:39,2221.104922408542,2,42,0.5501165986061096,3.918295621871948,43.409483228523584,43.04181358686538,172.74962403665225,157.5394224663957,6.47544875391759e-05,0.0883364379405975,0,0,0
14626,495512.4555154269,2010-09-06 07:09:09,2251.120031300318,2,42,0.5499359965324402,3.919590711593628,43.41406936666009,43.04181358686538,172.76759652937037,157.5394224663957,6.47544875391759e-05,0.0883364379405975,0,0,0
14627,495542.4705238733,2010-09-06 07:09:39,2281.135039731716,2,42,0.5499359965324402,3.9207239151000977,43.41865551380312,43.04181358686538,172.7855749904666,157.5394224663957,3.237724376958795e-05,0.0883364379405975,0,0,0
14628,495572.4856645193,2010-09-06 07:10:09,2311.1501803876586,2,42,0.5501165986061096,3.9221808910369873,43.42324168980733,43.04181358686538,172.80355949739544,157.5394224663957,3.237724376958795e-05,0.0883364379405975,0,0,0
14629,495602.50081330544,2010-09-06 07:10:39,2341.1653291788766,2,42,0.5499359965324402,3.923314094543457,43.42782780149807,43.04181358686538,172.8215497732715,157.5394224663957,0.0,0.0883364379405975,0,0,0
14630,495632.5159396257,2010-09-06 07:11:09,2371.1804554940773,2,42,0.5499359965324402,3.9247710704803462,43.43241399182865,43.04181358686538,172.83954647069547,157.5394224663957,9.713172767078504e-05,0.0883364379405975,0,0,0
14631,495662.5311279654,2010-09-06 07:11:39,2401.195643833863,2,42,0.5499359965324402,3.9260661602020255,43.437000202097934,43.04181358686538,172.85754937445398,157.5394224663957,3.237724376958795e-05,0.0883364379405975,0,0,0
14632,495692.5462180804,2010-09-06 07:12:09,2431.210733973904,2,42,0.550297200679779,3.927523136138916,43.441586274595984,43.04181358686538,172.87555785226397,157.5394224663957,3.237724376958795e-05,0.0883364379405975,0,0,0
14633,495722.561560409,2010-09-06 07:12:39,2461.2260762974643,2,42,0.5501165986061096,3.928818225860596,43.446172303143626,43.04181358686538,172.89357243566815,157.5394224663957,6.47544875391759e-05,0.0883364379405975,0,0,0
14634,495752.5765193722,2010-09-06 07:13:09,2491.2410352405227,2,42,0.5499359965324402,3.9301133155822754,43.45075827734205,43.04181358686538,172.91159310466725,157.5394224663957,0.0,0.0883364379405975,0,0,0
14635,495782.5916940678,2010-09-06 07:13:39,2521.256209946328,2,42,0.5499359965324402,3.931570291519165,43.455344455467895,43.04181358686538,172.92962091554384,157.5394224663957,0.0,0.0883364379405975,0,0,0
14636,495812.6067889648,2010-09-06 07:14:09,2551.2713048332,2,42,0.5501165986061096,3.9328653812408447,43.459930549578175,43.04181358686538,172.9476548410975,157.5394224663957,0.0,0.0883364379405975,0,0,0
14637,495842.6220183819,2010-09-06 07:14:39,2581.2865342503624,2,42,0.5501165986061096,3.934484243392944,43.46451670537393,43.04181358686538,172.96569547914785,157.5394224663957,6.47544875391759e-05,0.0883364379405975,0,0,0
14638,495872.6371776493,2010-09-06 07:15:09,2611.30169351769,2,42,0.5499359965324402,3.935779333114624,43.469102857378765,43.04181358686538,172.98374261708048,157.5394224663957,-3.237724376958795e-05,0.0883364379405975,0,0,0
14639,495902.6523622447,2010-09-06 07:15:39,2641.316878138206,2,42,0.5501165986061096,3.937398195266724,43.47368898982417,43.04181358686538,173.001796099375,157.5394224663957,6.47544875391759e-05,0.0883364379405975,0,0,0
14640,495932.6673489118,2010-09-06 07:16:09,2671.3318647802985,2,42,0.5501165986061096,3.9386932849884033,43.47827510772022,43.04181358686538,173.01985631349945,157.5394224663957,0.0,0.0883364379405975,0,0,0
14641,495962.6825231214,2010-09-06 07:16:39,2701.347038989867,2,42,0.5501165986061096,3.940150260925293,43.48286123690133,43.04181358686538,173.03792322869143,157.5394224663957,3.237724376958795e-05,0.0883364379405975,0,0,0
14642,495992.6976208204,2010-09-06 07:17:09,2731.362136688748,2,42,0.5501165986061096,3.941607236862183,43.48744730985784,43.04181358686538,173.05599664541216,157.5394224663957,3.237724376958795e-05,0.0883364379405975,0,0,0
14643,496022.7127852004,2010-09-06 07:17:39,2761.377301068818,2,42,0.5499359965324402,3.943064212799072,43.49203350233434,43.04181358686538,173.07407729048623,157.5394224663957,3.237724376958795e-05,0.0883364379405975,0,0,0
14644,496052.72791744536,2010-09-06 07:18:09,2791.392433313797,2,42,0.5499359965324402,3.944521188735962,43.49661968585381,43.04181358686538,173.09216473807345,157.5394224663957,0.0,0.0883364379405975,0,0,0
14645,496082.74362896907,2010-09-06 07:18:39,2821.408144967843,2,42,0.5501165986061096,3.9461400508880615,43.50120595610669,43.04181358686538,173.11025941625985,157.5394224663957,3.237724376958795e-05,0.0883364379405975,0,0,0
14646,496112.7453759939,2010-09-06 07:19:09,2851.409891862411,2,42,0.5501165986061096,3.947597026824951,43.50579008953267,43.04181358686538,173.12835241902812,157.5394224663957,3.237724376958795e-05,0.0883364379405975,0,0,0
14647,496142.75773118273,2010-09-06 07:19:40,2881.422247051112,2,42,0.5501165986061096,3.949054002761841,43.51037578325286,43.04181358686538,173.14645858739812,157.5394224663957,0.0,0.0883364379405975,0,0,0
14648,496172.77310316014,2010-09-06 07:20:10,2911.437619028579,2,42,0.550297200679779,3.9508347511291504,43.51496192683143,43.04181358686538,173.16457350065485,157.5394224663957,6.47544875391759e-05,0.0883364379405975,0,0,0
14649,496202.78812608274,2010-09-06 07:20:40,2941.4526419410686,2,42,0.5499359965324402,3.95229172706604,43.5195480791696,43.04181358686538,173.18269553683973,157.5394224663957,6.47544875391759e-05,0.0883364379405975,0,0,0
14650,496232.8031474162,2010-09-06 07:21:10,2971.467663274623,2,42,0.5499359965324402,3.95391058921814,43.52413412322071,43.04181358686538,173.2008243251993,157.5394224663957,9.713172767078504e-05,0.0883364379405975,0,0,0
14651,496262.8182717415,2010-09-06 07:21:40,3001.4827876098893,2,42,0.5499359965324402,3.955367565155029,43.528720143057264,43.04181358686538,173.21896021777627,157.5394224663957,3.237724376958795e-05,0.0883364379405975,0,0,0
14652,496292.8333816708,2010-09-06 07:22:10,3031.4978975643144,2,42,0.5499359965324402,3.956986427307129,43.53330617810725,43.04181358686538,173.23710348143427,157.5394224663957,3.237724376958795e-05,0.0883364379405975,0,0,0
14653,496322.84864324814,2010-09-06 07:22:40,3061.51315914163,2,42,0.5501165986061096,3.9587671756744394,43.53789229255857,43.04181358686538,173.25525425825074,157.5394224663957,9.713172767078504e-05,0.0883364379405975,0,0,0
14654,496352.86379696167,2010-09-06 07:23:10,3091.5283128501032,2,42,0.5501165986061096,3.960224151611328,43.542478518180495,43.04181358686538,173.27341296896097,157.5394224663957,3.237724376958795e-05,0.0883364379405975,0,0,0
14655,496382.878789739,2010-09-06 07:23:40,3121.543305597412,2,42,0.5499359965324402,3.9620048999786377,43.547064626234416,43.04181358686538,173.29157880251304,157.5394224663957,6.47544875391759e-05,0.0883364379405975,0,0,0
14656,496412.8941767991,2010-09-06 07:24:10,3151.5586926674946,2,42,0.550297200679779,3.963623762130737,43.551650784132114,43.04181358686538,173.30975236300537,157.5394224663957,6.47544875391759e-05,0.0883364379405975,0,0,0
14657,496442.9091960424,2010-09-06 07:24:40,3181.573711915852,2,42,0.5501165986061096,3.965242624282837,43.556236933484406,43.04181358686538,173.32793363835822,157.5394224663957,6.47544875391759e-05,0.0883364379405975,0,0,0
14658,496472.9244455898,2010-09-06 07:25:10,3211.5889614732105,2,42,0.5501165986061096,3.9670233726501465,43.56082304627515,43.04181358686538,173.34612257156533,157.5394224663957,6.47544875391759e-05,0.0883364379405975,0,0,0
14659,496502.93935683393,2010-09-06 07:25:40,3241.6038727023506,2,42,0.5501165986061096,3.968642234802246,43.56540917077493,43.04181358686538,173.36431934301476,157.5394224663957,3.237724376958795e-05,0.0883364379405975,0,0,0
14660,496532.9544874448,2010-09-06 07:26:10,3271.619003308245,2,42,0.5499359965324402,3.9702610969543457,43.569995336127405,43.04181358686538,173.38252428209617,157.5394224663957,0.0,0.0883364379405975,0,0,0
14661,496562.96963090776,2010-09-06 07:26:40,3301.6341467812085,2,42,0.5499359965324402,3.9720418453216553,43.57458148056018,43.04181358686538,173.4007372753915,157.5394224663957,0.0,0.0883364379405975,0,0,0
14662,496592.9849825395,2010-09-06 07:27:10,3331.649498412968,2,42,0.5501165986061096,3.973984479904175,43.57916767710916,43.04181358686538,173.41895863221032,157.5394224663957,6.47544875391759e-05,0.0883364379405975,0,0,0
14663,496622.99991517205,2010-09-06 07:27:40,3361.664431030414,2,42,0.5501165986061096,3.975765228271485,43.583753803838896,43.04181358686538,173.4371880194294,157.5394224663957,6.47544875391759e-05,0.0883364379405975,0,0,0
14664,496653.01507227897,2010-09-06 07:28:10,3391.6795881473827,2,42,0.5501165986061096,3.977707862854004,43.58834003057741,43.04181358686538,173.45542624409535,157.5394224663957,6.47544875391759e-05,0.0883364379405975,0,0,0
14665,496683.0302051756,2010-09-06 07:28:40,3421.694721049,2,42,0.5501165986061096,3.9794886112213135,43.59292612315673,43.04181358686538,173.47367195233758,157.5394224663957,3.237724376958795e-05,0.0883364379405975,0,0,0
14666,496713.0453463929,2010-09-06 07:29:10,3451.709862256316,2,42,0.5501165986061096,3.981431245803833,43.59751210859184,43.04181358686538,173.49192629082057,157.5394224663957,9.713172767078504e-05,0.0883364379405975,0,0,0
14667,496743.0604576205,2010-09-06 07:29:40,3481.7249734889265,2,42,0.5501165986061096,3.983211994171143,43.60209812825124,43.04181358686538,173.51018943896852,157.5394224663957,3.237724376958795e-05,0.0883364379405975,0,0,0
14668,496773.075602532,2010-09-06 07:30:10,3511.7401183904503,2,42,0.5501165986061096,3.985154628753662,43.60668420585071,43.04181358686538,173.5284616244878,157.5394224663957,0.0,0.0883364379405975,0,0,0
14669,496803.0908580994,2010-09-06 07:30:40,3541.7553739628,2,42,0.5501165986061096,3.987259149551392,43.611270224267614,43.04181358686538,173.54674233500285,157.5394224663957,3.237724376958795e-05,0.0883364379405975,0,0,0
14670,496833.1060189507,2010-09-06 07:31:10,3571.7705348140757,2,42,0.5499359965324402,3.989039897918701,43.61585624635719,43.04181358686538,173.5650319397443,157.5394224663957,3.237724376958795e-05,0.0883364379405975,0,0,0
14671,496863.12105609366,2010-09-06 07:31:40,3601.7855719670565,2,42,0.5501165986061096,3.991144418716431,43.62044225233241,43.04181358686538,173.58333051385344,157.5394224663957,3.237724376958795e-05,0.0883364379405975,0,0,0
14672,496893.13618896005,2010-09-06 07:32:10,3631.8007048285726,2,42,0.5501165986061096,3.99324893951416,43.62502821999284,43.04181358686538,173.60163804746355,157.5394224663957,6.47544875391759e-05,0.0883364379405975,0,0,0
14673,496923.15130169154,2010-09-06 07:32:40,3661.8158175599183,2,42,0.5499359965324402,3.99502944946289,43.62961420914595,43.04181358686538,173.61995477272535,157.5394224663957,3.237724376958795e-05,0.0883364379405975,0,0,0
14674,496953.1664205582,2010-09-06 07:33:10,3691.830936426555,2,42,0.5499359965324402,3.99697208404541,43.63420025152794,43.04181358686538,173.63828099731708,157.5394224663957,3.237724376958795e-05,0.0883364379405975,0,0,0
14675,496983.1816726368,2010-09-06 07:33:40,3721.846188520235,2,42,0.5499359965324402,3.9992384910583496,43.63878652947679,43.04181358686538,173.65661740636648,157.5394224663957,6.47544875391759e-05,0.0883364379405975,0,0,0
14676,497013.1966846922,2010-09-06 07:34:10,3751.861200555616,2,42,0.5501165986061096,4.001019477844238,43.643372668606204,43.04181358686538,173.6749626562574,157.5394224663957,3.24249267578125e-05,0.0883364379405975,0,0,0
14677,497043.2118219396,2010-09-06 07:34:40,3781.8763378181006,2,42,0.550297200679779,4.003447532653809,43.64795884459805,43.04181358686538,173.69331755334568,157.5394224663957,9.70840483205393e-05,0.0883364379405975,0,0,0
14678,497073.2271185493,2010-09-06 07:35:10,3811.891634422715,2,42,0.5501165986061096,4.005390167236328,43.65254499832912,43.04181358686538,173.71168187832444,157.5394224663957,6.47544875391759e-05,0.0883364379405975,0,0,0
14679,497103.24211821385,2010-09-06 07:35:40,3841.906634092276,2,42,0.5501165986061096,4.007332801818848,43.6571311406026,43.04181358686538,173.73005585403328,157.5394224663957,3.23295607813634e-05,0.0883364379405975,0,0,0
14680,497133.2572484789,2010-09-06 07:36:10,3871.9217643573215,2,42,0.5501165986061096,4.009599208831787,43.661717296316034,43.04181358686538,173.74843952364662,157.5394224663957,3.23295607813634e-05,0.0883364379405975,0,0,0
14681,497163.2723785936,2010-09-06 07:36:40,3901.93689448703,2,42,0.5499359965324402,4.011541843414307,43.66630341364887,43.04181358686538,173.76683278146123,157.5394224663957,6.47544875391759e-05,0.0883364379405975,0,0,0
14682,497193.2874856207,2010-09-06 07:37:10,3931.952001489096,2,42,0.5501165986061096,4.013808250427246,43.67089045711447,43.04181358686538,173.7852397377916,157.5394224663957,3.23295607813634e-05,0.0883364379405975,0,0,0
14683,497223.3026199158,2010-09-06 07:37:40,3961.967135784185,2,42,0.5501165986061096,4.0160746574401855,43.675477586422936,43.04181358686538,173.8036569136523,157.5394224663957,3.23295607813634e-05,0.0883364379405975,0,0,0
14684,497253.3177745416,2010-09-06 07:38:10,3991.982290414958,2,42,0.550297200679779,4.018341064453125,43.680064524796485,43.04181358686538,173.82208335377862,157.5394224663957,9.70840483205393e-05,0.0883364379405975,0,0,0
14685,497283.332916225,2010-09-06 07:38:40,4021.9974320984606,2,42,0.5501165986061096,4.020445823669434,43.68465165102259,43.04181358686538,173.8405205613985,157.5394224663957,3.24249267578125e-05,0.0883364379405975,0,0,0
14686,497313.3480700137,2010-09-06 07:39:10,4052.0125858821216,2,42,0.5501165986061096,4.022712230682373,43.68923879324794,43.04181358686538,173.85896808317185,157.5394224663957,6.47544875391759e-05,0.0883364379405975,0,0,0
14687,497343.3631843541,2010-09-06 07:39:40,4082.027700222478,2,42,0.550297200679779,4.0249786376953125,43.69382591886244,43.04181358686538,173.8774257924915,157.5394224663957,6.47544875391759e-05,0.0883364379405975,0,0,0
14688,497373.3784590992,2010-09-06 07:40:10,4112.042974967611,2,42,0.5501165986061096,4.027245044708252,43.69841239702037,43.04181358686538,173.89589122846627,157.5394224663957,6.47544875391759e-05,0.0883364379405975,0,0,0
14689,497403.39359073766,2010-09-06 07:40:40,4142.058106596055,2,42,0.5501165986061096,4.029511451721191,43.70299872697502,43.04181358686538,173.91436658386422,157.5394224663957,3.24249267578125e-05,0.0883364379405975,0,0,0
14690,497433.40882636525,2010-09-06 07:41:10,4172.073342223696,2,42,0.5499359965324402,4.031777858734131,43.70758504861037,43.04181358686538,173.932852331211,157.5394224663957,6.47544875391759e-05,0.0883364379405975,0,0,0
14691,497463.4238879994,2010-09-06 07:41:40,4202.088403857691,2,42,0.5499359965324402,4.03404426574707,43.71217134723779,43.04181358686538,173.9513487641168,157.5394224663957,3.24249267578125e-05,0.0883364379405975,0,0,0
14692,497493.43891118746,2010-09-06 07:42:10,4232.103427055894,2,42,0.5499359965324402,4.036472320556641,43.71675772551993,43.04181358686538,173.96985633479937,157.5394224663957,6.47544875391759e-05,0.0883364379405975,0,0,0
14693,497523.4540501692,2010-09-06 07:42:40,4262.118566037663,2,42,0.5501165986061096,4.038900375366211,43.72134407370266,43.04181358686538,173.98837475867774,157.5394224663957,6.47544875391759e-05,0.0883364379405975,0,0,0
14694,497553.4691821987,2010-09-06 07:43:10,4292.133698067106,2,42,0.5501165986061096,4.04132890701294,43.725930440203165,43.04181358686538,174.00690426610458,157.5394224663957,6.47544875391759e-05,0.0883364379405975,0,0,0
14695,497583.484304158,2010-09-06 07:43:40,4322.148820026451,2,42,0.5501165986061096,4.04375696182251,43.73051676614216,43.04181358686538,174.0254447756245,157.5394224663957,6.47544875391759e-05,0.0883364379405975,0,0,0
14696,497613.49958227656,2010-09-06 07:44:10,4352.164098144992,2,42,0.550297200679779,4.046347141265869,43.73510314595747,43.04181358686538,174.0439968425662,157.5394224663957,6.47544875391759e-05,0.0883364379405975,0,0,0
14697,497643.51460226177,2010-09-06 07:44:40,4382.179118120161,2,42,0.5499359965324402,4.048613548278809,43.73968944505094,43.04181358686538,174.06256004991647,157.5394224663957,3.23295607813634e-05,0.0883364379405975,0,0,0
14698,497673.5297417247,2010-09-06 07:45:10,4412.194257598168,2,42,0.5501165986061096,4.051365852355957,43.74427590040632,43.04181358686538,174.08113550166954,157.5394224663957,6.47544875391759e-05,0.0883364379405975,0,0,0
14699,497703.54486780433,2010-09-06 07:45:40,4442.209383672769,2,42,0.5501165986061096,4.053956031799316,43.74886235461327,43.04181358686538,174.09972266803317,157.5394224663957,9.71794142969884e-05,0.0883364379405975,0,0,0
14700,497733.5600248562,2010-09-06 07:46:10,4472.224540724576,2,42,0.5501165986061096,4.056384086608887,43.75344878058953,43.04181358686538,174.11832148239336,157.5394224663957,3.23295607813634e-05,0.0883364379405975,0,0,0
14701,497763.5751415524,2010-09-06 07:46:40,4502.239657420803,2,42,0.5501165986061096,4.058974266052246,43.75803518750183,43.04181358686538,174.13693216859556,157.5394224663957,6.47544875391759e-05,0.0883364379405975,0,0,0
14702,497793.5902921582,2010-09-06 07:47:10,4532.254808031556,2,42,0.5501165986061096,4.0617265701293945,43.76262160370029,43.04181358686538,174.1555547144353,157.5394224663957,6.47544875391759e-05,0.0883364379405975,0,0,0
14703,497823.6054356111,2010-09-06 07:47:40,4562.269951484469,2,42,0.5501165986061096,4.064316749572754,43.76720794310073,43.04181358686538,174.1741890123735,157.5394224663957,9.71794142969884e-05,0.0883364379405975,0,0,0
14704,497853.621092268,2010-09-06 07:48:10,4592.2856081364325,2,42,0.5499359965324402,4.066906929016113,43.771794366702906,43.04181358686538,174.19283594599705,157.5394224663957,3.24249267578125e-05,0.0883364379405975,0,0,0
14705,497883.6214380957,2010-09-06 07:48:40,4622.28595408441,2,42,0.5499359965324402,4.069820880889893,43.77637844008322,43.04181358686538,174.21148576016358,157.5394224663957,6.47544875391759e-05,0.0883364379405975,0,0,0
14706,497913.6353405808,2010-09-06 07:49:10,4652.299856459175,2,42,0.5501165986061096,4.072411060333252,43.78096466605187,43.04181358686538,174.2301567948534,157.5394224663957,6.47544875391759e-05,0.0883364379405975,0,0,0
14707,497943.65034433047,2010-09-06 07:49:40,4682.3148601988805,2,42,0.5501165986061096,4.075325012207031,43.78555096401694,43.04181358686538,174.24884065559036,157.5394224663957,9.71794142969884e-05,0.0883364379405975,0,0,0
14708,497973.66558967234,2010-09-06 07:50:10,4712.330105540732,2,42,0.5501165986061096,4.0780768394470215,43.79013732602873,43.04181358686538,174.26753752857996,157.5394224663957,9.70840483205393e-05,0.0883364379405975,0,0,0
14709,498003.68060195335,2010-09-06 07:50:40,4742.34511783175,2,42,0.5501165986061096,4.080990791320801,43.79472359446976,43.04181358686538,174.28624691674102,157.5394224663957,9.70840483205393e-05,0.0883364379405975,0,0,0
14710,498033.69574610295,2010-09-06 07:51:10,4772.360261971375,2,42,0.5501165986061096,4.08358097076416,43.79930990018964,43.04181358686538,174.30496939189632,157.5394224663957,6.47544875391759e-05,0.0883364379405975,0,0,0
14711,498063.71385581366,2010-09-06 07:51:40,4802.378371712191,2,42,0.5501165986061096,4.08649492263794,43.80389657966473,43.04181358686538,174.32370652554405,157.5394224663957,3.23295607813634e-05,0.0883364379405975,0,0,0
14712,498093.72605413146,2010-09-06 07:52:11,4832.390569999846,2,42,0.5501165986061096,4.089570999145508,43.80848244441111,43.04181358686538,174.342453562821,157.5394224663957,0.0001295089750783,0.0883364379405975,0,0,0
14713,498123.7415701128,2010-09-06 07:52:41,4862.406085986227,2,42,0.5497553944587708,4.092322826385498,43.8130689207328,43.04181358686538,174.36121646181994,157.5394224663957,9.70840483205393e-05,0.0883364379405975,0,0,0
14714,498153.75640713697,2010-09-06 07:53:11,4892.420923000401,2,42,0.550297200679779,4.095398902893066,43.81765520270613,43.04181358686538,174.379991926475,157.5394224663957,9.71794142969884e-05,0.0883364379405975,0,0,0
14715,498183.7714465706,2010-09-06 07:53:41,4922.435962454116,2,42,0.5501165986061096,4.098312854766846,43.82224147202536,43.04181358686538,174.39878091732376,157.5394224663957,6.47544875391759e-05,0.0883364379405975,0,0,0
14716,498213.7867278522,2010-09-06 07:54:11,4952.451243730528,2,42,0.5499359965324402,4.101064682006836,43.82682780943208,43.04181358686538,174.41758391659977,157.5394224663957,6.47544875391759e-05,0.0883364379405975,0,0,0
14717,498243.8017495365,2010-09-06 07:54:41,4982.466265414957,2,42,0.5497553944587708,4.103978633880615,43.83141414428689,43.04181358686538,174.43640059287313,157.5394224663957,-3.24249267578125e-05,0.0883364379405975,0,0,0
14718,498273.81687481416,2010-09-06 07:55:11,5012.481390682548,2,42,0.5501165986061096,4.107378482818604,43.83600046355852,43.04181358686538,174.4552311589989,157.5394224663957,6.47544875391759e-05,0.0883364379405975,0,0,0
14719,498303.8320328384,2010-09-06 07:55:41,5042.496548726827,2,42,0.5501165986061096,4.110454082489014,43.840586808741165,43.04181358686538,174.4740758559121,157.5394224663957,9.70840483205393e-05,0.0883364379405975,0,0,0
14720,498333.8471491837,2010-09-06 07:56:11,5072.5116650521295,2,42,0.5501165986061096,4.113530158996582,43.84517317376434,43.04181358686538,174.4929347569164,157.5394224663957,6.47544875391759e-05,0.0883364379405975,0,0,0
14721,498363.86241386377,2010-09-06 07:56:41,5102.526929732178,2,42,0.5501165986061096,4.116605758666992,43.84975956471615,43.04181358686538,174.51180802610648,157.5394224663957,9.71794142969884e-05,0.0883364379405975,0,0,0
14722,498393.87755847455,2010-09-06 07:57:11,5132.542074353003,2,42,0.5499359965324402,4.119681358337402,43.85434598492958,43.04181358686538,174.5306957960287,157.5394224663957,6.47544875391759e-05,0.0883364379405975,0,0,0
14723,498423.8925795074,2010-09-06 07:57:41,5162.557095375782,2,42,0.5501165986061096,4.122919082641602,43.858932373530045,43.04181358686538,174.54959800953645,157.5394224663957,3.23295607813634e-05,0.0883364379405975,0,0,0
14724,498453.9077216069,2010-09-06 07:58:11,5192.572237475323,2,42,0.550297200679779,4.12631893157959,43.86351875022539,43.04181358686538,174.56851474659794,157.5394224663957,9.71794142969884e-05,0.0883364379405975,0,0,0
14725,498483.9228452404,2010-09-06 07:58:41,5222.58736110884,2,42,0.5501165986061096,4.12939453125,43.86810510420563,43.04181358686538,174.58744620228637,157.5394224663957,9.70840483205393e-05,0.0883364379405975,0,0,0
14726,498513.9380034201,2010-09-06 07:59:11,5252.60251931352,2,42,0.550297200679779,4.132794380187988,43.87269150906428,43.04181358686538,174.60639280213374,157.5394224663957,0.0001295089750783,0.0883364379405975,0,0,0
14727,498543.9531304119,2010-09-06 07:59:41,5282.617646280344,2,42,0.550297200679779,4.136032104492188,43.8772779276699,43.04181358686538,174.62535444375115,157.5394224663957,9.71794142969884e-05,0.0883364379405975,0,0,0
14728,498573.96830702754,2010-09-06 08:00:11,5312.632822986135,2,42,0.5499359965324402,4.139107704162598,43.88186435463133,43.04181358686538,174.64433134114697,157.5394224663957,3.23295607813634e-05,0.0883364379405975,0,0,0
14729,498603.9835178182,2010-09-06 08:00:41,5342.648033696675,2,42,0.5501165986061096,4.142669200897217,43.88645080705124,43.04181358686538,174.66332368471353,157.5394224663957,9.70840483205393e-05,0.0883364379405975,0,0,0
14730,498633.99865165714,2010-09-06 08:01:11,5372.66316752059,2,42,0.5501165986061096,4.146069049835205,43.891037194070286,43.04181358686538,174.68233130596354,157.5394224663957,6.47544875391759e-05,0.0883364379405975,0,0,0
14731,498664.0136774518,2010-09-06 08:01:41,5402.678193320276,2,42,0.5501165986061096,4.149792194366455,43.89562349673245,43.04181358686538,174.7013543848877,157.5394224663957,0.0001295089750783,0.0883364379405975,0,0,0
14732,498694.0288034713,2010-09-06 08:02:11,5432.693319339739,2,42,0.5501165986061096,4.152868270874023,43.90020981630067,43.04181358686538,174.72039330436635,157.5394224663957,6.47544875391759e-05,0.0883364379405975,0,0,0
14733,498724.04398096906,2010-09-06 08:02:41,5462.708496857553,2,42,0.5501165986061096,4.156429767608643,43.90479615524278,43.04181358686538,174.73944812254072,157.5394224663957,9.71794142969884e-05,0.0883364379405975,0,0,0
14734,498754.05912002106,2010-09-06 08:03:11,5492.723635884435,2,42,0.5499359965324402,4.159829139709473,43.90938247508071,43.04181358686538,174.75851883676398,157.5394224663957,6.47544875391759e-05,0.0883364379405975,0,0,0
14735,498784.0742296697,2010-09-06 08:03:41,5522.7387455381095,2,42,0.5501165986061096,4.163552761077881,43.913968790996215,43.04181358686538,174.77760567291443,157.5394224663957,0.0001295089750783,0.0883364379405975,0,0,0
14736,498814.0893828018,2010-09-06 08:04:11,5552.753898670148,2,42,0.5499359965324402,4.166952133178711,43.91855517902957,43.04181358686538,174.79670904957024,157.5394224663957,6.47544875391759e-05,0.0883364379405975,0,0,0
14737,498844.1045058438,2010-09-06 08:04:41,5582.769021712191,2,42,0.5501165986061096,4.170675754547119,43.92314156242486,43.04181358686538,174.81582878638383,157.5394224663957,9.71794142969884e-05,0.0883364379405975,0,0,0
14738,498874.1196941536,2010-09-06 08:05:11,5612.784210127163,2,42,0.5499359965324402,4.174075126647949,43.927727919818686,43.04181358686538,174.83496494590926,157.5394224663957,9.70840483205393e-05,0.0883364379405975,0,0,0
14739,498904.1347875717,2010-09-06 08:05:41,5642.799303440112,2,42,0.5499359965324402,4.177798748016357,43.93231420866805,43.04181358686538,174.85411735709215,157.5394224663957,6.47544875391759e-05,0.0883364379405975,0,0,0
14740,498934.1501466871,2010-09-06 08:06:11,5672.81466257056,2,42,0.5501165986061096,4.1816840171813965,43.93690058196084,43.04181358686538,174.87328699711207,157.5394224663957,0.0001295089750783,0.0883364379405975,0,0,0
14741,498964.1650402222,2010-09-06 08:06:41,5702.829556090564,2,42,0.550297200679779,4.185083389282227,43.94148691868767,43.04181358686538,174.8924734461223,157.5394224663957,6.47544875391759e-05,0.0883364379405975,0,0,0
14742,498994.180244637,2010-09-06 08:07:11,5732.844760525463,2,42,0.5501165986061096,4.188968658447266,43.94607329315427,43.04181358686538,174.91167709074278,157.5394224663957,6.47544875391759e-05,0.0883364379405975,0,0,0
14743,499024.1954693875,2010-09-06 08:07:41,5762.859985245921,2,42,0.5499359965324402,4.192692279815674,43.95065961318236,43.04181358686538,174.93089774047905,157.5394224663957,9.71794142969884e-05,0.0883364379405975,0,0,0
14744,499054.210530004,2010-09-06 08:08:11,5792.875045887442,2,42,0.5501165986061096,4.196577072143555,43.95524590870686,43.04181358686538,174.95013561342785,157.5394224663957,9.70840483205393e-05,0.0883364379405975,0,0,0
14745,499081.00691088015,2010-09-06 08:08:38,5819.671426748589,2,42,0.5501165986061096,4.200138568878174,43.95934046685189,43.04181358686538,174.9673256406202,157.5394224663957,9.70840483205393e-05,0.0883364379405975,0,0,0
14746,499111.0161062408,2010-09-06 08:09:08,30.01517327223233,3,42,0.0,4.115472316741943,43.95934046685189,43.04181358686538,174.9673256406202,157.5394224663957,-0.0004209518374409,0.0883364379405975,0,0,0
14747,499141.0311490578,2010-09-06 08:09:38,60.030216094342826,3,42,0.0,4.104788303375244,43.95934046685189,43.04181358686538,174.9673256406202,157.5394224663957,-0.0002590179501567,0.0883364379405975,0,0,0
14748,499171.0463871616,2010-09-06 08:10:08,90.04545432346772,3,42,0.0,4.098474502563477,43.95934046685189,43.04181358686538,174.9673256406202,157.5394224663957,-0.0001295089750783,0.0883364379405975,0,0,0
14749,499201.01460457547,2010-09-06 08:10:38,120.01367162196551,3,42,0.0,4.0945892333984375,43.95934046685189,43.04181358686538,174.9673256406202,157.5394224663957,-6.47544875391759e-05,0.0883364379405975,0,0,0
14750,499201.0262037883,2010-09-06 08:10:38,0.015654741432493,4,42,1.004529595375061,4.199814796447754,43.959344867294405,43.04181358686538,174.96734412202056,157.5394224663957,-3.24249267578125e-05,0.0883364379405975,0,0,0
14751,499201.94806745625,2010-09-06 08:10:39,0.937518399318301,4,42,0.9545007944107056,4.199814796447754,43.95959422415521,43.04181358686538,174.96839137601808,157.5394224663957,-3.24249267578125e-05,0.0883364379405975,0,0,0
14752,499204.08873745456,2010-09-06 08:10:41,3.078188392609272,4,42,0.9039301872253418,4.199814796447754,43.960145680626376,43.04181358686538,174.97070736165728,157.5394224663957,-3.24249267578125e-05,0.0883364379405975,0,0,0
14753,499207.291698103,2010-09-06 08:10:44,6.281149071146549,4,42,0.8535401821136475,4.199814796447754,43.96092637443995,43.04181358686538,174.9739861076267,157.5394224663957,3.23295607813634e-05,0.0883364379405975,0,0,0
14754,499211.5103689588,2010-09-06 08:10:49,10.499819891884387,4,42,0.8033308386802673,4.199814796447754,43.96189600903662,43.04181358686538,174.97805837187167,157.5394224663957,0.0,0.0883364379405975,0,0,0
14755,499216.994654546,2010-09-06 08:10:54,15.984105509115023,4,42,0.7531214356422424,4.199814796447754,43.96308027671788,43.04181358686538,174.98303205128923,157.5394224663957,0.0,0.0883364379405975,0,0,0
14756,499224.0257867358,2010-09-06 08:11:01,23.01523769394491,4,42,0.7029120922088623,4.199814796447754,43.96450016884342,43.04181358686538,174.98899531551854,157.5394224663957,0.0,0.0883364379405975,0,0,0
14757,499233.2445323916,2010-09-06 08:11:10,32.23398346995589,4,42,0.6527026891708374,4.199653148651123,43.96623291233206,43.04181358686538,174.99627248267907,157.5394224663957,-3.23295607813634e-05,0.0883364379405975,0,0,0
14758,499245.8535744992,2010-09-06 08:11:23,44.84302546731855,4,42,0.6026738882064819,4.199814796447754,43.96842678989166,43.04181358686538,175.00548635288962,157.5394224663957,0.0,0.0883364379405975,0,0,0
14759,499264.5096635485,2010-09-06 08:11:42,63.49911452157686,4,42,0.5526451468467712,4.199653148651123,43.97141120938329,43.04181358686538,175.0180203480923,157.5394224663957,0.0,0.0883364379405975,0,0,0
14760,499294.80593125446,2010-09-06 08:12:12,93.79538221760389,4,42,0.5024357438087463,4.199814796447754,43.97583376363779,43.04181358686538,175.03659423053517,157.5394224663957,0.0,0.0883364379405975,0,0,0
14761,499349.1800413223,2010-09-06 08:13:06,148.16949228037572,4,42,0.4524070024490356,4.199814796447754,43.98301478065632,43.04181358686538,175.06675312434035,157.5394224663957,0.0,0.0883364379405975,0,0,0
14762,499436.5067220253,2010-09-06 08:14:34,235.49617297842315,4,42,0.4023782312870025,4.199653148651123,43.99335596707556,43.04181358686538,175.1101840743187,157.5394224663957,-3.23295607813634e-05,0.0883364379405975,0,0,0
14763,499551.3798670833,2010-09-06 08:16:28,350.3693180264659,4,42,0.3523494601249695,4.199814796447754,44.00538547296532,43.04181358686538,175.16070573420788,157.5394224663957,0.0,0.0883364379405975,0,0,0
14764,499689.98711644206,2010-09-06 08:18:47,488.9765673952774,4,42,0.3023206889629364,4.199653148651123,44.01797915288888,43.04181358686538,175.21359676588102,157.5394224663957,-6.47544875391759e-05,0.0883364379405975,0,0,0
14765,499857.3748662536,2010-09-06 08:21:34,656.3643172167556,4,42,0.2522919178009033,4.199491024017334,44.03085654585578,43.04181358686538,175.26767934165898,157.5394224663957,-9.71794142969884e-05,0.0883364379405975,0,0,0
14766,500064.05907602445,2010-09-06 08:25:01,863.0485269726087,4,42,0.2022631466388702,4.199653148651123,44.043866384172176,43.04181358686538,175.3223176567595,157.5394224663957,-3.23295607813634e-05,0.0883364379405975,0,0,0
14767,500336.3202840476,2010-09-06 08:29:33,1135.309735000694,4,42,0.1522343754768371,4.199653148651123,44.05721005923083,43.04181358686538,175.378358428778,157.5394224663957,-6.47544875391759e-05,0.0883364379405975,0,0,0
14768,500729.40766535175,2010-09-06 08:36:07,1528.3971162948424,4,42,0.102205604314804,4.199814796447754,44.0709523465856,43.04181358686538,175.4360735850356,157.5394224663957,3.23295607813634e-05,0.0883364379405975,0,0,0
14769,501449.69314221136,2010-09-06 08:48:07,2248.682593184552,4,42,0.0521768368780612,4.199814796447754,44.085854859407945,43.04181358686538,175.49866141787578,157.5394224663957,-3.24249267578125e-05,0.0883364379405975,0,0,0
14770,501500.31703603134,2010-09-06 08:48:57,2299.306487009547,4,42,0.0498289167881011,4.199653148651123,44.08658090749246,43.04181358686538,175.5017106861939,157.5394224663957,-3.23295607813634e-05,0.0883364379405975,0,0,0
14771,501530.33417312463,2010-09-06 08:49:28,30.015118560874797,5,42,0.0,4.191882610321045,44.08658090749246,43.04181358686538,175.5017106861939,157.5394224663957,-3.24249267578125e-05,0.0883364379405975,0,0,0
14772,501560.3336665378,2010-09-06 08:49:58,60.01461198409884,5,42,0.0,4.190425872802734,44.08658090749246,43.04181358686538,175.5017106861939,157.5394224663957,-3.23295607813634e-05,0.0883364379405975,0,0,0
14773,501560.5082430659,2010-09-06 08:49:58,0.187427406767636,6,42,-1.9243103452026844e-05,4.190587520599365,44.08658090749246,43.04181358786724,175.5017106861939,157.5394224705941,0.0,0.0925559401512146,0,0,0
14774,501565.3208505345,2010-09-06 08:50:03,5.000034880394213,6,42,0.0007031940040178,4.190425872802734,44.0865820346011,43.04181358786724,175.50171540951854,157.5394224705941,-6.47544875391759e-05,0.0925559401512146,0,0,0
14775,501595.33897708426,2010-09-06 08:50:33,30.015217743067332,7,42,-1.0993878841400146,4.012027740478516,44.0865820346011,43.0509800457386,175.50171540951854,157.57640526492952,-0.0009713172912597,0.0925559401512146,0,0,0
14776,501625.3541652386,2010-09-06 08:51:03,60.03040588235295,7,42,-1.0993878841400146,3.9835357666015625,44.0865820346011,43.06014654869825,175.50171540951854,157.61304201117397,-0.0006151676061563,0.0925559401512146,0,0,0
14777,501655.3691192845,2010-09-06 08:51:33,90.04535992319319,7,42,-1.0993878841400146,3.9637856483459473,44.0865820346011,43.069312720138896,175.50171540951854,157.64946060396767,-0.0004532813909463,0.0925559401512146,0,0,0
14778,501685.3842828875,2010-09-06 08:52:03,120.06052352131466,7,42,-1.0993878841400146,3.948892116546631,44.0865820346011,43.0784791470692,175.50171540951854,157.6857230792408,-0.0003237724304199,0.0925559401512146,0,0,0
14779,501715.3994052279,2010-09-06 08:52:33,150.07564587163392,7,42,-1.0992072820663452,3.936426877975464,44.0865820346011,43.08764575336202,175.50171540951854,157.7218618024058,-0.0003237724304199,0.0925559401512146,0,0,0
14780,501745.4145743248,2010-09-06 08:53:03,180.09081496344737,7,42,-1.0993878841400146,3.9257423877716064,44.0865820346011,43.09681232688448,175.50171540951854,157.75789467506084,-0.0002266406954731,0.0925559401512146,0,0,0
14781,501775.42967894085,2010-09-06 08:53:33,210.10591957455503,7,42,-1.0993878841400146,3.915705442428589,44.0865820346011,43.105978986806754,175.50171540951854,157.79383361336616,-0.0002590179501567,0.0925559401512146,0,0,0
14782,501805.444827271,2010-09-06 08:54:03,240.12106789961132,7,42,-1.0993878841400146,3.9064781665802,44.0865820346011,43.11514563314631,175.50171540951854,157.82968535586545,-0.0002266406954731,0.0925559401512146,0,0,0
14783,501835.4599898765,2010-09-06 08:54:33,270.1362305353342,7,42,-1.099568486213684,3.897574424743652,44.0865820346011,43.12431223801294,175.50171540951854,157.86545460991798,-0.0002590179501567,0.0925559401512146,0,0,0
14784,501865.475092583,2010-09-06 08:55:03,300.1513332116198,7,42,-1.0992072820663452,3.889318227767944,44.0865820346011,43.13347876025301,175.50171540951854,157.901144872621,-0.0002266406954731,0.0925559401512146,0,0,0
14785,501895.49022972514,2010-09-06 08:55:33,330.1664703638299,7,42,-1.0993878841400146,3.881062030792236,44.0865820346011,43.14264537994544,175.50171540951854,157.93675921702803,-0.0002266406954731,0.0925559401512146,0,0,0
14786,501925.50538410526,2010-09-06 08:56:03,360.1816247389648,7,42,-1.099568486213684,3.873129606246948,44.0865820346011,43.15181204829758,175.50171540951854,157.97229933313747,-0.0001942634553415,0.0925559401512146,0,0,0
14787,501955.5205036135,2010-09-06 08:56:33,390.1967442722632,7,42,-1.0993878841400146,3.86552095413208,44.0865820346011,43.16097866505572,175.50171540951854,158.0077667417834,-0.0001618862152099,0.0925559401512146,0,0,0
14788,501985.5356394674,2010-09-06 08:57:03,420.2118801112002,7,42,-1.0993878841400146,3.857588529586792,44.0865820346011,43.170145347672765,175.50171540951854,158.04316334549563,-0.0001942634553415,0.0925559401512146,0,0,0
14789,502015.5509056464,2010-09-06 08:57:33,450.22714628998426,7,42,-1.0993878841400146,3.850141763687134,44.0865820346011,43.17931212366095,175.50171540951854,158.07849054941386,-0.0001618862152099,0.0925559401512146,0,0,0
14790,502045.56596641307,2010-09-06 08:58:03,480.2422070467936,7,42,-1.0993878841400146,3.8428568840026855,44.0865820346011,43.18847879967147,175.50171540951854,158.1137491569211,-0.0001618862152099,0.0925559401512146,0,0,0
14791,502075.5811959956,2010-09-06 08:58:33,510.25743662936856,7,42,-1.0993878841400146,3.8354101181030273,44.0865820346011,43.197645510053015,175.50171540951854,158.1489410536115,-0.0001942634553415,0.0925559401512146,0,0,0
14792,502105.59634614026,2010-09-06 08:59:03,540.2725867839847,7,42,-1.099568486213684,3.828449249267578,44.0865820346011,43.20681220520975,175.50171540951854,158.1840671839763,-0.0001942634553415,0.0925559401512146,0,0,0
14793,502135.6113311432,2010-09-06 08:59:33,570.2875717869922,7,42,-1.0993878841400146,3.82132625579834,44.0865820346011,43.21597882277288,175.50171540951854,158.2191284530241,-0.0001942634553415,0.0925559401512146,0,0,0
14794,502165.6266106402,2010-09-06 09:00:03,600.3028512789567,7,42,-1.0993878841400146,3.814365148544312,44.0865820346011,43.225145581990354,175.50171540951854,158.2541268705863,-0.0002266406954731,0.0925559401512146,0,0,0
14795,502195.64160977845,2010-09-06 09:00:33,630.3178504071686,7,42,-1.0993878841400146,3.807727813720703,44.0865820346011,43.23431216486454,175.50171540951854,158.2890616972672,-0.0001618862152099,0.0925559401512146,0,0,0
14796,502225.65674315626,2010-09-06 09:01:03,660.3329837949967,7,42,-1.0993878841400146,3.801090478897095,44.0865820346011,43.24347882610759,175.50171540951854,158.3239351139315,-0.0001942634553415,0.0925559401512146,0,0,0
14797,502255.6721018506,2010-09-06 09:01:33,690.3483425795829,7,42,-1.099568486213684,3.7944531440734863,44.0865820346011,43.25264555761349,175.50171540951854,158.35874883124393,-0.0001942634553415,0.0925559401512146,0,0,0
14798,502285.68702896434,2010-09-06 09:02:03,720.3632696030877,7,42,-1.099568486213684,3.788139581680298,44.0865820346011,43.26181215028658,175.50171540951854,158.39350276602462,-0.0001942634553415,0.0925559401512146,0,0,0
14799,502315.7023721651,2010-09-06 09:02:33,750.3786128088466,7,42,-1.099568486213684,3.7819879055023193,44.0865820346011,43.27097896531933,175.50171540951854,158.42819971729753,-0.0001295089750783,0.0925559401512146,0,0,0
14800,502345.71744817,2010-09-06 09:03:03,780.3936889239335,7,42,-1.099568486213684,3.775674343109131,44.0865820346011,43.28014564636987,175.50171540951854,158.46283924217795,-0.0001942634553415,0.0925559401512146,0,0,0
14801,502375.73264727154,2010-09-06 09:03:33,810.4088879252907,7,42,-1.099568486213684,3.7696845531463614,44.0865820346011,43.2893123741888,175.50171540951854,158.4974231038603,-0.0001618862152099,0.0925559401512146,0,0,0
14802,502405.7478103634,2010-09-06 09:04:03,840.4240509971003,7,42,-1.099568486213684,3.763856649398804,44.0865820346011,43.29847910325369,175.50171540951854,158.5319522082435,-0.0001942634553415,0.0925559401512146,0,0,0
14803,502435.7627368806,2010-09-06 09:04:33,870.4389775243684,7,42,-1.0993878841400146,3.758028745651245,44.0865820346011,43.30764577936969,175.50171540951854,158.566427324745,-0.0001618862152099,0.0925559401512146,0,0,0
14804,502465.7778714314,2010-09-06 09:05:03,900.4541120650698,7,42,-1.099568486213684,3.752362966537476,44.0865820346011,43.316812558744125,175.50171540951854,158.60085002619124,-0.0001618385285837,0.0925559401512146,0,0,0
14805,502495.7929940323,2010-09-06 09:05:33,930.4692346660138,7,42,-1.099568486213684,3.746696949005127,44.0865820346011,43.32597926083789,175.50171540951854,158.63522064066692,-0.0001618862152099,0.0925559401512146,0,0,0
14806,502525.80818247737,2010-09-06 09:06:03,960.4844231962736,7,42,-1.0993878841400146,3.741192817687988,44.0865820346011,43.33514607697342,175.50171540951854,158.6695408831191,-0.0001295089750783,0.0925559401512146,0,0,0
14807,502555.8232669633,2010-09-06 09:06:33,990.4995075970112,7,42,-1.099568486213684,3.73585057258606,44.0865820346011,43.34431282886063,175.50171540951854,158.70381125700132,-0.0001295089750783,0.0925559401512146,0,0,0
14808,502585.8384094437,2010-09-06 09:07:03,1020.5146501025632,7,42,-1.099568486213684,3.730670213699341,44.0865820346011,43.35347961377288,175.50171540951854,158.73803300382465,-0.0001295089750783,0.0925559401512146,0,0,0
14809,502615.8535791772,2010-09-06 09:07:33,1050.529819830963,7,42,-1.0993878841400146,3.725489854812622,44.0865820346011,43.36264635211356,175.50171540951854,158.77220704376035,-0.0001618862152099,0.0925559401512146,0,0,0
14810,502645.86869476567,2010-09-06 09:08:03,1080.54493539938,7,42,-1.0993878841400146,3.7203094959259033,44.0865820346011,43.37181308519715,175.50171540951854,158.80633427419568,-0.0001618862152099,0.0925559401512146,0,0,0
14811,502675.8838371509,2010-09-06 09:08:33,1110.5600777846323,7,42,-1.0992072820663452,3.715452909469605,44.0865820346011,43.38097983727397,175.50171540951854,158.84041520152954,-9.713172767078504e-05,0.0925559401512146,0,0,0
14812,502705.8989470001,2010-09-06 09:09:03,1140.5751876388076,7,42,-1.0992072820663452,3.710434436798096,44.0865820346011,43.39014655702539,175.50171540951854,158.87445053136008,-0.0001295089750783,0.0925559401512146,0,0,0
14813,502735.9142262164,2010-09-06 09:09:33,1170.590466855085,7,42,-1.0993878841400146,3.705739736557007,44.0865820346011,43.39931327548321,175.50171540951854,158.90844142309152,-9.713172767078504e-05,0.0925559401512146,0,0,0
14814,502765.9292316152,2010-09-06 09:10:03,1200.6054722589377,7,42,-1.0993878841400146,3.700883150100708,44.0865820346011,43.4084799627173,175.50171540951854,158.9423882482662,-0.0001618862152099,0.0925559401512146,0,0,0
14815,502795.9445010672,2010-09-06 09:10:33,1230.6207417108794,7,42,-1.0993878841400146,3.696350336074829,44.0865820346011,43.41764669958584,175.50171540951854,158.97629212784653,-9.713172767078504e-05,0.0925559401512146,0,0,0
14816,502825.9595477639,2010-09-06 09:11:03,1260.6357883976218,7,42,-1.0993878841400146,3.69165563583374,44.0865820346011,43.42681350483912,175.50171540951854,159.0101538156882,-9.713172767078504e-05,0.0925559401512146,0,0,0
14817,502855.97467337234,2010-09-06 09:11:33,1290.6509140060612,7,42,-1.099568486213684,3.6869609355926514,44.0865820346011,43.435980242984606,175.50171540951854,159.043973065567,-0.0001295089750783,0.0925559401512146,0,0,0
14818,502885.9898495819,2010-09-06 09:12:03,1320.6660902406766,7,42,-1.0997490882873535,3.682428121566773,44.0865820346011,43.4451470340996,175.50171540951854,159.07775145429406,-0.0001618862152099,0.0925559401512146,0,0,0
14819,502916.0050495256,2010-09-06 09:12:33,1350.6812902796198,7,42,-1.099568486213684,3.6782190799713135,44.0865820346011,43.4543139209916,175.50171540951854,159.11148957305485,-9.713172767078504e-05,0.0925559401512146,0,0,0
14820,502946.0200601024,2010-09-06 09:13:03,1380.6963007360653,7,42,-1.0993878841400146,3.6740100383758554,44.0865820346011,43.46348071489003,175.50171540951854,159.14518767736195,-9.713172767078504e-05,0.0925559401512146,0,0,0
14821,502976.03520465305,2010-09-06 09:13:33,1410.7114453067643,7,42,-1.0993878841400146,3.669801235198975,44.0865820346011,43.47264761092082,175.50171540951854,159.17884696709595,-9.713172767078504e-05,0.0925559401512146,0,0,0
14822,503006.05314483127,2010-09-06 09:14:03,1440.729385464928,7,42,-1.0993878841400146,3.665592193603516,44.0865820346011,43.48181521390583,175.50171540951854,159.21247038403385,-9.713172767078504e-05,0.0925559401512146,0,0,0
14823,503036.0656510714,2010-09-06 09:14:34,1470.7418917000834,7,42,-1.0993878841400146,3.6613831520080566,44.0865820346011,43.49098118389198,175.50171540951854,159.24604967953286,-0.0001295089750783,0.0925559401512146,0,0,0
14824,503066.0810361465,2010-09-06 09:15:04,1500.757276780206,7,42,-1.099568486213684,3.6571741104125977,44.0865820346011,43.5001480745878,175.50171540951854,159.27959461989948,-0.0001618862152099,0.0925559401512146,0,0,0
14825,503096.09593040834,2010-09-06 09:15:34,1530.7721710671212,7,42,-1.099568486213684,3.653288841247559,44.0865820346011,43.50931482684487,175.50171540951854,159.31310208665013,-9.713172767078504e-05,0.0925559401512146,0,0,0
14826,503126.1109189653,2010-09-06 09:16:04,1560.7871595989236,7,42,-1.099568486213684,3.64940357208252,44.0865820346011,43.51848152130124,175.50171540951854,159.3465729373679,-9.713172767078504e-05,0.0925559401512146,0,0,0
14827,503156.1260370298,2010-09-06 09:16:34,1590.802277668574,7,42,-1.0993878841400146,3.645518302917481,44.0865820346011,43.52764823068094,175.50171540951854,159.38000748753723,-9.713172767078504e-05,0.0925559401512146,0,0,0
14828,503186.1411710994,2010-09-06 09:17:04,1620.8174117280762,7,42,-1.099568486213684,3.6416330337524414,44.0865820346011,43.5368148894003,175.50171540951854,159.41340663809206,-0.0001295089750783,0.0925559401512146,0,0,0
14829,503216.15631157486,2010-09-06 09:17:34,1650.8325522085815,7,42,-1.099568486213684,3.637909650802612,44.0865820346011,43.54598159389574,175.50171540951854,159.4467714561184,-9.713172767078504e-05,0.0925559401512146,0,0,0
14830,503246.17146267183,2010-09-06 09:18:04,1680.8477033055462,7,42,-1.0992072820663452,3.634348154067993,44.0865820346011,43.55514827528008,175.50171540951854,159.48010264001007,-9.713172767078504e-05,0.0925559401512146,0,0,0
14831,503276.1865915434,2010-09-06 09:18:34,1710.862832182131,7,42,-1.099568486213684,3.630624771118164,44.0865820346011,43.56431490635239,175.50171540951854,159.5134005433175,-0.0001295089750783,0.0925559401512146,0,0,0
14832,503306.20174864033,2010-09-06 09:19:04,1740.8779892990992,7,42,-1.099568486213684,3.627063274383545,44.0865820346011,43.57348155898248,175.50171540951854,159.54666580305624,-0.0001618862152099,0.0925559401512146,0,0,0
14833,503336.2169899672,2010-09-06 09:19:34,1770.893230600882,7,42,-1.0992072820663452,3.6238255500793457,44.0865820346011,43.58264823515179,175.50171540951854,159.57989938166764,-6.47544875391759e-05,0.0925559401512146,0,0,0
14834,503366.23201679945,2010-09-06 09:20:04,1800.9082574331412,7,42,-1.099568486213684,3.620264053344727,44.0865820346011,43.591814900445485,175.50171540951854,159.6131016468328,-0.0001618862152099,0.0925559401512146,0,0,0
14835,503396.2471458414,2010-09-06 09:20:34,1830.9233864751384,7,42,-1.0992072820663452,3.6170263290405273,44.0865820346011,43.600981554230685,175.50171540951854,159.6462730335086,-0.0001295089750783,0.0925559401512146,0,0,0
14836,503426.2622799009,2010-09-06 09:21:04,1860.93852053464,7,42,-1.0992072820663452,3.613788604736328,44.0865820346011,43.61014825006153,175.50171540951854,159.67941442281932,-6.47544875391759e-05,0.0925559401512146,0,0,0
14837,503456.2774210631,2010-09-06 09:21:34,1890.9536617018568,7,42,-1.0993878841400146,3.610874652862549,44.0865820346011,43.619314938348296,175.50171540951854,159.71252666531635,-3.237724376958795e-05,0.0925559401512146,0,0,0
14838,503486.29265996895,2010-09-06 09:22:04,1920.968900632731,7,42,-1.099568486213684,3.60747504234314,44.0865820346011,43.62848168222674,175.50171540951854,159.745610289235,-9.713172767078504e-05,0.0925559401512146,0,0,0
14839,503516.3078385894,2010-09-06 09:22:34,1950.9840792232176,7,42,-1.0993878841400146,3.6043992042541504,44.0865820346011,43.63764765473477,175.50171540951854,159.7786627709688,-9.713172767078504e-05,0.0925559401512146,0,0,0
14840,503546.32295863406,2010-09-06 09:23:04,1980.9991992677903,7,42,-1.0993878841400146,3.601485252380371,44.0865820346011,43.64681356349006,175.50171540951854,159.8116869983397,-9.713172767078504e-05,0.0925559401512146,0,0,0
14841,503576.337965682,2010-09-06 09:23:34,2011.0142063207536,7,42,-1.0993878841400146,3.598409414291382,44.0865820346011,43.655979466768684,175.50171540951854,159.84468332045344,-9.713172767078504e-05,0.0925559401512146,0,0,0
14842,503606.35324168525,2010-09-06 09:24:04,2041.0294823089853,7,42,-1.0992072820663452,3.5954954624176025,44.0865820346011,43.66514543305015,175.50171540951854,159.87765216818497,-3.237724376958795e-05,0.0925559401512146,0,0,0
14843,503636.3682347735,2010-09-06 09:24:34,2071.044475432231,7,42,-1.0993878841400146,3.5922577381134038,44.0865820346011,43.67431196004766,175.50171540951854,159.91059544452892,-0.0001295089750783,0.0925559401512146,0,0,0
14844,503666.3833946222,2010-09-06 09:25:04,2101.059635281008,7,42,-1.099568486213684,3.589344024658203,44.0865820346011,43.68347874600888,175.50171540951854,159.94351224091517,-9.713172767078504e-05,0.0925559401512146,0,0,0
14845,503696.398526767,2010-09-06 09:25:34,2131.074767405688,7,42,-1.0993878841400146,3.586268186569214,44.0865820346011,43.69264546395366,175.50171540951854,159.97640119456182,-0.0001295089750783,0.0925559401512146,0,0,0
14846,503726.41368641023,2010-09-06 09:26:04,2161.089927069003,7,42,-1.0993878841400146,3.5833542346954346,44.0865820346011,43.70181213257267,175.50171540951854,160.00926237227134,-6.47544875391759e-05,0.0925559401512146,0,0,0
14847,503756.4289430653,2010-09-06 09:26:34,2191.105183739088,7,42,-1.099568486213684,3.580116510391236,44.0865820346011,43.71097876625221,175.50171540951854,160.04209554382746,-0.0001295089750783,0.0925559401512146,0,0,0
14848,503786.4440624082,2010-09-06 09:27:04,2221.120303056849,7,42,-1.0992072820663452,3.577040672302246,44.0865820346011,43.72014546193639,175.50171540951854,160.07490094722976,-0.0001295089750783,0.0925559401512146,0,0,0
14849,503816.45907251874,2010-09-06 09:27:34,2251.1353131774576,7,42,-1.0993878841400146,3.5742886066436768,44.0865820346011,43.72931208673676,175.50171540951854,160.1076780967834,-3.237724376958795e-05,0.0925559401512146,0,0,0
14850,503846.47423036746,2010-09-06 09:28:04,2281.150471001188,7,42,-1.0993878841400146,3.571050882339477,44.0865820346011,43.73847874947669,175.50171540951854,160.14042706029358,-6.47544875391759e-05,0.0925559401512146,0,0,0
14851,503876.48937525897,2010-09-06 09:28:34,2311.165615897699,7,42,-1.099568486213684,3.5676512718200684,44.0865820346011,43.7476454302132,175.50171540951854,160.1731477195432,-0.0001295089750783,0.0925559401512146,0,0,0
14852,503906.5044912284,2010-09-06 09:29:04,2341.1807318921774,7,42,-1.0993878841400146,3.564899206161499,44.0865820346011,43.75681213087598,175.50171540951854,160.20583976335908,-3.237724376958795e-05,0.0925559401512146,0,0,0
14853,503936.5196549668,2010-09-06 09:29:34,2371.195895625636,7,42,-1.0993878841400146,3.5616614818573,44.0865820346011,43.76597881590527,175.50171540951854,160.2385023161585,-6.47544875391759e-05,0.0925559401512146,0,0,0
14854,503966.5347798184,2010-09-06 09:30:04,2401.211020457139,7,42,-1.099568486213684,3.55826187133789,44.0865820346011,43.775145487515445,175.50171540951854,160.2711354344764,-9.713172767078504e-05,0.0925559401512146,0,0,0
14855,503996.55002217786,2010-09-06 09:30:34,2431.226262816558,7,42,-1.0993878841400146,3.5551860332489014,44.0865820346011,43.784312176764445,175.50171540951854,160.30373807836006,-6.47544875391759e-05,0.0925559401512146,0,0,0
14856,504026.5651603676,2010-09-06 09:31:04,2461.241400991317,7,42,-1.0993878841400146,3.551786422729492,44.0865820346011,43.79347884770549,175.50171540951854,160.33630967597742,-6.47544875391759e-05,0.0925559401512146,0,0,0
14857,504056.5803116601,2010-09-06 09:31:34,2491.256552293794,7,42,-1.099568486213684,3.548063039779663,44.0865820346011,43.80264555074908,175.50171540951854,160.3688501685282,-9.713172767078504e-05,0.0925559401512146,0,0,0
14858,504086.5953526927,2010-09-06 09:32:04,2521.2715933264444,7,42,-1.0993878841400146,3.544501543045044,44.0865820346011,43.81181225995503,175.50171540951854,160.40135825886404,-9.713172767078504e-05,0.0925559401512146,0,0,0
14859,504116.6104726672,2010-09-06 09:32:34,2551.2867133259047,7,42,-1.0993878841400146,3.540940046310425,44.0865820346011,43.82097901716579,175.50171540951854,160.4338335870221,-6.47544875391759e-05,0.0925559401512146,0,0,0
14860,504146.62570012937,2010-09-06 09:33:04,2581.301940793208,7,42,-1.0993878841400146,3.537216663360596,44.0865820346011,43.83014567367513,175.50171540951854,160.46627450007108,-6.47544875391759e-05,0.0925559401512146,0,0,0
14861,504176.64087273495,2010-09-06 09:33:34,2611.3171133837413,7,42,-1.0993878841400146,3.5331695079803467,44.0865820346011,43.83931242679583,175.50171540951854,160.49868051456917,-0.0001295089750783,0.0925559401512146,0,0,0
14862,504206.655883452,2010-09-06 09:34:04,2641.3321240857986,7,42,-1.0993878841400146,3.529284238815308,44.0865820346011,43.84847906018962,175.50171540951854,160.53104980100275,-9.713172767078504e-05,0.0925559401512146,0,0,0
14863,504236.67099322105,2010-09-06 09:34:34,2671.347233859774,7,42,-1.099568486213684,3.5249133110046387,44.0865820346011,43.85764577019351,175.50171540951854,160.56338151285112,-9.713172767078504e-05,0.0925559401512146,0,0,0
14864,504266.6861336564,2010-09-06 09:35:04,2701.3623742901536,7,42,-1.099568486213684,3.5205423831939697,44.0865820346011,43.8668124714838,175.50171540951854,160.59567404762245,-0.0001295089750783,0.0925559401512146,0,0,0
14865,504296.7013993791,2010-09-06 09:35:34,2731.3776400077886,7,42,-1.0993878841400146,3.516171455383301,44.0865820346011,43.87597922501626,175.50171540951854,160.6279259781896,-9.713172767078504e-05,0.0925559401512146,0,0,0
14866,504326.716767517,2010-09-06 09:36:04,2761.3930081506987,7,42,-1.0993878841400146,3.511315107345581,44.0865820346011,43.88514603162779,175.50171540951854,160.66013544334535,-9.70840483205393e-05,0.0925559401512146,0,0,0
14867,504356.73156836606,2010-09-06 09:36:34,2791.4078090248,7,42,-1.0993878841400146,3.5064585208892822,44.0865820346011,43.894312665325785,175.50171540951854,160.6923001667491,-0.0001295089750783,0.0925559401512146,0,0,0
14868,504386.7466788166,2010-09-06 09:37:04,2821.4229194804743,7,42,-1.099568486213684,3.501116275787353,44.0865820346011,43.903479445661,175.50171540951854,160.72441883162668,-0.0001618862152099,0.0925559401512146,0,0,0
14869,504416.7619493764,2010-09-06 09:37:34,2851.4381900201274,7,42,-1.0993878841400146,3.495612144470215,44.0865820346011,43.91264621998194,175.50171540951854,160.7564878110139,-0.0001295089750783,0.0925559401512146,0,0,0
14870,504446.7769662689,2010-09-06 09:38:04,2881.453206902588,7,42,-1.099568486213684,3.4894604682922363,44.0865820346011,43.92181292604636,175.50171540951854,160.7885033649736,-0.0001618862152099,0.0925559401512146,0,0,0
14871,504476.7922218412,2010-09-06 09:38:34,2911.468462489975,7,42,-1.0993878841400146,3.482985019683838,44.0865820346011,43.93097975877807,175.50171540951854,160.82046206839294,-0.0001942634553415,0.0925559401512146,0,0,0
14872,504506.8073648631,2010-09-06 09:39:04,2941.4836055268515,7,42,-1.0993878841400146,3.4758620262146,44.0865820346011,43.94014646565491,175.50171540951854,160.85235788745675,-0.0002266406954731,0.0925559401512146,0,0,0
14873,504536.8223637155,2010-09-06 09:39:34,2971.498604354314,7,42,-1.0993878841400146,3.4679296016693115,44.0865820346011,43.949313149318094,175.50171540951854,160.8841850797009,-0.0002266406954731,0.0925559401512146,0,0,0
14874,504566.837532251,2010-09-06 09:40:04,3001.5137729097905,7,42,-1.0993878841400146,3.459025859832764,44.0865820346011,43.95847991064067,175.50171540951854,160.91593452139605,-0.0002266406954731,0.0925559401512146,0,0,0
14875,504596.852643223,2010-09-06 09:40:34,3031.5288838617016,7,42,-1.0993878841400146,3.4483413696289062,44.0865820346011,43.967646653860925,175.50171540951854,160.94759433026837,-0.0003237724304199,0.0925559401512146,0,0,0
14876,504626.86778269097,2010-09-06 09:41:04,3061.544023349733,7,42,-1.099568486213684,3.4357142448425293,44.0865820346011,43.97681344971226,175.50171540951854,160.97914886280304,-0.0003561496851034,0.0925559401512146,0,0,0
14877,504656.882923397,2010-09-06 09:41:34,3091.5591640558005,7,42,-1.099568486213684,3.420173406600952,44.0865820346011,43.98598027423848,175.50171540951854,161.01057510686027,-0.0004856586456298,0.0925559401512146,0,0,0
14878,504686.8980642485,2010-09-06 09:42:04,3121.574304897206,7,42,-1.0993878841400146,3.400585174560547,44.0865820346011,43.99514705384592,175.50171540951854,161.04184081149256,-0.0005827903514727,0.0925559401512146,0,0,0
14879,504716.91332688346,2010-09-06 09:42:34,3151.589567512107,7,42,-1.099568486213684,3.374683380126953,44.0865820346011,44.00431389166669,175.50171540951854,161.0729003386785,-0.0007770538213662,0.0925559401512146,0,0,0
14880,504746.928491464,2010-09-06 09:43:04,3181.6047321277647,7,42,-1.099568486213684,3.3393924236297607,44.0865820346011,44.01348066423103,175.50171540951854,161.10368204156515,-0.0011008263099938,0.0925559401512146,0,0,0
14881,504776.94351620605,2010-09-06 09:43:34,3211.6197568347266,7,42,-1.099568486213684,3.2900171279907227,44.0865820346011,44.02264742060149,175.50171540951854,161.1340803779091,-0.0014893531333655,0.0925559401512146,0,0,0
14882,504806.9586708268,2010-09-06 09:44:04,3241.6349114855484,7,42,-1.0993878841400146,3.219434976577759,44.0865820346011,44.03181419156295,175.50171540951854,161.16393591991982,-0.0022016526199877,0.0925559401512146,0,0,0
14883,504836.9737383354,2010-09-06 09:44:34,3271.649978974136,7,42,-1.099568486213684,3.1130759716033936,44.0865820346011,44.04098102898804,175.50171540951854,161.19299695192436,-0.0034643649123609,0.0925559401512146,0,0,0
14884,504866.988953863,2010-09-06 09:45:04,3301.665194511706,7,42,-1.0993878841400146,2.918165683746338,44.0865820346011,44.050147903864605,175.50171540951854,161.2207606948058,-0.0073172091506421,0.0925559401512146,0,0,0
14885,504883.20761622494,2010-09-06 09:45:21,3317.883856883695,7,42,-1.099568486213684,2.7174272537231445,44.0865820346011,44.05510120237918,175.50171540951854,161.23475116791727,-0.0113320350646972,0.0925559401512146,0,0,0
14886,504884.4261488983,2010-09-06 09:45:22,3319.1023895319872,7,42,-1.099568486213684,2.699943780899048,44.0865820346011,44.05547334968205,175.50171540951854,161.23575929370392,-0.0114291189238429,0.0925559401512146,0,0,0
14887,504944.4352090086,2010-09-06 09:46:22,60.01462667571486,8,42,0.0,3.4684152603149414,44.0865820346011,44.05547334968205,175.50171540951854,161.23575929370392,0.0012627125252038,0.0925559401512146,0,0,0
14888,504944.6339211276,2010-09-06 09:46:22,0.187627715999877,9,42,-1.9243103452026844e-05,3.468577146530152,44.0865820346011,44.05547335068498,175.50171540951854,161.23575929718274,-3.237724376958795e-05,0.0875260159373283,0,0,0
14889,504949.4619571791,2010-09-06 09:46:27,5.01566374232703,9,42,0.0008838032954372,3.4761857986450195,44.08658300417674,44.05547335085142,175.50171877675044,161.23575929776004,0.0011332035064697,0.0875260159373283,0,0,0
