Data_Point,Test_Time(s),Date_Time,Step_Time(s),Step_Index,Cycle_Index,Current(A),Voltage(V),Charge_Capacity(Ah),Discharge_Capacity(Ah),Charge_Energy(Wh),Discharge_Energy(Wh),dV/dt(V/s),Internal_Resistance(Ohm),Is_FC_Data,AC_Impedance(Ohm),ACI_Phase_Angle(Deg)
1102,37087.30656795089,2010-08-31 23:47:56,30.01524297595546,1,4,0.0,3.2820847034454346,3.245035743823332,3.288345823149458,12.902614682709611,12.078103384873144,0.0006475448608398,0.0872892439365387,0,0,0
1103,37117.321800801605,2010-08-31 23:48:26,60.03047577655079,1,4,0.0,3.3026442527771,3.245035743823332,3.288345823149458,12.902614682709611,12.078103384873144,0.0004856586456298,0.0872892439365387,0,0,0
1104,37147.3371270902,2010-08-31 23:48:56,90.04580206514699,1,4,0.0,3.3186709880828857,3.245035743823332,3.288345823149458,12.902614682709611,12.078103384873144,0.0003885269106831,0.0872892439365387,0,0,0
1105,37177.30540416268,2010-08-31 23:49:26,120.01407913260742,1,4,0.0,3.3316218852996826,3.245035743823332,3.288345823149458,12.902614682709611,12.078103384873144,0.0003237724304199,0.0872892439365387,0,0,0
1106,37207.31969327781,2010-08-31 23:49:57,30.015109738887688,2,4,0.5501165986061096,3.4855751991271973,3.249622515328632,3.288345823149458,12.91841519236016,12.078103384873144,0.0018778800731524,0.0872892439365387,0,0,0
1107,37237.33491087049,2010-08-31 23:50:27,60.030327331580246,2,4,0.5501165986061096,3.5430445671081543,3.254209259316456,3.288345823149458,12.934541863914042,12.078103384873144,0.0013598442310467,0.0872892439365387,0,0,0
1108,37267.350165976684,2010-08-31 23:50:57,90.04558244278046,2,4,0.5501165986061096,3.586268186569214,3.258795994969078,3.288345823149458,12.950896102141296,12.078103384873144,0.0010360718006268,0.0872892439365387,0,0,0
1109,37297.36537665715,2010-08-31 23:51:27,120.06079312825813,2,4,0.550297200679779,3.6215591430664062,3.263382640037168,3.288345823149458,12.967428628489262,12.078103384873144,0.0008741855854168,0.0872892439365387,0,0,0
1110,37327.38084862382,2010-08-31 23:51:57,150.0762651049539,2,4,0.550297200679779,3.651184320449829,3.267969459917083,3.288345823149458,12.984109469392786,12.078103384873144,0.0007446765666827,0.0872892439365387,0,0,0
1111,37357.3958636667,2010-08-31 23:52:27,180.09128012778,2,4,0.5501165986061096,3.676438331604004,3.27255614603374,3.288345823149458,13.00091558172659,12.078103384873144,0.0006151676061563,0.0872892439365387,0,0,0
1112,37387.41108673805,2010-08-31 23:52:57,210.10650320915204,2,4,0.5501165986061096,3.698454856872559,3.27714283322591,3.288345823149458,13.017830160564776,12.078103384873144,0.0005180359003134,0.0872892439365387,0,0,0
1113,37417.42646672046,2010-08-31 23:53:27,240.12188319156976,2,4,0.550297200679779,3.717557430267334,3.281729597794827,3.288345823149458,13.03483910920786,12.078103384873144,0.0004532813909463,0.0872892439365387,0,0,0
1114,37447.44157933151,2010-08-31 23:53:57,270.1369957925908,2,4,0.5501165986061096,3.73342227935791,3.28631635443818,3.288345823149458,13.0519283038701,12.078103384873144,0.0003885269106831,0.0872892439365387,0,0,0
1115,37477.45682171098,2010-08-31 23:54:27,300.1522381720596,2,4,0.5499359965324402,3.745563745498657,3.290903147164004,3.288345823149458,13.069082630814636,12.078103384873144,0.0002590179501567,0.0872892439365387,0,0,0
1116,37507.472029910256,2010-08-31 23:54:57,330.1674463713409,2,4,0.5501165986061096,3.7528486251831055,3.295489849655898,3.288345823149458,13.086281311601596,12.078103384873144,0.0001295089750783,0.0872892439365387,0,0,0
1117,37537.48729717174,2010-08-31 23:55:27,360.1827136528733,2,4,0.5501165986061096,3.756733655929565,3.300076578788224,3.288345823149458,13.103504424987806,12.078103384873144,6.47544875391759e-05,0.0872892439365387,0,0,0
1118,37567.502551310514,2010-08-31 23:55:57,390.1979677766125,2,4,0.5501165986061096,3.759323835372925,3.304663341314329,3.288345823149458,13.120742078550116,12.078103384873144,3.237724376958795e-05,0.0872892439365387,0,0,0
1119,37597.51773641724,2010-08-31 23:56:27,420.21315288835245,2,4,0.5501165986061096,3.761752128601074,3.309250004142279,3.288345823149458,13.137990636431509,12.078103384873144,9.713172767078504e-05,0.0872892439365387,0,0,0
1120,37627.53309774316,2010-08-31 23:56:57,450.2285142142725,2,4,0.5501165986061096,3.7640185356140137,3.313836730277162,3.288345823149458,13.155250102767916,12.078103384873144,6.47544875391759e-05,0.0872892439365387,0,0,0
1121,37657.54820895071,2010-08-31 23:57:27,480.2436254218206,2,4,0.5501165986061096,3.766446828842163,3.318423477497865,3.288345823149458,13.172520313540277,12.078103384873144,6.47544875391759e-05,0.0872892439365387,0,0,0
1122,37687.56346962076,2010-08-31 23:57:57,510.2588861069127,2,4,0.5499359965324402,3.768875122070313,3.323010271311353,3.288345823149458,13.18980153921516,12.078103384873144,6.47544875391759e-05,0.0872892439365387,0,0,0
1123,37717.57880136296,2010-08-31 23:58:27,540.2742178240384,2,4,0.550297200679779,3.771141529083252,3.327597012362794,3.288345823149458,13.207093408933488,12.078103384873144,6.47544875391759e-05,0.0872892439365387,0,0,0
1124,37747.59392772326,2010-08-31 23:58:57,570.2893441943768,2,4,0.5499359965324402,3.773407936096192,3.332183721333629,3.288345823149458,13.224396204570192,12.078103384873144,3.237724376958795e-05,0.0872892439365387,0,0,0
1125,37777.6092792648,2010-08-31 23:59:27,600.3046957308985,2,4,0.550297200679779,3.775998115539551,3.336770453393129,3.288345823149458,13.241710038774428,12.078103384873144,6.47544875391759e-05,0.0872892439365387,0,0,0
1126,37807.624401164,2010-08-31 23:59:57,630.3198176300934,2,4,0.550297200679779,3.77826452255249,3.341357147804332,3.288345823149458,13.259034655996652,12.078103384873144,3.237724376958795e-05,0.0872892439365387,0,0,0
1127,37837.63962371404,2010-09-01 00:00:27,660.3350401851537,2,4,0.5501165986061096,3.7805309295654297,3.345943936589274,3.288345823149458,13.276370541151074,12.078103384873144,0.0,0.0872892439365387,0,0,0
1128,37867.65486421884,2010-09-01 00:00:57,690.3502806849378,2,4,0.5501165986061096,3.783121109008789,3.35053068683585,3.288345823149458,13.293717084709025,12.078103384873144,6.47544875391759e-05,0.0872892439365387,0,0,0
1129,37897.67014672832,2010-09-01 00:01:27,720.3655632094604,2,4,0.550297200679779,3.7855494022369385,3.355117367203376,3.288345823149458,13.311074345163291,12.078103384873144,9.713172767078504e-05,0.0872892439365387,0,0,0
1130,37927.685361814765,2010-09-01 00:01:57,750.3807782758568,2,4,0.5501165986061096,3.787977695465088,3.35970413791883,3.288345823149458,13.328443027620144,12.078103384873144,9.713172767078504e-05,0.0872892439365387,0,0,0
1131,37957.70060913154,2010-09-01 00:02:27,780.3960255976433,2,4,0.5501165986061096,3.790405988693237,3.364290909821863,3.288345823149458,13.345823031147402,12.078103384873144,9.713172767078504e-05,0.0872892439365387,0,0,0
1132,37987.71580232342,2010-09-01 00:02:57,810.4112187845092,2,4,0.550297200679779,3.7929961681365967,3.368877640087836,3.288345823149458,13.363214372208702,12.078103384873144,9.713172767078504e-05,0.0872892439365387,0,0,0
1133,38017.73103645734,2010-09-01 00:03:27,840.4264529184276,2,4,0.5501165986061096,3.795748233795166,3.37346444019169,3.288345823149458,13.380617967937898,12.078103384873144,9.713172767078504e-05,0.0872892439365387,0,0,0
1134,38047.7463014231,2010-09-01 00:03:57,870.4417178892008,2,4,0.550297200679779,3.798338413238525,3.378051198348109,3.288345823149458,13.398033882925288,12.078103384873144,6.47544875391759e-05,0.0872892439365387,0,0,0
1135,38077.76154757698,2010-09-01 00:04:27,900.4569640781641,2,4,0.5499359965324402,3.801414251327514,3.382638000384473,3.288345823149458,13.41546307685824,12.078103384873144,9.713172767078504e-05,0.0872892439365387,0,0,0
1136,38107.77680604655,2010-09-01 00:04:57,930.472222532697,2,4,0.550297200679779,3.804328203201294,3.387224796634898,3.288345823149458,13.432905866971431,12.078103384873144,6.47544875391759e-05,0.0872892439365387,0,0,0
1137,38137.79203637097,2010-09-01 00:05:27,960.4874528320584,2,4,0.550297200679779,3.807565927505493,3.391811586554604,3.288345823149458,13.450362880164615,12.078103384873144,9.713172767078504e-05,0.0872892439365387,0,0,0
1138,38167.807238149246,2010-09-01 00:05:57,990.5026546103364,2,4,0.5501165986061096,3.8106417655944815,3.396398387224297,3.288345823149458,13.467834707578374,12.078103384873144,6.47544875391759e-05,0.0872892439365387,0,0,0
1139,38197.82245862413,2010-09-01 00:06:27,1020.5178750902248,2,4,0.550297200679779,3.814365148544312,3.400985187737553,3.288345823149458,13.485321696492012,12.078103384873144,9.713172767078504e-05,0.0872892439365387,0,0,0
1140,38227.83769216157,2010-09-01 00:06:57,1050.533108652719,2,4,0.5501165986061096,3.817279100418091,3.405571988396417,3.288345823149458,13.502824087602953,12.078103384873144,3.237724376958795e-05,0.0872892439365387,0,0,0
1141,38257.85292836063,2010-09-01 00:07:27,1080.548344826722,2,4,0.5501165986061096,3.82084059715271,3.410158803847139,3.288345823149458,13.520341798626704,12.078103384873144,9.713172767078504e-05,0.0872892439365387,0,0,0
1142,38287.86889972695,2010-09-01 00:07:57,1110.5643162181127,2,4,0.5501165986061096,3.824078321456909,3.414745674933355,3.288345823149458,13.53787486120506,12.078103384873144,6.47544875391759e-05,0.0872892439365387,0,0,0
1143,38317.87060766944,2010-09-01 00:08:27,1140.5660241856626,2,4,0.5501165986061096,3.827316045761109,3.419330390870071,3.288345823149458,13.55541462959259,12.078103384873144,6.47544875391759e-05,0.0872892439365387,0,0,0
1144,38347.88315511731,2010-09-01 00:08:57,1170.5785715884203,2,4,0.5499359965324402,3.8303918838500977,3.423916753889571,3.288345823149458,13.572975315508566,12.078103384873144,6.47544875391759e-05,0.0872892439365387,0,0,0
1145,38377.89825380866,2010-09-01 00:09:27,1200.5936702747615,2,4,0.5499359965324402,3.833467483520508,3.428503511283217,3.288345823149458,13.590551794782312,12.078103384873144,3.237724376958795e-05,0.0872892439365387,0,0,0
1146,38407.91373188055,2010-09-01 00:09:57,1230.6091483516611,2,4,0.5501165986061096,3.836705207824707,3.433090306080405,3.288345823149458,13.608142507826289,12.078103384873144,9.713172767078504e-05,0.0872892439365387,0,0,0
1147,38437.92878529405,2010-09-01 00:10:27,1260.6242017551438,2,4,0.550297200679779,3.839781045913696,3.437677037579794,3.288345823149458,13.625746925794989,12.078103384873144,9.713172767078504e-05,0.0872892439365387,0,0,0
1148,38467.94411560769,2010-09-01 00:10:57,1290.6395320737838,2,4,0.550297200679779,3.842694997787476,3.44226380920078,3.288345823149458,13.643365257029508,12.078103384873144,9.713172767078504e-05,0.0872892439365387,0,0,0
1149,38497.95928133111,2010-09-01 00:11:27,1320.6546977972023,2,4,0.5501165986061096,3.845447063446045,3.446850520359761,3.288345823149458,13.660996877069346,12.078103384873144,3.237724376958795e-05,0.0872892439365387,0,0,0
1150,38527.97445431762,2010-09-01 00:11:57,1350.6698707837224,2,4,0.550297200679779,3.848522901535034,3.45143727542514,3.288345823149458,13.678641952423458,12.078103384873144,9.713172767078504e-05,0.0872892439365387,0,0,0
1151,38557.9896909628,2010-09-01 00:12:27,1380.6851074288998,2,4,0.5499359965324402,3.8511130809783936,3.456024020962948,3.288345823149458,13.696299897052093,12.078103384873144,9.713172767078504e-05,0.0872892439365387,0,0,0
1152,38588.00491100159,2010-09-01 00:12:57,1410.7003274676886,2,4,0.550297200679779,3.853865146636963,3.460610758164492,3.288345823149458,13.713970217177268,12.078103384873144,9.713172767078504e-05,0.0872892439365387,0,0,0
1153,38618.020155957485,2010-09-01 00:13:27,1440.7155724285913,2,4,0.550297200679779,3.856455326080322,3.465197473838494,3.288345823149458,13.731652293228075,12.078103384873144,9.713172767078504e-05,0.0872892439365387,0,0,0
1154,38648.0355288773,2010-09-01 00:13:57,1470.7309453383818,2,4,0.5501165986061096,3.8587217330932617,3.469784212981881,3.288345823149458,13.749345655060678,12.078103384873144,6.47544875391759e-05,0.0872892439365387,0,0,0
1155,38678.050697974126,2010-09-01 00:14:27,1500.74611446027,2,4,0.5501165986061096,3.860826253890991,3.474370891574597,3.288345823149458,13.767049122888992,12.078103384873144,6.47544875391759e-05,0.0872892439365387,0,0,0
1156,38708.065996052406,2010-09-01 00:14:57,1530.7614125084826,2,4,0.5501165986061096,3.8629307746887207,3.478957598508898,3.288345823149458,13.784762374998513,12.078103384873144,6.47544875391759e-05,0.0872892439365387,0,0,0
1157,38738.0810965633,2010-09-01 00:15:27,1560.7765130344087,2,4,0.5501165986061096,3.8647115230560303,3.483544339866657,3.288345823149458,13.802484611970929,12.078103384873144,6.47544875391759e-05,0.0872892439365387,0,0,0
1158,38768.09647037032,2010-09-01 00:15:57,1590.7918868314107,2,4,0.5501165986061096,3.86633038520813,3.488131116588659,3.288345823149458,13.820215132935614,12.078103384873144,3.237724376958795e-05,0.0872892439365387,0,0,0
1159,38798.111585482606,2010-09-01 00:16:27,1620.8070019537154,2,4,0.5501165986061096,3.8679492473602295,3.492717829331205,3.288345823149458,13.837952808941036,12.078103384873144,6.47544875391759e-05,0.0872892439365387,0,0,0
1160,38828.12693518456,2010-09-01 00:16:57,1650.82235164564,2,4,0.550297200679779,3.869406223297119,3.497304574367187,3.288345823149458,13.855697426267202,12.078103384873144,6.47544875391759e-05,0.0872892439365387,0,0,0
1161,38858.1420492793,2010-09-01 00:17:27,1680.837465750409,2,4,0.550297200679779,3.870701313018799,3.501891257008948,3.288345823149458,13.873447934054628,12.078103384873144,6.47544875391759e-05,0.0872892439365387,0,0,0
1162,38888.15746184292,2010-09-01 00:17:57,1710.8528783641536,2,4,0.550297200679779,3.871834516525269,3.506478019850333,3.288345823149458,13.89120444212705,12.078103384873144,6.47544875391759e-05,0.0872892439365387,0,0,0
1163,38918.17258530601,2010-09-01 00:18:27,1740.8680017670963,2,4,0.550297200679779,3.8729677200317374,3.511064785253066,3.288345823149458,13.908966214524336,12.078103384873144,3.237724376958795e-05,0.0872892439365387,0,0,0
1164,38948.18788617125,2010-09-01 00:18:57,1770.8833026323298,2,4,0.5501165986061096,3.873939037322998,3.515651606466125,3.288345823149458,13.92673323748518,12.078103384873144,0.0,0.0872892439365387,0,0,0
1165,38978.20297689273,2010-09-01 00:19:27,1800.8983933538202,2,4,0.5499359965324402,3.875072240829468,3.520238352616429,3.288345823149458,13.94450448787804,12.078103384873144,6.47544875391759e-05,0.0872892439365387,0,0,0
1166,39008.21820621967,2010-09-01 00:19:57,1830.9136226807584,2,4,0.5501165986061096,3.8758816719055176,3.524825065018702,3.288345823149458,13.962280258410816,12.078103384873144,0.0,0.0872892439365387,0,0,0
1167,39038.23359427722,2010-09-01 00:20:27,1860.9290107433144,2,4,0.5501165986061096,3.8770148754119873,3.529411781742009,3.288345823149458,13.980060430755362,12.078103384873144,3.237724376958795e-05,0.0872892439365387,0,0,0
1168,39068.233729204265,2010-09-01 00:20:57,1890.929145675376,2,4,0.5501165986061096,3.877824306488037,3.533996271946498,3.288345823149458,13.997836335587538,12.078103384873144,3.237724376958795e-05,0.0872892439365387,0,0,0
1169,39098.24830405505,2010-09-01 00:21:28,1920.9437205261577,2,4,0.550297200679779,3.878957509994507,3.53858293847256,3.288345823149458,14.015624945075396,12.078103384873144,6.47544875391759e-05,0.0872892439365387,0,0,0
1170,39128.26383982573,2010-09-01 00:21:58,1950.959256331935,2,4,0.5501165986061096,3.8796050548553462,3.54316977140955,3.288345823149458,14.03341833054427,12.078103384873144,0.0,0.0872892439365387,0,0,0
1171,39158.27904188472,2010-09-01 00:22:28,1980.9744583758752,2,4,0.5501165986061096,3.8805763721466064,3.547756570331754,3.288345823149458,14.051215760355904,12.078103384873144,0.0,0.0872892439365387,0,0,0
1172,39188.29402839648,2010-09-01 00:22:58,2010.989444852556,2,4,0.550297200679779,3.881547689437866,3.552343323942188,3.288345823149458,14.069017147844452,12.078103384873144,0.0,0.0872892439365387,0,0,0
1173,39218.30939163216,2010-09-01 00:23:28,2041.0048081032728,2,4,0.5501165986061096,3.882357120513916,3.556930154061804,3.288345823149458,14.086822946753305,12.078103384873144,0.0,0.0872892439365387,0,0,0
1174,39248.32453559134,2010-09-01 00:23:58,2071.019952062448,2,4,0.5501165986061096,3.883328437805176,3.561516923734924,3.288345823149458,14.10463266994834,12.078103384873144,3.237724376958795e-05,0.0872892439365387,0,0,0
1175,39278.33974042223,2010-09-01 00:24:28,2101.03515688331,2,4,0.550297200679779,3.8841378688812256,3.566103706365846,3.288345823149458,14.122446592178555,12.078103384873144,0.0,0.0872892439365387,0,0,0
1176,39308.35515154224,2010-09-01 00:24:58,2131.050568003331,2,4,0.5501165986061096,3.8852710723876953,3.570690546508296,3.288345823149458,14.140264742381095,12.078103384873144,9.713172767078504e-05,0.0872892439365387,0,0,0
1177,39338.37016149744,2010-09-01 00:25:28,2161.0655779735653,2,4,0.5501165986061096,3.885918617248535,3.575277284871867,3.288345823149458,14.158086700022784,12.078103384873144,3.237724376958795e-05,0.0872892439365387,0,0,0
1178,39368.38539230808,2010-09-01 00:25:58,2191.080808794225,2,4,0.5501165986061096,3.886889934539795,3.579864014252894,3.288345823149458,14.175912854444764,12.078103384873144,3.237724376958795e-05,0.0872892439365387,0,0,0
1179,39398.40076544343,2010-09-01 00:26:28,2221.096181904516,2,4,0.5499359965324402,3.8876993656158447,3.584450746819554,3.288345823149458,14.193743162507548,12.078103384873144,3.237724376958795e-05,0.0872892439365387,0,0,0
1180,39428.41590845023,2010-09-01 00:26:58,2251.11132493638,2,4,0.550297200679779,3.8888325691223145,3.589037418440876,3.288345823149458,14.211577551088077,12.078103384873144,3.237724376958795e-05,0.0872892439365387,0,0,0
1181,39458.431290798544,2010-09-01 00:27:28,2281.1267072696564,2,4,0.5501165986061096,3.889642000198364,3.593624362816542,3.288345823149458,14.229417376941546,12.078103384873144,3.237724376958795e-05,0.0872892439365387,0,0,0
1182,39488.44635084859,2010-09-01 00:27:58,2311.1417673197043,2,4,0.550297200679779,3.890613317489624,3.598211213324056,3.288345823149458,14.247261093514014,12.078103384873144,0.0,0.0872892439365387,0,0,0
1183,39518.46172488119,2010-09-01 00:28:28,2341.157141352294,2,4,0.5501165986061096,3.8917465209960938,3.602798094506507,3.288345823149458,14.26510937357016,12.078103384873144,6.47544875391759e-05,0.0872892439365387,0,0,0
1184,39548.47683988319,2010-09-01 00:28:58,2371.1722563492863,2,4,0.550297200679779,3.8927178382873535,3.607384873351148,3.288345823149458,14.282961687567996,12.078103384873144,6.47544875391759e-05,0.0872892439365387,0,0,0
1185,39578.49219575051,2010-09-01 00:29:28,2401.1876122115887,2,4,0.5501165986061096,3.8935272693634033,3.61197176136092,3.288345823149458,14.300818980447309,12.078103384873144,3.237724376958795e-05,0.0872892439365387,0,0,0
1186,39608.5073066924,2010-09-01 00:29:58,2431.202723153475,2,4,0.5501165986061096,3.894660472869873,3.616558657407679,3.288345823149458,14.3186809078989,12.078103384873144,3.237724376958795e-05,0.0872892439365387,0,0,0
1187,39638.52255333749,2010-09-01 00:30:28,2461.217969798575,2,4,0.5501165986061096,3.895469903945923,3.621145651980737,3.288345823149458,14.336547345644766,12.078103384873144,0.0,0.0872892439365387,0,0,0
1188,39668.53781422309,2010-09-01 00:30:58,2491.233230689179,2,4,0.5501165986061096,3.8966031074523926,3.625732469461343,3.288345823149458,14.354417951937153,12.078103384873144,0.0,0.0872892439365387,0,0,0
1189,39698.55302890352,2010-09-01 00:31:28,2521.248445369614,2,4,0.5501165986061096,3.897574424743652,3.630319262226885,3.288345823149458,14.372293252144532,12.078103384873144,3.237724376958795e-05,0.0872892439365387,0,0,0
1190,39728.56827113261,2010-09-01 00:31:58,2551.263687593695,2,4,0.5501165986061096,3.898707628250122,3.634906090008589,3.288345823149458,14.39017351263948,12.078103384873144,3.237724376958795e-05,0.0872892439365387,0,0,0
1191,39758.58350769258,2010-09-01 00:32:28,2581.27892415366,2,4,0.550297200679779,3.899840831756592,3.639492982167713,3.288345823149458,14.408059038042913,12.078103384873144,0.0,0.0872892439365387,0,0,0
1192,39788.59875075875,2010-09-01 00:32:58,2611.294167244903,2,4,0.5501165986061096,3.900812149047852,3.644079000127014,3.288345823149458,14.425945895470711,12.078103384873144,3.237724376958795e-05,0.0872892439365387,0,0,0
1193,39818.61410677144,2010-09-01 00:33:28,2641.309523242543,2,4,0.5499359965324402,3.901945352554321,3.648664885456189,3.288345823149458,14.443837335415516,12.078103384873144,0.0,0.0872892439365387,0,0,0
1194,39848.62922737741,2010-09-01 00:33:58,2671.3246438635524,2,4,0.5499359965324402,3.903078556060791,3.653250826892507,3.288345823149458,14.461734131229106,12.078103384873144,3.237724376958795e-05,0.0872892439365387,0,0,0
1195,39878.64449136072,2010-09-01 00:34:28,2701.339907881952,2,4,0.5501165986061096,3.9042117595672607,3.657836787080399,3.288345823149458,14.479636248171609,12.078103384873144,3.237724376958795e-05,0.0872892439365387,0,0,0
1196,39908.65968818164,2010-09-01 00:34:58,2731.35510465275,2,4,0.5501165986061096,3.905506849288941,3.662423658248503,3.288345823149458,14.497547318064228,12.078103384873144,6.47544875391759e-05,0.0872892439365387,0,0,0
1197,39938.674916034906,2010-09-01 00:35:28,2761.370332506015,2,4,0.5501165986061096,3.90664005279541,3.667010577667539,3.288345823149458,14.515463911618108,12.078103384873144,3.237724376958795e-05,0.0872892439365387,0,0,0
1198,39968.69015419887,2010-09-01 00:35:58,2791.385570690028,2,4,0.5501165986061096,3.90777325630188,3.671597537290063,3.288345823149458,14.533386128876105,12.078103384873144,0.0,0.0872892439365387,0,0,0
1199,39998.70539191171,2010-09-01 00:36:28,2821.4008083778035,2,4,0.550297200679779,3.90906834602356,3.676184480243792,3.288345823149458,14.551313759505616,12.078103384873144,3.237724376958795e-05,0.0872892439365387,0,0,0
1200,40028.72065715315,2010-09-01 00:36:58,2851.416073619251,2,4,0.5497553944587708,3.910201549530029,3.680771383728628,3.288345823149458,14.569246901310091,12.078103384873144,3.237724376958795e-05,0.0872892439365387,0,0,0
1201,40058.735891652985,2010-09-01 00:37:28,2881.431308124094,2,4,0.5499359965324402,3.911334753036499,3.685358369994895,3.288345823149458,14.587186001870796,12.078103384873144,-3.237724376958795e-05,0.0872892439365387,0,0,0
1202,40088.75103985273,2010-09-01 00:37:58,2911.446456343888,2,4,0.550297200679779,3.912953615188599,3.689945270137752,3.288345823149458,14.605130576337467,12.078103384873144,6.47544875391759e-05,0.0872892439365387,0,0,0
1203,40118.7663487981,2010-09-01 00:38:28,2941.461765264197,2,4,0.5501165986061096,3.9139246940612793,3.694532953297877,3.288345823149458,14.62308410188118,12.078103384873144,0.0,0.0872892439365387,0,0,0
1204,40148.78160349327,2010-09-01 00:38:58,2971.477019954348,2,4,0.550297200679779,3.915381669998169,3.69912059984129,3.288345823149458,14.641043465177251,12.078103384873144,3.237724376958795e-05,0.0872892439365387,0,0,0
1205,40178.79682879517,2010-09-01 00:39:28,3001.4922452612664,2,4,0.5501165986061096,3.9166767597198486,3.70370829203916,3.288345823149458,14.659008821759445,12.078103384873144,3.237724376958795e-05,0.0872892439365387,0,0,0
1206,40208.8119412809,2010-09-01 00:39:58,3031.507357741988,2,4,0.550297200679779,3.917971849441528,3.708295912976245,3.288345823149458,14.676980091161116,12.078103384873144,3.237724376958795e-05,0.0872892439365387,0,0,0
1207,40238.82748827457,2010-09-01 00:40:28,3061.522904730636,2,4,0.5499359965324402,3.919266939163208,3.7128828687154,3.288345823149458,14.694954825853292,12.078103384873144,3.237724376958795e-05,0.0872892439365387,0,0,0
1208,40268.8453937563,2010-09-01 00:40:58,3091.540810217388,2,4,0.5501165986061096,3.920562028884888,3.717470150282745,3.288345823149458,14.712937118861824,12.078103384873144,0.0,0.0872892439365387,0,0,0
1209,40298.85796874782,2010-09-01 00:41:28,3121.553385208905,2,4,0.550297200679779,3.9221808910369873,3.722056649954901,3.288345823149458,14.730922631525312,12.078103384873144,3.237724376958795e-05,0.0872892439365387,0,0,0
1210,40328.87303849204,2010-09-01 00:41:58,3151.568454948101,2,4,0.5501165986061096,3.923475980758667,3.726643533519766,3.288345823149458,14.748916062955868,12.078103384873144,3.237724376958795e-05,0.0872892439365387,0,0,0
1211,40358.88840046456,2010-09-01 00:42:28,3181.5838169356707,2,4,0.5501165986061096,3.9247710704803462,3.731230412104883,3.288345823149458,14.766915930124412,12.078103384873144,3.237724376958795e-05,0.0872892439365387,0,0,0
1212,40388.90353629347,2010-09-01 00:42:58,3211.59895275957,2,4,0.5501165986061096,3.9263899326324463,3.735817306051156,3.288345823149458,14.784922375415404,12.078103384873144,3.237724376958795e-05,0.0872892439365387,0,0,0
1213,40418.91887551931,2010-09-01 00:43:28,3241.61429200546,2,4,0.550297200679779,3.927846908569336,3.740404251830079,3.288345823149458,14.80293563873691,12.078103384873144,6.47544875391759e-05,0.0872892439365387,0,0,0
1214,40448.93399588468,2010-09-01 00:43:58,3271.629412350782,2,4,0.550297200679779,3.929465770721436,3.744991197066893,3.288345823149458,14.820955613014542,12.078103384873144,0.0001295089750783,0.0872892439365387,0,0,0
1215,40478.94952774062,2010-09-01 00:44:28,3301.644944201703,2,4,0.5501165986061096,3.9307608604431152,3.749578056132061,3.288345823149458,14.838982037051483,12.078103384873144,3.237724376958795e-05,0.0872892439365387,0,0,0
1216,40508.964493510684,2010-09-01 00:44:58,3331.6599099968385,2,4,0.5501165986061096,3.932217836380005,3.754164919217491,3.288345823149458,14.857015295121691,12.078103384873144,3.237724376958795e-05,0.0872892439365387,0,0,0
1217,40538.97983694702,2010-09-01 00:45:28,3361.6752534081093,2,4,0.5497553944587708,3.9336748123168954,3.758751816838385,3.288345823149458,14.87505561806557,12.078103384873144,3.237724376958795e-05,0.0872892439365387,0,0,0
1218,40568.99495359313,2010-09-01 00:45:58,3391.690370054212,2,4,0.550297200679779,3.935293674468994,3.763338751657033,3.288345823149458,14.893103119025527,12.078103384873144,3.237724376958795e-05,0.0872892439365387,0,0,0
1219,40599.01019494002,2010-09-01 00:46:28,3421.705611401107,2,4,0.5501165986061096,3.936750650405884,3.767925638489673,3.288345823149458,14.911157393697286,12.078103384873144,3.237724376958795e-05,0.0872892439365387,0,0,0
1220,40629.0254649684,2010-09-01 00:46:58,3451.720881429486,2,4,0.5501165986061096,3.938531398773194,3.772512496537927,3.288345823149458,14.929218806893596,12.078103384873144,9.713172767078504e-05,0.0872892439365387,0,0,0
1221,40659.04068670141,2010-09-01 00:47:28,3481.7361031624973,2,4,0.5499359965324402,3.939988374710083,3.777099331318904,3.288345823149458,14.94728736212787,12.078103384873144,6.47544875391759e-05,0.0872892439365387,0,0,0
1222,40689.05591476019,2010-09-01 00:47:58,3511.751331211249,2,4,0.5499359965324402,3.941607236862183,3.781686197858029,3.288345823149458,14.965363385936964,12.078103384873144,3.237724376958795e-05,0.0872892439365387,0,0,0
1223,40719.07117151047,2010-09-01 00:48:28,3541.7665879966225,2,4,0.5501165986061096,3.943387985229492,3.78627308303539,3.288345823149458,14.983446835422209,12.078103384873144,6.47544875391759e-05,0.0872892439365387,0,0,0
1224,40749.086405669455,2010-09-01 00:48:58,3571.781822120516,2,4,0.550297200679779,3.945006847381592,3.790859925072781,3.288345823149458,15.001537632143828,12.078103384873144,6.47544875391759e-05,0.0872892439365387,0,0,0
1225,40779.10165036971,2010-09-01 00:49:28,3601.797066830794,2,4,0.550297200679779,3.9466257095336914,3.795446778239262,3.288345823149458,15.019636087582176,12.078103384873144,3.237724376958795e-05,0.0872892439365387,0,0,0
1226,40809.11687660394,2010-09-01 00:49:58,3631.8122930549994,2,4,0.5501165986061096,3.948244571685791,3.800033634321067,3.288345823149458,15.037742089807685,12.078103384873144,6.47544875391759e-05,0.0872892439365387,0,0,0
1227,40839.13214355464,2010-09-01 00:50:28,3661.8275600057073,2,4,0.5501165986061096,3.94986343383789,3.80462051465772,3.288345823149458,15.055856004394052,12.078103384873144,3.237724376958795e-05,0.0872892439365387,0,0,0
1228,40869.14738270607,2010-09-01 00:50:58,3691.842799167155,2,4,0.5499359965324402,3.9516441822052,3.809207401562729,3.288345823149458,15.07397784613742,12.078103384873144,6.47544875391759e-05,0.0872892439365387,0,0,0
1229,40899.16260286516,2010-09-01 00:51:28,3721.858019326244,2,4,0.5501165986061096,3.9534249305725098,3.81379430619687,3.288345823149458,15.092107677932407,12.078103384873144,3.237724376958795e-05,0.0872892439365387,0,0,0
1230,40929.17791357994,2010-09-01 00:51:58,3751.873330071101,2,4,0.550297200679779,3.9552056789398193,3.818381173837172,3.288345823149458,15.1102454729172,12.078103384873144,9.713172767078504e-05,0.0872892439365387,0,0,0
1231,40959.19307838106,2010-09-01 00:52:28,3781.8884948471577,2,4,0.550297200679779,3.956986427307129,3.82296807241972,3.288345823149458,15.128391622716386,12.078103384873144,6.47544875391759e-05,0.0872892439365387,0,0,0
1232,40989.20834076538,2010-09-01 00:52:58,3811.9037572214593,2,4,0.5501165986061096,3.9587671756744394,3.82755499275808,3.288345823149458,15.146546019775986,12.078103384873144,6.47544875391759e-05,0.0872892439365387,0,0,0
1233,41019.22360869855,2010-09-01 00:53:29,3841.919025189704,2,4,0.5501165986061096,3.960709810256958,3.832141950873763,3.288345823149458,15.164709056851883,12.078103384873144,6.47544875391759e-05,0.0872892439365387,0,0,0
1234,41049.23907850985,2010-09-01 00:53:59,3871.934494970927,2,4,0.5501165986061096,3.9623286724090576,3.836728837422127,3.288345823149458,15.18288036081896,12.078103384873144,0.0,0.0872892439365387,0,0,0
1235,41079.25417383781,2010-09-01 00:54:29,3901.9495902988992,2,4,0.5499359965324402,3.964271306991577,3.841315684305557,3.288345823149458,15.201060178247127,12.078103384873144,0.0,0.0872892439365387,0,0,0
1236,41109.26929979712,2010-09-01 00:54:59,3931.964716248188,2,4,0.550297200679779,3.966375827789306,3.845902550415123,3.288345823149458,15.219248832325814,12.078103384873144,6.47544875391759e-05,0.0872892439365387,0,0,0
1237,41139.28454038714,2010-09-01 00:55:29,3961.979956838197,2,4,0.5501165986061096,3.968156576156616,3.850489515744867,3.288345823149458,15.23744674561986,12.078103384873144,3.237724376958795e-05,0.0872892439365387,0,0,0
1238,41169.29976340836,2010-09-01 00:55:59,3991.9951798594193,2,4,0.5501165986061096,3.9702610969543457,3.855076361423612,3.288345823149458,15.255653120802652,12.078103384873144,6.47544875391759e-05,0.0872892439365387,0,0,0
1239,41199.31514332061,2010-09-01 00:56:29,4022.0105597816873,2,4,0.5501165986061096,3.972203731536865,3.859663367907473,3.288345823149458,15.273869227110836,12.078103384873144,3.237724376958795e-05,0.0872892439365387,0,0,0
1240,41229.33048622562,2010-09-01 00:56:59,4052.025902686696,2,4,0.5501165986061096,3.9743082523345943,3.864250326105939,3.288345823149458,15.292094213558636,12.078103384873144,9.713172767078504e-05,0.0872892439365387,0,0,0
1241,41259.34564638015,2010-09-01 00:57:29,4082.041062841235,2,4,0.5499359965324402,3.976250886917114,3.868837269628699,3.288345823149458,15.310328337232306,12.078103384873144,3.237724376958795e-05,0.0872892439365387,0,0,0
1242,41289.360724284685,2010-09-01 00:57:59,4112.056140745782,2,4,0.550297200679779,3.977869749069214,3.873424155351289,3.288345823149458,15.328571223907405,12.078103384873144,0.0,0.0872892439365387,0,0,0
1243,41319.376210341485,2010-09-01 00:58:29,4142.071626802569,2,4,0.5501165986061096,3.9802980422973633,3.878011018185251,3.288345823149458,15.34682332062601,12.078103384873144,6.47544875391759e-05,0.0872892439365387,0,0,0
1244,41349.39127303312,2010-09-01 00:58:59,4172.086689594451,2,4,0.550297200679779,3.982240676879883,3.882597822006507,3.288345823149458,15.365084585603393,12.078103384873144,6.47544875391759e-05,0.0872892439365387,0,0,0
1245,41379.406582820586,2010-09-01 00:59:29,4202.101999291696,2,4,0.5501165986061096,3.984345197677612,3.887184675663214,3.288345823149458,15.383355335496226,12.078103384873144,6.47544875391759e-05,0.0872892439365387,0,0,0
1246,41409.421753406124,2010-09-01 00:59:59,4232.117169897282,2,4,0.5501165986061096,3.986449718475342,3.891771468369031,3.288345823149458,15.401635142865274,12.078103384873144,6.47544875391759e-05,0.0872892439365387,0,0,0
1247,41439.43721982898,2010-09-01 01:00:29,4262.132636320136,2,4,0.5501165986061096,3.9882304668426514,3.896358254903914,3.288345823149458,15.419924260602007,12.078103384873144,3.237724376958795e-05,0.0872892439365387,0,0,0
1248,41469.45218524316,2010-09-01 01:00:59,4292.14760170926,2,4,0.5501165986061096,3.990334987640381,3.900944994420912,3.288345823149458,15.438222530770071,12.078103384873144,3.237724376958795e-05,0.0872892439365387,0,0,0
1249,41499.46753791251,2010-09-01 01:01:29,4322.162954383617,2,4,0.5501165986061096,3.9924395084381104,3.905531755394885,3.288345823149458,15.45653029225547,12.078103384873144,3.237724376958795e-05,0.0872892439365387,0,0,0
1250,41529.48265670395,2010-09-01 01:01:59,4352.178073170055,2,4,0.550297200679779,3.994705677032471,3.910118568978823,3.288345823149458,15.474847771121649,12.078103384873144,0.0001295089750783,0.0872892439365387,0,0,0
1251,41559.49791228634,2010-09-01 01:02:29,4382.193328772479,2,4,0.5501165986061096,3.99648642539978,3.914705391514176,3.288345823149458,15.493174820600164,12.078103384873144,0.0,0.0872892439365387,0,0,0
1252,41589.513152725965,2010-09-01 01:02:59,4412.208569192063,2,4,0.5499359965324402,3.9985909461975098,3.919292174159273,3.288345823149458,15.511511320774574,12.078103384873144,3.237724376958795e-05,0.0872892439365387,0,0,0
1253,41619.52838086494,2010-09-01 01:03:29,4442.223797326028,2,4,0.5501165986061096,4.000857353210449,3.923878947032413,3.288345823149458,15.529857419875812,12.078103384873144,6.47544875391759e-05,0.0872892439365387,0,0,0
1254,41649.54365645719,2010-09-01 01:03:59,4472.239072908248,2,4,0.5501165986061096,4.002962112426758,3.9284656967547,3.288345823149458,15.548213271896229,12.078103384873144,3.24249267578125e-05,0.0872892439365387,0,0,0
1255,41679.55885892217,2010-09-01 01:04:29,4502.254275378251,2,4,0.5499359965324402,4.005066394805908,3.933052492891558,3.288345823149458,15.566579156998978,12.078103384873144,3.23295607813634e-05,0.0872892439365387,0,0,0
1256,41709.57411397323,2010-09-01 01:04:59,4532.26953044935,2,4,0.5501165986061096,4.007332801818848,3.937639289881779,3.288345823149458,15.5849550671684,12.078103384873144,3.23295607813634e-05,0.0872892439365387,0,0,0
1257,41739.589354633405,2010-09-01 01:05:29,4562.284771099509,2,4,0.5501165986061096,4.009599208831787,3.942226120515009,3.288345823149458,15.60334115848496,12.078103384873144,6.47544875391759e-05,0.0872892439365387,0,0,0
1258,41769.60460148904,2010-09-01 01:05:59,4592.300017975184,2,4,0.5499359965324402,4.011703968048096,3.946812884285863,3.288345823149458,15.621737180701318,12.078103384873144,3.24249267578125e-05,0.0872892439365387,0,0,0
1259,41799.619849562696,2010-09-01 01:06:29,4622.315266033807,2,4,0.5501165986061096,4.014132022857666,3.951399633360638,3.288345823149458,15.64014345739303,12.078103384873144,9.70840483205393e-05,0.0872892439365387,0,0,0
1260,41829.63508598232,2010-09-01 01:06:59,4652.330502443398,2,4,0.5499359965324402,4.016236782073975,3.955986449867486,3.288345823149458,15.65856037057976,12.078103384873144,3.24249267578125e-05,0.0872892439365387,0,0,0
1261,41859.65031333933,2010-09-01 01:07:29,4682.345729825488,2,4,0.550297200679779,4.018503189086914,3.960573283798454,3.288345823149458,15.67698786274446,12.078103384873144,3.24249267578125e-05,0.0872892439365387,0,0,0
1262,41889.66554609984,2010-09-01 01:07:59,4712.360962565934,2,4,0.5501165986061096,4.020931243896484,3.965160089865523,3.288345823149458,15.695425746559108,12.078103384873144,3.23295607813634e-05,0.0872892439365387,0,0,0
1263,41919.680788218655,2010-09-01 01:08:29,4742.376204694778,2,4,0.5499359965324402,4.023197650909424,3.969746714078662,3.288345823149458,15.713873691012068,12.078103384873144,6.47544875391759e-05,0.0872892439365387,0,0,0
1264,41949.69606046256,2010-09-01 01:08:59,4772.391476938678,2,4,0.550297200679779,4.025787830352783,3.974332586735994,3.288345823149458,15.73232928224917,12.078103384873144,9.70840483205393e-05,0.0872892439365387,0,0,0
1265,41979.7113196038,2010-09-01 01:09:29,4802.406736084934,2,4,0.5504778623580933,4.028216361999512,3.978918606264728,3.288345823149458,15.75079649554498,12.078103384873144,9.71794142969884e-05,0.0872892439365387,0,0,0
1266,42009.72653418398,2010-09-01 01:09:59,4832.421950635044,2,4,0.5501165986061096,4.030482769012451,3.983505353602097,3.288345823149458,15.76927774685232,12.078103384873144,6.47544875391759e-05,0.0872892439365387,0,0,0
1267,42039.74179175632,2010-09-01 01:10:29,4862.437208247478,2,4,0.5501165986061096,4.032749176025391,3.988092060275331,3.288345823149458,15.787769970733589,12.078103384873144,6.47544875391759e-05,0.0872892439365387,0,0,0
1268,42069.757034922746,2010-09-01 01:10:59,4892.452451383834,2,4,0.5501165986061096,4.035338878631592,3.992678737708413,3.288345823149458,15.80627336064564,12.078103384873144,6.47544875391759e-05,0.0872892439365387,0,0,0
1269,42099.772266500295,2010-09-01 01:11:29,4922.467682991455,2,4,0.5499359965324402,4.03776741027832,3.997265453691555,3.288345823149458,15.824788318092311,12.078103384873144,3.24249267578125e-05,0.0872892439365387,0,0,0
1270,42129.78751091984,2010-09-01 01:11:59,4952.482927405997,2,4,0.5501165986061096,4.040519237518311,4.001852228142004,3.288345823149458,15.843314935237998,12.078103384873144,0.0001295089750783,0.0872892439365387,0,0,0
1271,42159.80274804623,2010-09-01 01:12:29,4982.498164532372,2,4,0.5501165986061096,4.042947769165039,4.006438915706174,3.288345823149458,15.861852777111949,12.078103384873144,6.47544875391759e-05,0.0872892439365387,0,0,0
1272,42189.820816479085,2010-09-01 01:12:59,5012.516232970249,2,4,0.550297200679779,4.045537948608398,4.011026144375962,3.288345823149458,15.880404539284708,12.078103384873144,6.47544875391759e-05,0.0872892439365387,0,0,0
1273,42219.833266995374,2010-09-01 01:13:29,5042.5286834614735,2,4,0.5501165986061096,4.048128128051758,4.015612445864266,3.288345823149458,15.89896435392978,12.078103384873144,0.0001295089750783,0.0872892439365387,0,0,0
1274,42249.84848727978,2010-09-01 01:13:59,5072.543903740861,2,4,0.5501165986061096,4.050556182861328,4.020199208422187,3.288345823149458,15.917537952243084,12.078103384873144,0.0,0.0872892439365387,0,0,0
1275,42279.863845813736,2010-09-01 01:14:29,5102.559262284849,2,4,0.550297200679779,4.053308486938477,4.024785983000893,3.288345823149458,15.93612360208584,12.078103384873144,3.24249267578125e-05,0.0872892439365387,0,0,0
1276,42309.87898295091,2010-09-01 01:14:59,5132.574399396959,2,4,0.550297200679779,4.056060314178467,4.029372748240157,3.288345823149458,15.954721371399,12.078103384873144,9.70840483205393e-05,0.0872892439365387,0,0,0
1277,42339.89420331551,2010-09-01 01:15:29,5162.589619776597,2,4,0.5501165986061096,4.058812618255615,4.033959515883909,3.288345823149458,15.973331375732856,12.078103384873144,0.0001295089750783,0.0872892439365387,0,0,0
1278,42369.90945071249,2010-09-01 01:15:59,5192.604867173571,2,4,0.5501165986061096,4.0612406730651855,4.038546400513737,3.288345823149458,15.99195405387116,12.078103384873144,9.70840483205393e-05,0.0872892439365387,0,0,0
1279,42399.92482859467,2010-09-01 01:16:29,5222.620245085829,2,4,0.5501165986061096,4.063992977142334,4.043133195300267,3.288345823149458,16.01058867377958,12.078103384873144,6.47544875391759e-05,0.0872892439365387,0,0,0
1280,42429.93994389743,2010-09-01 01:16:59,5252.635360353497,2,4,0.5501165986061096,4.066906929016113,4.047719917736129,3.288345823149458,16.02923558491447,12.078103384873144,9.71794142969884e-05,0.0872892439365387,0,0,0
1281,42459.955171459966,2010-09-01 01:17:29,5282.650587921049,2,4,0.5501165986061096,4.069497108459473,4.052306665336406,3.288345823149458,16.047895313072075,12.078103384873144,6.47544875391759e-05,0.0872892439365387,0,0,0
1282,42489.97041064648,2010-09-01 01:17:59,5312.665827112573,2,4,0.5501165986061096,4.072411060333252,4.0568934047636,3.288345823149458,16.066567771689165,12.078103384873144,9.71794142969884e-05,0.0872892439365387,0,0,0
1283,42519.98580349094,2010-09-01 01:18:29,5342.681219967072,2,4,0.550297200679779,4.075162887573242,4.061480150204429,3.288345823149458,16.08525313869859,12.078103384873144,9.70840483205393e-05,0.0872892439365387,0,0,0
1284,42550.000908237394,2010-09-01 01:18:59,5372.696324708505,2,4,0.5501165986061096,4.077915191650391,4.066066913691457,3.288345823149458,16.10395164864955,12.078103384873144,3.24249267578125e-05,0.0872892439365387,0,0,0
1285,42580.016269763815,2010-09-01 01:19:29,5402.7116862249,2,4,0.5501165986061096,4.08082914352417,4.070653652925047,3.288345823149458,16.122663203575847,12.078103384873144,3.24249267578125e-05,0.0872892439365387,0,0,0
1286,42610.0314004048,2010-09-01 01:19:59,5432.726816865881,2,4,0.550297200679779,4.08390474319458,4.075240428453919,3.288345823149458,16.141388095084295,12.078103384873144,6.47544875391759e-05,0.0872892439365387,0,0,0
1287,42640.04663034828,2010-09-01 01:20:29,5462.742046809356,2,4,0.5501165986061096,4.086818695068359,4.079827178994586,3.288345823149458,16.160126293611206,12.078103384873144,9.70840483205393e-05,0.0872892439365387,0,0,0
1288,42670.06189066244,2010-09-01 01:20:59,5492.757307123523,2,4,0.5501165986061096,4.089732646942139,4.084413978069542,3.288345823149458,16.17887820074929,12.078103384873144,9.70840483205393e-05,0.0872892439365387,0,0,0
1289,42700.0771181548,2010-09-01 01:21:29,5522.7725346158895,2,4,0.550297200679779,4.092808723449707,4.089000698689965,3.288345823149458,16.197643394436756,12.078103384873144,9.71794142969884e-05,0.0872892439365387,0,0,0
1290,42730.09235453934,2010-09-01 01:21:59,5552.787771010442,2,4,0.5501165986061096,4.095722675323486,4.09358741416088,3.288345823149458,16.216422277821085,12.078103384873144,6.47544875391759e-05,0.0872892439365387,0,0,0
1291,42760.107747689566,2010-09-01 01:22:29,5582.8031641556645,2,4,0.5501165986061096,4.098636627197266,4.098174986145974,3.288345823149458,16.23521857949306,12.078103384873144,6.47544875391759e-05,0.0872892439365387,0,0,0
1292,42790.12287378423,2010-09-01 01:22:59,5612.818290250316,2,4,0.550297200679779,4.101874351501465,4.102762588763058,3.288345823149458,16.25402903119493,12.078103384873144,6.47544875391759e-05,0.0872892439365387,0,0,0
1293,42820.13812818866,2010-09-01 01:23:29,5642.833544649742,2,4,0.5501165986061096,4.104788303375244,4.107349342823939,3.288345823149458,16.272849914358645,12.078103384873144,6.47544875391759e-05,0.0872892439365387,0,0,0
1294,42850.15335508955,2010-09-01 01:23:59,5672.848771555647,2,4,0.5501165986061096,4.108026027679443,4.111936105523991,3.288345823149458,16.29168513410106,12.078103384873144,6.47544875391759e-05,0.0872892439365387,0,0,0
1295,42880.16859194525,2010-09-01 01:24:29,5702.864008406335,2,4,0.5501165986061096,4.1111016273498535,4.116522815163047,3.288345823149458,16.310534476596427,12.078103384873144,9.70840483205393e-05,0.0872892439365387,0,0,0
1296,42910.183866023726,2010-09-01 01:24:59,5732.879282474783,2,4,0.550297200679779,4.114501476287842,4.121109527781278,3.288345823149458,16.329398266217513,12.078103384873144,0.0001295089750783,0.0872892439365387,0,0,0
1297,42940.19908237833,2010-09-01 01:25:30,5762.894498844428,2,4,0.5501165986061096,4.117414951324463,4.125696221659355,3.288345823149458,16.34827659838022,12.078103384873144,6.47544875391759e-05,0.0872892439365387,0,0,0
1298,42970.214597728125,2010-09-01 01:26:00,5792.910014194222,2,4,0.5501165986061096,4.120652675628662,4.130283003250415,3.288345823149458,16.367169973878873,12.078103384873144,9.70840483205393e-05,0.0872892439365387,0,0,0
1299,43000.22969981293,2010-09-01 01:26:30,5822.925116274022,2,4,0.5501165986061096,4.123890399932861,4.134869728801356,3.288345823149458,16.386077969506108,12.078103384873144,9.70840483205393e-05,0.0872892439365387,0,0,0
1300,43030.24485721562,2010-09-01 01:27:00,5852.9402736767015,2,4,0.5501165986061096,4.12729024887085,4.139456472347311,3.288345823149458,16.405001008790922,12.078103384873144,9.71794142969884e-05,0.0872892439365387,0,0,0
1301,43060.260053655584,2010-09-01 01:27:30,5882.955470126701,2,4,0.5501165986061096,4.130527973175049,4.144043173672326,3.288345823149458,16.423938948919133,12.078103384873144,9.71794142969884e-05,0.0872892439365387,0,0,0
1302,43090.275295488704,2010-09-01 01:28:00,5912.97071194477,2,4,0.5501165986061096,4.133927345275879,4.148629915240647,3.288345823149458,16.4428922484653,12.078103384873144,0.0001295089750783,0.0872892439365387,0,0,0
1303,43120.29053801854,2010-09-01 01:28:30,5942.985954479626,2,4,0.5499359965324402,4.137165069580078,4.153216645099275,3.288345823149458,16.46186080345025,12.078103384873144,9.70840483205393e-05,0.0872892439365387,0,0,0
1304,43150.305987749794,2010-09-01 01:29:00,5973.001404255992,2,4,0.5501165986061096,4.140564918518066,4.157803439349578,3.288345823149458,16.4808450732967,12.078103384873144,9.71794142969884e-05,0.0872892439365387,0,0,0
1305,43180.321023328856,2010-09-01 01:29:30,6003.016439809989,2,4,0.550297200679779,4.1441264152526855,4.162390180856224,3.288345823149458,16.499844639085126,12.078103384873144,0.0001295089750783,0.0872892439365387,0,0,0
1306,43210.33631383827,2010-09-01 01:30:00,6033.031730299361,2,4,0.5501165986061096,4.147364139556885,4.166976860966718,3.288345823149458,16.51885996847692,12.078103384873144,6.47544875391759e-05,0.0872892439365387,0,0,0
1307,43240.35181367942,2010-09-01 01:30:30,6063.047230150529,2,4,0.5501165986061096,4.150925636291504,4.171563692734234,3.288345823149458,16.537891781371133,12.078103384873144,9.71794142969884e-05,0.0872892439365387,0,0,0
1308,43270.36681669732,2010-09-01 01:31:00,6093.062233163423,2,4,0.550297200679779,4.154487133026123,4.176150423980821,3.288345823149458,16.556939107083892,12.078103384873144,9.71794142969884e-05,0.0872892439365387,0,0,0
1309,43300.382035483,2010-09-01 01:31:30,6123.077451949089,2,4,0.5501165986061096,4.157886505126953,4.180737113576236,3.288345823149458,16.57600227544221,12.078103384873144,6.47544875391759e-05,0.0872892439365387,0,0,0
1310,43330.39726530115,2010-09-01 01:32:00,6153.092681762238,2,4,0.5501165986061096,4.161448001861572,4.185323905334846,3.288345823149458,16.595082067453124,12.078103384873144,6.47544875391759e-05,0.0872892439365387,0,0,0
1311,43360.4125064676,2010-09-01 01:32:30,6183.107922928683,2,4,0.5501165986061096,4.165009498596191,4.189910704909678,3.288345823149458,16.61417818525646,12.078103384873144,6.47544875391759e-05,0.0872892439365387,0,0,0
1312,43390.42776637576,2010-09-01 01:33:00,6213.12318283684,2,4,0.550297200679779,4.1687331199646,4.194497451853311,3.288345823149458,16.633290460948675,12.078103384873144,0.0001295089750783,0.0872892439365387,0,0,0
1313,43420.44301014869,2010-09-01 01:33:30,6243.138426609781,2,4,0.550297200679779,4.172294616699219,4.199084153277632,3.288345823149458,16.652419082761018,12.078103384873144,9.71794142969884e-05,0.0872892439365387,0,0,0
1314,43450.45826116469,2010-09-01 01:34:00,6273.15367765585,2,4,0.5501165986061096,4.175856113433838,4.20367091389213,3.288345823149458,16.67156462572174,12.078103384873144,0.0001295089750783,0.0872892439365387,0,0,0
1315,43480.47361005461,2010-09-01 01:34:30,6303.169026525726,2,4,0.5499359965324402,4.179579257965088,4.208257622286373,3.288345823149458,16.69072672402168,12.078103384873144,0.0001295089750783,0.0872892439365387,0,0,0
1316,43510.488740485074,2010-09-01 01:35:00,6333.184156956183,2,4,0.5501165986061096,4.183140754699707,4.212844338406024,3.288345823149458,16.709905728472815,12.078103384873144,6.47544875391759e-05,0.0872892439365387,0,0,0
1317,43540.504096888726,2010-09-01 01:35:30,6363.19951334981,2,4,0.5501165986061096,4.187026023864746,4.21743117829995,3.288345823149458,16.729102271068342,12.078103384873144,0.0001295089750783,0.0872892439365387,0,0,0
1318,43570.51922221145,2010-09-01 01:36:00,6393.21463867755,2,4,0.5501165986061096,4.190749645233154,4.222017905093258,3.288345823149458,16.748315505747335,12.078103384873144,9.71794142969884e-05,0.0872892439365387,0,0,0
1319,43600.53458388323,2010-09-01 01:36:30,6423.230000374395,2,4,0.5501165986061096,4.194472789764404,4.226604613986853,3.288345823149458,16.767545932943595,12.078103384873144,6.47544875391759e-05,0.0872892439365387,0,0,0
1320,43630.54971668962,2010-09-01 01:37:00,6453.245133155711,2,4,0.5499359965324402,4.198195934295654,4.231191298890288,3.288345823149458,16.786793609906393,12.078103384873144,6.47544875391759e-05,0.0872892439365387,0,0,0
1321,43643.04957356405,2010-09-01 01:37:12,6465.74499004519,2,4,0.550297200679779,4.200138568878174,4.233101479923604,3.288345823149458,16.794814730634986,12.078103384873144,0.0001618385285837,0.0872892439365387,0,0,0
1322,43673.06490176184,2010-09-01 01:37:43,30.015155743545453,3,4,0.0,4.12631893157959,4.233101479923604,3.288345823149458,16.794814730634986,12.078103384873144,-0.0003237724304199,0.0872892439365387,0,0,0
1323,43703.080444840736,2010-09-01 01:38:13,60.03069885252475,3,4,0.0,4.117414951324463,4.233101479923604,3.288345823149458,16.794814730634986,12.078103384873144,-0.0001295089750783,0.0872892439365387,0,0,0
1324,43733.09551957238,2010-09-01 01:38:43,90.04577355408865,3,4,0.0,4.112072944641113,4.233101479923604,3.288345823149458,16.794814730634986,12.078103384873144,-6.47544875391759e-05,0.0872892439365387,0,0,0
1325,43763.06376118147,2010-09-01 01:39:13,120.01401516317593,3,4,0.0,4.108835220336914,4.233101479923604,3.288345823149458,16.794814730634986,12.078103384873144,-6.47544875391759e-05,0.0872892439365387,0,0,0
1326,43763.06548077783,2010-09-01 01:39:13,2.596471205e-06,4,4,0.9938735961914062,4.199653148651123,4.233101480640428,3.288345823149458,16.794814733645396,12.078103384873144,0.0,0.0872892439365387,0,0,0
1327,43763.90945489101,2010-09-01 01:39:14,0.8439766946081,4,4,0.943664252758026,4.199653148651123,4.233326855394983,3.288345823149458,16.7957612362366,12.078103384873144,0.0,0.0872892439365387,0,0,0
1328,43765.98728552929,2010-09-01 01:39:16,2.921807332891206,4,4,0.8932742476463318,4.199653148651123,4.233855840666267,3.288345823149458,16.797982799882412,12.078103384873144,0.0,0.0872892439365387,0,0,0
1329,43769.19037792611,2010-09-01 01:39:19,6.124899734723464,4,4,0.8428842425346375,4.199814796447754,4.234627088827412,3.288345823149458,16.801221787497912,12.078103384873144,0.0,0.0872892439365387,0,0,0
1330,43773.47160717169,2010-09-01 01:39:23,10.406129000354731,4,4,0.7926748991012573,4.199491024017334,4.235598381592628,3.288345823149458,16.80530091120819,12.078103384873144,-3.24249267578125e-05,0.0872892439365387,0,0,0
1331,43778.94027114498,2010-09-01 01:39:29,15.874792948579538,4,4,0.7424654960632324,4.199653148651123,4.236763065398814,3.288345823149458,16.8101922402237,12.078103384873144,0.0,0.0872892439365387,0,0,0
1332,43785.98704508387,2010-09-01 01:39:36,22.921566892485888,4,4,0.692436695098877,4.199814796447754,4.238165407643094,3.288345823149458,16.81608166346407,12.078103384873144,0.0,0.0872892439365387,0,0,0
1333,43795.174406550526,2010-09-01 01:39:45,32.10892835412875,4,4,0.6424079537391663,4.199814796447754,4.239865505798775,3.288345823149458,16.823221570473248,12.078103384873144,3.23295607813634e-05,0.0872892439365387,0,0,0
1334,43807.72113063748,2010-09-01 01:39:57,44.65565244108394,4,4,0.5921985507011414,4.199653148651123,4.242012704814283,3.288345823149458,16.8322391631193,12.078103384873144,0.0,0.0872892439365387,0,0,0
1335,43826.20528667676,2010-09-01 01:40:16,63.139808480366455,4,4,0.5421698093414307,4.199653148651123,4.244917239610492,3.288345823149458,16.84443737768432,12.078103384873144,0.0,0.0872892439365387,0,0,0
1336,43855.48615246882,2010-09-01 01:40:45,92.42067427742992,4,4,0.4917798042297363,4.199814796447754,4.249107486031552,3.288345823149458,16.86203521848213,12.078103384873144,0.0,0.0872892439365387,0,0,0
1337,43905.28238347339,2010-09-01 01:41:35,142.21690528201054,4,4,0.4417510628700256,4.199814796447754,4.255538277243593,3.288345823149458,16.88904265042571,12.078103384873144,3.23295607813634e-05,0.0872892439365387,0,0,0
1338,43982.92218836636,2010-09-01 01:42:53,219.856710190012,4,4,0.3917222917079925,4.199653148651123,4.264498292994658,3.288345823149458,16.92667210121131,12.078103384873144,0.0,0.0872892439365387,0,0,0
1339,44084.79578109015,2010-09-01 01:44:34,321.7303028987631,4,4,0.3416935205459595,4.199653148651123,4.274863431098763,3.288345823149458,16.970202686677567,12.078103384873144,-3.23295607813634e-05,0.0872892439365387,0,0,0
1340,44211.106642125735,2010-09-01 01:46:41,448.04116393434407,4,4,0.2914841175079345,4.199653148651123,4.285963394922471,3.288345823149458,17.016819328262347,12.078103384873144,-3.23295607813634e-05,0.0872892439365387,0,0,0
1341,44363.26097969668,2010-09-01 01:49:13,600.1955015002777,4,4,0.2414553612470626,4.199491024017334,4.297206130065764,3.288345823149458,17.064035577926408,12.078103384873144,-3.24249267578125e-05,0.0872892439365387,0,0,0
1342,44552.86798421255,2010-09-01 01:52:22,789.8025060412104,4,4,0.1914265900850296,4.199491024017334,4.308570633146036,3.288345823149458,17.111763175171944,12.078103384873144,-3.24249267578125e-05,0.0872892439365387,0,0,0
1343,44804.73978602669,2010-09-01 01:56:34,1041.6743078302848,4,4,0.1413978189229965,4.199491024017334,4.320149187800083,3.288345823149458,17.16038979488898,12.078103384873144,-6.47544875391759e-05,0.0872892439365387,0,0,0
1344,45181.1882629164,2010-09-01 02:02:51,1418.1227847250068,4,4,0.0913690477609634,4.199814796447754,4.332152843707224,3.288345823149458,17.21080167661772,12.078103384873144,3.23295607813634e-05,0.0872892439365387,0,0,0
1345,45736.33739463276,2010-09-01 02:12:06,1973.2719164313369,4,4,0.0498289167881011,4.199653148651123,4.342738467559973,3.288345823149458,17.2552583003589,12.078103384873144,-3.23295607813634e-05,0.0872892439365387,0,0,0
1346,45766.351940599016,2010-09-01 02:12:36,30.0152441087788,5,4,0.0,4.193016052246094,4.342738467559973,3.288345823149458,17.2552583003589,12.078103384873144,0.0,0.0872892439365387,0,0,0
1347,45796.35156244732,2010-09-01 02:13:06,60.01486594204016,5,4,0.0,4.192044734954834,4.342738467559973,3.288345823149458,17.2552583003589,12.078103384873144,0.0,0.0872892439365387,0,0,0
1348,45796.53914452502,2010-09-01 02:13:06,0.187518498797002,6,4,-1.9243103452026844e-05,4.192044734954834,4.342738467559973,3.288345824151802,17.2552583003589,12.078103389075014,0.0,0.0865590572357177,0,0,0
1349,45801.367293322415,2010-09-01 02:13:11,5.015667311221814,6,4,0.0007031940040178,4.191882610321045,4.34273928748861,3.288345824319083,17.255261737523877,12.078103389776269,-3.24249267578125e-05,0.0865590572357177,0,0,0
1350,45831.38271162226,2010-09-01 02:13:41,30.01541663376415,7,4,-1.0997490882873535,4.040519237518311,4.342739287536167,3.297515262245097,17.255261737723234,12.115320894966224,-0.0007770538213662,0.0865590572357177,0,0,0
1351,45861.39777514596,2010-09-01 02:14:11,60.03048014243191,7,4,-1.099929690361023,4.018503189086914,4.342739287536167,3.306684581411432,17.255261737723234,12.15226109292454,-0.0004856109735555,0.0865590572357177,0,0,0
1352,45891.41302354043,2010-09-01 02:14:41,90.04572855192943,7,4,-1.099568486213684,4.003447532653809,4.342739287536167,3.315853976594108,17.255261737723234,12.18903533013414,-0.0003237724304199,0.0865590572357177,0,0,0
1353,45921.42825475708,2010-09-01 02:15:11,120.06095975855207,7,4,-1.0997490882873535,3.9913063049316406,4.342739287536167,3.325023334971652,17.255261737723234,12.225686831450892,-0.0003237724304199,0.0865590572357177,0,0,0
1354,45951.44353397335,2010-09-01 02:15:41,150.076238999892,7,4,-1.0997490882873535,3.980945587158203,4.342739287536167,3.334192675299119,17.255261737723234,12.262236744127724,-0.0002913951757363,0.0865590572357177,0,0,0
1355,45981.45876801704,2010-09-01 02:16:11,180.09147302854805,7,4,-1.0997490882873535,3.9715561866760254,4.342739287536167,3.343361967043535,17.255261737723234,12.298695889567414,-0.0002266406954731,0.0865590572357177,0,0,0
1356,46011.47402640141,2010-09-01 02:16:41,210.1067314179185,7,4,-1.099929690361023,3.962490558624268,4.342739287536167,3.352531197845552,17.255261737723234,12.335071192474471,-0.0002590179501567,0.0865590572357177,0,0,0
1357,46041.48926894127,2010-09-01 02:17:11,240.12197395778716,7,4,-1.099568486213684,3.95423436164856,4.342739287536167,3.361700472077964,17.255261737723234,12.37136724655028,-0.0001942634553415,0.0865590572357177,0,0,0
1358,46071.50449195247,2010-09-01 02:17:41,270.13719696397175,7,4,-1.0997490882873535,3.9461400508880615,4.342739287536167,3.37086968307991,17.255261737723234,12.407586593643003,-0.0001295089750783,0.0865590572357177,0,0,0
1359,46101.51975510872,2010-09-01 02:18:11,300.1524601101977,7,4,-1.0997490882873535,3.938045740127564,4.342739287536167,3.380038983115648,17.255261737723234,12.443732095448508,-0.0002266406954731,0.0865590572357177,0,0,0
1360,46131.53498186425,2010-09-01 02:18:42,330.1676868657269,7,4,-1.099568486213684,3.930275201797485,4.342739287536167,3.389208222728197,17.255261737723234,12.479804893914814,-0.0001942634553415,0.0865590572357177,0,0,0
1361,46161.55051105354,2010-09-01 02:19:12,360.1832160700515,7,4,-1.099568486213684,3.922666549682617,4.342739287536167,3.39837759648725,17.255261737723234,12.515807103934169,-0.0001618862152099,0.0865590572357177,0,0,0
1362,46191.56576980882,2010-09-01 02:19:42,390.1984748102964,7,4,-1.0997490882873535,3.915057897567749,4.342739287536167,3.407546902740894,17.255261737723234,12.551739080586962,-0.0001942634553415,0.0865590572357177,0,0,0
1363,46221.58075455118,2010-09-01 02:20:12,420.2134595526544,7,4,-1.0997490882873535,3.90744948387146,4.342739287536167,3.416716075902619,17.255261737723234,12.587601586288915,-0.0002266406954731,0.0865590572357177,0,0,0
1364,46251.5959737228,2010-09-01 02:20:42,450.22867873430704,7,4,-1.099568486213684,3.900164604187012,4.342739287536167,3.425885381033088,17.255261737723234,12.623396345368183,-0.0001618862152099,0.0865590572357177,0,0,0
1365,46281.61121838797,2010-09-01 02:21:12,480.2439233894475,7,4,-1.0997490882873535,3.892879724502564,4.342739287536167,3.435054640414012,17.255261737723234,12.659123891705947,-0.0001942634553415,0.0865590572357177,0,0,0
1366,46311.62647830615,2010-09-01 02:21:42,510.25918331765325,7,4,-1.0997490882873535,3.885756731033325,4.342739287536167,3.444223892494535,17.255261737723234,12.694785498437364,-0.0001942634553415,0.0865590572357177,0,0,0
1367,46341.641731903575,2010-09-01 02:22:12,540.2744369050556,7,4,-1.0997490882873535,3.878633737564087,4.342739287536167,3.45339317909362,17.255261737723234,12.730381628961071,-0.0001618862152099,0.0865590572357177,0,0,0
1368,46371.65696972669,2010-09-01 02:22:42,570.2896747432061,7,4,-1.099929690361023,3.8715107440948486,4.342739287536167,3.462562515288947,17.255261737723234,12.765913044497411,-0.0001942634553415,0.0865590572357177,0,0,0
1369,46401.67221576027,2010-09-01 02:23:12,600.304920766757,7,4,-1.099929690361023,3.86454963684082,4.342739287536167,3.471731888676124,17.255261737723234,12.801380510678271,-0.0001942634553415,0.0865590572357177,0,0,0
1370,46431.6876100333,2010-09-01 02:23:42,630.320315044804,7,4,-1.0997490882873535,3.857750415802002,4.342739287536167,3.480901299894617,17.255261737723234,12.836784795249526,-0.0001618862152099,0.0865590572357177,0,0,0
1371,46461.70287442263,2010-09-01 02:24:12,660.3355794341281,7,4,-1.0997490882873535,3.850951194763184,4.342739287536167,3.490070616110109,17.255261737723234,12.872126067284164,-0.0002266406954731,0.0865590572357177,0,0,0
1372,46491.71795416676,2010-09-01 02:24:42,690.3506591632222,7,4,-1.099568486213684,3.844313859939575,4.342739287536167,3.499239927271364,17.255261737723234,12.907405633048372,-0.0001618862152099,0.0865590572357177,0,0,0
1373,46521.733208049896,2010-09-01 02:25:12,720.3659130563866,7,4,-1.0997490882873535,3.837514638900757,4.342739287536167,3.508409319597504,17.255261737723234,12.942624511457216,-0.0001618862152099,0.0865590572357177,0,0,0
1374,46551.74854963662,2010-09-01 02:25:42,750.3812546681729,7,4,-1.0997490882873535,3.831201314926148,4.342739287536167,3.517578710672763,17.255261737723234,12.977783214637917,-0.0001618862152099,0.0865590572357177,0,0,0
1375,46581.76383806085,2010-09-01 02:26:12,780.396543087387,7,4,-1.0997490882873535,3.824725866317749,4.342739287536167,3.526748113708392,17.255261737723234,13.012882632424958,-0.0001942634553415,0.0865590572357177,0,0,0
1376,46611.7789469025,2010-09-01 02:26:42,810.4116519039761,7,4,-1.0997490882873535,3.818250417709351,4.342739287536167,3.535917452089516,17.255261737723234,13.047923510556672,-0.0001942634553415,0.0865590572357177,0,0,0
1377,46641.79420986326,2010-09-01 02:27:12,840.4269148898022,7,4,-1.0997490882873535,3.812098741531372,4.342739287536167,3.545086892588167,17.255261737723234,13.082907232219869,-0.0001942634553415,0.0865590572357177,0,0,0
1378,46671.80957397613,2010-09-01 02:27:42,870.4422789976556,7,4,-1.0997490882873535,3.8059470653533936,4.342739287536167,3.554256270117404,17.255261737723234,13.117833853564957,-0.0001618862152099,0.0865590572357177,0,0,0
1379,46701.8247018853,2010-09-01 02:28:12,900.4574068968043,7,4,-1.0997490882873535,3.800119161605835,4.342739287536167,3.563425578317627,17.255261737723234,13.152704927174542,-0.0001618862152099,0.0865590572357177,0,0,0
1380,46731.840066243785,2010-09-01 02:28:42,930.4727712653072,7,4,-1.0997490882873535,3.794291257858277,4.342739287536167,3.572595078555202,17.255261737723234,13.187522335198864,-9.713172767078504e-05,0.0865590572357177,0,0,0
1381,46761.85519373692,2010-09-01 02:29:12,960.4878987383944,7,4,-1.099929690361023,3.788301467895508,4.342739287536167,3.581764524313852,17.255261737723234,13.222286140995925,-0.0001618862152099,0.0865590572357177,0,0,0
1382,46791.87055923824,2010-09-01 02:29:42,990.5032642497456,7,4,-1.0997490882873535,3.782797336578369,4.342739287536167,3.590933932404429,17.255261737723234,13.256997582795304,-0.0001295089750783,0.0865590572357177,0,0,0
1383,46821.88569930773,2010-09-01 02:30:12,1020.518404314214,7,4,-1.0997490882873535,3.7772932052612314,4.342739287536167,3.600103306620844,17.255261737723234,13.291657693609787,-0.0001618862152099,0.0865590572357177,0,0,0
1384,46851.90095844396,2010-09-01 02:30:42,1050.5336634504458,7,4,-1.0997490882873535,3.771789073944092,4.342739287536167,3.60927265502426,17.255261737723234,13.326267602688986,-0.0001618862152099,0.0865590572357177,0,0,0
1385,46881.916179926346,2010-09-01 02:31:12,1080.5488849228077,7,4,-1.0997490882873535,3.766446828842163,4.342739287536167,3.618442045153383,17.255261737723234,13.360828418543004,-0.0001618862152099,0.0865590572357177,0,0,0
1386,46911.931462290464,2010-09-01 02:31:42,1110.564167291943,7,4,-1.099929690361023,3.7611045837402335,4.342739287536167,3.627611443070316,17.255261737723234,13.395341049285392,-0.0001942634553415,0.0865590572357177,0,0,0
1387,46941.946706594725,2010-09-01 02:32:12,1140.579411596209,7,4,-1.0997490882873535,3.756247997283936,4.342739287536167,3.636780826437822,17.255261737723234,13.429806356147338,-0.0001295089750783,0.0865590572357177,0,0,0
1388,46971.96205316387,2010-09-01 02:32:42,1170.594758185401,7,4,-1.099929690361023,3.751229763031006,4.342739287536167,3.645950310541715,17.255261737723234,13.464225650849691,-0.0001295089750783,0.0865590572357177,0,0,0
1389,47001.97718434621,2010-09-01 02:33:12,1200.609889347682,7,4,-1.0997490882873535,3.746211290359497,4.342739287536167,3.655119675488266,17.255261737723234,13.498598945018934,-0.0001295089750783,0.0865590572357177,0,0,0
1390,47031.99257828339,2010-09-01 02:33:42,1230.6252832949042,7,4,-1.0997490882873535,3.7413547039031982,4.342739287536167,3.664289156400414,17.255261737723234,13.532927940337798,-0.0001295089750783,0.0865590572357177,0,0,0
1391,47062.00771498449,2010-09-01 02:34:12,1260.6404200060151,7,4,-1.099568486213684,3.7368218898773193,4.342739287536167,3.673458439385367,17.255261737723234,13.567212271345053,-9.713172767078504e-05,0.0865590572357177,0,0,0
1392,47092.023084581015,2010-09-01 02:34:42,1290.6557896075606,7,4,-1.0997490882873535,3.731965303421021,4.342739287536167,3.682627867664348,17.255261737723234,13.601453903937765,-0.0001295089750783,0.0865590572357177,0,0,0
1393,47122.03816382391,2010-09-01 02:35:12,1320.6708688303927,7,4,-1.0997490882873535,3.727594375610352,4.342739287536167,3.691797182013669,17.255261737723234,13.63565269843258,-0.0001295089750783,0.0865590572357177,0,0,0
1394,47152.05353888405,2010-09-01 02:35:42,1350.6862438955552,7,4,-1.0997490882873535,3.722899675369263,4.342739287536167,3.700966618389385,17.255261737723234,13.669810484269956,-0.0001295089750783,0.0865590572357177,0,0,0
1395,47182.06867535958,2010-09-01 02:36:12,1380.701380366066,7,4,-1.0997490882873535,3.7185287475585938,4.342739287536167,3.710135998380276,17.255261737723234,13.7039267822045,-9.713172767078504e-05,0.0865590572357177,0,0,0
1396,47212.084037853405,2010-09-01 02:36:42,1410.716742889972,7,4,-1.0997490882873535,3.714157819747925,4.342739287536167,3.719305444857306,17.255261737723234,13.738002872400536,-9.713172767078504e-05,0.0865590572357177,0,0,0
1397,47242.09916158216,2010-09-01 02:37:12,1440.7318665836392,7,4,-1.0997490882873535,3.709786891937256,4.342739287536167,3.728474792567349,17.255261737723234,13.77203865816371,-9.713172767078504e-05,0.0865590572357177,0,0,0
1398,47272.11442266324,2010-09-01 02:37:42,1470.7471276847682,7,4,-1.0997490882873535,3.705415964126587,4.342739287536167,3.737644215933652,17.255261737723234,13.80603538693144,-0.0001295089750783,0.0865590572357177,0,0,0
1399,47302.12989945694,2010-09-01 02:38:12,1500.7626044985193,7,4,-1.0997490882873535,3.701368808746338,4.342739287536167,3.746813696442207,17.255261737723234,13.83999366351128,-9.713172767078504e-05,0.0865590572357177,0,0,0
1400,47332.13215263833,2010-09-01 02:38:42,1530.7648576949473,7,4,-1.0997490882873535,3.697159767150879,4.342739287536167,3.75597919826649,17.255261737723234,13.873898939928123,-9.713172767078504e-05,0.0865590572357177,0,0,0
1401,47362.14455663368,2010-09-01 02:39:12,1560.7772616401649,7,4,-1.0997490882873535,3.69295072555542,4.342739287536167,3.765147822754413,17.255261737723234,13.907778312917848,-0.0001295089750783,0.0865590572357177,0,0,0
1402,47392.1597863566,2010-09-01 02:39:42,1590.7924913580773,7,4,-1.0997490882873535,3.689227342605591,4.342739287536167,3.77431723553063,17.255261737723234,13.941623611546897,-9.713172767078504e-05,0.0865590572357177,0,0,0
1403,47422.1754325926,2010-09-01 02:40:12,1620.8081377394433,7,4,-1.099929690361023,3.685180187225342,4.342739287536167,3.783486855025757,17.255261737723234,13.97543309538444,-9.713172767078504e-05,0.0865590572357177,0,0,0
1404,47452.1902951354,2010-09-01 02:40:42,1650.8230001368795,7,4,-1.099929690361023,3.681294918060303,4.342739287536167,3.792656181120985,17.255261737723234,14.00920567590538,-9.713172767078504e-05,0.0865590572357177,0,0,0
1405,47482.20565343878,2010-09-01 02:41:12,1680.838358475354,7,4,-1.099929690361023,3.6772477626800537,4.342739287536167,3.801825667713474,17.255261737723234,14.042943405668128,-0.0001295089750783,0.0865590572357177,0,0,0
1406,47512.22077485678,2010-09-01 02:41:42,1710.8534798582623,7,4,-1.099568486213684,3.6736862659454346,4.342739287536167,3.810995122556917,17.255261737723234,14.076646409949513,-9.713172767078504e-05,0.0865590572357177,0,0,0
1407,47542.23605164701,2010-09-01 02:42:12,1740.8687566484932,7,4,-1.0997490882873535,3.6701250076293945,4.342739287536167,3.820164590709994,17.255261737723234,14.110315333012696,-9.713172767078504e-05,0.0865590572357177,0,0,0
1408,47572.25130094373,2010-09-01 02:42:42,1770.884005945202,7,4,-1.0997490882873535,3.666239738464356,4.342739287536167,3.829334030001482,17.255261737723234,14.143950566660187,-0.0001295089750783,0.0865590572357177,0,0,0
1409,47602.266691978686,2010-09-01 02:43:12,1800.899397020266,7,4,-1.0997490882873535,3.6628401279449454,4.342739287536167,3.838503584155332,17.255261737723234,14.17755344021684,-9.713172767078504e-05,0.0865590572357177,0,0,0
1410,47632.28180087548,2010-09-01 02:43:42,1830.91450590703,7,4,-1.0997490882873535,3.659440517425537,4.342739287536167,3.847672999519276,17.255261737723234,14.21112352300495,-6.47544875391759e-05,0.0865590572357177,0,0,0
1411,47662.29715011628,2010-09-01 02:44:12,1860.929855117755,7,4,-1.099929690361023,3.655879020690918,4.342739287536167,3.856842478189667,17.255261737723234,14.244662315890269,-6.47544875391759e-05,0.0865590572357177,0,0,0
1412,47692.31228281238,2010-09-01 02:44:42,1890.9449878138591,7,4,-1.0997490882873535,3.652641296386719,4.342739287536167,3.866011845427595,17.255261737723234,14.278170137995913,-9.713172767078504e-05,0.0865590572357177,0,0,0
1413,47722.327702218055,2010-09-01 02:45:12,1920.9604072395816,7,4,-1.099929690361023,3.64940357208252,4.342739287536167,3.875181349046665,17.255261737723234,14.311648248485044,-6.47544875391759e-05,0.0865590572357177,0,0,0
1414,47752.34277777676,2010-09-01 02:45:42,1950.975482778232,7,4,-1.099568486213684,3.64616584777832,4.342739287536167,3.884350754770643,17.255261737723234,14.34509631251685,-6.47544875391759e-05,0.0865590572357177,0,0,0
1415,47782.358022832894,2010-09-01 02:46:12,1980.990727839384,7,4,-1.099568486213684,3.643090009689331,4.342739287536167,3.893520149878404,17.255261737723234,14.378515757717242,-9.713172767078504e-05,0.0865590572357177,0,0,0
1416,47812.37328843023,2010-09-01 02:46:42,2011.0059934317069,7,4,-1.0997490882873535,3.6403379440307617,4.342739287536167,3.902689527742807,17.255261737723234,14.411907383328217,-6.47544875391759e-05,0.0865590572357177,0,0,0
1417,47842.38854415295,2010-09-01 02:47:12,2041.021249174481,7,4,-1.0997490882873535,3.637262105941773,4.342739287536167,3.911858958284946,17.255261737723234,14.445272107660635,-9.713172767078504e-05,0.0865590572357177,0,0,0
1418,47872.40377153003,2010-09-01 02:47:42,2071.0364765315094,7,4,-1.0997490882873535,3.634510040283203,4.342739287536167,3.921028386158419,17.255261737723234,14.478610463103127,-3.237724376958795e-05,0.0865590572357177,0,0,0
1419,47902.41904315238,2010-09-01 02:48:12,2101.05174815386,7,4,-1.099568486213684,3.631596088409424,4.342739287536167,3.930197886288687,17.255261737723234,14.511923287792484,-6.47544875391759e-05,0.0865590572357177,0,0,0
1420,47932.43429268468,2010-09-01 02:48:42,2131.066997691169,7,4,-1.0997490882873535,3.629005908966065,4.342739287536167,3.939367327436195,17.255261737723234,14.545210875869673,-6.47544875391759e-05,0.0865590572357177,0,0,0
1421,47962.44952326474,2010-09-01 02:49:12,2161.0822282712297,7,4,-1.0997490882873535,3.626253843307495,4.342739287536167,3.948536804664791,17.255261737723234,14.57847408532544,-6.47544875391759e-05,0.0865590572357177,0,0,0
1422,47992.46477227072,2010-09-01 02:49:42,2191.097477272201,7,4,-1.099568486213684,3.6238255500793457,4.342739287536167,3.957706169201243,17.255261737723234,14.611712967540235,-3.237724376958795e-05,0.0865590572357177,0,0,0
1423,48022.4800273719,2010-09-01 02:50:12,2221.1127323733767,7,4,-1.0997490882873535,3.621073484420776,4.342739287536167,3.966875622021211,17.255261737723234,14.644928691252892,-6.47544875391759e-05,0.0865590572357177,0,0,0
1424,48052.495338587934,2010-09-01 02:50:42,2251.128043589408,7,4,-1.0997490882873535,3.618645191192627,4.342739287536167,3.976045102118492,17.255261737723234,14.678121295744628,-6.47544875391759e-05,0.0865590572357177,0,0,0
1425,48082.51052704801,2010-09-01 02:51:13,2281.1432320645304,7,4,-1.099929690361023,3.6162168979644775,4.342739287536167,3.985214559367115,17.255261737723234,14.711290808927364,-6.47544875391759e-05,0.0865590572357177,0,0,0
1426,48112.52607704917,2010-09-01 02:51:43,2311.158782090749,7,4,-1.099929690361023,3.613626718521118,4.342739287536167,3.994384057213763,17.255261737723234,14.74443768534683,-9.713172767078504e-05,0.0865590572357177,0,0,0
1427,48142.54117350496,2010-09-01 02:52:13,2341.1738785064317,7,4,-1.0997490882873535,3.6111984252929688,4.342739287536167,4.003553453325951,17.255261737723234,14.77756166142342,-9.713172767078504e-05,0.0865590572357177,0,0,0
1428,48172.55629949434,2010-09-01 02:52:43,2371.1890044958204,7,4,-1.099929690361023,3.60860824584961,4.342739287536167,4.012722900733188,17.255261737723234,14.810663097357452,-9.713172767078504e-05,0.0865590572357177,0,0,0
1429,48202.57158380833,2010-09-01 02:53:13,2401.2042888398782,7,4,-1.0997490882873535,3.60617995262146,4.342739287536167,4.021892360103838,17.255261737723234,14.843741942200994,-9.713172767078504e-05,0.0865590572357177,0,0,0
1430,48232.58678503523,2010-09-01 02:53:43,2431.2194900717946,7,4,-1.0997490882873535,3.603751659393311,4.342739287536167,4.031061782607121,17.255261737723234,14.876797606400688,-6.47544875391759e-05,0.0865590572357177,0,0,0
1431,48262.60204689825,2010-09-01 02:54:13,2461.234751894722,7,4,-1.099929690361023,3.601161479949951,4.342739287536167,4.040231248439852,17.255261737723234,14.909830462777718,-9.713172767078504e-05,0.0865590572357177,0,0,0
1432,48292.61756496482,2010-09-01 02:54:43,2491.250269996376,7,4,-1.0997490882873535,3.598571300506592,4.342739287536167,4.049400802262924,17.255261737723234,14.942840326011448,-9.713172767078504e-05,0.0865590572357177,0,0,0
1433,48322.6325054619,2010-09-01 02:55:13,2521.2652104734107,7,4,-1.0997490882873535,3.5961430072784424,4.342739287536167,4.058570233324469,17.255261737723234,14.975826146959133,-6.47544875391759e-05,0.0865590572357177,0,0,0
1434,48352.64775240776,2010-09-01 02:55:43,2551.280457409235,7,4,-1.099929690361023,3.593390941619873,4.342739287536167,4.067739669877889,17.255261737723234,15.008787988975946,-9.713172767078504e-05,0.0865590572357177,0,0,0
1435,48382.663014932434,2010-09-01 02:56:13,2581.295719974012,7,4,-1.099929690361023,3.5908010005950928,4.342739287536167,4.076909180497902,17.255261737723234,15.041725649599464,-6.47544875391759e-05,0.0865590572357177,0,0,0
1436,48412.6783324241,2010-09-01 02:56:43,2611.311037435609,7,4,-1.0997490882873535,3.587887048721313,4.342739287536167,4.086078668574904,17.255261737723234,15.074638106964969,-6.47544875391759e-05,0.0865590572357177,0,0,0
1437,48442.693675549664,2010-09-01 02:57:13,2641.3263805661804,7,4,-1.0997490882873535,3.585134983062744,4.342739287536167,4.09524823517502,17.255261737723234,15.107525269475188,-9.713172767078504e-05,0.0865590572357177,0,0,0
1438,48472.70881757904,2010-09-01 02:57:43,2671.3415226005586,7,4,-1.099568486213684,3.582382917404175,4.342739287536167,4.104417661920222,17.255261737723234,15.140385578154598,-6.47544875391759e-05,0.0865590572357177,0,0,0
1439,48502.72419434844,2010-09-01 02:58:13,2701.356899359944,7,4,-1.0997490882873535,3.579145193099976,4.342739287536167,4.113587201259594,17.255261737723234,15.173219237651148,-9.713172767078504e-05,0.0865590572357177,0,0,0
1440,48532.73930441815,2010-09-01 02:58:43,2731.372009444693,7,4,-1.0997490882873535,3.5762312412261963,4.342739287536167,4.122756665632385,17.255261737723234,15.206024458184082,-3.237724376958795e-05,0.0865590572357177,0,0,0
1441,48562.75468187929,2010-09-01 02:59:13,2761.387386885777,7,4,-1.099929690361023,3.572831630706787,4.342739287536167,4.131926194786204,17.255261737723234,15.23880066012836,-9.713172767078504e-05,0.0865590572357177,0,0,0
1442,48592.76981591373,2010-09-01 02:59:43,2791.402520940266,7,4,-1.1001102924346924,3.569270133972168,4.342739287536167,4.141095699702142,17.255261737723234,15.271546269044595,-0.0001618862152099,0.0865590572357177,0,0,0
1443,48622.78518183109,2010-09-01 03:00:13,2821.4178868325675,7,4,-1.099929690361023,3.565870523452759,4.342739287536167,4.150265167500515,17.255261737723234,15.30425978250626,-9.713172767078504e-05,0.0865590572357177,0,0,0
1444,48652.80031325904,2010-09-01 03:00:43,2851.433018260511,7,4,-1.0997490882873535,3.5621471405029297,4.342739287536167,4.15943455195652,17.255261737723234,15.336939487572684,-9.713172767078504e-05,0.0865590572357177,0,0,0
1445,48682.81569403843,2010-09-01 03:01:13,2881.448399039915,7,4,-1.0997490882873535,3.55826187133789,4.342739287536167,4.168604031186805,17.255261737723234,15.36958467332968,-9.713172767078504e-05,0.0865590572357177,0,0,0
1446,48712.83082947637,2010-09-01 03:01:43,2911.463534487877,7,4,-1.0997490882873535,3.554052829742432,4.342739287536167,4.177773466988813,17.255261737723234,15.402192637986248,-0.0001295089750783,0.0865590572357177,0,0,0
1447,48742.84603519949,2010-09-01 03:02:13,2941.478740231037,7,4,-1.0997490882873535,3.5498437881469727,4.342739287536167,4.186942832603577,17.255261737723234,15.43476159559408,-9.713172767078504e-05,0.0865590572357177,0,0,0
1448,48772.8612470228,2010-09-01 03:02:43,2971.493952059363,7,4,-1.099568486213684,3.5453109741210938,4.342739287536167,4.19611203296677,17.255261737723234,15.46728998085078,-0.0001295089750783,0.0865590572357177,0,0,0
1449,48802.87655846439,2010-09-01 03:03:13,3001.509263485919,7,4,-1.099568486213684,3.5411019325256348,4.342739287536167,4.205281583180094,17.255261737723234,15.499778675323926,-0.0001295089750783,0.0865590572357177,0,0,0
1450,48832.891790222384,2010-09-01 03:03:43,3031.524495233891,7,4,-1.099929690361023,3.536407232284546,4.342739287536167,4.214451065959842,17.255261737723234,15.532225887431196,-0.0001295089750783,0.0865590572357177,0,0,0
1451,48862.90713190936,2010-09-01 03:04:13,3061.539836920864,7,4,-1.0997490882873535,3.531712532043457,4.342739287536167,4.223620616601613,17.255261737723234,15.564631841531334,-0.0001618862152099,0.0865590572357177,0,0,0
1452,48892.92241529102,2010-09-01 03:04:43,3091.555120307536,7,4,-1.099929690361023,3.527017831802368,4.342739287536167,4.232790129968442,17.255261737723234,15.596995807786548,-0.0001618862152099,0.0865590572357177,0,0,0
1453,48922.93760929994,2010-09-01 03:05:13,3121.57031431645,7,4,-1.099929690361023,3.5221612453460693,4.342739287536167,4.241959658511439,17.255261737723234,15.62931642872482,-0.0001618862152099,0.0865590572357177,0,0,0
1454,48952.9528540854,2010-09-01 03:05:43,3151.585559096903,7,4,-1.0997490882873535,3.5171427726745605,4.342739287536167,4.251129184264916,17.255261737723234,15.661591033544854,-0.0001618862152099,0.0865590572357177,0,0,0
1455,48982.96810872542,2010-09-01 03:06:13,3181.600813736929,7,4,-1.0997490882873535,3.511800527572632,4.342739287536167,4.260298704353963,17.255261737723234,15.693816661736712,-0.0001295089750783,0.0865590572357177,0,0,0
1456,49012.98341331996,2010-09-01 03:06:43,3211.6161183364693,7,4,-1.099929690361023,3.5054872035980225,4.342739287536167,4.269468246960504,17.255261737723234,15.725989218084418,-0.0001618862152099,0.0865590572357177,0,0,0
1457,49042.99861716839,2010-09-01 03:07:13,3241.631322184907,7,4,-1.0997490882873535,3.499011754989624,4.342739287536167,4.278637799367125,17.255261737723234,15.758103185792422,-0.0001295089750783,0.0865590572357177,0,0,0
1458,49073.01386295135,2010-09-01 03:07:43,3271.646567987908,7,4,-1.0997490882873535,3.491241216659546,4.342739287536167,4.287807366433929,17.255261737723234,15.790152298235649,-0.0002590179501567,0.0865590572357177,0,0,0
1459,49103.02913183688,2010-09-01 03:08:13,3301.661836853388,7,4,-1.0997490882873535,3.482823133468628,4.342739287536167,4.296976926531397,17.255261737723234,15.822127794298009,-0.0002266406954731,0.0865590572357177,0,0,0
1460,49133.04438184034,2010-09-01 03:08:43,3331.677086861871,7,4,-1.0997490882873535,3.4724624156951904,4.342739287536167,4.306146430456103,17.255261737723234,15.85401654017448,-0.0002913951757363,0.0865590572357177,0,0,0
1461,49163.059679447455,2010-09-01 03:09:13,3361.6923844890343,7,4,-1.0997490882873535,3.4595115184783936,4.342739287536167,4.315315957638449,17.255261737723234,15.885800597640896,-0.0004209041653666,0.0865590572357177,0,0,0
1462,49193.07486958171,2010-09-01 03:09:43,3391.707574593217,7,4,-1.099568486213684,3.4426753520965576,4.342739287536167,4.324485547867194,17.255261737723234,15.917450128940407,-0.0004856586456298,0.0865590572357177,0,0,0
1463,49223.09012763023,2010-09-01 03:10:13,3421.7228326668005,7,4,-1.0997490882873535,3.4185545444488525,4.342739287536167,4.333655164082043,17.255261737723234,15.94891432276896,-0.0007446765666827,0.0865590572357177,0,0,0
1464,49253.108191206,2010-09-01 03:10:43,3451.740896247571,7,4,-1.0997490882873535,3.383587121963501,4.342739287536167,4.342825592367843,17.255261737723234,15.98011404646754,-0.0011008263099938,0.0865590572357177,0,0,0
1465,49283.12065613821,2010-09-01 03:11:13,3481.753361154724,7,4,-1.0997490882873535,3.3329169750213623,4.342739287536167,4.351994331411195,17.255261737723234,16.0109187608647,-0.0015541076427325,0.0865590572357177,0,0,0
1466,49313.13593578556,2010-09-01 03:11:43,3511.768640797063,7,4,-1.0997490882873535,3.2612016201019287,4.342739287536167,4.361163877147109,17.255261737723234,16.04116967712469,-0.0021692276932299,0.0865590572357177,0,0,0
1467,49343.15126908162,2010-09-01 03:12:13,3541.7839740931245,7,4,-1.0997490882873535,3.157109022140503,4.342739287536167,4.370333425616134,17.255261737723234,16.070628369069286,-0.003270101500675,0.0865590572357177,0,0,0
1468,49373.16635456506,2010-09-01 03:12:43,3571.799059606635,7,4,-1.099929690361023,2.980329751968384,4.342739287536167,4.379503480542158,17.255261737723234,16.09886276505665,-0.0065402030013501,0.0865590572357177,0,0,0
1469,49388.15077025956,2010-09-01 03:12:58,3586.78347527106,7,4,-1.0997490882873535,2.7802391052246094,4.342739287536167,4.38408159369325,17.255261737723234,16.11210631606846,-0.0136955259367823,0.0865590572357177,0,0,0
1470,49392.35361536274,2010-09-01 03:13:02,3590.9863203842656,7,4,-1.099929690361023,2.699781894683838,4.342739287536167,4.385365627840809,17.255261737723234,16.11562530894783,-0.0153467655181884,0.0865590572357177,0,0,0
1471,49452.370574801535,2010-09-01 03:14:02,60.0149027287239,8,4,0.0,3.2375662326812744,4.342739287536167,4.385365627840809,17.255261737723234,16.11562530894783,0.0011008263099938,0.0865590572357177,0,0,0
1472,49452.55677960967,2010-09-01 03:14:03,0.187317903852679,9,4,-1.9243103452026844e-05,3.2377281188964844,4.342739287536167,4.385365628842081,17.255261737723234,16.115625312189675,0.0,0.0851717442274093,0,0,0
1473,49457.38473966165,2010-09-01 03:14:08,5.015277940790893,9,4,0.0003419754502829,3.2445273399353027,4.3427396829912,4.385365629258905,17.255263019622856,16.11562531354034,0.0009713172912597,0.0851717442274093,0,0,0
