Data_Point,Test_Time(s),Date_Time,Step_Time(s),Step_Index,Cycle_Index,Current(A),Voltage(V),Charge_Capacity(Ah),Discharge_Capacity(Ah),Charge_Energy(Wh),Discharge_Energy(Wh),dV/dt(V/s),Internal_Resistance(Ohm),Is_FC_Data,AC_Impedance(Ohm),ACI_Phase_Angle(Deg)
7552,254522.7306878522,2010-09-03 12:12:14,30.01529552191616,1,22,0.0,3.462263584136963,22.35610598333428,22.35298030748091,88.89805115353849,81.86144705843917,0.0006475448608398,0.086637258529663,0,0,0
7553,254552.74568455937,2010-09-03 12:12:44,60.03029223410654,1,22,0.0,3.4803948402404785,22.35610598333428,22.35298030748091,88.89805115353849,81.86144705843917,0.0004532813909463,0.086637258529663,0,0,0
7554,254582.76096396116,2010-09-03 12:13:14,90.04557163083378,1,22,0.0,3.4938313961029053,22.35610598333428,22.35298030748091,88.89805115353849,81.86144705843917,0.0003561496851034,0.086637258529663,0,0,0
7555,254612.729126037,2010-09-03 12:13:44,120.01373370669975,1,22,0.0,3.5041921138763428,22.35610598333428,22.35298030748091,88.89805115353849,81.86144705843917,0.0002913951757363,0.086637258529663,0,0,0
7556,254642.73944330224,2010-09-03 12:14:15,30.01495701324841,2,22,0.5501165986061096,3.6327292919158936,22.36069246551056,22.35298030748091,88.91458724522633,81.86144705843917,0.0012950897216796,0.086637258529663,0,0,0
7557,254672.7545194875,2010-09-03 12:14:45,60.03003319851014,2,22,0.5501165986061096,3.669801235198975,22.36527896052653,22.35298030748091,88.9313385464483,81.86144705843917,0.0008418083307333,0.086637258529663,0,0,0
7558,254702.76961922145,2010-09-03 12:15:15,90.04513292744996,2,22,0.5501165986061096,3.697483539581299,22.369865420579117,22.35298030748091,88.94823585028897,81.86144705843917,0.0006799221155233,0.086637258529663,0,0,0
7559,254732.78479511524,2010-09-03 12:15:45,120.06030882622844,2,22,0.5501165986061096,3.7195000648498535,22.374451894778243,22.35298030748091,88.96524623226675,81.86144705843917,0.0005504131549969,0.086637258529663,0,0,0
7560,254762.79988040816,2010-09-03 12:16:15,150.07539411417685,2,22,0.5501165986061096,3.736983776092529,22.37903832991715,22.35298030748091,88.98234692071979,81.86144705843917,0.0004532813909463,0.086637258529663,0,0,0
7561,254792.81506426173,2010-09-03 12:16:45,180.09057796778126,2,22,0.5499359965324402,3.749934673309326,22.383624822097165,22.35298030748091,88.99951814951535,81.86144705843917,0.0002913951757363,0.086637258529663,0,0,0
7562,254822.83031764367,2010-09-03 12:17:15,210.1058313496715,2,22,0.5499359965324402,3.758352518081665,22.38821125051652,22.35298030748091,89.01673805652814,81.86144705843917,0.0001618862152099,0.086637258529663,0,0,0
7563,254852.8454304502,2010-09-03 12:17:45,240.1209441812672,2,22,0.5501165986061096,3.763209104537964,22.392797662670056,22.35298030748091,89.03398741845942,81.86144705843917,0.0001295089750783,0.086637258529663,0,0,0
7564,254882.8606000232,2010-09-03 12:18:15,270.1361137592924,2,22,0.550297200679779,3.766932487487793,22.397384106881056,22.35298030748091,89.05125600075779,81.86144705843917,9.713172767078504e-05,0.086637258529663,0,0,0
7565,254912.8758891993,2010-09-03 12:18:45,300.1514029053179,2,22,0.5499359965324402,3.770170211791992,22.401970622140286,22.35298030748091,89.06854041474182,81.86144705843917,9.713172767078504e-05,0.086637258529663,0,0,0
7566,254942.8909058863,2010-09-03 12:19:15,330.1664196023166,2,22,0.5501165986061096,3.773084163665772,22.40655705266508,22.35298030748091,89.08583884437887,81.86144705843917,3.237724376958795e-05,0.086637258529663,0,0,0
7567,254972.90605244692,2010-09-03 12:19:45,360.1815661629754,2,22,0.5501165986061096,3.7763218879699703,22.411143452575978,22.35298030748091,89.10315118944064,81.86144705843917,9.713172767078504e-05,0.086637258529663,0,0,0
7568,255002.92106217652,2010-09-03 12:20:15,390.1965758875968,2,22,0.550297200679779,3.77923583984375,22.415729850031067,22.35298030748091,89.1204775226958,81.86144705843917,6.47544875391759e-05,0.086637258529663,0,0,0
7569,255032.93627052123,2010-09-03 12:20:45,420.21178425229033,2,22,0.5499359965324402,3.7823116779327393,22.420316005328075,22.35298030748091,89.13781687825882,81.86144705843917,6.47544875391759e-05,0.086637258529663,0,0,0
7570,255062.95138175887,2010-09-03 12:21:15,450.22689549492577,2,22,0.5497553944587708,3.785225629806519,22.42490159643124,22.35298030748091,89.15516789805375,81.86144705843917,6.47544875391759e-05,0.086637258529663,0,0,0
7571,255092.96656405856,2010-09-03 12:21:45,480.24207776458246,2,22,0.5501165986061096,3.7884633541107178,22.42948754387677,22.35298030748091,89.17253410173998,81.86144705843917,0.0001295089750783,0.086637258529663,0,0,0
7572,255122.9816865342,2010-09-03 12:22:15,510.2572002402141,2,22,0.5499359965324402,3.791215419769287,22.43407397227234,22.35298030748091,89.189915967871,81.86144705843917,6.47544875391759e-05,0.086637258529663,0,0,0
7573,255152.9968437364,2010-09-03 12:22:45,540.272357442395,2,22,0.5501165986061096,3.7944531440734863,22.438660440592898,22.35298030748091,89.20731154444097,81.86144705843917,9.713172767078504e-05,0.086637258529663,0,0,0
7574,255183.0119751493,2010-09-03 12:23:15,570.2874888603135,2,22,0.5501165986061096,3.7973670959472656,22.44324692044445,22.35298030748091,89.22472080023542,81.86144705843917,9.713172767078504e-05,0.086637258529663,0,0,0
7575,255213.02714140405,2010-09-03 12:23:45,600.3026551100435,2,22,0.5501165986061096,3.800281047821045,22.447833344281506,22.35298030748091,89.24214338366293,81.86144705843917,9.713172767078504e-05,0.086637258529663,0,0,0
7576,255243.0422729172,2010-09-03 12:24:15,630.3177866231994,2,22,0.5501165986061096,3.803356885910034,22.45241988083929,22.35298030748091,89.25958006834404,81.86144705843917,9.713172767078504e-05,0.086637258529663,0,0,0
7577,255273.0574627557,2010-09-03 12:24:45,660.332976491795,2,22,0.5501165986061096,3.8062708377838135,22.457006304422592,22.35298030748091,89.27703023335637,81.86144705843917,6.47544875391759e-05,0.086637258529663,0,0,0
7578,255303.0725928303,2010-09-03 12:25:15,690.3481065362905,2,22,0.5499359965324402,3.8093466758728023,22.46159278146722,22.35298030748091,89.29449476479681,81.86144705843917,6.47544875391759e-05,0.086637258529663,0,0,0
7579,255333.0877234813,2010-09-03 12:25:45,720.3632371973225,2,22,0.550297200679779,3.812908172607422,22.466179252214804,22.35298030748091,89.31197370561964,81.86144705843917,0.0001618862152099,0.086637258529663,0,0,0
7580,255363.1030141161,2010-09-03 12:26:15,750.3785278320584,2,22,0.5501165986061096,3.815984010696411,22.4707656884344,22.35298030748091,89.32946776560412,81.86144705843917,9.713172767078504e-05,0.086637258529663,0,0,0
7581,255393.1180458956,2010-09-03 12:26:45,780.3935596016225,2,22,0.5501165986061096,3.8192217350006095,22.47535211970971,22.35298030748091,89.34697709063934,81.86144705843917,6.47544875391759e-05,0.086637258529663,0,0,0
7582,255423.13317373965,2010-09-03 12:27:15,810.4086874506462,2,22,0.5501165986061096,3.8227832317352295,22.479938540727336,22.35298030748091,89.36450201057532,81.86144705843917,9.713172767078504e-05,0.086637258529663,0,0,0
7583,255453.14831812485,2010-09-03 12:27:45,840.4238318358833,2,22,0.5499359965324402,3.826182842254639,22.484524972379777,22.35298030748091,89.38204282563365,81.86144705843917,9.713172767078504e-05,0.086637258529663,0,0,0
7584,255483.16349510133,2010-09-03 12:28:15,870.4390088323978,2,22,0.5501165986061096,3.829744338989258,22.489111408798703,22.35298030748091,89.39959970831165,81.86144705843917,6.47544875391759e-05,0.086637258529663,0,0,0
7585,255513.178642464,2010-09-03 12:28:45,900.4541561699928,2,22,0.5497553944587708,3.832982063293457,22.49369785714363,22.35298030748091,89.41717253287621,81.86144705843917,6.47544875391759e-05,0.086637258529663,0,0,0
7586,255543.1937640073,2010-09-03 12:29:15,930.4692777133008,2,22,0.5501165986061096,3.836705207824707,22.498284205158782,22.35298030748091,89.43476087304334,81.86144705843917,0.0001295089750783,0.086637258529663,0,0,0
7587,255573.20891149025,2010-09-03 12:29:45,960.4844251962584,2,22,0.5499359965324402,3.839942932128906,22.502870629955545,22.35298030748091,89.45236514599286,81.86144705843917,6.47544875391759e-05,0.086637258529663,0,0,0
7588,255603.22406495316,2010-09-03 12:30:15,990.4995786591196,2,22,0.550297200679779,3.843342542648315,22.507457071195063,22.35298030748091,89.46998477113337,81.86144705843917,9.713172767078504e-05,0.086637258529663,0,0,0
7589,255633.23922983944,2010-09-03 12:30:45,1020.5147435554768,2,22,0.550297200679779,3.846580266952514,22.51204345998305,22.35298030748091,89.48761910971653,81.86144705843917,9.713172767078504e-05,0.086637258529663,0,0,0
7590,255663.254361092,2010-09-03 12:31:15,1050.5298748029709,2,22,0.5501165986061096,3.849656105041504,22.51662987957344,22.35298030748091,89.50526829377344,81.86144705843917,9.713172767078504e-05,0.086637258529663,0,0,0
7591,255693.26952234923,2010-09-03 12:31:45,1080.5450360552454,2,22,0.5501165986061096,3.852731943130493,22.52121635906647,22.35298030748091,89.52293225611741,81.86144705843917,6.47544875391759e-05,0.086637258529663,0,0,0
7592,255723.28466697008,2010-09-03 12:32:15,1110.5601806760696,2,22,0.5501165986061096,3.855969667434693,22.525802799501523,22.35298030748091,89.54061016495488,81.86144705843917,9.713172767078504e-05,0.086637258529663,0,0,0
7593,255753.29983103435,2010-09-03 12:32:45,1140.5753447403529,2,22,0.550297200679779,3.858883619308472,22.53038926901868,22.35298030748091,89.55830209983222,81.86144705843917,9.713172767078504e-05,0.086637258529663,0,0,0
7594,255783.31495673803,2010-09-03 12:33:15,1170.5904704490422,2,22,0.5499359965324402,3.861635684967041,22.53497574607912,22.35298030748091,89.5760073912033,81.86144705843917,9.713172767078504e-05,0.086637258529663,0,0,0
7595,255813.33010248668,2010-09-03 12:33:45,1200.605616192665,2,22,0.5499359965324402,3.8643877506256095,22.5395622022401,22.35298030748091,89.59372542697612,81.86144705843917,6.47544875391759e-05,0.086637258529663,0,0,0
7596,255843.34538920663,2010-09-03 12:34:15,1230.6209029226686,2,22,0.5499359965324402,3.8669779300689697,22.54414867103708,22.35298030748091,89.61145571406874,81.86144705843917,6.47544875391759e-05,0.086637258529663,0,0,0
7597,255873.36062593703,2010-09-03 12:34:45,1260.636139648046,2,22,0.5499359965324402,3.869406223297119,22.548735118057703,22.35298030748091,89.62919746775123,81.86144705843917,6.47544875391759e-05,0.086637258529663,0,0,0
7598,255903.3756866688,2010-09-03 12:35:15,1290.6512004048552,2,22,0.5501165986061096,3.8716726303100586,22.55332155341689,22.35298030748091,89.64695004840684,81.86144705843917,3.237724376958795e-05,0.086637258529663,0,0,0
7599,255933.3906948295,2010-09-03 12:35:45,1320.6662085555538,2,22,0.5501165986061096,3.873939037322998,22.55790796861359,22.35298030748091,89.66471264517307,81.86144705843917,6.47544875391759e-05,0.086637258529663,0,0,0
7600,255963.40587825704,2010-09-03 12:36:15,1350.6813919630465,2,22,0.5501165986061096,3.8758816719055176,22.56249441138161,22.35298030748091,89.6824845696252,81.86144705843917,3.237724376958795e-05,0.086637258529663,0,0,0
7601,255993.4210522461,2010-09-03 12:36:45,1380.69656596209,2,22,0.5501165986061096,3.877662420272827,22.567080859263577,22.35298030748091,89.70026514469852,81.86144705843917,6.47544875391759e-05,0.086637258529663,0,0,0
7602,256023.4361797392,2010-09-03 12:37:15,1410.7116934502144,2,22,0.5501165986061096,3.879119396209717,22.57166730625729,22.35298030748091,89.71805360290729,81.86144705843917,0.0,0.086637258529663,0,0,0
7603,256053.4512807714,2010-09-03 12:37:45,1440.7267945024523,2,22,0.5501165986061096,3.880738258361816,22.576253745980548,22.35298030748091,89.73584914594527,81.86144705843917,3.237724376958795e-05,0.086637258529663,0,0,0
7604,256083.466451778,2010-09-03 12:38:15,1470.7419655040253,2,22,0.5501165986061096,3.882195234298706,22.580840135917462,22.35298030748091,89.75365113170864,81.86144705843917,6.47544875391759e-05,0.086637258529663,0,0,0
7605,256113.48163392732,2010-09-03 12:38:45,1500.7571476634073,2,22,0.5499359965324402,3.8834903240203857,22.585426607288117,22.35298030748091,89.77145959647865,81.86144705843917,3.237724376958795e-05,0.086637258529663,0,0,0
7606,256143.496752814,2010-09-03 12:39:15,1530.7722665450815,2,22,0.5501165986061096,3.8844616413116455,22.590013052911186,22.35298030748091,89.78927364459554,81.86144705843917,-3.237724376958795e-05,0.086637258529663,0,0,0
7607,256173.51201715323,2010-09-03 12:39:45,1560.7875308692437,2,22,0.5497553944587708,3.8855948448181152,22.59459954696643,22.35298030748091,89.80709321365252,81.86144705843917,0.0,0.086637258529663,0,0,0
7608,256203.52706194023,2010-09-03 12:40:15,1590.802575676301,2,22,0.5501165986061096,3.886889934539795,22.59918617929808,22.35298030748091,89.82491855863417,81.86144705843917,0.0,0.086637258529663,0,0,0
7609,256233.54221743817,2010-09-03 12:40:45,1620.817731144159,2,22,0.5501165986061096,3.8880231380462646,22.603773500827792,22.35298030748091,89.8427515922433,81.86144705843917,6.47544875391759e-05,0.086637258529663,0,0,0
7610,256263.55750824336,2010-09-03 12:41:15,1650.8330219493198,2,22,0.5501165986061096,3.888994455337525,22.608360864075298,22.35298030748091,89.86058974416613,81.86144705843917,0.0,0.086637258529663,0,0,0
7611,256293.57252162707,2010-09-03 12:41:45,1680.8480353330608,2,22,0.5501165986061096,3.889965772628784,22.61294811987371,22.35298030748091,89.87843222569671,81.86144705843917,0.0,0.086637258529663,0,0,0
7612,256323.58772160587,2010-09-03 12:42:15,1710.8632353569665,2,22,0.5501165986061096,3.891098976135254,22.61753527454965,22.35298030748091,89.89627911138027,81.86144705843917,3.237724376958795e-05,0.086637258529663,0,0,0
7613,256353.6028112246,2010-09-03 12:42:45,1740.878324930596,2,22,0.5501165986061096,3.892232179641724,22.6221217349918,22.35298030748091,89.9141280010274,81.86144705843917,3.237724376958795e-05,0.086637258529663,0,0,0
7614,256383.61794305852,2010-09-03 12:43:15,1770.8934567645515,2,22,0.550297200679779,3.893203496932984,22.626708243127283,22.35298030748091,89.93198181028824,81.86144705843917,3.237724376958795e-05,0.086637258529663,0,0,0
7615,256413.633086717,2010-09-03 12:43:45,1800.9086004279898,2,22,0.5501165986061096,3.894336700439453,22.631294738901016,22.35298030748091,89.9498403548149,81.86144705843917,3.237724376958795e-05,0.086637258529663,0,0,0
7616,256443.64836248467,2010-09-03 12:44:15,1830.92387619066,2,22,0.5501165986061096,3.895146131515503,22.635881266702167,22.35298030748091,89.9677034575898,81.86144705843917,3.237724376958795e-05,0.086637258529663,0,0,0
7617,256473.66636066244,2010-09-03 12:44:45,1860.9418744837133,2,22,0.550297200679779,3.8962793350219727,22.64046815084499,22.35298030748091,89.98557248638988,81.86144705843917,3.237724376958795e-05,0.086637258529663,0,0,0
7618,256503.67853969207,2010-09-03 12:45:16,1890.954053428159,2,22,0.5501165986061096,3.8974125385284415,22.6450540540268,22.35298030748091,90.00344254672356,81.86144705843917,6.47544875391759e-05,0.086637258529663,0,0,0
7619,256533.6939938143,2010-09-03 12:45:46,1920.9695075403315,2,22,0.550297200679779,3.898383855819702,22.649640555871617,22.35298030748091,90.02131970413988,81.86144705843917,3.237724376958795e-05,0.086637258529663,0,0,0
7620,256563.7090881197,2010-09-03 12:46:16,1950.9846018507665,2,22,0.5501165986061096,3.899517059326172,22.65422688627877,22.35298030748091,90.03920102408472,81.86144705843917,6.47544875391759e-05,0.086637258529663,0,0,0
7621,256593.72399379505,2010-09-03 12:46:46,1980.9995075310776,2,22,0.5499359965324402,3.900164604187012,22.65881326932927,22.35298030748091,90.05708732496329,81.86144705843917,0.0,0.086637258529663,0,0,0
7622,256623.73924984856,2010-09-03 12:47:16,2011.0147635695887,2,22,0.5499359965324402,3.9014596939086914,22.66339968919198,22.35298030748091,90.07497862809572,81.86144705843917,3.237724376958795e-05,0.086637258529663,0,0,0
7623,256653.75428961805,2010-09-03 12:47:46,2041.029803334079,2,22,0.5501165986061096,3.902431011199951,22.66798610578413,22.35298030748091,90.09287485134118,81.86144705843917,-3.237724376958795e-05,0.086637258529663,0,0,0
7624,256683.7694226901,2010-09-03 12:48:16,2071.044936431182,2,22,0.5501165986061096,3.903726100921631,22.67257258280373,22.35298030748091,90.1107762222408,81.86144705843917,6.47544875391759e-05,0.086637258529663,0,0,0
7625,256713.78458177697,2010-09-03 12:48:46,2101.060095487985,2,22,0.5501165986061096,3.9048593044281006,22.677159039612217,22.35298030748091,90.12868256706432,81.86144705843917,6.47544875391759e-05,0.086637258529663,0,0,0
7626,256743.7997412248,2010-09-03 12:49:16,2131.075254940776,2,22,0.5501165986061096,3.90583062171936,22.68174547887942,22.35298030748091,90.14659374424456,81.86144705843917,0.0,0.086637258529663,0,0,0
7627,256773.81486614147,2010-09-03 12:49:46,2161.090379847466,2,22,0.550297200679779,3.90696382522583,22.686331818363502,22.35298030748091,90.16450967527936,81.86144705843917,3.237724376958795e-05,0.086637258529663,0,0,0
7628,256803.8301424104,2010-09-03 12:50:16,2191.105656131436,2,22,0.5499359965324402,3.90793514251709,22.690918209728945,22.35298030748091,90.18243099397932,81.86144705843917,0.0,0.086637258529663,0,0,0
7629,256833.8453730857,2010-09-03 12:50:46,2221.120886796709,2,22,0.5501165986061096,3.9092302322387695,22.69550458807172,22.35298030748091,90.20035746942692,81.86144705843917,3.237724376958795e-05,0.086637258529663,0,0,0
7630,256863.86044390252,2010-09-03 12:51:16,2251.135957618604,2,22,0.5501165986061096,3.9103634357452393,22.700090964203987,22.35298030748091,90.2182893346314,81.86144705843917,0.0,0.086637258529663,0,0,0
7631,256893.87545837907,2010-09-03 12:51:46,2281.15097210008,2,22,0.5499359965324402,3.911496639251709,22.704677321085576,22.35298030748091,90.23622634691496,81.86144705843917,3.237724376958795e-05,0.086637258529663,0,0,0
7632,256923.8906058169,2010-09-03 12:52:16,2311.16611954795,2,22,0.5499359965324402,3.9127917289733887,22.70926360091855,22.35298030748091,90.2541685071138,81.86144705843917,3.237724376958795e-05,0.086637258529663,0,0,0
7633,256953.90578342497,2010-09-03 12:52:46,2341.1812971459635,2,22,0.5499359965324402,3.9139246940612793,22.713850008050287,22.35298030748091,90.2721166135696,81.86144705843917,0.0,0.086637258529663,0,0,0
7634,256983.9208959959,2010-09-03 12:53:16,2371.196409721922,2,22,0.5499359965324402,3.915057897567749,22.71843638407586,22.35298030748091,90.29007014807829,81.86144705843917,0.0,0.086637258529663,0,0,0
7635,257013.93608096224,2010-09-03 12:53:46,2401.21159466825,2,22,0.5499359965324402,3.9163529872894287,22.72302284083084,22.35298030748091,90.3080293963667,81.86144705843917,6.47544875391759e-05,0.086637258529663,0,0,0
7636,257043.95120197925,2010-09-03 12:54:16,2431.226715690259,2,22,0.5501165986061096,3.9178099632263184,22.72760915190004,22.35298030748091,90.3259938136004,81.86144705843917,9.713172767078504e-05,0.086637258529663,0,0,0
7637,257073.9663592316,2010-09-03 12:54:46,2461.2418729425644,2,22,0.5501165986061096,3.918943166732788,22.732195534969872,22.35298030748091,90.34396423478825,81.86144705843917,6.47544875391759e-05,0.086637258529663,0,0,0
7638,257103.9815074413,2010-09-03 12:55:16,2491.2570211473208,2,22,0.5501165986061096,3.920076370239258,22.736781904600345,22.35298030748091,90.36194041387976,81.86144705843917,3.237724376958795e-05,0.086637258529663,0,0,0
7639,257133.996650408,2010-09-03 12:55:46,2521.272164103998,2,22,0.5499359965324402,3.9213714599609375,22.74136831187524,22.35298030748091,90.3799225891758,81.86144705843917,0.0,0.086637258529663,0,0,0
7640,257164.0118154297,2010-09-03 12:56:16,2551.2873291356923,2,22,0.5501165986061096,3.922666549682617,22.745954702206436,22.35298030748091,90.39791065127696,81.86144705843917,3.237724376958795e-05,0.086637258529663,0,0,0
7641,257194.02710718728,2010-09-03 12:56:46,2581.3026209032514,2,22,0.5501165986061096,3.923961639404297,22.75054113985406,22.35298030748091,90.41590488217211,81.86144705843917,6.47544875391759e-05,0.086637258529663,0,0,0
7642,257224.04209456616,2010-09-03 12:57:16,2611.317608277167,2,22,0.5501165986061096,3.9254186153411865,22.75512746059401,22.35298030748091,90.4339047555585,81.86144705843917,3.237724376958795e-05,0.086637258529663,0,0,0
7643,257254.0572435228,2010-09-03 12:57:46,2641.332757233798,2,22,0.550297200679779,3.926875591278076,22.759713854684712,22.35298030748091,90.45191094594595,81.86144705843917,6.47544875391759e-05,0.086637258529663,0,0,0
7644,257284.07264128956,2010-09-03 12:58:16,2671.3481549955272,2,22,0.5501165986061096,3.928008794784546,22.764300261960077,22.35298030748091,90.46992340134484,81.86144705843917,3.237724376958795e-05,0.086637258529663,0,0,0
7645,257314.08755102492,2010-09-03 12:58:46,2701.363064730945,2,22,0.5501165986061096,3.9293038845062256,22.76888657847628,22.35298030748091,90.48794177155618,81.86144705843917,3.237724376958795e-05,0.086637258529663,0,0,0
7646,257344.10286768453,2010-09-03 12:59:16,2731.378381390543,2,22,0.5499359965324402,3.9307608604431152,22.773472949344868,22.35298030748091,90.50596669870068,81.86144705843917,3.237724376958795e-05,0.086637258529663,0,0,0
7647,257374.11799504736,2010-09-03 12:59:46,2761.393508773405,2,22,0.5497553944587708,3.932055950164795,22.77805931563041,22.35298030748091,90.52399791381556,81.86144705843917,3.237724376958795e-05,0.086637258529663,0,0,0
7648,257404.1330440248,2010-09-03 13:00:16,2791.4085577207807,2,22,0.5499359965324402,3.933512926101685,22.782645690426435,22.35298030748091,90.54203560026204,81.86144705843917,3.237724376958795e-05,0.086637258529663,0,0,0
7649,257434.14816432,2010-09-03 13:00:46,2821.423678041041,2,22,0.5501165986061096,3.934969902038574,22.787232032874908,22.35298030748091,90.56007958706098,81.86144705843917,3.237724376958795e-05,0.086637258529663,0,0,0
7650,257464.16334402325,2010-09-03 13:01:16,2851.4388577292634,2,22,0.5499359965324402,3.936426877975464,22.791818470323328,22.35298030748091,90.57813043232922,81.86144705843917,3.237724376958795e-05,0.086637258529663,0,0,0
7651,257494.17842143652,2010-09-03 13:01:46,2881.453935142586,2,22,0.5501165986061096,3.937721967697144,22.796404822563773,22.35298030748091,90.59618734449649,81.86144705843917,0.0,0.086637258529663,0,0,0
7652,257524.1936464177,2010-09-03 13:02:16,2911.4691601287054,2,22,0.5501165986061096,3.939178943634033,22.80099116176044,22.35298030748091,90.61425089433185,81.86144705843917,6.47544875391759e-05,0.086637258529663,0,0,0
7653,257554.20873323947,2010-09-03 13:02:46,2941.4842469504765,2,22,0.5501165986061096,3.940635919570923,22.80557752254169,22.35298030748091,90.63232116283156,81.86144705843917,3.237724376958795e-05,0.086637258529663,0,0,0
7654,257584.2246811774,2010-09-03 13:03:16,2971.5001950037013,2,22,0.5499359965324402,3.942092895507813,22.81016401880749,22.35298030748091,90.65039860713874,81.86144705843917,0.0,0.086637258529663,0,0,0
7655,257614.23900175947,2010-09-03 13:03:46,3001.514515495543,2,22,0.5499359965324402,3.943549871444702,22.81475025045432,22.35298030748091,90.66848178135082,81.86144705843917,0.0,0.086637258529663,0,0,0
7656,257644.25417465577,2010-09-03 13:04:16,3031.529688366776,2,22,0.5499359965324402,3.945006847381592,22.819336646875836,22.35298030748091,90.68657235504956,81.86144705843917,0.0,0.086637258529663,0,0,0
7657,257674.2693418779,2010-09-03 13:04:46,3061.544855583917,2,22,0.550297200679779,3.9466257095336914,22.82392304914028,22.35298030748091,90.70466982837247,81.86144705843917,6.47544875391759e-05,0.086637258529663,0,0,0
7658,257704.28452634808,2010-09-03 13:05:16,3091.560040074108,2,22,0.5501165986061096,3.948082685470581,22.828509457019607,22.35298030748091,90.72277405435952,81.86144705843917,3.237724376958795e-05,0.086637258529663,0,0,0
7659,257734.2995980321,2010-09-03 13:05:46,3121.575111738101,2,22,0.5501165986061096,3.9497015476226807,22.83309581112532,22.35298030748091,90.74088505247538,81.86144705843917,6.47544875391759e-05,0.086637258529663,0,0,0
7660,257764.3148719301,2010-09-03 13:06:16,3151.5903856511613,2,22,0.5499359965324402,3.9511585235595694,22.83768220680635,22.35298030748091,90.75900326910136,81.86144705843917,6.47544875391759e-05,0.086637258529663,0,0,0
7661,257794.33011821436,2010-09-03 13:06:46,3181.605631945387,2,22,0.550297200679779,3.95277738571167,22.84226865180164,22.35298030748091,90.7771287368052,81.86144705843917,6.47544875391759e-05,0.086637258529663,0,0,0
7662,257824.34518775303,2010-09-03 13:07:16,3211.620701448996,2,22,0.550297200679779,3.9543962478637695,22.84685501985813,22.35298030748091,90.79526109599828,81.86144705843917,6.47544875391759e-05,0.086637258529663,0,0,0
7663,257854.36031785264,2010-09-03 13:07:46,3241.635831558654,2,22,0.5501165986061096,3.955853223800659,22.8514414576438,22.35298030748091,90.8134009494714,81.86144705843917,3.237724376958795e-05,0.086637258529663,0,0,0
7664,257884.3753389256,2010-09-03 13:08:16,3271.650852631559,2,22,0.5501165986061096,3.9576339721679688,22.856027909936987,22.35298030748091,90.83154817465976,81.86144705843917,6.47544875391759e-05,0.086637258529663,0,0,0
7665,257914.39063484347,2010-09-03 13:08:46,3301.6661485795366,2,22,0.5501165986061096,3.959252834320069,22.86061433094022,22.35298030748091,90.8497027486208,81.86144705843917,3.237724376958795e-05,0.086637258529663,0,0,0
7666,257944.40563770093,2010-09-03 13:09:16,3331.681151406968,2,22,0.5501165986061096,3.960871696472168,22.865200688408,22.35298030748091,90.86786461964688,81.86144705843917,6.47544875391759e-05,0.086637258529663,0,0,0
7667,257974.4207817604,2010-09-03 13:09:46,3361.696295466393,2,22,0.5499359965324402,3.962490558624268,22.86978706973236,22.35298030748091,90.88603425338202,81.86144705843917,3.237724376958795e-05,0.086637258529663,0,0,0
7668,258004.43596741348,2010-09-03 13:10:16,3391.7114811445445,2,22,0.5501165986061096,3.964271306991577,22.874373496554927,22.35298030748091,90.90421177031416,81.86144705843917,6.47544875391759e-05,0.086637258529663,0,0,0
7669,258034.4510988565,2010-09-03 13:10:46,3421.7266125524384,2,22,0.5499359965324402,3.9658901691436768,22.878959914614217,22.35298030748091,90.92239708630446,81.86144705843917,3.237724376958795e-05,0.086637258529663,0,0,0
7670,258064.46623729687,2010-09-03 13:11:16,3451.741751002884,2,22,0.5499359965324402,3.967509031295776,22.88354639902643,22.35298030748091,90.94059063812205,81.86144705843917,3.237724376958795e-05,0.086637258529663,0,0,0
7671,258094.4813921683,2010-09-03 13:11:46,3481.756905904331,2,22,0.5499359965324402,3.969289779663086,22.888132875255938,22.35298030748091,90.95879219591728,81.86144705843917,3.237724376958795e-05,0.086637258529663,0,0,0
7672,258124.49653377652,2010-09-03 13:12:16,3511.7720475076344,2,22,0.5499359965324402,3.971070528030396,22.89271928396151,22.35298030748091,90.97700164839034,81.86144705843917,3.237724376958795e-05,0.086637258529663,0,0,0
7673,258154.51173419645,2010-09-03 13:12:46,3541.787247917502,2,22,0.5501165986061096,3.973013162612915,22.89730578594837,22.35298030748091,90.99521977447408,81.86144705843917,3.237724376958795e-05,0.086637258529663,0,0,0
7674,258184.52692896727,2010-09-03 13:13:16,3571.8024426732786,2,22,0.5499359965324402,3.9747939109802246,22.901892266079123,22.35298030748091,91.01344623360622,81.86144705843917,0.0,0.086637258529663,0,0,0
7675,258214.54200690697,2010-09-03 13:13:46,3601.8175206279498,2,22,0.5499359965324402,3.976574659347534,22.9064786769224,22.35298030748091,91.03168091742522,81.86144705843917,0.0,0.086637258529663,0,0,0
7676,258244.55714644503,2010-09-03 13:14:16,3631.8326601560816,2,22,0.5499359965324402,3.9785172939300537,22.911065153281708,22.35298030748091,91.04992405214014,81.86144705843917,9.713172767078504e-05,0.086637258529663,0,0,0
7677,258274.5723178777,2010-09-03 13:14:46,3661.8478315887287,2,22,0.5499359965324402,3.980459928512573,22.915651448793856,22.35298030748091,91.06817561979682,81.86144705843917,6.47544875391759e-05,0.086637258529663,0,0,0
7678,258304.58744700995,2010-09-03 13:15:16,3691.862960715938,2,22,0.5501165986061096,3.982564449310303,22.920237742113123,22.35298030748091,91.08643600341216,81.86144705843917,6.47544875391759e-05,0.086637258529663,0,0,0
7679,258334.60258680876,2010-09-03 13:15:46,3721.878100504719,2,22,0.5501165986061096,3.984345197677612,22.92482407005902,22.35298030748091,91.10470532113682,81.86144705843917,6.47544875391759e-05,0.086637258529663,0,0,0
7680,258364.6177317303,2010-09-03 13:16:16,3751.89324544133,2,22,0.5501165986061096,3.986287832260132,22.9294104109038,22.35298030748091,91.12298364715164,81.86144705843917,3.237724376958795e-05,0.086637258529663,0,0,0
7681,258394.6357407501,2010-09-03 13:16:46,3781.911254481168,2,22,0.5499359965324402,3.9882304668426514,22.933997192837133,22.35298030748091,91.1412727048337,81.86144705843917,3.237724376958795e-05,0.086637258529663,0,0,0
7682,258424.648067924,2010-09-03 13:17:17,3811.923581660061,2,22,0.5499359965324402,3.990334987640381,22.9385830601674,22.35298030748091,91.15956710494385,81.86144705843917,3.237724376958795e-05,0.086637258529663,0,0,0
7683,258454.6634612647,2010-09-03 13:17:47,3841.938974975709,2,22,0.5501165986061096,3.9924395084381104,22.943169376385832,22.35298030748091,91.1778724764055,81.86144705843917,9.713172767078504e-05,0.086637258529663,0,0,0
7684,258484.67857932436,2010-09-03 13:18:17,3871.9540930804474,2,22,0.5501165986061096,3.994381904602051,22.94775578692293,22.35298030748091,91.196187441574,81.86144705843917,6.47544875391759e-05,0.086637258529663,0,0,0
7685,258514.69349615744,2010-09-03 13:18:47,3901.969009868441,2,22,0.5499359965324402,3.9963245391845694,22.95234208391281,22.35298030748091,91.21451124003964,81.86144705843917,6.47544875391759e-05,0.086637258529663,0,0,0
7686,258544.70887722253,2010-09-03 13:19:17,3931.984391038819,2,22,0.5501165986061096,3.9984290599823,22.956928524761537,22.35298030748091,91.23284503628123,81.86144705843917,6.47544875391759e-05,0.086637258529663,0,0,0
7687,258574.7239156437,2010-09-03 13:19:47,3961.999429349687,2,22,0.5501165986061096,4.000371932983398,22.961514770255565,22.35298030748091,91.25118728340264,81.86144705843917,0.0,0.086637258529663,0,0,0
7688,258604.73892582947,2010-09-03 13:20:17,3992.0144395354578,2,22,0.5501165986061096,4.002638339996338,22.966101023550195,22.35298030748091,91.26953919485696,81.86144705843917,9.71794142969884e-05,0.086637258529663,0,0,0
7689,258634.7541054826,2010-09-03 13:20:47,4022.029619213656,2,22,0.5499359965324402,4.004580974578857,22.97068734738748,22.35298030748091,91.2879009673605,81.86144705843917,0.0,0.086637258529663,0,0,0
7690,258664.769651554,2010-09-03 13:21:17,4052.045165290031,2,22,0.5499359965324402,4.006685256958008,22.97527369459076,22.35298030748091,91.30627249176626,81.86144705843917,6.47544875391759e-05,0.086637258529663,0,0,0
7691,258694.784380579,2010-09-03 13:21:47,4082.0598942849874,2,22,0.5501165986061096,4.008951663970947,22.97985990119328,22.35298030748091,91.32465319687678,81.86144705843917,9.70840483205393e-05,0.086637258529663,0,0,0
7692,258724.79965958977,2010-09-03 13:22:17,4112.075173295752,2,22,0.5501165986061096,4.011056423187256,22.984446235833428,22.35298030748091,91.3430441027417,81.86144705843917,3.24249267578125e-05,0.086637258529663,0,0,0
7693,258754.8149073677,2010-09-03 13:22:47,4142.090421098738,2,22,0.5499359965324402,4.013160705566406,22.98903257250852,22.35298030748091,91.36144491841289,81.86144705843917,3.23295607813634e-05,0.086637258529663,0,0,0
7694,258784.8298362358,2010-09-03 13:23:17,4172.105349946791,2,22,0.5501165986061096,4.015265464782715,22.993618827301944,22.35298030748091,91.3798553634334,81.86144705843917,0.0,0.086637258529663,0,0,0
7695,258814.84497360856,2010-09-03 13:23:47,4202.120487314538,2,22,0.5499359965324402,4.017531871795654,22.998205211922677,22.35298030748091,91.3982764406308,81.86144705843917,6.47544875391759e-05,0.086637258529663,0,0,0
7696,258844.86016063503,2010-09-03 13:24:17,4232.135674346062,2,22,0.5501165986061096,4.019798278808594,23.002791637661826,22.35298030748091,91.41670779301452,81.86144705843917,9.71794142969884e-05,0.086637258529663,0,0,0
7697,258874.875312108,2010-09-03 13:24:47,4262.150825813952,2,22,0.5501165986061096,4.022064685821533,23.007377913967428,22.35298030748091,91.4351488305038,81.86144705843917,6.47544875391759e-05,0.086637258529663,0,0,0
7698,258904.8904285335,2010-09-03 13:25:17,4292.165942239504,2,22,0.5501165986061096,4.024331092834473,23.011964187033943,22.35298030748091,91.45360024060405,81.86144705843917,3.24249267578125e-05,0.086637258529663,0,0,0
7699,258934.9055938008,2010-09-03 13:25:47,4322.181107531848,2,22,0.5501165986061096,4.026435375213623,23.016550503226192,22.35298030748091,91.47206229206502,81.86144705843917,3.23295607813634e-05,0.086637258529663,0,0,0
7700,258964.9208409572,2010-09-03 13:26:17,4352.196354693236,2,22,0.5501165986061096,4.029025554656982,23.02113685580916,22.35298030748091,91.4905350558409,81.86144705843917,6.47544875391759e-05,0.086637258529663,0,0,0
7701,258994.93588594967,2010-09-03 13:26:47,4382.211399660692,2,22,0.5501165986061096,4.031291961669922,23.02572316162941,22.35298030748091,91.50901822086772,81.86144705843917,9.70840483205393e-05,0.086637258529663,0,0,0
7702,259024.95101595408,2010-09-03 13:27:17,4412.226529685138,2,22,0.5501165986061096,4.03372049331665,23.030309499956218,22.35298030748091,91.52751226751944,81.86144705843917,9.71794142969884e-05,0.086637258529663,0,0,0
7703,259054.96623250417,2010-09-03 13:27:47,4442.241746240245,2,22,0.5499359965324402,4.035986423492432,23.03489589605647,22.35298030748091,91.54601746975176,81.86144705843917,6.47544875391759e-05,0.086637258529663,0,0,0
7704,259084.9812869753,2010-09-03 13:28:17,4472.256800706376,2,22,0.550297200679779,4.03841495513916,23.039482309690857,22.35298030748091,91.5645336993052,81.86144705843917,6.47544875391759e-05,0.086637258529663,0,0,0
7705,259114.99649447287,2010-09-03 13:28:47,4502.272008183858,2,22,0.5501165986061096,4.0408430099487305,23.04406962482946,22.35298030748091,91.58306469937976,81.86144705843917,6.47544875391759e-05,0.086637258529663,0,0,0
7706,259145.0117186419,2010-09-03 13:29:17,4532.287232362966,2,22,0.5499359965324402,4.043271541595459,23.04865677058968,22.35298030748091,91.60160619427296,81.86144705843917,9.71794142969884e-05,0.086637258529663,0,0,0
7707,259175.0267770629,2010-09-03 13:29:47,4562.302290763904,2,22,0.5501165986061096,4.045861721038818,23.05324313427584,22.35298030748091,91.62015582508772,81.86144705843917,9.71794142969884e-05,0.086637258529663,0,0,0
7708,259205.04205679547,2010-09-03 13:30:17,4592.31757050148,2,22,0.5497553944587708,4.048128128051758,23.057829472706896,22.35298030748091,91.63871670890396,81.86144705843917,6.47544875391759e-05,0.086637258529663,0,0,0
7709,259235.0570938733,2010-09-03 13:30:47,4622.332607584287,2,22,0.550297200679779,4.050718307495117,23.0624157694863,22.35298030748091,91.6572889536646,81.86144705843917,3.24249267578125e-05,0.086637258529663,0,0,0
7710,259265.0722711956,2010-09-03 13:31:17,4652.347784916638,2,22,0.5501165986061096,4.053308486938477,23.06700210545636,22.35298030748091,91.67587289815454,81.86144705843917,6.47544875391759e-05,0.086637258529663,0,0,0
7711,259295.08752214143,2010-09-03 13:31:47,4682.363035837395,2,22,0.5501165986061096,4.055898666381836,23.07158848583964,22.35298030748091,91.6944687688272,81.86144705843917,6.47544875391759e-05,0.086637258529663,0,0,0
7712,259325.10252174584,2010-09-03 13:32:17,4712.378035476881,2,22,0.550297200679779,4.058488845825195,23.076174846351748,22.35298030748091,91.71307639615137,81.86144705843917,6.47544875391759e-05,0.086637258529663,0,0,0
7713,259355.1176752237,2010-09-03 13:32:47,4742.393188919692,2,22,0.5501165986061096,4.060755252838135,23.080761244677717,22.35298030748091,91.73169605949823,81.86144705843917,0.0,0.086637258529663,0,0,0
7714,259385.13279138363,2010-09-03 13:33:17,4772.408305114671,2,22,0.5499359965324402,4.063669204711914,23.0853475175643,22.35298030748091,91.75032710165912,81.86144705843917,6.47544875391759e-05,0.086637258529663,0,0,0
7715,259415.14794870108,2010-09-03 13:33:47,4802.423462417101,2,22,0.5499359965324402,4.066259384155273,23.089933862864857,22.35298030748091,91.76897073421804,81.86144705843917,3.24249267578125e-05,0.086637258529663,0,0,0
7716,259445.16308804377,2010-09-03 13:34:17,4832.438601764783,2,22,0.5501165986061096,4.069173336029053,23.09452016826791,22.35298030748091,91.78762651421692,81.86144705843917,6.47544875391759e-05,0.086637258529663,0,0,0
7717,259475.17826608787,2010-09-03 13:34:47,4862.453779823946,2,22,0.5501165986061096,4.071763515472412,23.099106515171577,22.35298030748091,91.80629491649104,81.86144705843917,6.47544875391759e-05,0.086637258529663,0,0,0
7718,259505.19351600617,2010-09-03 13:35:17,4892.469029722154,2,22,0.5499359965324402,4.074515342712402,23.10369288784729,22.35298030748091,91.82497592248856,81.86144705843917,3.23295607813634e-05,0.086637258529663,0,0,0
7719,259535.2086629628,2010-09-03 13:35:47,4922.4841766788,2,22,0.5499359965324402,4.077429294586182,23.1082792304013,22.35298030748091,91.8436694597844,81.86144705843917,9.70840483205393e-05,0.086637258529663,0,0,0
7720,259565.22368958453,2010-09-03 13:36:17,4952.499203290509,2,22,0.5499359965324402,4.080019474029541,23.11286545102384,22.35298030748091,91.86237526766116,81.86144705843917,3.23295607813634e-05,0.086637258529663,0,0,0
7721,259595.23897690096,2010-09-03 13:36:47,4982.514490606974,2,22,0.5501165986061096,4.08293342590332,23.11745184003117,22.35298030748091,91.88109465264064,81.86144705843917,6.47544875391759e-05,0.086637258529663,0,0,0
7722,259625.2540240288,2010-09-03 13:37:17,5012.529537845091,2,22,0.5501165986061096,4.0858473777771,23.12203817306157,22.35298030748091,91.89982683416665,81.86144705843917,9.70840483205393e-05,0.086637258529663,0,0,0
7723,259655.2691315873,2010-09-03 13:37:47,5042.544645293269,2,22,0.5501165986061096,4.088599681854248,23.12662446108087,22.35298030748091,91.91857193403874,81.86144705843917,6.47544875391759e-05,0.086637258529663,0,0,0
7724,259685.2845474892,2010-09-03 13:38:17,5072.560061205234,2,22,0.5501165986061096,4.091513633728027,23.13121089144924,22.35298030748091,91.93733091526136,81.86144705843917,3.24249267578125e-05,0.086637258529663,0,0,0
7725,259715.2996451931,2010-09-03 13:38:47,5102.575158899103,2,22,0.5499359965324402,4.094427585601807,23.13579725835584,22.35298030748091,91.95610289514588,81.86144705843917,6.47544875391759e-05,0.086637258529663,0,0,0
7726,259745.31459561497,2010-09-03 13:39:17,5132.590109320923,2,22,0.5501165986061096,4.097503185272217,23.140383579303137,22.35298030748091,91.97488826671903,81.86144705843917,9.70840483205393e-05,0.086637258529663,0,0,0
7727,259775.329736336,2010-09-03 13:39:47,5162.605250042027,2,22,0.550297200679779,4.100255489349365,23.144969929953845,22.35298030748091,91.99368741667485,81.86144705843917,6.47544875391759e-05,0.086637258529663,0,0,0
7728,259805.34488019496,2010-09-03 13:40:17,5192.620393900953,2,22,0.550297200679779,4.1034932136535645,23.1495563160504,22.35298030748091,92.01250038958187,81.86144705843917,9.71794142969884e-05,0.086637258529663,0,0,0
7729,259835.36004943715,2010-09-03 13:40:47,5222.635563148154,2,22,0.5501165986061096,4.106568813323975,23.154142660681902,22.35298030748091,92.03132715152424,81.86144705843917,0.0001295089750783,0.086637258529663,0,0,0
7730,259865.37517895031,2010-09-03 13:41:17,5252.650692661326,2,22,0.5499359965324402,4.109482765197754,23.15872896820153,22.35298030748091,92.05016773357852,81.86144705843917,6.47544875391759e-05,0.086637258529663,0,0,0
7731,259895.39035089925,2010-09-03 13:41:47,5282.665864605247,2,22,0.5499359965324402,4.112558841705322,23.163315307099943,22.35298030748091,92.06902254087576,81.86144705843917,9.71794142969884e-05,0.086637258529663,0,0,0
7732,259925.40547772072,2010-09-03 13:42:17,5312.680991431723,2,22,0.5499359965324402,4.115634441375732,23.16790163050309,22.35298030748091,92.08789146337784,81.86144705843917,3.24249267578125e-05,0.086637258529663,0,0,0
7733,259955.42063788528,2010-09-03 13:42:47,5342.6961515912735,2,22,0.5501165986061096,4.118872165679932,23.172488025260563,22.35298030748091,92.10677509932232,81.86144705843917,9.71794142969884e-05,0.086637258529663,0,0,0
7734,259985.43577731817,2010-09-03 13:43:17,5372.711291024168,2,22,0.5501165986061096,4.122271537780762,23.177074406942843,22.35298030748091,92.12567323290476,81.86144705843917,9.70840483205393e-05,0.086637258529663,0,0,0
7735,260015.45095726705,2010-09-03 13:43:47,5402.726470978053,2,22,0.5501165986061096,4.12534761428833,23.1816607727601,22.35298030748091,92.1445858752123,81.86144705843917,9.71794142969884e-05,0.086637258529663,0,0,0
7736,260045.4660757126,2010-09-03 13:44:17,5432.741589418628,2,22,0.550297200679779,4.12874698638916,23.18624713441294,22.35298030748091,92.16351328022688,81.86144705843917,0.0001618385285837,0.086637258529663,0,0,0
7737,260075.4812628845,2010-09-03 13:44:47,5462.756776580477,2,22,0.550297200679779,4.1318230628967285,23.19083358680737,22.35298030748091,92.18245603972892,81.86144705843917,6.47544875391759e-05,0.086637258529663,0,0,0
7738,260105.49652140425,2010-09-03 13:45:17,5492.772035100173,2,22,0.5499359965324402,4.135060787200928,23.19542001720504,22.35298030748091,92.20141372139156,81.86144705843917,6.47544875391759e-05,0.086637258529663,0,0,0
7739,260135.5115175249,2010-09-03 13:45:47,5522.787031235926,2,22,0.5501165986061096,4.138460159301758,23.2000063548414,22.35298030748091,92.22038621245376,81.86144705843917,9.70840483205393e-05,0.086637258529663,0,0,0
7740,260165.5267137093,2010-09-03 13:46:17,5552.802227445325,2,22,0.5501165986061096,4.141697883605957,23.20459277345639,22.35298030748091,92.2393743572724,81.86144705843917,6.47544875391759e-05,0.086637258529663,0,0,0
7741,260195.541808536,2010-09-03 13:46:47,5582.817322257009,2,22,0.5499359965324402,4.145097732543945,23.209179163611125,22.35298030748091,92.25837783704054,81.86144705843917,9.71794142969884e-05,0.086637258529663,0,0,0
7742,260225.55695562795,2010-09-03 13:47:17,5612.8324693590175,2,22,0.5501165986061096,4.1486592292785645,23.21376549897481,22.35298030748091,92.27739692370304,81.86144705843917,9.71794142969884e-05,0.086637258529663,0,0,0
7743,260255.5722873,2010-09-03 13:47:47,5642.847801031032,2,22,0.5501165986061096,4.1520586013793945,23.218351865336462,22.35298030748091,92.29643185437894,81.86144705843917,9.70840483205393e-05,0.086637258529663,0,0,0
7744,260285.58729080408,2010-09-03 13:48:17,5672.862804510087,2,22,0.5499359965324402,4.155620098114014,23.22293815921984,22.35298030748091,92.31548232160505,81.86144705843917,9.70840483205393e-05,0.086637258529663,0,0,0
7745,260315.6052477892,2010-09-03 13:48:47,5702.880761525263,2,22,0.5501165986061096,4.159019947052002,23.227524880621623,22.35298030748091,92.3345505494062,81.86144705843917,6.47544875391759e-05,0.086637258529663,0,0,0
7746,260345.6176782204,2010-09-03 13:49:18,5732.893191931429,2,22,0.5499359965324402,4.162581443786621,23.23211079106009,22.35298030748091,92.35363152488549,81.86144705843917,9.71794142969884e-05,0.086637258529663,0,0,0
7747,260375.6330104538,2010-09-03 13:49:48,5762.908524179878,2,22,0.5499359965324402,4.16614294052124,23.23669709801419,22.35298030748091,92.37273039217504,81.86144705843917,0.0001295089750783,0.086637258529663,0,0,0
7748,260405.6480182286,2010-09-03 13:50:18,5792.923531934591,2,22,0.5501165986061096,4.170028209686279,23.24128337761008,22.35298030748091,92.391845585122,81.86144705843917,0.0001942634553415,0.086637258529663,0,0,0
7749,260435.66303073007,2010-09-03 13:50:48,5822.938544451171,2,22,0.550297200679779,4.173427581787109,23.24586958241595,22.35298030748091,92.41097696143932,81.86144705843917,9.70840483205393e-05,0.086637258529663,0,0,0
7750,260465.67816296007,2010-09-03 13:51:18,5852.953676691138,2,22,0.5501165986061096,4.1769890785217285,23.250455816694338,22.35298030748091,92.4301250655787,81.86144705843917,9.70840483205393e-05,0.086637258529663,0,0,0
7751,260495.69345367,2010-09-03 13:51:48,5882.968967381011,2,22,0.550297200679779,4.180874347686768,23.25504204864709,22.35298030748091,92.44928987556506,81.86144705843917,0.0001618385285837,0.086637258529663,0,0,0
7752,260525.70852550943,2010-09-03 13:52:18,5912.984039235479,2,22,0.5501165986061096,4.184274196624756,23.259628353596693,22.35298030748091,92.46847189287398,81.86144705843917,9.71794142969884e-05,0.086637258529663,0,0,0
7753,260555.7237934125,2010-09-03 13:52:48,5942.999307148586,2,22,0.5499359965324402,4.187997341156006,23.26421458526292,22.35298030748091,92.48767056938418,81.86144705843917,6.47544875391759e-05,0.086637258529663,0,0,0
7754,260585.73879520732,2010-09-03 13:53:18,5973.014308923393,2,22,0.5501165986061096,4.191720962524414,23.26880075780971,22.35298030748091,92.50688621162848,81.86144705843917,9.71794142969884e-05,0.086637258529663,0,0,0
7755,260615.75394501613,2010-09-03 13:53:48,6003.029458732148,2,22,0.5501165986061096,4.195444107055664,23.27338705205292,22.35298030748091,92.5261197339528,81.86144705843917,6.47544875391759e-05,0.086637258529663,0,0,0
7756,260645.76933793075,2010-09-03 13:54:18,6033.044851671859,2,22,0.5501165986061096,4.199329376220703,23.27797333952359,22.35298030748091,92.5453706497241,81.86144705843917,9.71794142969884e-05,0.086637258529663,0,0,0
7757,260649.3315454229,2010-09-03 13:54:21,6036.607059128905,2,22,0.5501165986061096,4.200138568878174,23.27851761231125,22.35298030748091,92.54765640522704,81.86144705843917,0.0001942634553415,0.086637258529663,0,0,0
7758,260679.34421279383,2010-09-03 13:54:51,30.01532103550387,3,22,0.0,4.118386268615723,23.27851761231125,22.35298030748091,92.54765640522704,81.86144705843917,-0.0003561973571777,0.086637258529663,0,0,0
7759,260709.3591953608,2010-09-03 13:55:21,60.03030356233998,3,22,0.0,4.108187675476074,23.27851761231125,22.35298030748091,92.54765640522704,81.86144705843917,-0.0001942634553415,0.086637258529663,0,0,0
7760,260739.37446131403,2010-09-03 13:55:51,90.04556953059934,3,22,0.0,4.101874351501465,23.27851761231125,22.35298030748091,92.54765640522704,81.86144705843917,-9.70840483205393e-05,0.086637258529663,0,0,0
7761,260769.34273327372,2010-09-03 13:56:21,120.01384149534223,3,22,0.0,4.097989082336426,23.27851761231125,22.35298030748091,92.54765640522704,81.86144705843917,-9.70840483205393e-05,0.086637258529663,0,0,0
7762,260769.3575522792,2010-09-03 13:56:22,0.015686575773466,4,22,1.0007367134094238,4.199976921081543,23.278521988252447,22.35298030748091,92.54767478372428,81.86144705843917,3.24249267578125e-05,0.086637258529663,0,0,0
7763,260770.38875393104,2010-09-03 13:56:23,1.04688820753262,4,22,0.9501661658287048,4.199814796447754,23.27879994439034,22.35298030748091,92.54884213550906,81.86144705843917,0.0,0.086637258529663,0,0,0
7764,260772.59169943907,2010-09-03 13:56:25,3.249833720580524,4,22,0.8997761607170105,4.199653148651123,23.279364837171027,22.35298030748091,92.551214544004,81.86144705843917,-3.23295607813634e-05,0.086637258529663,0,0,0
7765,260775.8261291732,2010-09-03 13:56:28,6.484263494787007,4,22,0.8495668172836304,4.199814796447754,23.2801496924189,22.35298030748091,92.55451073222952,81.86144705843917,0.0,0.086637258529663,0,0,0
7766,260780.15403113657,2010-09-03 13:56:32,10.812165433079366,4,22,0.7995380163192749,4.199653148651123,23.281139733128622,22.35298030748091,92.5586686819788,81.86144705843917,3.24249267578125e-05,0.086637258529663,0,0,0
7767,260785.65389166123,2010-09-03 13:56:38,16.3120259427342,4,22,0.7491480112075806,4.199653148651123,23.28232146288836,22.35298030748091,92.56363168142065,81.86144705843917,-3.23295607813634e-05,0.086637258529663,0,0,0
7768,260792.76327000457,2010-09-03 13:56:45,23.421404286066817,4,22,0.6991192698478699,4.199814796447754,23.283749853257653,22.35298030748091,92.56963061671664,81.86144705843917,3.23295607813634e-05,0.086637258529663,0,0,0
7769,260802.04438158532,2010-09-03 13:56:54,32.70251585682779,4,22,0.6490904688835144,4.199814796447754,23.28548477254873,22.35298030748091,92.57691691166984,81.86144705843917,0.0,0.086637258529663,0,0,0
7770,260814.7784265335,2010-09-03 13:57:07,45.43656080500632,4,22,0.5988811254501343,4.199814796447754,23.28768748666253,22.35298030748091,92.5861678457538,81.86144705843917,0.0,0.086637258529663,0,0,0
7771,260833.6218941478,2010-09-03 13:57:26,64.28002842430365,4,22,0.5488523244857788,4.199814796447754,23.290682799090195,22.35298030748091,92.5987475172478,81.86144705843917,3.23295607813634e-05,0.086637258529663,0,0,0
7772,260864.277634375,2010-09-03 13:57:56,94.9357686715352,4,22,0.4988235831260681,4.199814796447754,23.29512517715622,22.35298030748091,92.6174045972918,81.86144705843917,0.0,0.086637258529663,0,0,0
7773,260917.90178048183,2010-09-03 13:58:50,148.55991475330825,4,22,0.448794811964035,4.199814796447754,23.30214976132454,22.35298030748091,92.6469063921286,81.86144705843917,0.0,0.086637258529663,0,0,0
7774,261003.15045313444,2010-09-03 14:00:15,233.80858740591933,4,22,0.3987660408020019,4.199653148651123,23.312154035582346,22.35298030748091,92.68892224750677,81.86144705843917,-3.23295607813634e-05,0.086637258529663,0,0,0
7775,261114.6486919778,2010-09-03 14:02:07,345.3068262542799,4,22,0.3487372696399688,4.199814796447754,23.32371281274547,22.35298030748091,92.73746676640536,81.86144705843917,-3.24249267578125e-05,0.086637258529663,0,0,0
7776,261250.0059208656,2010-09-03 14:04:22,480.6640551370338,4,22,0.2987084984779358,4.199814796447754,23.335866210926987,22.35298030748091,92.78850860962132,81.86144705843917,0.0,0.086637258529663,0,0,0
7777,261412.30305838984,2010-09-03 14:07:04,642.9611926613251,4,22,0.2484991252422332,4.199976921081543,23.348178343963976,22.35298030748091,92.84021709731084,81.86144705843917,3.24249267578125e-05,0.086637258529663,0,0,0
7778,261613.8751397989,2010-09-03 14:10:26,844.5332740703753,4,22,0.1984703540802002,4.199814796447754,23.36065935202987,22.35298030748091,92.8926347511601,81.86144705843917,3.23295607813634e-05,0.086637258529663,0,0,0
7779,261880.37107251692,2010-09-03 14:14:53,1111.0292067884577,4,22,0.1484415829181671,4.199814796447754,23.37343064098413,22.35298030748091,92.9462715736128,81.86144705843917,3.23295607813634e-05,0.086637258529663,0,0,0
7780,262272.7866357388,2010-09-03 14:21:25,1503.4447700102564,4,22,0.098412811756134,4.199814796447754,23.38670865147596,22.35298030748091,93.00203647868166,81.86144705843917,6.47544875391759e-05,0.086637258529663,0,0,0
7781,262971.41615619167,2010-09-03 14:33:04,2202.0742904631543,4,22,0.0498289167881011,4.199814796447754,23.400564622110497,22.35298030748091,93.0602284563881,81.86144705843917,0.0,0.086637258529663,0,0,0
7782,263001.434170812,2010-09-03 14:33:34,30.015153252336592,5,22,0.0,4.192044734954834,23.400564622110497,22.35298030748091,93.0602284563881,81.86144705843917,-3.23295607813634e-05,0.086637258529663,0,0,0
7783,263031.43371551804,2010-09-03 14:34:04,60.01469795336069,5,22,0.0,4.190911293029785,23.400564622110497,22.35298030748091,93.0602284563881,81.86144705843917,-3.24249267578125e-05,0.086637258529663,0,0,0
7784,263031.6248389658,2010-09-03 14:34:04,0.187425065933557,6,22,-1.9243103452026844e-05,4.190911293029785,23.400564622110497,22.352980308482756,93.0602284563881,81.86144706263781,0.0,0.0923051163554191,0,0,0
7785,263036.45329565054,2010-09-03 14:34:09,5.015881760695888,6,22,0.0007031940040178,4.191073417663574,23.40056558938644,22.352980308566742,93.06023251025192,81.86144706298982,0.0,0.0923051163554191,0,0,0
7786,263066.47205293004,2010-09-03 14:34:39,30.015226550016965,7,22,-1.0993878841400146,4.020122051239014,23.40056558938644,22.362147640442487,93.06023251025192,81.89849587646258,-0.0009065627818927,0.0923051163554191,0,0,0
7787,263096.48706645914,2010-09-03 14:35:09,60.03024007410777,7,22,-1.099568486213684,3.99341082572937,23.40056558938644,22.371314947834147,93.06023251025192,81.93521842328624,-0.000615119934082,0.0923051163554191,0,0,0
7788,263126.5022230899,2010-09-03 14:35:39,90.04539670486443,7,22,-1.099568486213684,3.975441455841065,23.40056558938644,22.38048219027104,93.06023251025192,81.97174010738894,-0.0003885269106831,0.0923051163554191,0,0,0
7789,263156.5173966428,2010-09-03 14:36:09,120.06057027784632,7,22,-1.099568486213684,3.961357355117798,23.40056558938644,22.38964937719344,93.06023251025192,82.00811615368644,-0.0003237724304199,0.0923051163554191,0,0,0
7790,263186.53251221124,2010-09-03 14:36:39,150.075685826213,7,22,-1.099568486213684,3.949539661407471,23.40056558938644,22.39881658276828,93.06023251025192,82.04437570015179,-0.0002913951757363,0.0923051163554191,0,0,0
7791,263216.5476549223,2010-09-03 14:37:09,180.09082856735247,7,22,-1.0993878841400146,3.939340829849243,23.40056558938644,22.407983751033687,93.06023251025192,82.08053478866692,-0.0002590179501567,0.0923051163554191,0,0,0
7792,263246.5629440884,2010-09-03 14:37:39,210.10611770335296,7,22,-1.099568486213684,3.9296276569366455,23.40056558938644,22.417150977147216,93.06023251025192,82.11660322356603,-0.0002913951757363,0.0923051163554191,0,0,0
7793,263276.5779719031,2010-09-03 14:38:09,240.1211455180604,7,22,-1.099568486213684,3.9207239151000977,23.40056558938644,22.4263182152867,93.06023251025192,82.15258713864462,-0.0002266406954731,0.0923051163554191,0,0,0
7794,263306.5931163936,2010-09-03 14:38:39,270.1362900085598,7,22,-1.099568486213684,3.912144184112549,23.40056558938644,22.4354854618098,93.06023251025192,82.18849065741948,-0.0002266406954731,0.0923051163554191,0,0,0
7795,263336.6082625032,2010-09-03 14:39:09,300.1514361180943,7,22,-1.099568486213684,3.903887987136841,23.40056558938644,22.44465272129351,93.06023251025192,82.22431709561249,-0.0002590179501567,0.0923051163554191,0,0,0
7796,263366.6236770968,2010-09-03 14:39:39,330.166850711774,7,22,-1.099568486213684,3.8959555625915527,23.40056558938644,22.45382006505039,93.06023251025192,82.26006888565963,-0.0002266406954731,0.0923051163554191,0,0,0
7797,263396.63883178774,2010-09-03 14:40:09,360.18200549292084,7,22,-1.099568486213684,3.8880231380462646,23.40056558938644,22.46298729038819,93.06023251025192,82.29574752144276,-0.0002266406954731,0.0923051163554191,0,0,0
7798,263426.6537175384,2010-09-03 14:40:39,390.1968911583485,7,22,-1.099568486213684,3.880414485931397,23.40056558938644,22.472154492489636,93.06023251025192,82.33135454321673,-0.0001942634553415,0.0923051163554191,0,0,0
7799,263456.6688636178,2010-09-03 14:41:09,420.2120372327956,7,22,-1.099568486213684,3.8726439476013184,23.40056558938644,22.481321733841,93.06023251025192,82.36689149841824,-0.0001942634553415,0.0923051163554191,0,0,0
7800,263486.6840138226,2010-09-03 14:41:39,450.22718746761154,7,22,-1.0993878841400146,3.86519718170166,23.40056558938644,22.490489005286715,93.06023251025192,82.40235937386763,-0.0002266406954731,0.0923051163554191,0,0,0
7801,263516.6991786638,2010-09-03 14:42:09,480.2423522787562,7,22,-1.099568486213684,3.857750415802002,23.40056558938644,22.4996562240668,93.06023251025192,82.43775861101204,-0.0001942634553415,0.0923051163554191,0,0,0
7802,263546.71431028727,2010-09-03 14:42:39,510.25748390719946,7,22,-1.0993878841400146,3.850627422332764,23.40056558938644,22.50882340896479,93.06023251025192,82.47309022354501,-0.0001942634553415,0.0923051163554191,0,0,0
7803,263576.7297414021,2010-09-03 14:43:09,540.2729150170425,7,22,-1.099568486213684,3.843342542648315,23.40056558938644,22.51799073338501,93.06023251025192,82.50835633445668,-0.0001618862152099,0.0923051163554191,0,0,0
7804,263606.744735207,2010-09-03 14:43:39,570.2879088219871,7,22,-1.099568486213684,3.836219549179077,23.40056558938644,22.52715794990124,93.06023251025192,82.54355709191714,-0.0001942634553415,0.0923051163554191,0,0,0
7805,263636.7597898887,2010-09-03 14:44:09,600.3029635086677,7,22,-1.0993878841400146,3.829582452774048,23.40056558938644,22.53632518304012,93.06023251025192,82.57869392958318,-0.0001295089750783,0.0923051163554191,0,0,0
7806,263666.7748039441,2010-09-03 14:44:39,630.3179775841328,7,22,-1.099568486213684,3.8224594593048096,23.40056558938644,22.545492416452973,93.06023251025192,82.61376777342596,-0.0002266406954731,0.0923051163554191,0,0,0
7807,263696.79003591766,2010-09-03 14:45:09,660.3332095376168,7,22,-1.099568486213684,3.815822124481201,23.40056558938644,22.55465957695849,93.06023251025192,82.64877944151087,-0.0002266406954731,0.0923051163554191,0,0,0
7808,263726.8051900472,2010-09-03 14:45:39,690.3483636571146,7,22,-1.0997490882873535,3.8091847896575928,23.40056558938644,22.563826624711822,93.06023251025192,82.6837291297879,-0.0001618862152099,0.0923051163554191,0,0,0
7809,263756.82034597616,2010-09-03 14:46:09,720.3635196011599,7,22,-1.0993878841400146,3.802547454833984,23.40056558938644,22.57299371309471,93.06023251025192,82.71861854679649,-0.0001942634553415,0.0923051163554191,0,0,0
7810,263786.83564634016,2010-09-03 14:46:39,750.3788199801814,7,22,-1.099568486213684,3.796395778656006,23.40056558938644,22.58216081206365,93.06023251025192,82.75344875708778,-0.0001618862152099,0.0923051163554191,0,0,0
7811,263816.8506645008,2010-09-03 14:47:09,780.3938381157654,7,22,-1.0997490882873535,3.7900822162628174,23.40056558938644,22.591327968839572,93.06023251025192,82.78822145659196,-0.0001618862152099,0.0923051163554191,0,0,0
7812,263846.8657983999,2010-09-03 14:47:39,810.4089720198804,7,22,-1.0993878841400146,3.783930540084839,23.40056558938644,22.600495127683075,93.06023251025192,82.82293768017122,-0.0001295089750783,0.0923051163554191,0,0,0
7813,263876.88096121105,2010-09-03 14:48:09,840.4241348160028,7,22,-1.099568486213684,3.7779407501220703,23.40056558938644,22.60966232989028,93.06023251025192,82.85759847761743,-0.0001618862152099,0.0923051163554191,0,0,0
7814,263906.8960922781,2010-09-03 14:48:39,870.439265893072,7,22,-1.0997490882873535,3.7719509601593018,23.40056558938644,22.61882947756191,93.06023251025192,82.89220453364005,-0.0001942634553415,0.0923051163554191,0,0,0
7815,263936.9112412197,2010-09-03 14:49:09,900.4544148346649,7,22,-1.0993878841400146,3.766284942626953,23.40056558938644,22.627996615103047,93.06023251025192,82.92675672353403,-0.0001618862152099,0.0923051163554191,0,0,0
7816,263966.9263863869,2010-09-03 14:49:39,930.4695600018508,7,22,-1.0993878841400146,3.7604570388793945,23.40056558938644,22.637163782638616,93.06023251025192,82.96125634792723,-0.0001618862152099,0.0923051163554191,0,0,0
7817,263996.9444094016,2010-09-03 14:50:09,960.487583016518,7,22,-1.099568486213684,3.754952907562256,23.40056558938644,22.646331809754777,93.06023251025192,82.99570764487282,-0.0001618862152099,0.0923051163554191,0,0,0
7818,264026.95669706195,2010-09-03 14:50:40,990.4998706769178,7,22,-1.0993878841400146,3.749610900878906,23.40056558938644,22.65549806982662,93.06023251025192,83.0301018053184,-9.713172767078504e-05,0.0923051163554191,0,0,0
7819,264056.9721123474,2010-09-03 14:51:10,1020.515285967334,7,22,-1.099568486213684,3.7442686557769775,23.40056558938644,22.66466527134946,93.06023251025192,83.06445020684848,-9.713172767078504e-05,0.0923051163554191,0,0,0
7820,264086.9871140971,2010-09-03 14:51:40,1050.5302877421418,7,22,-1.099568486213684,3.738926410675049,23.40056558938644,22.673832313463247,93.06023251025192,83.09874939255644,-0.0001295089750783,0.0923051163554191,0,0,0
7821,264117.00228183053,2010-09-03 14:52:10,1080.54545547557,7,22,-1.0993878841400146,3.73390793800354,23.40056558938644,22.682999485028784,93.06023251025192,83.13300145968626,-9.713172767078504e-05,0.0923051163554191,0,0,0
7822,264147.01728267304,2010-09-03 14:52:40,1110.5604562929918,7,22,-1.099568486213684,3.728727579116821,23.40056558938644,22.69216657212768,93.06023251025192,83.16720606151888,-9.713172767078504e-05,0.0923051163554191,0,0,0
7823,264177.03255777404,2010-09-03 14:53:10,1140.5757314040377,7,22,-1.099568486213684,3.723709106445313,23.40056558938644,22.70133371902615,93.06023251025192,83.2013658577262,-0.0001295089750783,0.0923051163554191,0,0,0
7824,264207.04773232446,2010-09-03 14:53:40,1170.5909059494431,7,22,-1.099568486213684,3.7188525199890137,23.40056558938644,22.710500917382326,93.06023251025192,83.2354805145939,-0.0001295089750783,0.0923051163554191,0,0,0
7825,264237.06273890624,2010-09-03 14:54:10,1200.605912546269,7,22,-1.099568486213684,3.713995933532715,23.40056558938644,22.7196680151243,93.06023251025192,83.26955016751933,-0.0001295089750783,0.0923051163554191,0,0,0
7826,264267.0778817176,2010-09-03 14:54:40,1230.6210553375336,7,22,-1.0993878841400146,3.709301233291626,23.40056558938644,22.728835183387258,93.06023251025192,83.3035757195076,-0.0001295089750783,0.0923051163554191,0,0,0
7827,264297.09302981204,2010-09-03 14:55:10,1260.63620344204,7,22,-1.0993878841400146,3.704768419265747,23.40056558938644,22.738002238169745,93.06023251025192,83.33755798023314,-9.713172767078504e-05,0.0923051163554191,0,0,0
7828,264327.1083055196,2010-09-03 14:55:40,1290.6514791295228,7,22,-1.099568486213684,3.700235605239868,23.40056558938644,22.747169473390525,93.06023251025192,83.3714987515514,-9.713172767078504e-05,0.0923051163554191,0,0,0
7829,264357.12355042034,2010-09-03 14:56:10,1320.666724035288,7,22,-1.0993878841400146,3.695702791213989,23.40056558938644,22.756336651955262,93.06023251025192,83.4053979955909,-0.0001295089750783,0.0923051163554191,0,0,0
7830,264387.13850265165,2010-09-03 14:56:40,1350.6816762666183,7,22,-1.0997490882873535,3.69133186340332,23.40056558938644,22.76550386650344,93.06023251025192,83.43925682230665,-6.47544875391759e-05,0.0923051163554191,0,0,0
7831,264417.1536471522,2010-09-03 14:57:10,1380.6968207721552,7,22,-1.099568486213684,3.6869609355926514,23.40056558938644,22.77467100690649,93.06023251025192,83.47307550450903,-9.713172767078504e-05,0.0923051163554191,0,0,0
7832,264447.1687801891,2010-09-03 14:57:40,1410.7119538091088,7,22,-1.0997490882873535,3.6825900077819824,23.40056558938644,22.78383817718334,93.06023251025192,83.50685503381595,-0.0001295089750783,0.0923051163554191,0,0,0
7833,264477.18394257425,2010-09-03 14:58:10,1440.7271161942067,7,22,-1.099568486213684,3.678542852401733,23.40056558938644,22.79300535249485,93.06023251025192,83.54059595420986,-9.713172767078504e-05,0.0923051163554191,0,0,0
7834,264507.1992128883,2010-09-03 14:58:40,1470.7423865032847,7,22,-1.099568486213684,3.674495697021485,23.40056558938644,22.80217263773009,93.06023251025192,83.57429921342685,-9.713172767078504e-05,0.0923051163554191,0,0,0
7835,264537.2142488483,2010-09-03 14:59:10,1500.7574224683055,7,22,-1.099568486213684,3.670286893844605,23.40056558938644,22.811339863308632,93.06023251025192,83.60796475094092,-0.0001295089750783,0.0923051163554191,0,0,0
7836,264567.22936946934,2010-09-03 14:59:40,1530.7725431143774,7,22,-1.0993878841400146,3.666239738464356,23.40056558938644,22.820507018970066,93.06023251025192,83.64159270873216,-0.0001295089750783,0.0923051163554191,0,0,0
7837,264597.2446688158,2010-09-03 15:00:10,1560.7878424407754,7,22,-1.0993878841400146,3.662354469299317,23.40056558938644,22.82967432209869,93.06023251025192,83.67518487286834,-9.713172767078504e-05,0.0923051163554191,0,0,0
7838,264627.25969528215,2010-09-03 15:00:40,1590.80286892216,7,22,-1.099568486213684,3.6586310863494873,23.40056558938644,22.83884149165796,93.06023251025192,83.70874077104733,-9.713172767078504e-05,0.0923051163554191,0,0,0
7839,264657.2749531753,2010-09-03 15:01:10,1620.8181267902312,7,22,-1.099568486213684,3.654745817184448,23.40056558938644,22.848008724823604,93.06023251025192,83.74226202304759,-9.713172767078504e-05,0.0923051163554191,0,0,0
7840,264687.290093746,2010-09-03 15:01:40,1650.8332673759987,7,22,-1.0997490882873535,3.651022434234619,23.40056558938644,22.85717588859814,93.06023251025192,83.77574860358823,-0.0001295089750783,0.0923051163554191,0,0,0
7841,264717.305207535,2010-09-03 15:02:10,1680.8483811549554,7,22,-1.0993878841400146,3.64729905128479,23.40056558938644,22.86634311794797,93.06023251025192,83.80920176232593,-0.0001295089750783,0.0923051163554191,0,0,0
7842,264747.3204415887,2010-09-03 15:02:40,1710.8636152437614,7,22,-1.099568486213684,3.643575668334961,23.40056558938644,22.87551034655171,93.06023251025192,83.84262106968535,-0.0001295089750783,0.0923051163554191,0,0,0
7843,264777.33552173886,2010-09-03 15:03:10,1740.8786953588174,7,22,-1.0993878841400146,3.6403379440307617,23.40056558938644,22.88467747286851,93.06023251025192,83.8760074318332,-6.47544875391759e-05,0.0923051163554191,0,0,0
7844,264807.3506387458,2010-09-03 15:03:40,1770.8938124460194,7,22,-1.0993878841400146,3.636938333511353,23.40056558938644,22.89384465011813,93.06023251025192,83.90936224780008,-6.47544875391759e-05,0.0923051163554191,0,0,0
7845,264837.3659204734,2010-09-03 15:04:10,1800.909094118418,7,22,-1.0993878841400146,3.633376836776733,23.40056558938644,22.903011896199203,93.06023251025192,83.94268656439169,-0.0001295089750783,0.0923051163554191,0,0,0
7846,264867.3819667314,2010-09-03 15:04:40,1830.9251404766496,7,22,-1.0993878841400146,3.630300998687744,23.40056558938644,22.91217940407852,93.06023251025192,83.9759815609261,-6.47544875391759e-05,0.0923051163554191,0,0,0
7847,264897.3961141268,2010-09-03 15:05:10,1860.9392877718312,7,22,-1.099568486213684,3.626901388168335,23.40056558938644,22.921346331541443,93.06023251025192,84.00924489802719,-9.713172767078504e-05,0.0923051163554191,0,0,0
7848,264927.4111768234,2010-09-03 15:05:40,1890.9543504384003,7,22,-1.099568486213684,3.6238255500793457,23.40056558938644,22.93051348601172,93.06023251025192,84.04248011589232,-9.713172767078504e-05,0.0923051163554191,0,0,0
7849,264957.4263998597,2010-09-03 15:06:10,1920.96957347466,7,22,-1.0993878841400146,3.620749711990357,23.40056558938644,22.93968068182495,93.06023251025192,84.07568715806983,-9.713172767078504e-05,0.0923051163554191,0,0,0
7850,264987.4414865361,2010-09-03 15:06:40,1950.9846601510687,7,22,-1.0993878841400146,3.617835760116577,23.40056558938644,22.94884787617806,93.06023251025192,84.10886644263358,-9.713172767078504e-05,0.0923051163554191,0,0,0
7851,265017.456621157,2010-09-03 15:07:10,1980.9997947719703,7,22,-1.099568486213684,3.615083694458008,23.40056558938644,22.95801509241342,93.06023251025192,84.14201855101001,0.0,0.0923051163554191,0,0,0
7852,265047.47180234897,2010-09-03 15:07:40,2011.014975989004,7,22,-1.0993878841400146,3.612169742584229,23.40056558938644,22.967182274863717,93.06023251025192,84.1751439337247,-6.47544875391759e-05,0.0923051163554191,0,0,0
7853,265077.4869440475,2010-09-03 15:08:10,2041.0301176574696,7,22,-1.099568486213684,3.6090939044952393,23.40056558938644,22.976349442349218,93.06023251025192,84.20824281779528,-9.713172767078504e-05,0.0923051163554191,0,0,0
7854,265107.5020718264,2010-09-03 15:08:40,2071.0452454413307,7,22,-1.099568486213684,3.60617995262146,23.40056558938644,22.985516700214244,93.06023251025192,84.24131595593136,-9.713172767078504e-05,0.0923051163554191,0,0,0
7855,265137.517222803,2010-09-03 15:09:10,2101.060396423008,7,22,-1.099568486213684,3.60342788696289,23.40056558938644,22.994683834991765,93.06023251025192,84.27436262104312,-6.47544875391759e-05,0.0923051163554191,0,0,0
7856,265167.5323812433,2010-09-03 15:09:40,2131.0755548833245,7,22,-1.099568486213684,3.6006758213043213,23.40056558938644,23.00385076453512,93.06023251025192,84.3073829364416,-9.713172767078504e-05,0.0923051163554191,0,0,0
7857,265197.5475384555,2010-09-03 15:10:10,2161.090712065456,7,22,-1.0992072820663452,3.597923755645752,23.40056558938644,23.013017642960616,93.06023251025192,84.34037715794183,-9.713172767078504e-05,0.0923051163554191,0,0,0
7858,265227.5626710965,2010-09-03 15:10:40,2191.1058447364967,7,22,-1.0992072820663452,3.5951716899871826,23.40056558938644,23.02218448512362,93.06023251025192,84.3733449120236,-3.237724376958795e-05,0.0923051163554191,0,0,0
7859,265257.5778403286,2010-09-03 15:11:10,2221.1210139686605,7,22,-1.0993878841400146,3.5922577381134038,23.40056558938644,23.031351438672218,93.06023251025192,84.40628693264584,-6.47544875391759e-05,0.0923051163554191,0,0,0
7860,265287.5931044824,2010-09-03 15:11:40,2251.13627810736,7,22,-1.0993878841400146,3.589344024658203,23.40056558938644,23.040518705814293,93.06023251025192,84.43920418577346,-6.47544875391759e-05,0.0923051163554191,0,0,0
7861,265317.6085037228,2010-09-03 15:12:10,2281.1516773427616,7,22,-1.099568486213684,3.586430072784424,23.40056558938644,23.049686088150704,93.06023251025192,84.4720957126774,-9.713172767078504e-05,0.0923051163554191,0,0,0
7862,265347.62328080763,2010-09-03 15:12:40,2311.166454437598,7,22,-1.0993878841400146,3.5838398933410645,23.40056558938644,23.05885323235362,93.06023251025192,84.50495981995574,-3.237724376958795e-05,0.0923051163554191,0,0,0
7863,265377.63842691714,2010-09-03 15:13:10,2341.1816005220703,7,22,-1.099568486213684,3.580764055252075,23.40056558938644,23.068020417240085,93.06023251025192,84.53779795999854,-3.237724376958795e-05,0.0923051163554191,0,0,0
7864,265407.65357590385,2010-09-03 15:13:40,2371.1967495188005,7,22,-1.0993878841400146,3.577850103378296,23.40056558938644,23.07718760918017,93.06023251025192,84.57060939671427,-6.47544875391759e-05,0.0923051163554191,0,0,0
7865,265437.66872332664,2010-09-03 15:14:10,2401.211896956646,7,22,-1.099568486213684,3.574774265289306,23.40056558938644,23.086354885348506,93.06023251025192,84.60339403030996,-6.47544875391759e-05,0.0923051163554191,0,0,0
7866,265467.6839032956,2010-09-03 15:14:40,2431.2270769255683,7,22,-1.099568486213684,3.571860313415528,23.40056558938644,23.095522127727357,93.06023251025192,84.63615113419577,-6.47544875391759e-05,0.0923051163554191,0,0,0
7867,265497.6990466783,2010-09-03 15:15:10,2461.242220323344,7,22,-1.099568486213684,3.568460702896118,23.40056558938644,23.104689360820537,93.06023251025192,84.66888003145225,-0.0001295089750783,0.0923051163554191,0,0,0
7868,265527.714209309,2010-09-03 15:15:40,2491.25738292398,7,22,-1.0993878841400146,3.565708637237549,23.40056558938644,23.113856620120867,93.06023251025192,84.70158043272244,-3.237724376958795e-05,0.0923051163554191,0,0,0
7869,265557.7293641904,2010-09-03 15:16:10,2521.272537795351,7,22,-1.099568486213684,3.56230902671814,23.40056558938644,23.12302382944291,93.06023251025192,84.73425148769218,-9.713172767078504e-05,0.0923051163554191,0,0,0
7870,265587.744511914,2010-09-03 15:16:40,2551.2876855289337,7,22,-1.0993878841400146,3.5589094161987305,23.40056558938644,23.13219114335073,93.06023251025192,84.7668936161377,-0.0001295089750783,0.0923051163554191,0,0,0
7871,265617.75967661984,2010-09-03 15:17:10,2581.302850239829,7,22,-1.099568486213684,3.5555098056793213,23.40056558938644,23.141358378292978,93.06023251025192,84.799504601589,-9.713172767078504e-05,0.0923051163554191,0,0,0
7872,265647.774936914,2010-09-03 15:17:40,2611.3181105339463,7,22,-1.099568486213684,3.552272081375122,23.40056558938644,23.15052561627947,93.06023251025192,84.83208435262857,-9.713172767078504e-05,0.0923051163554191,0,0,0
7873,265677.7899733051,2010-09-03 15:18:10,2641.3331469450786,7,22,-1.099568486213684,3.548548698425293,23.40056558938644,23.15969286390781,93.06023251025192,84.86463187552931,-9.713172767078504e-05,0.0923051163554191,0,0,0
7874,265707.80512066773,2010-09-03 15:18:40,2671.348294282674,7,22,-1.0993878841400146,3.544987201690674,23.40056558938644,23.16886019078816,93.06023251025192,84.8971464171258,-9.713172767078504e-05,0.0923051163554191,0,0,0
7875,265737.8202537347,2010-09-03 15:19:10,2701.3634273346647,7,22,-1.099568486213684,3.5411019325256348,23.40056558938644,23.178027412636617,93.06023251025192,84.92962641875212,-9.713172767078504e-05,0.0923051163554191,0,0,0
7876,265767.8354200998,2010-09-03 15:19:40,2731.3785937197326,7,22,-1.099568486213684,3.537216663360596,23.40056558938644,23.187194625345956,93.06023251025192,84.96207080159003,-9.713172767078504e-05,0.0923051163554191,0,0,0
7877,265797.850597377,2010-09-03 15:20:10,2761.393770981909,7,22,-1.0993878841400146,3.5331695079803467,23.40056558938644,23.19636194597862,93.06023251025192,84.99447853772544,-9.713172767078504e-05,0.0923051163554191,0,0,0
7878,265827.8657175018,2010-09-03 15:20:40,2791.4088911167064,7,22,-1.0993878841400146,3.528960466384888,23.40056558938644,23.205529184991477,93.06023251025192,85.02684777501153,-6.47544875391759e-05,0.0923051163554191,0,0,0
7879,265857.88086061383,2010-09-03 15:21:10,2821.4240342337825,7,22,-1.0993878841400146,3.524427652359009,23.40056558938644,23.21469642831449,93.06023251025192,85.05917731019888,-0.0001295089750783,0.0923051163554191,0,0,0
7880,265887.89602634223,2010-09-03 15:21:40,2851.439199982264,7,22,-1.099568486213684,3.51989483833313,23.40056558938644,23.22386365051014,93.06023251025192,85.09146508759484,-9.713172767078504e-05,0.0923051163554191,0,0,0
7881,265917.91179552965,2010-09-03 15:22:10,2881.454969139625,7,22,-1.099568486213684,3.515038251876831,23.40056558938644,23.233031109468463,93.06023251025192,85.12371068567698,-0.0001618862152099,0.0923051163554191,0,0,0
7882,265947.9135750656,2010-09-03 15:22:40,2911.4567486805577,7,22,-1.099568486213684,3.5100200176239014,23.40056558938644,23.24219426874025,93.06023251025192,85.15589639122871,-0.0001295089750783,0.0923051163554191,0,0,0
7883,265977.9258850366,2010-09-03 15:23:11,2941.469058656575,7,22,-1.0993878841400146,3.5048396587371826,23.40056558938644,23.25136069702783,93.06023251025192,85.18804649923636,-0.0001295089750783,0.0923051163554191,0,0,0
7884,266007.94126534986,2010-09-03 15:23:41,2971.4844389648047,7,22,-1.099568486213684,3.499173641204834,23.40056558938644,23.26052801900199,93.06023251025192,85.22015015898604,-0.0001295089750783,0.0923051163554191,0,0,0
7885,266037.9562874052,2010-09-03 15:24:11,3001.4994610452204,7,22,-1.099568486213684,3.493183851242065,23.40056558938644,23.269695232651667,93.06023251025192,85.25220058311525,-0.0001618862152099,0.0923051163554191,0,0,0
7886,266067.9713038416,2010-09-03 15:24:41,3031.51447746152,7,22,-1.099568486213684,3.486708402633667,23.40056558938644,23.278862465407148,93.06023251025192,85.28419426005806,-0.0001618862152099,0.0923051163554191,0,0,0
7887,266097.9864617555,2010-09-03 15:25:11,3061.529635395524,7,22,-1.0993878841400146,3.4794235229492188,23.40056558938644,23.288029758428863,93.06023251025192,85.31612497662528,-0.0001942634553415,0.0923051163554191,0,0,0
7888,266128.001765944,2010-09-03 15:25:41,3091.5449395990777,7,22,-1.0997490882873535,3.4711673259735107,23.40056558938644,23.297197001784884,93.06023251025192,85.34798467645456,-0.0002590179501567,0.0923051163554191,0,0,0
7889,266158.0167347717,2010-09-03 15:26:11,3121.559908391684,7,22,-1.0993878841400146,3.461777925491333,23.40056558938644,23.306364134092927,93.06023251025192,85.37976355909571,-0.0002590179501567,0.0923051163554191,0,0,0
7890,266188.0319137081,2010-09-03 15:26:41,3151.575087328033,7,22,-1.099568486213684,3.450445890426636,23.40056558938644,23.315531355864373,93.06023251025192,85.41144835245636,-0.0003561496851034,0.0923051163554191,0,0,0
7891,266218.04703593306,2010-09-03 15:27:11,3181.59020957309,7,22,-1.099568486213684,3.436685562133789,23.40056558938644,23.32469856404784,93.06023251025192,85.44301893792502,-0.0004209041653666,0.0923051163554191,0,0,0
7892,266248.0622069597,2010-09-03 15:27:41,3211.6053805997253,7,22,-1.0993878841400146,3.4193639755249023,23.40056558938644,23.333865848778743,93.06023251025192,85.47444736620092,-0.0004856586456298,0.0923051163554191,0,0,0
7893,266278.0774639505,2010-09-03 15:28:11,3241.620637555523,7,22,-1.0992072820663452,3.396052360534668,23.40056558938644,23.34303304134199,93.06023251025192,85.50569061972965,-0.0006799221155233,0.0923051163554191,0,0,0
7894,266308.09270356817,2010-09-03 15:28:41,3271.6358771831333,7,22,-1.0993878841400146,3.3644845485687256,23.40056558938644,23.35220028014822,93.06023251025192,85.5366864498044,-0.0009713172912597,0.0923051163554191,0,0,0
7895,266338.1076544411,2010-09-03 15:29:11,3301.6508280610906,7,22,-1.099568486213684,3.3193185329437256,23.40056558938644,23.361367494738992,93.06023251025192,85.5673356837916,-0.0013922214275225,0.0923051163554191,0,0,0
7896,266368.12276161864,2010-09-03 15:29:41,3331.6659352335823,7,22,-1.0993878841400146,3.2539167404174805,23.40056558938644,23.37053376957477,93.06023251025192,85.59748200964061,-0.0020721436012536,0.0923051163554191,0,0,0
7897,266398.1379034275,2010-09-03 15:30:11,3361.681077042398,7,22,-1.0993878841400146,3.156623363494873,23.40056558938644,23.379700083379408,93.06023251025192,85.62689377166235,-0.0030434608925133,0.0923051163554191,0,0,0
7898,266428.1530751558,2010-09-03 15:30:41,3391.696248770783,7,22,-1.0992072820663452,2.9931187629699707,23.40056558938644,23.388866539387536,93.06023251025192,85.65515570830912,-0.0057307719253003,0.0923051163554191,0,0,0
7899,266446.85601221974,2010-09-03 15:30:59,3410.399185834696,7,22,-1.0993878841400146,2.7928659915924072,23.40056558938644,23.39457819002218,93.06023251025192,85.67173777021672,-0.0107168676331639,0.0923051163554191,0,0,0
7900,266453.10592086514,2010-09-03 15:31:06,3416.649094480089,7,22,-1.099568486213684,2.699620008468628,23.40056558938644,23.39648683699655,93.06023251025192,85.6769810727317,-0.0122061725705862,0.0923051163554191,0,0,0
7901,266513.1159834213,2010-09-03 15:32:06,60.01464936726919,8,22,0.0,3.4260013103485107,23.40056558938644,23.39648683699655,93.06023251025192,85.6769810727317,0.0011655807029455,0.0923051163554191,0,0,0
7902,266513.30011123605,2010-09-03 15:32:06,0.187631269857183,9,22,-1.9243103452026844e-05,3.4260013103485107,23.40056558938644,23.396486837999497,93.06023251025192,85.67698107616779,0.0,0.0873680263757705,0,0,0
7903,266518.1280232834,2010-09-03 15:32:11,5.015543317190536,9,22,0.0007031940040178,3.43280029296875,23.400566779223475,23.396486838166737,93.06023659131738,85.67698107674074,0.0009388923645019,0.0873680263757705,0,0,0
