Data_Point,Test_Time(s),Date_Time,Step_Time(s),Step_Index,Cycle_Index,Current(A),Voltage(V),Charge_Capacity(Ah),Discharge_Capacity(Ah),Charge_Energy(Wh),Discharge_Energy(Wh),dV/dt(V/s),Internal_Resistance(Ohm),Is_FC_Data,AC_Impedance(Ohm),ACI_Phase_Angle(Deg)
10367,350425.6235108096,2010-09-04 14:50:47,30.01512374379222,1,30,0.0,3.4548168182373047,30.687924473677217,30.6788533100463,122.0972352733982,112.31812276780758,0.0006151676061563,0.0859051570296287,0,0,0
10368,350455.6391563038,2010-09-04 14:51:17,60.030769237946885,1,30,0.0,3.47456693649292,30.687924473677217,30.6788533100463,122.0972352733982,112.31812276780758,0.0004532813909463,0.0859051570296287,0,0,0
10369,350485.6538651836,2010-09-04 14:51:47,90.04547809772048,1,30,0.0,3.4888129234313965,30.687924473677217,30.6788533100463,122.0972352733982,112.31812276780758,0.0003561496851034,0.0859051570296287,0,0,0
10370,350515.6221376245,2010-09-04 14:52:17,120.01375055368766,1,30,0.0,3.499821186065674,30.687924473677217,30.6788533100463,122.0972352733982,112.31812276780758,0.0002590179501567,0.0859051570296287,0,0,0
10371,350545.6367748086,2010-09-04 14:52:47,30.015172264721308,2,30,0.5499359965324402,3.6277108192443848,30.69251103865521,30.6788533100463,122.11374840657967,112.31812276780758,0.0011979580158367,0.0859051570296287,0,0,0
10372,350575.6519328579,2010-09-04 14:53:17,60.03033032403837,2,30,0.5501165986061096,3.6657540798187256,30.697097552620512,30.6788533100463,122.13047983601658,112.31812276780758,0.0008741855854168,0.0859051570296287,0,0,0
10373,350605.66709675174,2010-09-04 14:53:47,90.0454942229094,2,30,0.550297200679779,3.6937601566314697,30.701684078886448,30.6788533100463,122.1473594782085,112.31812276780758,0.0007122993702068,0.0859051570296287,0,0,0
10374,350635.68228642986,2010-09-04 14:54:17,120.0606838859928,2,30,0.5501165986061096,3.7159385681152335,30.70627060683616,30.6788533100463,122.16435353212243,112.31812276780758,0.0005504131549969,0.0859051570296287,0,0,0
10375,350665.70033124386,2010-09-04 14:54:47,150.07872869999076,2,30,0.5499359965324402,3.73374605178833,30.710857652763977,30.6788533100463,122.18144135958012,112.31812276780758,0.0004209041653666,0.0859051570296287,0,0,0
10376,350695.71266190143,2010-09-04 14:55:18,180.0910593525402,2,30,0.5501165986061096,3.747182607650757,30.715443773994007,30.6788533100463,122.19859760670924,112.31812276780758,0.0002913951757363,0.0859051570296287,0,0,0
10377,350725.7280853622,2010-09-04 14:55:48,210.10648283838185,2,30,0.5501165986061096,3.7560861110687256,30.720030357553256,30.6788533100463,122.21580661844963,112.31812276780758,0.0001942634553415,0.0859051570296287,0,0,0
10378,350755.74311723706,2010-09-04 14:56:18,240.12151468313337,2,30,0.5501165986061096,3.761266469955444,30.724616918331243,30.6788533100463,122.23304683602264,112.31812276780758,9.713172767078504e-05,0.0859051570296287,0,0,0
10379,350785.7581801793,2010-09-04 14:56:48,270.13657762538946,2,30,0.5497553944587708,3.7649898529052734,30.72920345321921,30.6788533100463,122.25030695021525,112.31812276780758,9.713172767078504e-05,0.0859051570296287,0,0,0
10380,350815.7733365845,2010-09-04 14:57:18,300.15173403058395,2,30,0.5499359965324402,3.7682275772094727,30.73379005872835,30.6788533100463,122.2675831168698,112.31812276780758,6.47544875391759e-05,0.0859051570296287,0,0,0
10381,350845.7885136261,2010-09-04 14:57:48,330.1669110722108,2,30,0.5501165986061096,3.771465301513672,30.738376721873323,30.6788533100463,122.28487406414582,112.31812276780758,9.713172767078504e-05,0.0859051570296287,0,0,0
10382,350875.80381113297,2010-09-04 14:58:18,360.1822085840865,2,30,0.5499359965324402,3.774379253387451,30.742963297488803,30.6788533100463,122.3021789407714,112.31812276780758,9.713172767078504e-05,0.0859051570296287,0,0,0
10383,350905.8190182345,2010-09-04 14:58:48,390.19741569064433,2,30,0.5501165986061096,3.7776169776916495,30.74754994186458,30.6788533100463,122.31949822289388,112.31812276780758,9.713172767078504e-05,0.0859051570296287,0,0,0
10384,350935.8341672563,2010-09-04 14:59:18,420.21256471243714,2,30,0.5501165986061096,3.7805309295654297,30.752136518403372,30.6788533100463,122.33683129928696,112.31812276780758,3.237724376958795e-05,0.0859051570296287,0,0,0
10385,350965.8493377466,2010-09-04 14:59:48,450.227735202736,2,30,0.5501165986061096,3.783606767654419,30.7567232026864,30.6788533100463,122.3541787008382,112.31812276780758,6.47544875391759e-05,0.0859051570296287,0,0,0
10386,350995.86451318924,2010-09-04 15:00:18,480.2429106403652,2,30,0.5501165986061096,3.786682605743408,30.761309773070177,30.6788533100463,122.37153955693864,112.31812276780758,9.713172767078504e-05,0.0859051570296287,0,0,0
10387,351025.8797870973,2010-09-04 15:00:48,510.2581845534255,2,30,0.5501165986061096,3.789596557617188,30.76589642928581,30.6788533100463,122.38891460128988,112.31812276780758,3.237724376958795e-05,0.0859051570296287,0,0,0
10388,351055.8948789767,2010-09-04 15:01:18,540.2732764227768,2,30,0.5499359965324402,3.792510509490967,30.77048306011064,30.6788533100463,122.40630320799929,112.31812276780758,3.237724376958795e-05,0.0859051570296287,0,0,0
10389,351085.9099234429,2010-09-04 15:01:48,570.2883209190597,2,30,0.5501165986061096,3.795748233795166,30.775069688697236,30.6788533100463,122.42370555291292,112.31812276780758,6.47544875391759e-05,0.0859051570296287,0,0,0
10390,351115.9252425135,2010-09-04 15:02:18,600.3036399696166,2,30,0.5501165986061096,3.798662185668945,30.779656359942933,30.6788533100463,122.44112170947854,112.31812276780758,9.713172767078504e-05,0.0859051570296287,0,0,0
10391,351145.94042074814,2010-09-04 15:02:48,630.3188182042167,2,30,0.5501165986061096,3.8015761375427246,30.784242914455422,30.6788533100463,122.45855121110708,112.31812276780758,3.237724376958795e-05,0.0859051570296287,0,0,0
10392,351175.9554537056,2010-09-04 15:03:18,660.3338511517165,2,30,0.5501165986061096,3.804813861846924,30.78882949523739,30.6788533100463,122.47599472173684,112.31812276780758,6.47544875391759e-05,0.0859051570296287,0,0,0
10393,351205.9706086973,2010-09-04 15:03:48,690.3490061534131,2,30,0.5501165986061096,3.807727813720703,30.79341614370092,30.6788533100463,122.493452747357,112.31812276780758,6.47544875391759e-05,0.0859051570296287,0,0,0
10394,351235.9857736738,2010-09-04 15:04:18,720.364171139995,2,30,0.5501165986061096,3.811127424240112,30.79800283030377,30.6788533100463,122.51092549755252,112.31812276780758,6.47544875391759e-05,0.0859051570296287,0,0,0
10395,351266.0010200032,2010-09-04 15:04:48,750.3794174693081,2,30,0.5499359965324402,3.8142032623291016,30.8025894686367,30.6788533100463,122.52841314677856,112.31812276780758,3.237724376958795e-05,0.0859051570296287,0,0,0
10396,351296.0161704535,2010-09-04 15:05:18,780.3945679096363,2,30,0.5501165986061096,3.8177647590637207,30.807175997305546,30.6788533100463,122.54591596874046,112.31812276780758,6.47544875391759e-05,0.0859051570296287,0,0,0
10397,351326.0313870938,2010-09-04 15:05:48,810.4097845549678,2,30,0.5499359965324402,3.82116436958313,30.81176248624356,30.6788533100463,122.56343438037943,112.31812276780758,9.713172767078504e-05,0.0859051570296287,0,0,0
10398,351356.0465238851,2010-09-04 15:06:18,840.4249213462784,2,30,0.5501165986061096,3.824887752532959,30.81634895312455,30.6788533100463,122.5809686914415,112.31812276780758,9.713172767078504e-05,0.0859051570296287,0,0,0
10399,351386.0617172023,2010-09-04 15:06:48,870.4401146634688,2,30,0.5501165986061096,3.828287363052368,30.82093548602676,30.6788533100463,122.59851935951352,112.31812276780758,6.47544875391759e-05,0.0859051570296287,0,0,0
10400,351416.0768998229,2010-09-04 15:07:18,900.4552972789875,2,30,0.5501165986061096,3.8318488597869873,30.825522018605096,30.6788533100463,122.61608616239724,112.31812276780758,6.47544875391759e-05,0.0859051570296287,0,0,0
10401,351446.0920590351,2010-09-04 15:07:48,930.470456501203,2,30,0.5499359965324402,3.8352482318878174,30.83010851130591,30.6788533100463,122.63366868056325,112.31812276780758,6.47544875391759e-05,0.0859051570296287,0,0,0
10402,351476.1072478811,2010-09-04 15:08:18,960.4856453422376,2,30,0.5501165986061096,3.8386478424072266,30.8346950248162,30.6788533100463,122.65126694757636,112.31812276780758,6.47544875391759e-05,0.0859051570296287,0,0,0
10403,351506.12244316825,2010-09-04 15:08:48,990.5008406243252,2,30,0.5499359965324402,3.841885566711426,30.839281560202597,30.6788533100463,122.66888069539633,112.31812276780758,9.713172767078504e-05,0.0859051570296287,0,0,0
10404,351536.1377353067,2010-09-04 15:09:18,1020.5161327628088,2,30,0.5501165986061096,3.845285177230835,30.843868085098123,30.6788533100463,122.68650941418618,112.31812276780758,0.0001295089750783,0.0859051570296287,0,0,0
10405,351566.15277292585,2010-09-04 15:09:48,1050.5311703819518,2,30,0.5501165986061096,3.848361015319824,30.84845456091971,30.6788533100463,122.70415268938946,112.31812276780758,9.713172767078504e-05,0.0859051570296287,0,0,0
10406,351596.1679369701,2010-09-04 15:10:18,1080.5463344211728,2,30,0.5499359965324402,3.8514368534088135,30.85304106429365,30.6788533100463,122.72181053756331,112.31812276780758,6.47544875391759e-05,0.0859051570296287,0,0,0
10407,351626.18314444256,2010-09-04 15:10:48,1110.5615418986547,2,30,0.5501165986061096,3.8546745777130127,30.85762760946614,30.6788533100463,122.73948271505888,112.31812276780758,0.0001295089750783,0.0859051570296287,0,0,0
10408,351656.198286101,2010-09-04 15:11:18,1140.5766835570962,2,30,0.550297200679779,3.857588529586792,30.86221410156632,30.6788533100463,122.7571685405208,112.31812276780758,6.47544875391759e-05,0.0859051570296287,0,0,0
10409,351686.2134678543,2010-09-04 15:11:48,1170.591865310466,2,30,0.5499359965324402,3.860340595245361,30.86680066786868,30.6788533100463,122.77486794988,112.31812276780758,6.47544875391759e-05,0.0859051570296287,0,0,0
10410,351716.2286456027,2010-09-04 15:12:18,1200.6070430588543,2,30,0.5499359965324402,3.8629307746887207,30.87138714409692,30.6788533100463,122.79257974941646,112.31812276780758,6.47544875391759e-05,0.0859051570296287,0,0,0
10411,351746.24389616755,2010-09-04 15:12:48,1230.622293623724,2,30,0.5501165986061096,3.86568284034729,30.875973666517982,30.6788533100463,122.8103037715862,112.31812276780758,6.47544875391759e-05,0.0859051570296287,0,0,0
10412,351776.2589933502,2010-09-04 15:13:18,1260.6373908063174,2,30,0.5501165986061096,3.8679492473602295,30.880560105824447,30.6788533100463,122.82803891581852,112.31812276780758,3.237724376958795e-05,0.0859051570296287,0,0,0
10413,351806.2741642265,2010-09-04 15:13:48,1290.6525617076406,2,30,0.5501165986061096,3.870377540588379,30.88514661676058,30.6788533100463,122.8457850044267,112.31812276780758,9.713172767078504e-05,0.0859051570296287,0,0,0
10414,351836.2893437793,2010-09-04 15:14:18,1320.6677412304512,2,30,0.5501165986061096,3.872482061386109,30.889733096260887,30.6788533100463,122.86354089039142,112.31812276780758,9.713172767078504e-05,0.0859051570296287,0,0,0
10415,351866.3045340589,2010-09-04 15:14:48,1350.6829315150835,2,30,0.5499359965324402,3.874262809753418,30.89431953442127,30.6788533100463,122.88130581839988,112.31812276780758,6.47544875391759e-05,0.0859051570296287,0,0,0
10416,351896.319705632,2010-09-04 15:15:18,1380.698103088081,2,30,0.5501165986061096,3.8762054443359375,30.898906055197426,30.6788533100463,122.89907945527722,112.31812276780758,6.47544875391759e-05,0.0859051570296287,0,0,0
10417,351926.33487523504,2010-09-04 15:15:48,1410.7132726911689,2,30,0.5501165986061096,3.877662420272827,30.903492579761345,30.6788533100463,122.91686092674016,112.31812276780758,3.237724376958795e-05,0.0859051570296287,0,0,0
10418,351956.3501901102,2010-09-04 15:16:18,1440.7285875713314,2,30,0.5499359965324402,3.878957509994507,30.90807911628025,30.6788533100463,122.93464964882637,112.31812276780758,0.0,0.0859051570296287,0,0,0
10419,351986.36551240884,2010-09-04 15:16:48,1470.743909895046,2,30,0.5501165986061096,3.8805763721466064,30.912665741103776,30.6788533100463,122.95244525349077,112.31812276780758,6.47544875391759e-05,0.0859051570296287,0,0,0
10420,352016.3804151017,2010-09-04 15:17:18,1500.758812562849,2,30,0.5499359965324402,3.881709575653076,30.91725229711137,30.6788533100463,122.97024678333013,112.31812276780758,0.0,0.0859051570296287,0,0,0
10421,352046.3956622831,2010-09-04 15:17:48,1530.7740597392733,2,30,0.5499359965324402,3.883004665374756,30.921838867295627,30.6788533100463,122.98805406878752,112.31812276780758,0.0,0.0859051570296287,0,0,0
10422,352076.41081839264,2010-09-04 15:18:18,1560.789215903868,2,30,0.550297200679779,3.8844616413116455,30.926425489387977,30.6788533100463,123.00586711358372,112.31812276780758,3.237724376958795e-05,0.0859051570296287,0,0,0
10423,352106.42606279213,2010-09-04 15:18:48,1590.8044602532466,2,30,0.550297200679779,3.885432958602905,30.931012082831117,30.6788533100463,123.02368516172912,112.31812276780758,3.237724376958795e-05,0.0859051570296287,0,0,0
10424,352136.44112433586,2010-09-04 15:19:18,1620.8195217920045,2,30,0.5501165986061096,3.886566162109375,30.93559863262493,30.6788533100463,123.04150821248156,112.31812276780758,6.47544875391759e-05,0.0859051570296287,0,0,0
10425,352166.45681524824,2010-09-04 15:19:48,1650.8352128246552,2,30,0.5501165986061096,3.8875374794006343,30.940185214668915,30.6788533100463,123.05933633048696,112.31812276780758,0.0,0.0859051570296287,0,0,0
10426,352196.4714790708,2010-09-04 15:20:18,1680.8498765318948,2,30,0.550297200679779,3.8888325691223145,30.944771690439165,30.6788533100463,123.07716905414024,112.31812276780758,3.237724376958795e-05,0.0859051570296287,0,0,0
10427,352226.4866722276,2010-09-04 15:20:48,1710.865069683673,2,30,0.5501165986061096,3.889803886413574,30.94935833759956,30.6788533100463,123.09500736976344,112.31812276780758,3.237724376958795e-05,0.0859051570296287,0,0,0
10428,352256.5018248583,2010-09-04 15:21:18,1740.8802223144608,2,30,0.5501165986061096,3.890775203704834,30.953944956845167,30.6788533100463,123.1128503657077,112.31812276780758,0.0,0.0859051570296287,0,0,0
10429,352286.5169895241,2010-09-04 15:21:48,1770.8953870053056,2,30,0.5501165986061096,3.891908407211304,30.95853152006844,30.6788533100463,123.13069804165976,112.31812276780758,6.47544875391759e-05,0.0859051570296287,0,0,0
10430,352316.5321880392,2010-09-04 15:22:18,1800.9105855204507,2,30,0.5501165986061096,3.892879724502564,30.963118069516547,30.6788533100463,123.14855049784398,112.31812276780758,3.237724376958795e-05,0.0859051570296287,0,0,0
10431,352346.5473680332,2010-09-04 15:22:48,1830.9257654893736,2,30,0.5501165986061096,3.894012928009033,30.96770462992303,30.6788533100463,123.1664078930114,112.31812276780758,3.237724376958795e-05,0.0859051570296287,0,0,0
10432,352376.562574824,2010-09-04 15:23:18,1860.9409722901696,2,30,0.5501165986061096,3.894822359085083,30.972291182934427,30.6788533100463,123.18427010554694,112.31812276780758,0.0,0.0859051570296287,0,0,0
10433,352406.5777117557,2010-09-04 15:23:48,1890.95610920178,2,30,0.5501165986061096,3.8959555625915527,30.976877658614573,30.6788533100463,123.20213634850452,112.31812276780758,0.0,0.0859051570296287,0,0,0
10434,352436.5928864314,2010-09-04 15:24:18,1920.9712838925475,2,30,0.550297200679779,3.897250652313232,30.981464253403765,30.6788533100463,123.22000827284414,112.31812276780758,3.237724376958795e-05,0.0859051570296287,0,0,0
10435,352466.6080924352,2010-09-04 15:24:48,1950.98648988132,2,30,0.5501165986061096,3.898060083389282,30.98605075754028,30.6788533100463,123.23788475744573,112.31812276780758,0.0,0.0859051570296287,0,0,0
10436,352496.62326927634,2010-09-04 15:25:18,1981.0016667374844,2,30,0.5501165986061096,3.899193286895752,30.99063729704531,30.6788533100463,123.25576643603108,112.31812276780758,0.0,0.0859051570296287,0,0,0
10437,352526.6384308043,2010-09-04 15:25:48,2011.0168282504087,2,30,0.5501165986061096,3.900488376617432,30.995223847567875,30.6788533100463,123.27365313655612,112.31812276780758,3.237724376958795e-05,0.0859051570296287,0,0,0
10438,352556.65359401144,2010-09-04 15:26:18,2041.0319914725933,2,30,0.5501165986061096,3.9012978076934814,30.99981043600593,30.6788533100463,123.29154507705256,112.31812276780758,0.0,0.0859051570296287,0,0,0
10439,352586.6693656851,2010-09-04 15:26:48,2071.0477631412136,2,30,0.550297200679779,3.902592897415161,31.00439710709304,30.6788533100463,123.30944245909602,112.31812276780758,3.237724376958795e-05,0.0859051570296287,0,0,0
10440,352616.67114422855,2010-09-04 15:27:18,2101.04954168466,2,30,0.5499359965324402,3.903726100921631,31.00898162413791,30.6788533100463,123.32733659608462,112.31812276780758,3.237724376958795e-05,0.0859051570296287,0,0,0
10441,352646.6835472865,2010-09-04 15:27:49,2131.0619447426666,2,30,0.5501165986061096,3.9048593044281006,31.01356774771491,30.6788533100463,123.34524227331516,112.31812276780758,3.237724376958795e-05,0.0859051570296287,0,0,0
10442,352676.698952988,2010-09-04 15:28:19,2161.0773504491967,2,30,0.5501165986061096,3.9059925079345694,31.018154358229378,30.6788533100463,123.36315498842951,112.31812276780758,3.237724376958795e-05,0.0859051570296287,0,0,0
10443,352706.713988492,2010-09-04 15:28:49,2191.092385948055,2,30,0.5499359965324402,3.90712571144104,31.022740882365103,30.6788533100463,123.38107276760444,112.31812276780758,3.237724376958795e-05,0.0859051570296287,0,0,0
10444,352736.7290641158,2010-09-04 15:29:19,2221.107461571918,2,30,0.5501165986061096,3.90842080116272,31.027326673337456,30.6788533100463,123.39899293520789,112.31812276780758,6.47544875391759e-05,0.0859051570296287,0,0,0
10445,352766.74420058634,2010-09-04 15:29:49,2251.1225980674917,2,30,0.5499359965324402,3.9095540046691895,31.031912349800372,30.6788533100463,123.41691813071284,112.31812276780758,3.237724376958795e-05,0.0859051570296287,0,0,0
10446,352796.7594009661,2010-09-04 15:30:19,2281.137798427234,2,30,0.5501165986061096,3.910687208175659,31.03649884824785,30.6788533100463,123.43485215579184,112.31812276780758,0.0,0.0859051570296287,0,0,0
10447,352826.7745804789,2010-09-04 15:30:49,2311.152977935007,2,30,0.5501165986061096,3.911982297897339,31.04108531649153,30.6788533100463,123.45279161738443,112.31812276780758,3.237724376958795e-05,0.0859051570296287,0,0,0
10448,352856.7897810291,2010-09-04 15:31:19,2341.1681784852244,2,30,0.5501165986061096,3.9132773876190186,31.045671853276133,30.6788533100463,123.47073703270172,112.31812276780758,3.237724376958795e-05,0.0859051570296287,0,0,0
10449,352886.80494344427,2010-09-04 15:31:49,2371.183340900398,2,30,0.550297200679779,3.914572238922119,31.05025842948344,30.6788533100463,123.48868832720017,112.31812276780758,3.237724376958795e-05,0.0859051570296287,0,0,0
10450,352916.82019341266,2010-09-04 15:32:19,2401.198590873794,2,30,0.5499359965324402,3.915705442428589,31.054844966752423,30.6788533100463,123.50664523181295,112.31812276780758,3.237724376958795e-05,0.0859051570296287,0,0,0
10451,352946.83555450296,2010-09-04 15:32:49,2431.213951969138,2,30,0.5501165986061096,3.917000532150269,31.05943154320683,30.6788533100463,123.5246080181654,112.31812276780758,3.237724376958795e-05,0.0859051570296287,0,0,0
10452,352976.8506854096,2010-09-04 15:33:19,2461.2290828657574,2,30,0.550297200679779,3.918295621871948,31.064018065147,30.6788533100463,123.54257654464026,112.31812276780758,3.237724376958795e-05,0.0859051570296287,0,0,0
10453,353006.8657935595,2010-09-04 15:33:49,2491.2441910206976,2,30,0.550297200679779,3.919752597808838,31.068604606173327,30.6788533100463,123.5605510905597,112.31812276780758,6.47544875391759e-05,0.0859051570296287,0,0,0
10454,353036.8808337401,2010-09-04 15:34:19,2521.259231196212,2,30,0.5497553944587708,3.9207239151000977,31.07319113091693,30.6788533100463,123.57853155837527,112.31812276780758,0.0,0.0859051570296287,0,0,0
10455,353066.89603623014,2010-09-04 15:34:49,2551.2744336862643,2,30,0.5499359965324402,3.9221808910369873,31.0777776387349,30.6788533100463,123.59651799551756,112.31812276780758,3.237724376958795e-05,0.0859051570296287,0,0,0
10456,353096.91119803884,2010-09-04 15:35:19,2581.2895954999385,2,30,0.550297200679779,3.923637866973877,31.082364170426555,30.6788533100463,123.6145106624886,112.31812276780758,3.237724376958795e-05,0.0859051570296287,0,0,0
10457,353126.9263554114,2010-09-04 15:35:49,2611.3047528675315,2,30,0.5501165986061096,3.9249329566955566,31.08695071078515,30.6788533100463,123.63250953297911,112.31812276780758,3.237724376958795e-05,0.0859051570296287,0,0,0
10458,353156.941556518,2010-09-04 15:36:19,2641.319953974136,2,30,0.5501165986061096,3.9263899326324463,31.091537192633748,30.6788533100463,123.65051432203036,112.31812276780758,6.47544875391759e-05,0.0859051570296287,0,0,0
10459,353186.956742151,2010-09-04 15:36:49,2671.33513963725,2,30,0.5499359965324402,3.927523136138916,31.09612370967288,30.6788533100463,123.66852550179168,112.31812276780758,0.0,0.0859051570296287,0,0,0
10460,353216.9719058895,2010-09-04 15:37:19,2701.3503033456464,2,30,0.5501165986061096,3.9289801120758057,31.100710273253508,30.6788533100463,123.68654319095748,112.31812276780758,0.0,0.0859051570296287,0,0,0
10461,353246.98706842,2010-09-04 15:37:49,2731.365465866081,2,30,0.5499359965324402,3.9304370880126953,31.10529678738845,30.6788533100463,123.70456710260063,112.31812276780758,0.0,0.0859051570296287,0,0,0
10462,353277.00226517074,2010-09-04 15:38:19,2761.3806626268547,2,30,0.5501165986061096,3.931894063949585,31.10988331941705,30.6788533100463,123.72259749156568,112.31812276780758,9.713172767078504e-05,0.0859051570296287,0,0,0
10463,353307.0174239168,2010-09-04 15:38:49,2791.395821372884,2,30,0.5501165986061096,3.9333510398864746,31.114469857291272,30.6788533100463,123.74063440841962,112.31812276780758,6.47544875391759e-05,0.0859051570296287,0,0,0
10464,353337.03260964,2010-09-04 15:39:19,2821.4110070961474,2,30,0.5501165986061096,3.9346461296081534,31.119056460001183,30.6788533100463,123.75867813158882,112.31812276780758,3.237724376958795e-05,0.0859051570296287,0,0,0
10465,353367.0478412176,2010-09-04 15:39:49,2851.426238688732,2,30,0.550297200679779,3.936264991760254,31.12364310705986,30.6788533100463,123.77672870609678,112.31812276780758,3.237724376958795e-05,0.0859051570296287,0,0,0
10466,353397.062959593,2010-09-04 15:40:19,2881.441357059132,2,30,0.5501165986061096,3.9375600814819336,31.128229690032555,30.6788533100463,123.7947855031684,112.31812276780758,3.237724376958795e-05,0.0859051570296287,0,0,0
10467,353427.07812666474,2010-09-04 15:40:49,2911.4565241208857,2,30,0.5501165986061096,3.9390170574188232,31.13281623879209,30.6788533100463,123.81284899072294,112.31812276780758,3.237724376958795e-05,0.0859051570296287,0,0,0
10468,353457.0933259669,2010-09-04 15:41:19,2941.4717234229925,2,30,0.5499359965324402,3.940474033355713,31.13740280112731,30.6788533100463,123.83091929250126,112.31812276780758,6.47544875391759e-05,0.0859051570296287,0,0,0
10469,353487.10848625674,2010-09-04 15:41:49,2971.486883702844,2,30,0.5501165986061096,3.942092895507813,31.14198937688959,30.6788533100463,123.84899637367349,112.31812276780758,6.47544875391759e-05,0.0859051570296287,0,0,0
10470,353517.1236840551,2010-09-04 15:42:19,3001.502081511228,2,30,0.5501165986061096,3.943549871444702,31.146575919202437,30.6788533100463,123.86708016761662,112.31812276780758,3.237724376958795e-05,0.0859051570296287,0,0,0
10471,353547.13883723225,2010-09-04 15:42:49,3031.517234688377,2,30,0.5501165986061096,3.9451687335968018,31.151162486956927,30.6788533100463,123.88517096018572,112.31812276780758,6.47544875391759e-05,0.0859051570296287,0,0,0
10472,353577.1540531107,2010-09-04 15:43:19,3061.53245059186,2,30,0.550297200679779,3.9466257095336914,31.15574909327831,30.6788533100463,123.9032688658525,112.31812276780758,3.237724376958795e-05,0.0859051570296287,0,0,0
10473,353607.16919222777,2010-09-04 15:43:49,3091.5475896839043,2,30,0.5501165986061096,3.948082685470581,31.16033564773721,30.6788533100463,123.92137345060944,112.31812276780758,3.237724376958795e-05,0.0859051570296287,0,0,0
10474,353637.1843714148,2010-09-04 15:44:19,3121.5627688708782,2,30,0.5501165986061096,3.9497015476226807,31.16492218772937,30.6788533100463,123.93948512749375,112.31812276780758,6.47544875391759e-05,0.0859051570296287,0,0,0
10475,353667.1996738088,2010-09-04 15:44:49,3151.578071294997,2,30,0.5501165986061096,3.95132040977478,31.169508766340247,30.6788533100463,123.95760414991506,112.31812276780758,3.237724376958795e-05,0.0859051570296287,0,0,0
10476,353697.21474166826,2010-09-04 15:45:19,3181.593139124433,2,30,0.550297200679779,3.95310115814209,31.17409533496927,30.6788533100463,123.97573033228971,112.31812276780758,9.713172767078504e-05,0.0859051570296287,0,0,0
10477,353727.2299065095,2010-09-04 15:45:49,3211.608303965653,2,30,0.5499359965324402,3.9543962478637695,31.17868189049265,30.6788533100463,123.9938637515554,112.31812276780758,3.237724376958795e-05,0.0859051570296287,0,0,0
10478,353757.2450793557,2010-09-04 15:46:19,3241.623476811824,2,30,0.5501165986061096,3.955853223800659,31.18326849050327,30.6788533100463,124.01200470636672,112.31812276780758,0.0,0.0859051570296287,0,0,0
10479,353787.26027858263,2010-09-04 15:46:49,3271.6386760387427,2,30,0.5501165986061096,3.9577958583831783,31.18785508736484,30.6788533100463,124.03015307706512,112.31812276780758,6.47544875391759e-05,0.0859051570296287,0,0,0
10480,353817.27557103685,2010-09-04 15:47:19,3301.653968588251,2,30,0.5501165986061096,3.9594147205352783,31.19244165055209,30.6788533100463,124.04830890575673,112.31812276780758,6.47544875391759e-05,0.0859051570296287,0,0,0
10481,353847.2906155232,2010-09-04 15:47:49,3331.669012979271,2,30,0.550297200679779,3.961033582687378,31.197028129914777,30.6788533100463,124.06647206773876,112.31812276780758,6.47544875391759e-05,0.0859051570296287,0,0,0
10482,353877.3057954219,2010-09-04 15:48:19,3361.684192878019,2,30,0.5499359965324402,3.9626524448394775,31.20161468845977,30.6788533100463,124.08464329586404,112.31812276780758,3.237724376958795e-05,0.0859051570296287,0,0,0
10483,353907.32109188114,2010-09-04 15:48:49,3391.699489337272,2,30,0.5501165986061096,3.964433193206787,31.206201280714883,30.6788533100463,124.10282253323224,112.31812276780758,6.47544875391759e-05,0.0859051570296287,0,0,0
10484,353937.336355674,2010-09-04 15:49:19,3421.714753130109,2,30,0.5499359965324402,3.966052055358887,31.210787841773843,30.6788533100463,124.12100960145628,112.31812276780758,0.0,0.0859051570296287,0,0,0
10485,353967.3513287623,2010-09-04 15:49:49,3451.729726218421,2,30,0.5501165986061096,3.9679946899414062,31.215374430490023,30.6788533100463,124.1392048940933,112.31812276780758,6.47544875391759e-05,0.0859051570296287,0,0,0
10486,353997.36652360327,2010-09-04 15:50:19,3481.744921059409,2,30,0.5501165986061096,3.969775438308716,31.21996099432564,30.6788533100463,124.15740826704182,112.31812276780758,6.47544875391759e-05,0.0859051570296287,0,0,0
10487,354027.3817024093,2010-09-04 15:50:49,3511.760099865434,2,30,0.5499359965324402,3.9715561866760254,31.22454758759841,30.6788533100463,124.17562006240304,112.31812276780758,6.47544875391759e-05,0.0859051570296287,0,0,0
10488,354057.39695685386,2010-09-04 15:51:19,3541.7753543951853,2,30,0.5501165986061096,3.973498821258545,31.229134253068853,30.6788533100463,124.1938406344137,112.31812276780758,0.0,0.0859051570296287,0,0,0
10489,354087.41204016184,2010-09-04 15:51:49,3571.7904376179863,2,30,0.550297200679779,3.975441455841065,31.233720852744007,30.6788533100463,124.21206946171974,112.31812276780758,6.47544875391759e-05,0.0859051570296287,0,0,0
10490,354117.42721964454,2010-09-04 15:52:19,3601.805617100697,2,30,0.5501165986061096,3.977222204208374,31.23830743291954,30.6788533100463,124.23030688513585,112.31812276780758,6.47544875391759e-05,0.0859051570296287,0,0,0
10491,354147.4425192868,2010-09-04 15:52:49,3631.820916752907,2,30,0.550297200679779,3.979002952575684,31.24289406614608,30.6788533100463,124.24855281145348,112.31812276780758,3.237724376958795e-05,0.0859051570296287,0,0,0
10492,354177.45758110617,2010-09-04 15:53:19,3661.83597856234,2,30,0.550297200679779,3.981107473373413,31.24748063515266,30.6788533100463,124.26680779484984,112.31812276780758,6.47544875391759e-05,0.0859051570296287,0,0,0
10493,354207.4727723933,2010-09-04 15:53:49,3691.8511698745338,2,30,0.5499359965324402,3.9830501079559326,31.252067137343957,30.6788533100463,124.28507146656275,112.31812276780758,6.47544875391759e-05,0.0859051570296287,0,0,0
10494,354237.48792282364,2010-09-04 15:54:19,3721.8663202797743,2,30,0.5499359965324402,3.984830856323242,31.25665364093281,30.6788533100463,124.30334404206532,112.31812276780758,3.237724376958795e-05,0.0859051570296287,0,0,0
10495,354267.50310018106,2010-09-04 15:54:49,3751.881497637188,2,30,0.5501165986061096,3.9870972633361816,31.261240204262656,30.6788533100463,124.32162592021685,112.31812276780758,6.47544875391759e-05,0.0859051570296287,0,0,0
10496,354297.5183255481,2010-09-04 15:55:19,3781.8967230042567,2,30,0.5499359965324402,3.989039897918701,31.26582677592026,30.6788533100463,124.33991686527614,112.31812276780758,6.47544875391759e-05,0.0859051570296287,0,0,0
10497,354327.53348589817,2010-09-04 15:55:49,3811.911883359295,2,30,0.550297200679779,3.9909825325012207,31.27041331551416,30.6788533100463,124.3582168488484,112.31812276780758,6.47544875391759e-05,0.0859051570296287,0,0,0
10498,354357.5486785888,2010-09-04 15:56:19,3841.9270760549366,2,30,0.5501165986061096,3.99292516708374,31.274999918783365,30.6788533100463,124.37652635347592,112.31812276780758,6.47544875391759e-05,0.0859051570296287,0,0,0
10499,354387.5638165831,2010-09-04 15:56:49,3871.9422140442334,2,30,0.5499359965324402,3.9948675632476807,31.27958648053804,30.6788533100463,124.39484492800317,112.31812276780758,3.237724376958795e-05,0.0859051570296287,0,0,0
10500,354417.57902545907,2010-09-04 15:57:19,3901.957422915189,2,30,0.5501165986061096,3.99697208404541,31.284173034692746,30.6788533100463,124.41317286846916,112.31812276780758,6.47544875391759e-05,0.0859051570296287,0,0,0
10501,354447.59417335805,2010-09-04 15:57:49,3931.9725708091705,2,30,0.5501165986061096,3.9992384910583496,31.28875969097147,30.6788533100463,124.43151060296374,112.31812276780758,0.0001295089750783,0.0859051570296287,0,0,0
10502,354477.60935394856,2010-09-04 15:58:19,3961.987751394629,2,30,0.5501165986061096,4.001181125640869,31.293346249905586,30.6788533100463,124.4498574400248,112.31812276780758,3.23295607813634e-05,0.0859051570296287,0,0,0
10503,354507.6245282233,2010-09-04 15:58:49,3992.0029256693606,2,30,0.5501165986061096,4.003285884857178,31.29793276386983,30.6788533100463,124.46821369932856,112.31812276780758,6.47544875391759e-05,0.0859051570296287,0,0,0
10504,354537.64253374434,2010-09-04 15:59:19,4022.020931205466,2,30,0.5501165986061096,4.005390167236328,31.30251973956475,30.6788533100463,124.486581405338,112.31812276780758,6.47544875391759e-05,0.0859051570296287,0,0,0
10505,354567.6548994994,2010-09-04 15:59:50,4052.0332969554897,2,30,0.5501165986061096,4.007494926452637,31.3071058130126,30.6788533100463,124.50495525904974,112.31812276780758,6.47544875391759e-05,0.0859051570296287,0,0,0
10506,354597.670507876,2010-09-04 16:00:20,4082.048905347173,2,30,0.5497553944587708,4.009437561035156,31.311692468666266,30.6788533100463,124.523341225456,112.31812276780758,0.0,0.0859051570296287,0,0,0
10507,354627.6855445728,2010-09-04 16:00:50,4112.063942039005,2,30,0.5501165986061096,4.011865615844727,31.31627898117658,30.6788533100463,124.54173651939335,112.31812276780758,6.47544875391759e-05,0.0859051570296287,0,0,0
10508,354657.7004454061,2010-09-04 16:01:20,4142.07884286221,2,30,0.5501165986061096,4.013970375061035,31.32086542775071,30.6788533100463,124.56014160532416,112.31812276780758,3.24249267578125e-05,0.0859051570296287,0,0,0
10509,354687.715587245,2010-09-04 16:01:50,4172.093984701101,2,30,0.5499359965324402,4.016236782073975,31.325452044620864,30.6788533100463,124.5785574923804,112.31812276780758,3.24249267578125e-05,0.0859051570296287,0,0,0
10510,354717.7308357347,2010-09-04 16:02:20,4202.109233210848,2,30,0.550297200679779,4.018503189086914,31.330038731187088,30.6788533100463,124.59698388583412,112.31812276780758,6.47544875391759e-05,0.0859051570296287,0,0,0
10511,354747.7459286115,2010-09-04 16:02:50,4232.124326067661,2,30,0.5501165986061096,4.0207695960998535,31.3346253382852,30.6788533100463,124.6154201441271,112.31812276780758,6.47544875391759e-05,0.0859051570296287,0,0,0
10512,354777.76121008344,2010-09-04 16:03:20,4262.1396075896855,2,30,0.5501165986061096,4.023197650909424,31.339211974778955,30.6788533100463,124.6338670001027,112.31812276780758,6.47544875391759e-05,0.0859051570296287,0,0,0
10513,354807.7762868652,2010-09-04 16:03:50,4292.154684321308,2,30,0.5497553944587708,4.025140285491943,31.34379860142457,30.6788533100463,124.65232429912918,112.31812276780758,6.47544875391759e-05,0.0859051570296287,0,0,0
10514,354837.7915681316,2010-09-04 16:04:20,4322.169965627795,2,30,0.5501165986061096,4.027730464935303,31.348385205620712,30.6788533100463,124.67079208964353,112.31812276780758,6.47544875391759e-05,0.0859051570296287,0,0,0
10515,354867.8069346204,2010-09-04 16:04:50,4352.185332091521,2,30,0.5501165986061096,4.029996871948242,31.35297190154317,30.6788533100463,124.68927098013232,112.31812276780758,6.47544875391759e-05,0.0859051570296287,0,0,0
10516,354897.82216100994,2010-09-04 16:05:20,4382.2005585513125,2,30,0.5501165986061096,4.032425403594971,31.357558522459943,30.6788533100463,124.70776038623984,112.31812276780758,6.47544875391759e-05,0.0859051570296287,0,0,0
10517,354927.8370151819,2010-09-04 16:05:50,4412.215412628012,2,30,0.550297200679779,4.034853458404541,31.36214506911612,30.6788533100463,124.72626046621312,112.31812276780758,6.47544875391759e-05,0.0859051570296287,0,0,0
10518,354957.8522116219,2010-09-04 16:06:20,4442.230609083022,2,30,0.5501165986061096,4.0371198654174805,31.366731686044417,30.6788533100463,124.74477184601552,112.31812276780758,6.47544875391759e-05,0.0859051570296287,0,0,0
10519,354987.8673646186,2010-09-04 16:06:50,4472.245762064684,2,30,0.5499359965324402,4.039547920227051,31.37131829498284,30.6788533100463,124.76329438800047,112.31812276780758,6.47544875391759e-05,0.0859051570296287,0,0,0
10520,355017.88265394,2010-09-04 16:07:20,4502.261051386146,2,30,0.5501165986061096,4.04213809967041,31.375904905438592,30.6788533100463,124.78182812709146,112.31812276780758,9.70840483205393e-05,0.0859051570296287,0,0,0
10521,355047.8977684458,2010-09-04 16:07:50,4532.276165901941,2,30,0.550297200679779,4.044890403747559,31.38049149618868,30.6788533100463,124.80037320928258,112.31812276780758,0.0001295089750783,0.0859051570296287,0,0,0
10522,355077.91292377334,2010-09-04 16:08:20,4562.291321229449,2,30,0.550297200679779,4.046994686126709,31.38507806845296,30.6788533100463,124.8189297189479,112.31812276780758,3.23295607813634e-05,0.0859051570296287,0,0,0
10523,355107.92820838804,2010-09-04 16:08:50,4592.306605849193,2,30,0.5499359965324402,4.049584865570068,31.389664699205003,30.6788533100463,124.83749813559238,112.31812276780758,6.47544875391759e-05,0.0859051570296287,0,0,0
10524,355137.9433449588,2010-09-04 16:09:20,4622.321742445018,2,30,0.550297200679779,4.052175045013428,31.39425131528906,30.6788533100463,124.85607811463146,112.31812276780758,6.47544875391759e-05,0.0859051570296287,0,0,0
10525,355167.958431134,2010-09-04 16:09:50,4652.3368285901015,2,30,0.5499359965324402,4.054765224456787,31.39883789296237,30.6788533100463,124.87466975527536,112.31812276780758,6.47544875391759e-05,0.0859051570296287,0,0,0
10526,355197.9736338847,2010-09-04 16:10:20,4682.352031330778,2,30,0.5501165986061096,4.057517528533936,31.403424539496616,30.6788533100463,124.89327359713876,112.31812276780758,9.71794142969884e-05,0.0859051570296287,0,0,0
10527,355227.98875833023,2010-09-04 16:10:50,4712.367155811407,2,30,0.5499359965324402,4.060107707977295,31.408011120820465,30.6788533100463,124.91188918466098,112.31812276780758,6.47544875391759e-05,0.0859051570296287,0,0,0
10528,355258.004104338,2010-09-04 16:11:20,4742.382501804112,2,30,0.5501165986061096,4.062535762786865,31.4125977187506,30.6788533100463,124.93051663359212,112.31812276780758,3.23295607813634e-05,0.0859051570296287,0,0,0
10529,355288.0191903778,2010-09-04 16:11:50,4772.39758783391,2,30,0.5501165986061096,4.065288066864014,31.41718420893238,30.6788533100463,124.9491559170904,112.31812276780758,6.47544875391759e-05,0.0859051570296287,0,0,0
10530,355318.03435698844,2010-09-04 16:12:20,4802.412754444538,2,30,0.550297200679779,4.068202018737793,31.421770808912942,30.6788533100463,124.96780805843494,112.31812276780758,9.71794142969884e-05,0.0859051570296287,0,0,0
10531,355348.0495249324,2010-09-04 16:12:50,4832.427922378466,2,30,0.5497553944587708,4.070630073547363,31.426357368971637,30.6788533100463,124.98647259367948,112.31812276780758,0.0,0.0859051570296287,0,0,0
10532,355378.0647482243,2010-09-04 16:13:20,4862.443145770613,2,30,0.5501165986061096,4.073544025421143,31.43094400283081,30.6788533100463,125.00515002638836,112.31812276780758,0.0001295089750783,0.0859051570296287,0,0,0
10533,355408.07987422874,2010-09-04 16:13:50,4892.458271679802,2,30,0.5501165986061096,4.076296329498291,31.435530925796595,30.6788533100463,125.02384144071772,112.31812276780758,6.47544875391759e-05,0.0859051570296287,0,0,0
10534,355438.095067972,2010-09-04 16:14:20,4922.47346543308,2,30,0.550297200679779,4.07921028137207,31.440118299502984,30.6788533100463,125.04254756623538,112.31812276780758,6.47544875391759e-05,0.0859051570296287,0,0,0
10535,355468.1102548982,2010-09-04 16:14:50,4952.488652354329,2,30,0.550297200679779,4.0819621086120605,31.44470566398701,30.6788533100463,125.06126660799497,112.31812276780758,9.70840483205393e-05,0.0859051570296287,0,0,0
10536,355498.12542883714,2010-09-04 16:15:20,4982.503826293224,2,30,0.5501165986061096,4.084714412689209,31.449292957668064,30.6788533100463,125.07999839111716,112.31812276780758,6.47544875391759e-05,0.0859051570296287,0,0,0
10537,355528.1405860543,2010-09-04 16:15:50,5012.518983510441,2,30,0.5501165986061096,4.087628364562988,31.453880033062944,30.6788533100463,125.09874245222164,112.31812276780758,3.24249267578125e-05,0.0859051570296287,0,0,0
10538,355558.15589234803,2010-09-04 16:16:20,5042.534289819241,2,30,0.550297200679779,4.090542316436768,31.45846668277688,30.6788533100463,125.11749808663365,112.31812276780758,9.71794142969884e-05,0.0859051570296287,0,0,0
10539,355588.17110563506,2010-09-04 16:16:50,5072.549503111215,2,30,0.5501165986061096,4.093456268310547,31.46305328121676,30.6788533100463,125.13626691491962,112.31812276780758,6.47544875391759e-05,0.0859051570296287,0,0,0
10540,355618.18612911896,2010-09-04 16:17:20,5102.564526575079,2,30,0.5501165986061096,4.096370220184326,31.46763988312744,30.6788533100463,125.15504930325044,112.31812276780758,6.47544875391759e-05,0.0859051570296287,0,0,0
10541,355648.20129959425,2010-09-04 16:17:50,5132.579697075404,2,30,0.5501165986061096,4.099607944488525,31.47222653263164,30.6788533100463,125.17384550367348,112.31812276780758,9.71794142969884e-05,0.0859051570296287,0,0,0
10542,355678.21649552794,2010-09-04 16:18:20,5162.594893009115,2,30,0.5499359965324402,4.102359771728516,31.47681316516542,30.6788533100463,125.19265544774515,112.31812276780758,6.47544875391759e-05,0.0859051570296287,0,0,0
10543,355708.2316266401,2010-09-04 16:18:50,5192.610024096209,2,30,0.5501165986061096,4.105597496032715,31.481399674896785,30.6788533100463,125.21147876140786,112.31812276780758,9.70840483205393e-05,0.0859051570296287,0,0,0
10544,355738.2468171152,2010-09-04 16:19:20,5222.625214571316,2,30,0.5501165986061096,4.108511447906494,31.48598618584987,30.6788533100463,125.2303161538223,112.31812276780758,6.47544875391759e-05,0.0859051570296287,0,0,0
10545,355768.2619558714,2010-09-04 16:19:50,5252.640353327524,2,30,0.550297200679779,4.111749172210693,31.490572745699623,30.6788533100463,125.24916794207866,112.31812276780758,0.0001295089750783,0.0859051570296287,0,0,0
10546,355798.27739214915,2010-09-04 16:20:20,5282.655789600234,2,30,0.550297200679779,4.114824771881104,31.49515931108276,30.6788533100463,125.2680339822913,112.31812276780758,6.46591215627268e-05,0.0859051570296287,0,0,0
10547,355828.29262782185,2010-09-04 16:20:50,5312.671025288026,2,30,0.5501165986061096,4.117900848388672,31.499745873961302,30.6788533100463,125.2869144738107,112.31812276780758,3.24249267578125e-05,0.0859051570296287,0,0,0
10548,355858.3077887333,2010-09-04 16:21:20,5342.686186214488,2,30,0.5501165986061096,4.121300220489502,31.504332478939748,30.6788533100463,125.30580970970378,112.31812276780758,9.70840483205393e-05,0.0859051570296287,0,0,0
10549,355888.3227681073,2010-09-04 16:21:50,5372.701165588466,2,30,0.5501165986061096,4.124537944793701,31.508919002458143,30.6788533100463,125.32471927180563,112.31812276780758,9.70840483205393e-05,0.0859051570296287,0,0,0
10550,355918.3379195752,2010-09-04 16:22:20,5402.716317031293,2,30,0.550297200679779,4.1277756690979,31.51350562489881,30.6788533100463,125.34364409147102,112.31812276780758,9.70840483205393e-05,0.0859051570296287,0,0,0
10551,355948.35309343383,2010-09-04 16:22:50,5432.731490910038,2,30,0.550297200679779,4.1310133934021,31.51809219041646,30.6788533100463,125.3625836207536,112.31812276780758,9.70840483205393e-05,0.0859051570296287,0,0,0
10552,355978.36828320223,2010-09-04 16:23:20,5462.746680658333,2,30,0.5501165986061096,4.134413242340088,31.522678824056836,30.6788533100463,125.38153856635056,112.31812276780758,0.0001295089750783,0.0859051570296287,0,0,0
10553,356008.3834578529,2010-09-04 16:23:50,5492.761855319026,2,30,0.5501165986061096,4.137650966644287,31.5272654260933,30.6788533100463,125.40050857508076,112.31812276780758,9.71794142969884e-05,0.0859051570296287,0,0,0
10554,356038.39881111373,2010-09-04 16:24:20,5522.777208670071,2,30,0.5501165986061096,4.141050338745117,31.531852014744132,30.6788533100463,125.41949393918958,112.31812276780758,0.0001295089750783,0.0859051570296287,0,0,0
10555,356068.4139407021,2010-09-04 16:24:50,5552.792338173216,2,30,0.550297200679779,4.144611835479736,31.536438594625,30.6788533100463,125.43849473677476,112.31812276780758,0.0001618385285837,0.0859051570296287,0,0,0
10556,356098.429008346,2010-09-04 16:25:20,5582.807405827216,2,30,0.5501165986061096,4.148011684417725,31.541025070288917,30.6788533100463,125.45751105686732,112.31812276780758,0.0001295089750783,0.0859051570296287,0,0,0
10557,356128.4441691522,2010-09-04 16:25:50,5612.822566608316,2,30,0.5501165986061096,4.151411056518555,31.545611564490446,30.6788533100463,125.47654319431037,112.31812276780758,9.70840483205393e-05,0.0859051570296287,0,0,0
10558,356158.4593390109,2010-09-04 16:26:20,5642.837736472054,2,30,0.5501165986061096,4.154810905456543,31.55019817708705,30.6788533100463,125.49559171473577,112.31812276780758,0.0001619339018361,0.0859051570296287,0,0,0
10559,356188.47451998235,2010-09-04 16:26:50,5672.852917443474,2,30,0.5501165986061096,4.158372402191162,31.554784682614056,30.6788533100463,125.5146557650187,112.31812276780758,9.71794142969884e-05,0.0859051570296287,0,0,0
10560,356218.48971054266,2010-09-04 16:27:20,5702.868108003794,2,30,0.5501165986061096,4.161771774291992,31.559371199216088,30.6788533100463,125.5337360005254,112.31812276780758,6.47544875391759e-05,0.0859051570296287,0,0,0
10561,356248.5048797648,2010-09-04 16:27:50,5732.883277225932,2,30,0.5499359965324402,4.165333271026611,31.563957718075876,30.6788533100463,125.55283244880272,112.31812276780758,6.47544875391759e-05,0.0859051570296287,0,0,0
10562,356278.5200736584,2010-09-04 16:28:20,5762.898471114547,2,30,0.5499359965324402,4.16905689239502,31.568544215249624,30.6788533100463,125.57194523225398,112.31812276780758,0.0001295089750783,0.0859051570296287,0,0,0
10563,356308.535264304,2010-09-04 16:28:50,5792.913661760079,2,30,0.5501165986061096,4.1727800369262695,31.57313075314612,30.6788533100463,125.59107471312994,112.31812276780758,0.0001295089750783,0.0859051570296287,0,0,0
10564,356338.55042207753,2010-09-04 16:29:20,5822.928819533684,2,30,0.5501165986061096,4.176341533660889,31.577717255067085,30.6788533100463,125.61022075704028,112.31812276780758,0.0001295089750783,0.0859051570296287,0,0,0
10565,356368.56558632234,2010-09-04 16:29:50,5852.943983788442,2,30,0.5499359965324402,4.179903030395508,31.582303777607336,30.6788533100463,125.62938368723631,112.31812276780758,6.47544875391759e-05,0.0859051570296287,0,0,0
10566,356398.5807582211,2010-09-04 16:30:20,5882.959155687251,2,30,0.5501165986061096,4.183788299560547,31.58689026115703,30.6788533100463,125.64856339319115,112.31812276780758,0.0001295089750783,0.0859051570296287,0,0,0
10567,356428.59593424515,2010-09-04 16:30:50,5912.974331706329,2,30,0.5501165986061096,4.187511920928955,31.591476785410297,30.6788533100463,125.6677603458108,112.31812276780758,0.0001295089750783,0.0859051570296287,0,0,0
10568,356458.61172278586,2010-09-04 16:31:20,5942.990120272063,2,30,0.5501165986061096,4.191235065460205,31.59606335207813,30.6788533100463,125.68697473029113,112.31812276780758,0.0001295089750783,0.0859051570296287,0,0,0
10569,356488.6136523908,2010-09-04 16:31:50,5972.992049856952,2,30,0.5501165986061096,4.194958209991455,31.60064781205776,30.6788533100463,125.70619767290329,112.31812276780758,9.70840483205393e-05,0.0859051570296287,0,0,0
10570,356518.6258932897,2010-09-04 16:32:21,6003.004290770845,2,30,0.550297200679779,4.199005603790283,31.6052338713882,30.6788533100463,125.72544478581064,112.31812276780758,0.0001619339018361,0.0859051570296287,0,0,0
10571,356526.4382315654,2010-09-04 16:32:28,6010.816629011536,2,30,0.550297200679779,4.200138568878174,31.60642763011499,30.6788533100463,125.73045774912832,112.31812276780758,0.0001618385285837,0.0859051570296287,0,0,0
10572,356556.4490187779,2010-09-04 16:32:58,30.015478342561465,3,30,0.0,4.119357585906982,31.60642763011499,30.6788533100463,125.73045774912832,112.31812276780758,-0.0003885269106831,0.0859051570296287,0,0,0
10573,356586.46404125926,2010-09-04 16:33:28,60.03050079891422,3,30,0.0,4.109158992767334,31.60642763011499,30.6788533100463,125.73045774912832,112.31812276780758,-0.0001942634553415,0.0859051570296287,0,0,0
10574,356616.4790499413,2010-09-04 16:33:58,90.04550947592462,3,30,0.0,4.1031694412231445,31.60642763011499,30.6788533100463,125.73045774912832,112.31812276780758,-0.0001295089750783,0.0859051570296287,0,0,0
10575,356646.44780745613,2010-09-04 16:34:28,120.01426703592028,3,30,0.0,4.0992841720581055,31.60642763011499,30.6788533100463,125.73045774912832,112.31812276780758,-9.70840483205393e-05,0.0859051570296287,0,0,0
10576,356646.46007519204,2010-09-04 16:34:29,2.681683581e-06,4,30,1.0056132078170776,4.199814796447754,31.606427630864083,30.6788533100463,125.7304577522744,112.31812276780758,0.0,0.0859051570296287,0,0,0
10577,356647.31943842466,2010-09-04 16:34:29,0.859365899241186,4,30,0.9555844664573668,4.199653148651123,31.60666024306129,30.6788533100463,125.73143465210528,112.31812276780758,-3.23295607813634e-05,0.0859051570296287,0,0,0
10578,356649.36986589583,2010-09-04 16:34:31,2.90979340047503,4,30,0.905375063419342,4.199814796447754,31.60718910610391,30.6788533100463,125.73365572528282,112.31812276780758,0.0,0.0859051570296287,0,0,0
10579,356652.44435322925,2010-09-04 16:34:35,5.984280718868565,4,30,0.8551656603813171,4.199653148651123,31.60793981719975,30.6788533100463,125.73680850064076,112.31812276780758,-3.23295607813634e-05,0.0859051570296287,0,0,0
10580,356656.60062264645,2010-09-04 16:34:39,10.140550111045991,4,30,0.8047757148742676,4.199814796447754,31.608896973997545,30.6788533100463,125.74082828565057,112.31812276780758,0.0,0.0859051570296287,0,0,0
10581,356661.9129752237,2010-09-04 16:34:44,15.45290272833832,4,30,0.7547469139099121,4.199653148651123,31.61004640019008,30.6788533100463,125.7456555528999,112.31812276780758,-3.23295607813634e-05,0.0859051570296287,0,0,0
10582,356668.75663230784,2010-09-04 16:34:51,22.29655980250779,4,30,0.704537570476532,4.199814796447754,31.61143160677509,30.6788533100463,125.75147306272808,112.31812276780758,3.23295607813634e-05,0.0859051570296287,0,0,0
10583,356677.6939821937,2010-09-04 16:35:00,31.23390966832721,4,30,0.6545087695121765,4.199653148651123,31.613115567115862,30.6788533100463,125.75854522877805,112.31812276780758,-3.23295607813634e-05,0.0859051570296287,0,0,0
10584,356689.81880073727,2010-09-04 16:35:12,43.358728236913535,4,30,0.6044800281524658,4.199653148651123,31.61523093638356,30.6788533100463,125.76742921609588,112.31812276780758,-3.23295607813634e-05,0.0859051570296287,0,0,0
10585,356707.4749068614,2010-09-04 16:35:30,61.01483434598538,4,30,0.5544512271881104,4.199653148651123,31.618064848678756,30.6788533100463,125.7793309292104,112.31812276780758,-3.23295607813634e-05,0.0859051570296287,0,0,0
10586,356735.4745805836,2010-09-04 16:35:58,89.01450805816035,4,30,0.5044224858283997,4.199491024017334,31.622169265425928,30.6788533100463,125.79656837593662,112.31812276780758,-3.24249267578125e-05,0.0859051570296287,0,0,0
10587,356785.2705149437,2010-09-04 16:36:47,138.81044241841204,4,30,0.4543936848640442,4.199653148651123,31.62877307468138,30.6788533100463,125.82430258856428,112.31812276780758,-3.23295607813634e-05,0.0859051570296287,0,0,0
10588,356865.1130952108,2010-09-04 16:38:07,218.6530227104476,4,30,0.4041843116283417,4.199653148651123,31.63826486310407,30.6788533100463,125.86416558348364,112.31812276780758,0.0,0.0859051570296287,0,0,0
10589,356972.04920502985,2010-09-04 16:39:54,325.5891325044727,4,30,0.3541555404663086,4.199653148651123,31.64951445261553,30.6788533100463,125.91141094080446,112.31812276780758,-3.23295607813634e-05,0.0859051570296287,0,0,0
10590,357102.2032866286,2010-09-04 16:42:04,455.7432141182639,4,30,0.3041267693042755,4.199491024017334,31.66140065005221,30.6788533100463,125.961329859095,112.31812276780758,-6.47544875391759e-05,0.0859051570296287,0,0,0
10591,357257.74785216583,2010-09-04 16:44:40,611.2877796404115,4,30,0.2540979981422424,4.199653148651123,31.673444552006377,30.6788533100463,126.01191110737648,112.31812276780758,-3.23295607813634e-05,0.0859051570296287,0,0,0
10592,357451.57312687393,2010-09-04 16:47:54,805.1130543685802,4,30,0.2040692418813705,4.199814796447754,31.68574393502548,30.6788533100463,126.06356534683016,112.31812276780758,3.23295607813634e-05,0.0859051570296287,0,0,0
10593,357701.7412496156,2010-09-04 16:52:04,1055.2811770902094,4,30,0.1538598537445068,4.199653148651123,31.698121899601944,30.6788533100463,126.11554964086052,112.31812276780758,-3.23295607813634e-05,0.0859051570296287,0,0,0
10594,358068.3295851792,2010-09-04 16:58:10,1421.86951266387,4,30,0.1038310900330543,4.199653148651123,31.71110674963492,30.6788533100463,126.17008259469426,112.31812276780758,-3.23295607813634e-05,0.0859051570296287,0,0,0
10595,358726.78863143025,2010-09-04 17:09:09,2080.3285589299485,4,30,0.0538023225963115,4.199653148651123,31.725055332608605,30.6788533100463,126.22866307051144,112.31812276780758,0.0,0.0859051570296287,0,0,0
10596,358813.4747843661,2010-09-04 17:10:36,2167.014711865727,4,30,0.0498289167881011,4.199653148651123,31.7263144315677,30.6788533100463,126.23395095607952,112.31812276780758,0.0,0.0859051570296287,0,0,0
10597,358843.4881026753,2010-09-04 17:11:06,30.01531530121225,5,30,0.0,4.192368507385254,31.7263144315677,30.6788533100463,126.23395095607952,112.31812276780758,0.0,0.0859051570296287,0,0,0
10598,358873.48761879007,2010-09-04 17:11:36,60.0148314360406,5,30,0.0,4.190911293029785,31.7263144315677,30.6788533100463,126.23395095607952,112.31812276780758,-6.47544875391759e-05,0.0859051570296287,0,0,0
10599,358873.6897097703,2010-09-04 17:11:36,0.187604277584133,6,30,-1.9243103452026844e-05,4.190911293029785,31.7263144315677,30.678853311049103,126.23395095607952,112.31812277201024,0.0,0.0914954170584678,0,0,0
10600,358878.5176070709,2010-09-04 17:11:41,5.015501593201518,6,30,0.0007031940040178,4.190911293029785,31.72631530476928,30.67885331121543,126.23395461570824,112.31812277270733,-3.24249267578125e-05,0.0914954170584678,0,0,0
10601,358908.5476041175,2010-09-04 17:12:11,30.015327005382645,7,30,-1.0997490882873535,4.021578788757324,31.72631530476928,30.68802135530729,126.23395461570824,112.35518807404708,-0.0009389877086505,0.0914954170584678,0,0,0
10602,358938.5627601217,2010-09-04 17:12:41,60.03048298952774,7,30,-1.099568486213684,3.995353221893311,31.72631530476928,30.69718922345298,126.23395461570824,112.3919280214238,-0.0005827903514727,0.0914954170584678,0,0,0
10603,358968.57782732457,2010-09-04 17:13:11,90.04555018237761,7,30,-1.099568486213684,3.977222204208374,31.72631530476928,30.70635699970245,126.23395461570824,112.42846828504442,-0.0004209041653666,0.0914954170584678,0,0,0
10604,358998.59410605195,2010-09-04 17:13:41,120.06182894483172,7,30,-1.099568486213684,3.963299989700317,31.72631530476928,30.71552505660056,126.23395461570824,112.4648647950932,-0.0002913951757363,0.0914954170584678,0,0,0
10605,359028.60817325255,2010-09-04 17:14:11,150.07589612033067,7,30,-1.099568486213684,3.9514822959899902,31.72631530476928,30.72469251387475,126.23395461570824,112.50114263759288,-0.0002913951757363,0.0914954170584678,0,0,0
10606,359058.6233517477,2010-09-04 17:14:41,180.09107460555538,7,30,-1.099568486213684,3.9412834644317623,31.72631530476928,30.733860187821605,126.23395461570824,112.53732147321016,-0.0002590179501567,0.0914954170584678,0,0,0
10607,359088.63852494484,2010-09-04 17:15:11,210.1062478126253,7,30,-1.099568486213684,3.931894063949585,31.72631530476928,30.74302797450189,126.23395461570824,112.57341009560716,-0.0001942634553415,0.0914954170584678,0,0,0
10608,359118.6536918963,2010-09-04 17:15:41,240.12141475407932,7,30,-1.099568486213684,3.922828435897827,31.72631530476928,30.752195689688687,126.23395461570824,112.60941394097622,-0.0002590179501567,0.0914954170584678,0,0,0
10609,359148.6689254588,2010-09-04 17:16:11,270.13664831657366,7,30,-1.099568486213684,3.914248466491699,31.72631530476928,30.76136355331774,126.23395461570824,112.64533805836366,-0.0002266406954731,0.0914954170584678,0,0,0
10610,359178.6841552168,2010-09-04 17:16:41,300.15187808461087,7,30,-1.099568486213684,3.90583062171936,31.72631530476928,30.77053142435507,126.23395461570824,112.68118488600618,-0.0002266406954731,0.0914954170584678,0,0,0
10611,359208.6992162493,2010-09-04 17:17:11,330.1669391321447,7,30,-1.0997490882873535,3.897898197174072,31.72631530476928,30.779699189468985,126.23395461570824,112.71695643497284,-0.0002266406954731,0.0914954170584678,0,0,0
10612,359238.71451415215,2010-09-04 17:17:41,360.182237014945,7,30,-1.099568486213684,3.890127658843994,31.72631530476928,30.78886702606773,126.23395461570824,112.75265558376525,-0.0001942634553415,0.0914954170584678,0,0,0
10613,359268.72978286725,2010-09-04 17:18:11,390.19750574007526,7,30,-1.099929690361023,3.882357120513916,31.72631530476928,30.798034846625093,126.23395461570824,112.78828351734418,-0.0001942634553415,0.0914954170584678,0,0,0
10614,359298.7447477652,2010-09-04 17:18:41,420.2124706229372,7,30,-1.0993878841400146,3.874910354614258,31.72631530476928,30.80720266866413,126.23395461570824,112.8238412895668,-0.0001618862152099,0.0914954170584678,0,0,0
10615,359328.7600438083,2010-09-04 17:19:11,450.22776666615255,7,30,-1.099568486213684,3.8673017024993896,31.72631530476928,30.81637053666222,126.23395461570824,112.85933044843512,-0.0002266406954731,0.0914954170584678,0,0,0
10616,359358.77512279566,2010-09-04 17:19:41,480.2428456533977,7,30,-1.0993878841400146,3.860016822814941,31.72631530476928,30.825538362358863,126.23395461570824,112.89475161034528,-0.0001942634553415,0.0914954170584678,0,0,0
10617,359388.79029606783,2010-09-04 17:20:11,510.2580189306425,7,30,-1.0993878841400146,3.852893829345703,31.72631530476928,30.834706255478142,126.23395461570824,112.93010618270011,-0.0001618862152099,0.0914954170584678,0,0,0
10618,359418.80548489885,2010-09-04 17:20:41,540.2732077867146,7,30,-1.0997490882873535,3.845608949661255,31.72631530476928,30.84387414942377,126.23395461570824,112.96539482606512,-0.0001942634553415,0.0914954170584678,0,0,0
10619,359448.8206333292,2010-09-04 17:21:11,570.2883561919707,7,30,-1.099568486213684,3.8384859561920166,31.72631530476928,30.853042051903607,126.23395461570824,113.0006186005098,-0.0002266406954731,0.0914954170584678,0,0,0
10620,359478.835809659,2010-09-04 17:21:41,600.3035325168112,7,30,-1.099568486213684,3.831686973571777,31.72631530476928,30.86220993844353,126.23395461570824,113.03577840898788,-0.0001942634553415,0.0914954170584678,0,0,0
10621,359508.85101082583,2010-09-04 17:22:11,630.3187336885777,7,30,-1.0993878841400146,3.824887752532959,31.72631530476928,30.87137781048922,126.23395461570824,113.070875464513,-0.0001618862152099,0.0914954170584678,0,0,0
10622,359538.8661735066,2010-09-04 17:22:41,660.3338963644005,7,30,-1.099568486213684,3.818250417709351,31.72631530476928,30.88054566899673,126.23395461570824,113.10591073732272,-0.0001618862152099,0.0914954170584678,0,0,0
10623,359568.8814778756,2010-09-04 17:23:11,690.3492007383787,7,30,-1.099568486213684,3.811451196670532,31.72631530476928,30.889713580831785,126.23395461570824,113.14088531344436,-0.0002266406954731,0.0914954170584678,0,0,0
10624,359598.8965213844,2010-09-04 17:23:41,720.3642442472006,7,30,-1.0997490882873535,3.804975748062134,31.72631530476928,30.898881343210924,126.23395461570824,113.17579897760878,-0.0001942634553415,0.0914954170584678,0,0,0
10625,359628.91172989446,2010-09-04 17:24:11,750.3794527773066,7,30,-1.099568486213684,3.7988240718841553,31.72631530476928,30.90804921536404,126.23395461570824,113.21065432207324,-0.0001618862152099,0.0914954170584678,0,0,0
10626,359658.9268986254,2010-09-04 17:24:41,780.3946214931831,7,30,-1.0997490882873535,3.792186737060547,31.72631530476928,30.917217104245555,126.23395461570824,113.24545206628164,-0.0001942634553415,0.0914954170584678,0,0,0
10627,359688.94206007815,2010-09-04 17:25:11,810.4097829409451,7,30,-1.099568486213684,3.786358833312988,31.72631530476928,30.92638491343277,126.23395461570824,113.28019293645885,-0.0001618862152099,0.0914954170584678,0,0,0
10628,359718.9572392952,2010-09-04 17:25:41,840.4249621579937,7,30,-1.0993878841400146,3.78036904335022,31.72631530476928,30.935552737408457,126.23395461570824,113.3148783440436,-0.0001618862152099,0.0914954170584678,0,0,0
10629,359748.9724317954,2010-09-04 17:26:11,870.440154658148,7,30,-1.0997490882873535,3.774541139602661,31.72631530476928,30.944720640273538,126.23395461570824,113.34950959400052,-0.0001618862152099,0.0914954170584678,0,0,0
10630,359778.98760198994,2010-09-04 17:26:41,900.4553248476973,7,30,-1.099568486213684,3.768713235855103,31.72631530476928,30.95388851387612,126.23395461570824,113.3840870899453,-0.0001942634553415,0.0914954170584678,0,0,0
10631,359809.0027750015,2010-09-04 17:27:11,930.47049785928,7,30,-1.099568486213684,3.763047218322754,31.72631530476928,30.963056371850584,126.23395461570824,113.41861192758466,-0.0001295089750783,0.0914954170584678,0,0,0
10632,359839.01797380234,2010-09-04 17:27:41,960.4856966902124,7,30,-1.0997490882873535,3.757381200790405,31.72631530476928,30.972224279106296,126.23395461570824,113.45308529525748,-0.0001618862152099,0.0914954170584678,0,0,0
10633,359869.0366875836,2010-09-04 17:28:11,990.5044104414078,7,30,-1.099568486213684,3.752039194107056,31.72631530476928,30.981393305174382,126.23395461570824,113.48751236238095,-0.0001295089750783,0.0914954170584678,0,0,0
10634,359899.04833365,2010-09-04 17:28:42,1020.5160565127702,7,30,-1.099568486213684,3.746696949005127,31.72631530476928,30.990560127625567,126.23395461570824,113.5218816029935,-0.0001295089750783,0.0914954170584678,0,0,0
10635,359929.0638931899,2010-09-04 17:29:12,1050.5316160527009,7,30,-1.099568486213684,3.7413547039031982,31.72631530476928,30.99972817341303,126.23395461570824,113.55620675226768,-0.0001295089750783,0.0914954170584678,0,0,0
10636,359959.07893708965,2010-09-04 17:29:42,1080.5466599575095,7,30,-1.099568486213684,3.73617434501648,31.72631530476928,31.00889601856688,126.23395461570824,113.59048326383753,-0.0001295089750783,0.0914954170584678,0,0,0
10637,359989.0938605393,2010-09-04 17:30:12,1110.561583397082,7,30,-1.099568486213684,3.7311558723449703,31.72631530476928,31.018063836279943,126.23395461570824,113.62471266095588,-0.0001295089750783,0.0914954170584678,0,0,0
10638,360019.1090180022,2010-09-04 17:30:42,1140.5767409601624,7,30,-1.099568486213684,3.726299285888672,31.72631530476928,31.0272322744592,126.23395461570824,113.658898314075,-0.0001295089750783,0.0914954170584678,0,0,0
10639,360049.12429102795,2010-09-04 17:31:12,1170.5920138957863,7,30,-1.099929690361023,3.721118927001953,31.72631530476928,31.03640099894536,126.23395461570824,113.69303995325988,-0.0001295089750783,0.0914954170584678,0,0,0
10640,360079.1393732182,2010-09-04 17:31:42,1200.6070960759894,7,30,-1.099568486213684,3.716424226760864,31.72631530476928,31.045569457995786,126.23395461570824,113.72713610443115,-0.0001295089750783,0.0914954170584678,0,0,0
10641,360109.15469866974,2010-09-04 17:32:12,1230.6224215575744,7,30,-1.0997490882873535,3.711729526519776,31.72631530476928,31.0547381522606,126.23395461570824,113.76118930512423,-9.713172767078504e-05,0.0914954170584678,0,0,0
10642,360139.16974311083,2010-09-04 17:32:42,1260.63746597867,7,30,-1.0997490882873535,3.7070348262786874,31.72631530476928,31.06390667440393,126.23395461570824,113.79519888039285,-0.0001295089750783,0.0914954170584678,0,0,0
10643,360169.1850405074,2010-09-04 17:33:12,1290.652763365233,7,30,-1.0997490882873535,3.702502012252808,31.72631530476928,31.07307531396508,126.23395461570824,113.82916650387052,-0.0001295089750783,0.0914954170584678,0,0,0
10644,360199.2002362156,2010-09-04 17:33:42,1320.6679590733827,7,30,-1.0997490882873535,3.6979691982269287,31.72631530476928,31.08224353967692,126.23395461570824,113.86309088692,-0.0001295089750783,0.0914954170584678,0,0,0
10645,360229.215513066,2010-09-04 17:34:12,1350.6832359488265,7,30,-1.0993878841400146,3.69359827041626,31.72631530476928,31.091411427858716,126.23395461570824,113.89697320797382,-9.713172767078504e-05,0.0914954170584678,0,0,0
10646,360259.2305223645,2010-09-04 17:34:42,1380.6982452473858,7,30,-1.0993878841400146,3.689227342605591,31.72631530476928,31.10057913410525,126.23395461570824,113.9308144656998,-9.713172767078504e-05,0.0914954170584678,0,0,0
10647,360289.2456824639,2010-09-04 17:35:12,1410.7134053267373,7,30,-1.099568486213684,3.684694528579712,31.72631530476928,31.109746823868058,126.23395461570824,113.9646159521464,-0.0001295089750783,0.0914954170584678,0,0,0
10648,360319.2608166588,2010-09-04 17:35:42,1440.7285395165643,7,30,-1.099568486213684,3.680485486984253,31.72631530476928,31.118914597633463,126.23395461570824,113.9983787466584,-0.0001618862152099,0.0914954170584678,0,0,0
10649,360349.2760070988,2010-09-04 17:36:12,1470.743729956584,7,30,-1.099568486213684,3.676600217819214,31.72631530476928,31.128082376104704,126.23395461570824,114.0321028229628,-9.713172767078504e-05,0.0914954170584678,0,0,0
10650,360379.29122087697,2010-09-04 17:36:42,1500.7589437347697,7,30,-1.0993878841400146,3.672553062438965,31.72631530476928,31.137250207501168,126.23395461570824,114.06578936268984,-9.713172767078504e-05,0.0914954170584678,0,0,0
10651,360409.3063843898,2010-09-04 17:37:12,1530.7741072476788,7,30,-1.099568486213684,3.668506145477295,31.72631530476928,31.146417960105957,126.23395461570824,114.09943864410909,-9.713172767078504e-05,0.0914954170584678,0,0,0
10652,360439.3216081379,2010-09-04 17:37:42,1560.7893310007248,7,30,-1.099568486213684,3.664458990097046,31.72631530476928,31.15558572447444,126.23395461570824,114.133051539596,-0.0001295089750783,0.0914954170584678,0,0,0
10653,360469.33690082777,2010-09-04 17:38:12,1590.8046236855705,7,30,-1.099568486213684,3.660735607147217,31.72631530476928,31.164753489079025,126.23395461570824,114.166628842952,-6.47544875391759e-05,0.0914954170584678,0,0,0
10654,360499.3519792837,2010-09-04 17:38:42,1620.8197021465037,7,30,-1.099568486213684,3.656688451766968,31.72631530476928,31.17392119764512,126.23395461570824,114.20017048137804,-0.0001295089750783,0.0914954170584678,0,0,0
10655,360529.3672068963,2010-09-04 17:39:12,1650.8349297641817,7,30,-1.099568486213684,3.6529650688171382,31.72631530476928,31.18308887022087,126.23395461570824,114.23367749029804,-0.0001295089750783,0.0914954170584678,0,0,0
10656,360559.3823323394,2010-09-04 17:39:42,1680.8500553174836,7,30,-1.0997490882873535,3.6492416858673096,31.72631530476928,31.19225662716969,126.23395461570824,114.26715083319516,-9.713172767078504e-05,0.0914954170584678,0,0,0
10657,360589.3975616413,2010-09-04 17:40:12,1710.8652845291342,7,30,-1.0997490882873535,3.645518302917481,31.72631530476928,31.20142435964999,126.23395461570824,114.30059050115156,-0.0001295089750783,0.0914954170584678,0,0,0
10658,360619.41260915005,2010-09-04 17:40:42,1740.8803320279003,7,30,-1.099568486213684,3.642280578613281,31.72631530476928,31.21059198987959,126.23395461570824,114.33399739255768,-6.47544875391759e-05,0.0914954170584678,0,0,0
10659,360649.42790224095,2010-09-04 17:41:12,1770.8956251287825,7,30,-1.099568486213684,3.638880968093872,31.72631530476928,31.21975971956716,126.23395461570824,114.36737289977876,-9.713172767078504e-05,0.0914954170584678,0,0,0
10660,360679.4431133024,2010-09-04 17:41:42,1800.9108361851845,7,30,-1.099568486213684,3.635319471359253,31.72631530476928,31.228927396963684,126.23395461570824,114.40071712341424,-0.0001618862152099,0.0914954170584678,0,0,0
10661,360709.4581507962,2010-09-04 17:42:12,1830.9258736489403,7,30,-1.099568486213684,3.6324055194854736,31.72631530476928,31.238095039939857,126.23395461570824,114.43403111088702,-6.47544875391759e-05,0.0914954170584678,0,0,0
10662,360739.473331542,2010-09-04 17:42:42,1860.941054399812,7,30,-1.099568486213684,3.629005908966065,31.72631530476928,31.2472627693298,126.23395461570824,114.4673157834244,-0.0001295089750783,0.0914954170584678,0,0,0
10663,360769.4885316461,2010-09-04 17:43:12,1890.9562545039173,7,30,-1.099568486213684,3.625768184661865,31.72631530476928,31.25643051665473,126.23395461570824,114.50057144901577,-9.713172767078504e-05,0.0914954170584678,0,0,0
10664,360799.5036757457,2010-09-04 17:43:42,1920.9713986034424,7,30,-1.0993878841400146,3.622854232788086,31.72631530476928,31.265598226903496,126.23395461570824,114.53379868560302,-9.713172767078504e-05,0.0914954170584678,0,0,0
10665,360829.5189320548,2010-09-04 17:44:12,1950.9866549126284,7,30,-1.099568486213684,3.619940280914306,31.72631530476928,31.274766006550205,126.23395461570824,114.56699854838064,-6.47544875391759e-05,0.0914954170584678,0,0,0
10666,360859.5340356033,2010-09-04 17:44:42,1981.0017584911627,7,30,-1.0993878841400146,3.6170263290405273,31.72631530476928,31.283933696219965,126.23395461570824,114.60017101730976,-3.237724376958795e-05,0.0914954170584678,0,0,0
10667,360889.5492513414,2010-09-04 17:45:12,2011.0169742041703,7,30,-1.0997490882873535,3.614112377166748,31.72631530476928,31.29310140960081,126.23395461570824,114.63331695163076,-6.47544875391759e-05,0.0914954170584678,0,0,0
10668,360919.5643849347,2010-09-04 17:45:42,2041.0321077924984,7,30,-1.0993878841400146,3.6111984252929688,31.72631530476928,31.302269192074952,126.23395461570824,114.666436880885,-9.713172767078504e-05,0.0914954170584678,0,0,0
10669,360949.57957376575,2010-09-04 17:46:12,2071.047296623508,7,30,-1.099568486213684,3.6082844734191895,31.72631530476928,31.31143700770628,126.23395461570824,114.69953095434812,-9.713172767078504e-05,0.0914954170584678,0,0,0
10670,360979.5947403312,2010-09-04 17:46:42,2101.062463189025,7,30,-1.099568486213684,3.60553240776062,31.72631530476928,31.320604714200144,126.23395461570824,114.73259867419556,-6.47544875391759e-05,0.0914954170584678,0,0,0
10671,361009.6099175333,2010-09-04 17:47:12,2131.077640386039,7,30,-1.099568486213684,3.602618455886841,31.72631530476928,31.32977249526023,126.23395461570824,114.7656407582887,-9.713172767078504e-05,0.0914954170584678,0,0,0
10672,361039.6250990911,2010-09-04 17:47:42,2161.092821948934,7,30,-1.099568486213684,3.600028276443481,31.72631530476928,31.338940219174056,126.23395461570824,114.79865709134012,-6.47544875391759e-05,0.0914954170584678,0,0,0
10673,361069.640293075,2010-09-04 17:48:12,2191.108015937799,7,30,-1.0993878841400146,3.597114324569702,31.72631530476928,31.34810801447409,126.23395461570824,114.83164806596317,-6.47544875391759e-05,0.0914954170584678,0,0,0
10674,361099.6555052693,2010-09-04 17:48:42,2221.1232281420616,7,30,-1.0993878841400146,3.594362258911133,31.72631530476928,31.357275792141035,126.23395461570824,114.86461314067428,-6.47544875391759e-05,0.0914954170584678,0,0,0
10675,361129.6706298902,2010-09-04 17:49:12,2251.138352753015,7,30,-1.0997490882873535,3.5916104316711426,31.72631530476928,31.36644353883609,126.23395461570824,114.8975524783023,-6.47544875391759e-05,0.0914954170584678,0,0,0
10676,361159.6860503685,2010-09-04 17:49:42,2281.1537732263487,7,30,-1.099568486213684,3.5886964797973637,31.72631530476928,31.37561141422105,126.23395461570824,114.93046634761762,-9.713172767078504e-05,0.0914954170584678,0,0,0
10677,361189.7011857915,2010-09-04 17:50:12,2311.1689086793235,7,30,-1.099568486213684,3.585944414138794,31.72631530476928,31.38477916594901,126.23395461570824,114.9633535576924,-6.47544875391759e-05,0.0914954170584678,0,0,0
10678,361219.7163072496,2010-09-04 17:50:42,2341.184030137419,7,30,-1.0997490882873535,3.5828685760498047,31.72631530476928,31.39394690290664,126.23395461570824,114.99621432588408,-0.0001295089750783,0.0914954170584678,0,0,0
10679,361249.7313573599,2010-09-04 17:51:12,2371.199080217619,7,30,-1.099568486213684,3.5797927379608154,31.72631530476928,31.40311465219511,126.23395461570824,115.0290485025576,-0.0001295089750783,0.0914954170584678,0,0,0
10680,361279.74651776,2010-09-04 17:51:42,2401.2142406478456,7,30,-1.099568486213684,3.577040672302246,31.72631530476928,31.41228240097787,126.23395461570824,115.06185535855823,-6.47544875391759e-05,0.0914954170584678,0,0,0
10681,361309.7617244705,2010-09-04 17:52:12,2431.2294473283414,7,30,-1.099568486213684,3.573802947998047,31.72631530476928,31.421450145477,126.23395461570824,115.09463437599948,-0.0001618862152099,0.0914954170584678,0,0,0
10682,361339.7768734272,2010-09-04 17:52:42,2461.2445962849715,7,30,-1.0993878841400146,3.570888996124268,31.72631530476928,31.43061791461329,126.23395461570824,115.1273852947402,-6.47544875391759e-05,0.0914954170584678,0,0,0
10683,361369.7920736466,2010-09-04 17:53:12,2491.2597965344394,7,30,-1.099568486213684,3.5676512718200684,31.72631530476928,31.43978566140523,126.23395461570824,115.1601073912624,-9.713172767078504e-05,0.0914954170584678,0,0,0
10684,361399.8072314303,2010-09-04 17:53:42,2521.2749542879947,7,30,-1.099568486213684,3.564413547515869,31.72631530476928,31.448953495042076,126.23395461570824,115.1928005207128,-6.47544875391759e-05,0.0914954170584678,0,0,0
10685,361429.8224169781,2010-09-04 17:54:12,2551.2901398358213,7,30,-1.0993878841400146,3.56133770942688,31.72631530476928,31.45812122759119,126.23395461570824,115.22546340119706,-3.237724376958795e-05,0.0914954170584678,0,0,0
10686,361459.83758482174,2010-09-04 17:54:42,2581.305307684537,7,30,-1.099568486213684,3.5577762126922607,31.72631530476928,31.46728895342408,126.23395461570824,115.25809585713289,-9.713172767078504e-05,0.0914954170584678,0,0,0
10687,361489.85274665046,2010-09-04 17:55:12,2611.320469508236,7,30,-1.0993878841400146,3.554376602172852,31.72631530476928,31.476456761786977,126.23395461570824,115.29069703467444,-6.47544875391759e-05,0.0914954170584678,0,0,0
10688,361519.86794379214,2010-09-04 17:55:42,2641.335666675021,7,30,-1.099568486213684,3.5506532192230225,31.72631530476928,31.485624540110432,126.23395461570824,115.32326573596984,-6.47544875391759e-05,0.0914954170584678,0,0,0
10689,361549.8834488964,2010-09-04 17:56:12,2671.351171884543,7,30,-1.0997490882873535,3.5467679500579834,31.72631530476928,31.49479235345401,126.23395461570824,115.35580099409756,-0.0001295089750783,0.0914954170584678,0,0,0
10690,361579.8984210976,2010-09-04 17:56:42,2701.36614395532,7,30,-1.0997490882873535,3.5430445671081543,31.72631530476928,31.50396011242005,126.23395461570824,115.38830165817102,-0.0001295089750783,0.0914954170584678,0,0,0
10691,361609.91345506255,2010-09-04 17:57:12,2731.381177920356,7,30,-1.099568486213684,3.5391592979431152,31.72631530476928,31.513127775544984,126.23395461570824,115.42076639431193,-0.0001295089750783,0.0914954170584678,0,0,0
10692,361639.9287549103,2010-09-04 17:57:42,2761.396477768053,7,30,-1.0997490882873535,3.535112142562866,31.72631530476928,31.52229554075403,126.23395461570824,115.4531945594628,-9.713172767078504e-05,0.0914954170584678,0,0,0
10693,361669.9438130957,2010-09-04 17:58:12,2791.411535953453,7,30,-1.0997490882873535,3.5309031009674072,31.72631530476928,31.53146330260911,126.23395461570824,115.4855842768619,-6.47544875391759e-05,0.0914954170584678,0,0,0
10694,361699.9595336619,2010-09-04 17:58:42,2821.427256529736,7,30,-1.099568486213684,3.5265321731567383,31.72631530476928,31.54063125818824,126.23395461570824,115.5179348150566,-9.713172767078504e-05,0.0914954170584678,0,0,0
10695,361729.9741483921,2010-09-04 17:59:12,2851.4418712749466,7,30,-1.099568486213684,3.5218374729156494,31.72631530476928,31.549798761754847,126.23395461570824,115.55024228265476,-0.0001295089750783,0.0914954170584678,0,0,0
10696,361759.98931121326,2010-09-04 17:59:42,2881.457034096132,7,30,-1.099568486213684,3.5169808864593506,31.72631530476928,31.55896618135143,126.23395461570824,115.58250636282726,-9.713172767078504e-05,0.0914954170584678,0,0,0
10697,361790.00730603264,2010-09-04 18:00:12,2911.475028890465,7,30,-1.099568486213684,3.511962413787842,31.72631530476928,31.568134544256328,126.23395461570824,115.61472843623996,-9.713172767078504e-05,0.0914954170584678,0,0,0
10698,361820.019713256,2010-09-04 18:00:43,2941.4874361288907,7,30,-1.0997490882873535,3.5064585208892822,31.72631530476928,31.577301191144425,126.23395461570824,115.64689655020636,-0.0001295089750783,0.0914954170584678,0,0,0
10699,361850.0352301999,2010-09-04 18:01:13,2971.502953062633,7,30,-1.099568486213684,3.5007925033569336,31.72631530476928,31.5864688656574,126.23395461570824,115.67901690270833,-0.0001295089750783,0.0914954170584678,0,0,0
10700,361880.05027517234,2010-09-04 18:01:43,3001.517998055153,7,30,-1.0997490882873535,3.494478940963745,31.72631530476928,31.595636630612884,126.23395461570824,115.71108222729038,-0.0001618862152099,0.0914954170584678,0,0,0
10701,361910.0652060605,2010-09-04 18:02:13,3031.5329289232395,7,30,-1.099568486213684,3.487517833709717,31.72631530476928,31.60480429268701,126.23395461570824,115.74308711407846,-0.0001942634553415,0.0914954170584678,0,0,0
10702,361940.08039265085,2010-09-04 18:02:43,3061.5481155337147,7,30,-1.099568486213684,3.4797472953796387,31.72631530476928,31.613972023592403,126.23395461570824,115.77502510278887,-0.0001618862152099,0.0914954170584678,0,0,0
10703,361970.0955774117,2010-09-04 18:03:13,3091.5633002745303,7,30,-1.099568486213684,3.470843553543091,31.72631530476928,31.62313979239064,126.23395461570824,115.80688649874249,-0.0002590179501567,0.0914954170584678,0,0,0
10704,362000.1107143734,2010-09-04 18:03:43,3121.578437236266,7,30,-1.099568486213684,3.4601590633392334,31.72631530476928,31.63230758136407,126.23395461570824,115.83865907639296,-0.0002913951757363,0.0914954170584678,0,0,0
10705,362030.125903816,2010-09-04 18:04:13,3151.593626698849,7,30,-1.099568486213684,3.4475319385528564,31.72631530476928,31.64147534425639,126.23395461570824,115.87032528536716,-0.0003237724304199,0.0914954170584678,0,0,0
10706,362060.1410947774,2010-09-04 18:04:43,3181.608817635106,7,30,-1.099568486213684,3.4313435554504395,31.72631530476928,31.650643116341275,126.23395461570824,115.90186002334546,-0.0004856109735555,0.0914954170584678,0,0,0
10707,362090.1562470773,2010-09-04 18:05:13,3211.623969960131,7,30,-1.099929690361023,3.4101364612579346,31.72631530476928,31.65981087355649,126.23395461570824,115.93322531757728,-0.0006475448608398,0.0914954170584678,0,0,0
10708,362120.1715623885,2010-09-04 18:05:43,3241.6392852713684,7,30,-1.099568486213684,3.381644487380981,31.72631530476928,31.66897867482945,126.23395461570824,115.96436605809456,-0.0008741855854168,0.0914954170584678,0,0,0
10709,362150.1868724818,2010-09-04 18:06:13,3271.654595364601,7,30,-1.099568486213684,3.3416588306427,31.72631530476928,31.678146573105305,126.23395461570824,115.99519671351828,-0.0012303352123126,0.0914954170584678,0,0,0
10710,362180.20178414194,2010-09-04 18:06:43,3301.6695070298283,7,30,-1.0997490882873535,3.284189224243164,31.72631530476928,31.68731427092833,126.23395461570824,116.025585028734,-0.0017807483673095,0.0914954170584678,0,0,0
10711,362210.21706308256,2010-09-04 18:07:13,3331.6847860857056,7,30,-1.0997490882873535,3.2000086307525635,31.72631530476928,31.696482013405085,126.23395461570824,116.0553326235749,-0.0026225566398352,0.0914954170584678,0,0,0
10712,362240.23215272126,2010-09-04 18:07:43,3361.6998756092107,7,30,-1.099568486213684,3.067424297332764,31.72631530476928,31.705649794989345,126.23395461570824,116.08411374486252,-0.0044033052399754,0.0914954170584678,0,0,0
10713,362263.4505184479,2010-09-04 18:08:06,3384.9182413056387,7,30,-1.099568486213684,2.8673336505889893,31.72631530476928,31.71274159200565,126.23395461570824,116.10525410516776,-0.0094864843413233,0.0914954170584678,0,0,0
10714,362274.7472307709,2010-09-04 18:08:17,3396.2149536286597,7,30,-1.099568486213684,2.699781894683838,31.72631530476928,31.716192028197263,126.23395461570824,116.11486975443476,-0.0126594547182321,0.0914954170584678,0,0,0
10715,362334.7647593998,2010-09-04 18:09:17,60.01469111632068,8,30,0.0,3.4183926582336426,31.72631530476928,31.716192028197263,126.23395461570824,116.11486975443476,0.0012303352123126,0.0914954170584678,0,0,0
10716,362334.9558216527,2010-09-04 18:09:18,0.187324585505414,9,30,-1.9243103452026844e-05,3.4185545444488525,31.72631530476928,31.71619202919857,126.23395461570824,116.11486975785776,0.0,0.0859829038381576,0,0,0
10717,362339.7838630775,2010-09-04 18:09:23,5.015366010287178,9,30,0.0010644125286489,3.4260013103485107,31.7263162152612,31.71619202944869,126.2339577321367,116.1148697587134,0.0010684489971026,0.0859829038381576,0,0,0
