Data_Point,Test_Time(s),Date_Time,Step_Time(s),Step_Index,Cycle_Index,Current(A),Voltage(V),Charge_Capacity(Ah),Discharge_Capacity(Ah),Charge_Energy(Wh),Discharge_Energy(Wh),dV/dt(V/s),Internal_Resistance(Ohm),Is_FC_Data,AC_Impedance(Ohm),ACI_Phase_Angle(Deg)
2178,71787.28494199243,2010-09-01 09:26:20,30.01516727729109,1,7,0.0,3.333888292312622,6.408604373024617,6.443742186663675,25.427967522273423,23.63936491797021,0.0005827903514727,0.0889859497547149,0,0,0
2179,71817.30127736599,2010-09-01 09:26:50,60.03150267589994,1,7,0.0,3.3516955375671387,6.408604373024617,6.443742186663675,25.427967522273423,23.63936491797021,0.0003884792386088,0.0889859497547149,0,0,0
2180,71847.30298735859,2010-09-01 09:27:20,90.03321267350938,1,7,0.0,3.3652939796447754,6.408604373024617,6.443742186663675,25.427967522273423,23.63936491797021,0.0002913951757363,0.0889859497547149,0,0,0
2181,71877.28358517816,2010-09-01 09:27:50,120.01381047803756,1,7,0.0,3.3763022422790527,6.408604373024617,6.443742186663675,25.427967522273423,23.63936491797021,0.0002590179501567,0.0889859497547149,0,0,0
2182,71907.30192013764,2010-09-01 09:28:20,30.01528764729017,2,7,0.5501165986061096,3.5258846282958984,6.413191032698904,6.443742186663675,25.443970790013328,23.63936491797021,0.0016836166614666,0.0889859497547149,0,0,0
2183,71937.31699172144,2010-09-01 09:28:50,60.03035922607113,2,7,0.5501165986061096,3.577850103378296,6.417777635674158,6.443742186663675,25.46026898718081,23.63936491797021,0.0011979580158367,0.0889859497547149,0,0,0
2184,71967.3322783963,2010-09-01 09:29:20,90.04564589592523,2,7,0.5501165986061096,3.6173501014709473,6.422364272799555,6.443742186663675,25.476773818655747,23.63936491797021,0.0009713172912597,0.0889859497547149,0,0,0
2185,71997.34732390511,2010-09-01 09:29:50,120.0606914047318,2,7,0.5501165986061096,3.64940357208252,6.426950950475171,6.443742186663675,25.493441513459636,23.63936491797021,0.0007770538213662,0.0889859497547149,0,0,0
2186,72027.36259565777,2010-09-01 09:30:20,150.07596316743266,2,7,0.550297200679779,3.676600217819214,6.431537606381443,6.443742186663675,25.510244015485625,23.63936491797021,0.0006799221155233,0.0889859497547149,0,0,0
2187,72057.37764403874,2010-09-01 09:30:50,180.09101153837256,2,7,0.5501165986061096,3.699588060379028,6.436124243543385,6.443742186663675,25.52716114497459,23.63936491797021,0.0005827903514727,0.0889859497547149,0,0,0
2188,72087.39281944127,2010-09-01 09:31:20,210.10618694091428,2,7,0.5501165986061096,3.7195000648498535,6.440710887174323,6.443742186663675,25.54417681470605,23.63936491797021,0.0004532813909463,0.0889859497547149,0,0,0
2189,72117.40803173577,2010-09-01 09:31:50,240.12139924542709,2,7,0.550297200679779,3.73617434501648,6.445297583284887,6.443742186663675,25.561276423141425,23.63936491797021,0.0003885269106831,0.0889859497547149,0,0,0
2190,72147.42316236673,2010-09-01 09:32:20,270.1365298563343,2,7,0.550297200679779,3.749125242233277,6.4498842700753,6.443742186663675,25.578444261748437,23.63936491797021,0.0002913951757363,0.0889859497547149,0,0,0
2191,72177.43835093208,2010-09-01 09:32:50,300.15171845175666,2,7,0.5501165986061096,3.757057428359986,6.45447089980866,6.443742186663675,25.59566004194103,23.63936491797021,0.0001618862152099,0.0889859497547149,0,0,0
2192,72207.45362925612,2010-09-01 09:33:20,330.1669967557605,2,7,0.5501165986061096,3.7614283561706543,6.459057531596491,6.443742186663675,25.61290326950608,23.63936491797021,6.47544875391759e-05,0.0889859497547149,0,0,0
2193,72237.46876871408,2010-09-01 09:33:50,360.1821363239921,2,7,0.5501165986061096,3.7643423080444336,6.463644191687546,6.443742186663675,25.63016283123577,23.63936491797021,6.47544875391759e-05,0.0889859497547149,0,0,0
2194,72267.48388005196,2010-09-01 09:34:20,390.19724755159007,2,7,0.5499359965324402,3.767094373703003,6.468230847583468,6.443742186663675,25.647435038709705,23.63936491797021,6.47544875391759e-05,0.0889859497547149,0,0,0
2195,72297.49913895261,2010-09-01 09:34:50,420.2125064572473,2,7,0.5501165986061096,3.769522666931152,6.472817524334206,6.443742186663675,25.664719031734496,23.63936491797021,3.237724376958795e-05,0.0889859497547149,0,0,0
2196,72327.5141810028,2010-09-01 09:35:20,450.2275484923964,2,7,0.5501165986061096,3.772112846374512,6.477404198883042,6.443742186663675,25.68201441167392,23.63936491797021,6.47544875391759e-05,0.0889859497547149,0,0,0
2197,72357.52950406335,2010-09-01 09:35:50,480.24287159304725,2,7,0.5501165986061096,3.774541139602661,6.481990928999321,6.443742186663675,25.69932163239255,23.63936491797021,6.47544875391759e-05,0.0889859497547149,0,0,0
2198,72387.54469926524,2010-09-01 09:36:21,510.2580667798976,2,7,0.5501165986061096,3.7769694328308105,6.486577594491414,6.443742186663675,25.716640185552297,23.63936491797021,6.47544875391759e-05,0.0889859497547149,0,0,0
2199,72417.5599692535,2010-09-01 09:36:51,540.2733367531386,2,7,0.5501165986061096,3.77955961227417,6.491164293026952,6.443742186663675,25.73397051312831,23.63936491797021,9.713172767078504e-05,0.0889859497547149,0,0,0
2200,72447.57515821986,2010-09-01 09:37:21,570.2885257194855,2,7,0.5501165986061096,3.782149791717529,6.495750911619555,6.443742186663675,25.751312042364543,23.63936491797021,6.47544875391759e-05,0.0889859497547149,0,0,0
2201,72477.59006087262,2010-09-01 09:37:51,600.3034283772633,2,7,0.5501165986061096,3.7847399711608887,6.500337502769054,6.443742186663675,25.76866506040339,23.63936491797021,6.47544875391759e-05,0.0889859497547149,0,0,0
2202,72507.60521419013,2010-09-01 09:38:21,630.3185817047873,2,7,0.5501165986061096,3.787168264389038,6.504924156328217,6.443742186663675,25.786029933500863,23.63936491797021,6.47544875391759e-05,0.0889859497547149,0,0,0
2203,72537.62037791857,2010-09-01 09:38:51,660.3337454382461,2,7,0.5501165986061096,3.7897584438323975,6.509510811160526,6.443742186663675,25.803406445138748,23.63936491797021,3.237724376958795e-05,0.0889859497547149,0,0,0
2204,72567.6355611406,2010-09-01 09:39:21,690.3489286602763,2,7,0.5501165986061096,3.792348623275757,6.514096758369624,6.443742186663675,25.82079173691892,23.63936491797021,9.713172767078504e-05,0.0889859497547149,0,0,0
2205,72597.6509494588,2010-09-01 09:39:51,720.3643170135568,2,7,0.5499359965324402,3.794938802719116,6.518682496666464,6.443742186663675,25.838187924582986,23.63936491797021,9.713172767078504e-05,0.0889859497547149,0,0,0
2206,72627.66605035565,2010-09-01 09:40:21,750.3794178652951,2,7,0.5501165986061096,3.797528982162476,6.523268247386836,6.443742186663675,25.85559601072505,23.63936491797021,9.713172767078504e-05,0.0889859497547149,0,0,0
2207,72657.68106525316,2010-09-01 09:40:51,780.394432772834,2,7,0.5499359965324402,3.799957275390625,6.527853956773404,6.443742186663675,25.873016076173663,23.63936491797021,3.237724376958795e-05,0.0889859497547149,0,0,0
2208,72687.69648053356,2010-09-01 09:41:21,810.4098480432,2,7,0.5501165986061096,3.802871227264404,6.532440536996689,6.443742186663675,25.890451954592,23.63936491797021,6.47544875391759e-05,0.0889859497547149,0,0,0
2209,72717.71142686518,2010-09-01 09:41:51,840.4247943547765,2,7,0.5501165986061096,3.805785179138184,6.537027194033353,6.443742186663675,25.90790102853427,23.63936491797021,9.713172767078504e-05,0.0889859497547149,0,0,0
2210,72747.7265945986,2010-09-01 09:42:21,870.4399620982294,2,7,0.5501165986061096,3.808537244796753,6.541613853518846,6.443742186663675,25.925363489794705,23.63936491797021,3.237724376958795e-05,0.0889859497547149,0,0,0
2211,72777.74175531956,2010-09-01 09:42:51,900.4551228141677,2,7,0.5499359965324402,3.811774969100952,6.54620056158438,6.443742186663675,25.94284004511207,23.63936491797021,9.713172767078504e-05,0.0889859497547149,0,0,0
2212,72807.75694724829,2010-09-01 09:43:21,930.4703147579352,2,7,0.5501165986061096,3.815012693405152,6.550787196234046,6.443742186663675,25.96033083359001,23.63936491797021,6.47544875391759e-05,0.0889859497547149,0,0,0
2213,72837.77210970857,2010-09-01 09:43:51,960.4854771931584,2,7,0.5501165986061096,3.818250417709351,6.555373826400997,6.443742186663675,25.977836584874865,23.63936491797021,6.47544875391759e-05,0.0889859497547149,0,0,0
2214,72867.78726920148,2010-09-01 09:44:21,990.5006366960732,2,7,0.5501165986061096,3.82165002822876,6.559960519404353,6.443742186663675,25.995357580606115,23.63936491797021,9.713172767078504e-05,0.0889859497547149,0,0,0
2215,72897.80246955117,2010-09-01 09:44:51,1020.5158370407786,2,7,0.5501165986061096,3.824887752532959,6.564547144034688,6.443742186663675,26.01289346240433,23.63936491797021,6.47544875391759e-05,0.0889859497547149,0,0,0
2216,72927.81763684351,2010-09-01 09:45:21,1050.5310043481447,2,7,0.5501165986061096,3.828287363052368,6.569133820814006,6.443742186663675,26.03044468019005,23.63936491797021,9.713172767078504e-05,0.0889859497547149,0,0,0
2217,72957.83280447168,2010-09-01 09:45:51,1080.5461719612726,2,7,0.5501165986061096,3.831525087356568,6.573720437582796,6.443742186663675,26.04801065774076,23.63936491797021,0.0001295089750783,0.0889859497547149,0,0,0
2218,72987.84795541826,2010-09-01 09:46:21,1110.5613229028502,2,7,0.5501165986061096,3.834762573242188,6.578307083025442,6.443742186663675,26.06559144353798,23.63936491797021,0.0001295089750783,0.0889859497547149,0,0,0
2219,73017.86318529156,2010-09-01 09:46:51,1140.5765527811625,2,7,0.5501165986061096,3.837676525115967,6.582893744960576,6.443742186663675,26.08318680998937,23.63936491797021,6.47544875391759e-05,0.0889859497547149,0,0,0
2220,73047.87831405287,2010-09-01 09:47:21,1170.5916815474725,2,7,0.5501165986061096,3.840590476989746,6.587480380688429,6.443742186663675,26.100796266796745,23.63936491797021,6.47544875391759e-05,0.0889859497547149,0,0,0
2221,73077.8934842424,2010-09-01 09:47:51,1200.6068517470464,2,7,0.5499359965324402,3.843666315078736,6.592067072974316,6.443742186663675,26.118419965129693,23.63936491797021,3.237724376958795e-05,0.0889859497547149,0,0,0
2222,73107.90864595083,2010-09-01 09:48:21,1230.6220134404207,2,7,0.550297200679779,3.846904039382935,6.596653721331651,6.443742186663675,26.13605730233186,23.63936491797021,9.713172767078504e-05,0.0889859497547149,0,0,0
2223,73137.9238114186,2010-09-01 09:48:51,1260.6371789232394,2,7,0.5501165986061096,3.849979877471924,6.601240403187537,6.443742186663675,26.15370846604417,23.63936491797021,9.713172767078504e-05,0.0889859497547149,0,0,0
2224,73167.93899140257,2010-09-01 09:49:21,1290.6523589071994,2,7,0.5501165986061096,3.852893829345703,6.605827132164333,6.443742186663675,26.171373271271488,23.63936491797021,9.713172767078504e-05,0.0889859497547149,0,0,0
2225,73197.95417163715,2010-09-01 09:49:51,1320.667539141784,2,7,0.5501165986061096,3.855645895004273,6.610413820568143,6.443742186663675,26.18905090352647,23.63936491797021,9.713172767078504e-05,0.0889859497547149,0,0,0
2226,73227.96935539051,2010-09-01 09:50:21,1350.6827229151886,2,7,0.5501165986061096,3.858236074447632,6.6150004865933,6.443742186663675,26.20674116893111,23.63936491797021,6.47544875391759e-05,0.0889859497547149,0,0,0
2227,73257.98449471814,2010-09-01 09:50:51,1380.6978622277832,2,7,0.550297200679779,3.860826253890991,6.619587143174035,6.443742186663675,26.224443497512677,23.63936491797021,6.47544875391759e-05,0.0889859497547149,0,0,0
2228,73287.99979728762,2010-09-01 09:51:21,1410.7131648223265,2,7,0.5501165986061096,3.8632545471191406,6.624173739298453,6.443742186663675,26.242157074048013,23.63936491797021,6.47544875391759e-05,0.0889859497547149,0,0,0
2229,73318.01486456567,2010-09-01 09:51:51,1440.728232070314,2,7,0.5499359965324402,3.86552095413208,6.628760336288343,6.443742186663675,26.25988131697527,23.63936491797021,6.47544875391759e-05,0.0889859497547149,0,0,0
2230,73348.03013928572,2010-09-01 09:52:21,1470.7435067953977,2,7,0.5499359965324402,3.8674635887146,6.633346861725178,6.443742186663675,26.27761530482386,23.63936491797021,0.0,0.0889859497547149,0,0,0
2231,73378.04519118047,2010-09-01 09:52:51,1500.75855867007,2,7,0.5501165986061096,3.869729995727539,6.637933527291228,6.443742186663675,26.29535913256129,23.63936491797021,9.713172767078504e-05,0.0889859497547149,0,0,0
2232,73408.06037897388,2010-09-01 09:53:21,1530.7737464735187,2,7,0.5501165986061096,3.8711869716644287,6.642520377029972,6.443742186663675,26.31311219698859,23.63936491797021,6.47544875391759e-05,0.0889859497547149,0,0,0
2233,73438.07557091264,2010-09-01 09:53:51,1560.788938417286,2,7,0.550297200679779,3.8729677200317374,6.647107803759601,6.443742186663675,26.330875291139044,23.63936491797021,6.47544875391759e-05,0.0889859497547149,0,0,0
2234,73468.09082393364,2010-09-01 09:54:21,1590.804191438277,2,7,0.550297200679779,3.874262809753418,6.651695271074772,6.443742186663675,26.348645599385726,23.63936491797021,3.237724376958795e-05,0.0889859497547149,0,0,0
2235,73498.10586671063,2010-09-01 09:54:51,1620.8192342152747,2,7,0.5501165986061096,3.875719785690308,6.656282689399364,6.443742186663675,26.36642207732128,23.63936491797021,6.47544875391759e-05,0.0889859497547149,0,0,0
2236,73528.12116333029,2010-09-01 09:55:21,1650.834530829915,2,7,0.5497553944587708,3.876852989196777,6.660870018302966,6.443742186663675,26.384204155476684,23.63936491797021,3.237724376958795e-05,0.0889859497547149,0,0,0
2237,73558.13699627163,2010-09-01 09:55:51,1680.8503638013203,2,7,0.5501165986061096,3.878148078918457,6.665456760282703,6.443742186663675,26.401989310397912,23.63936491797021,3.237724376958795e-05,0.0889859497547149,0,0,0
2238,73588.13861596916,2010-09-01 09:56:21,1710.8519835139116,2,7,0.5501165986061096,3.879281282424927,6.67004131834691,6.443742186663675,26.419771141787383,23.63936491797021,6.47544875391759e-05,0.0889859497547149,0,0,0
2239,73618.15094557409,2010-09-01 09:56:51,1740.8643130737375,2,7,0.550297200679779,3.8802525997161865,6.674627602184901,6.443742186663675,26.437564396004436,23.63936491797021,6.47544875391759e-05,0.0889859497547149,0,0,0
2240,73648.1661059091,2010-09-01 09:57:21,1770.8794733987013,2,7,0.5501165986061096,3.8812239170074463,6.679214212842273,6.443742186663675,26.45536359253629,23.63936491797021,3.237724376958795e-05,0.0889859497547149,0,0,0
2241,73678.18141059886,2010-09-01 09:57:51,1800.894778108517,2,7,0.5501165986061096,3.882195234298706,6.683800782010868,6.443742186663675,26.473167119167737,23.63936491797021,3.237724376958795e-05,0.0889859497547149,0,0,0
2242,73708.19647631302,2010-09-01 09:58:21,1830.9098438176688,2,7,0.5499359965324402,3.883166551589966,6.688387413062866,6.443742186663675,26.49097536798262,23.63936491797021,3.237724376958795e-05,0.0889859497547149,0,0,0
2243,73738.21163686855,2010-09-01 09:58:51,1860.9250043681943,2,7,0.5501165986061096,3.8841378688812256,6.692973985243481,6.443742186663675,26.50878770855181,23.63936491797021,6.47544875391759e-05,0.0889859497547149,0,0,0
2244,73768.22680645663,2010-09-01 09:59:21,1890.9401739712823,2,7,0.5501165986061096,3.8849472999572754,6.697560606795137,6.443742186663675,26.52660442346333,23.63936491797021,3.237724376958795e-05,0.0889859497547149,0,0,0
2245,73798.24207680077,2010-09-01 09:59:51,1920.955444355548,2,7,0.5499359965324402,3.885918617248535,6.702147112917404,6.443742186663675,26.54442496878344,23.63936491797021,3.237724376958795e-05,0.0889859497547149,0,0,0
2246,73828.2571507254,2010-09-01 10:00:21,1950.9705182150128,2,7,0.5501165986061096,3.886728048324585,6.706733726494003,6.443742186663675,26.56225021024123,23.63936491797021,0.0,0.0889859497547149,0,0,0
2247,73858.27230923585,2010-09-01 10:00:51,1980.9856767505169,2,7,0.5501165986061096,3.8876993656158447,6.7113202643175,6.443742186663675,26.580079344592217,23.63936491797021,0.0,0.0889859497547149,0,0,0
2248,73888.28747919983,2010-09-01 10:01:21,2011.0008466994664,2,7,0.5499359965324402,3.888670682907105,6.715906795690579,6.443742186663675,26.59791275630972,23.63936491797021,3.237724376958795e-05,0.0889859497547149,0,0,0
2249,73918.30265266255,2010-09-01 10:01:51,2041.0160201521485,2,7,0.5501165986061096,3.889642000198364,6.720493361135914,6.443742186663675,26.615750562039203,23.63936491797021,6.47544875391759e-05,0.0889859497547149,0,0,0
2250,73948.31783263649,2010-09-01 10:02:21,2071.031200126084,2,7,0.5501165986061096,3.890613317489624,6.72507990628917,6.443742186663675,26.63359246136607,23.63936491797021,3.237724376958795e-05,0.0889859497547149,0,0,0
2251,73978.33300051026,2010-09-01 10:02:51,2101.046368004874,2,7,0.5501165986061096,3.891584634780884,6.729666441380266,6.443742186663675,26.651438650918635,23.63936491797021,6.47544875391759e-05,0.0889859497547149,0,0,0
2252,74008.34818045914,2010-09-01 10:03:21,2131.0615479487337,2,7,0.550297200679779,3.8923940658569336,6.734252948099114,6.443742186663675,26.669289048523567,23.63936491797021,3.237724376958795e-05,0.0889859497547149,0,0,0
2253,74038.36334017255,2010-09-01 10:03:51,2161.0767076972606,2,7,0.5499359965324402,3.893203496932984,6.73883953210508,6.443742186663675,26.687144129819337,23.63936491797021,0.0,0.0889859497547149,0,0,0
2254,74068.37855552969,2010-09-01 10:04:21,2191.0919230243067,2,7,0.5499359965324402,3.894336700439453,6.743426137773232,6.443742186663675,26.70500375804743,23.63936491797021,0.0,0.0889859497547149,0,0,0
2255,74098.39371774938,2010-09-01 10:04:51,2221.107085249005,2,7,0.550297200679779,3.895308017730713,6.748012686207087,6.443742186663675,26.722867236480603,23.63936491797021,6.47544875391759e-05,0.0889859497547149,0,0,0
2256,74128.4089335075,2010-09-01 10:05:21,2251.1223010372005,2,7,0.5501165986061096,3.8962793350219727,6.752599192905365,6.443742186663675,26.740734927672207,23.63936491797021,6.47544875391759e-05,0.0889859497547149,0,0,0
2257,74158.42402966754,2010-09-01 10:05:51,2281.1373971571456,2,7,0.5501165986061096,3.897250652313232,6.757185705565149,6.443742186663675,26.758607283197957,23.63936491797021,3.237724376958795e-05,0.0889859497547149,0,0,0
2258,74188.43921107004,2010-09-01 10:06:21,2311.152578569666,2,7,0.5499359965324402,3.898060083389282,6.761772149462345,6.443742186663675,26.77648387246177,23.63936491797021,0.0,0.0889859497547149,0,0,0
2259,74218.45451303301,2010-09-01 10:06:51,2341.1678805276224,2,7,0.5501165986061096,3.899193286895752,6.766358634745981,6.443742186663675,26.794365375829187,23.63936491797021,0.0,0.0889859497547149,0,0,0
2260,74248.46953158964,2010-09-01 10:07:21,2371.182899079244,2,7,0.5499359965324402,3.900164604187012,6.770945125718478,6.443742186663675,26.81225160300952,23.63936491797021,0.0,0.0889859497547149,0,0,0
2261,74278.48480722199,2010-09-01 10:07:51,2401.198174721614,2,7,0.5501165986061096,3.9012978076934814,6.775531539514157,6.443742186663675,26.830142263397736,23.63936491797021,3.237724376958795e-05,0.0889859497547149,0,0,0
2262,74308.49987819426,2010-09-01 10:08:21,2431.213245683858,2,7,0.5499359965324402,3.902269124984741,6.780117952132232,6.443742186663675,26.84803779938068,23.63936491797021,0.0,0.0889859497547149,0,0,0
2263,74338.51504322093,2010-09-01 10:08:52,2461.22841071054,2,7,0.5501165986061096,3.903402328491211,6.784704394086552,6.443742186663675,26.86593836704765,23.63936491797021,0.0,0.0889859497547149,0,0,0
2264,74368.53051740814,2010-09-01 10:09:22,2491.2438849228074,2,7,0.5501165986061096,3.90469741821289,6.789290912679934,6.443742186663675,26.88384426585613,23.63936491797021,3.237724376958795e-05,0.0889859497547149,0,0,0
2265,74398.54557615996,2010-09-01 10:09:52,2521.25894365457,2,7,0.5501165986061096,3.9056687355041504,6.793877413838055,6.443742186663675,26.90175508581716,23.63936491797021,3.237724376958795e-05,0.0889859497547149,0,0,0
2266,74428.56075717648,2010-09-01 10:10:22,2551.274124686141,2,7,0.5499359965324402,3.90680193901062,6.798463912151296,6.443742186663675,26.91967100951739,23.63936491797021,3.237724376958795e-05,0.0889859497547149,0,0,0
2267,74458.57577311661,2010-09-01 10:10:52,2581.289140606203,2,7,0.5501165986061096,3.90777325630188,6.80305041718572,6.443742186663675,26.93759219811401,23.63936491797021,0.0,0.0889859497547149,0,0,0
2268,74488.59108448801,2010-09-01 10:11:22,2611.304451987646,2,7,0.5499359965324402,3.9089064598083496,6.807636948949944,6.443742186663675,26.955518769735235,23.63936491797021,-3.237724376958795e-05,0.0889859497547149,0,0,0
2269,74518.60612183147,2010-09-01 10:11:52,2641.319489331102,2,7,0.5501165986061096,3.910201549530029,6.81222338995283,6.443742186663675,26.973450384589164,23.63936491797021,-3.237724376958795e-05,0.0889859497547149,0,0,0
2270,74548.62150734769,2010-09-01 10:12:22,2671.334874902449,2,7,0.5501165986061096,3.911496639251709,6.816809998831316,6.443742186663675,26.991388064786552,23.63936491797021,3.237724376958795e-05,0.0889859497547149,0,0,0
2271,74578.63645219561,2010-09-01 10:12:52,2701.349819685216,2,7,0.5501165986061096,3.9126298427581783,6.821396470995182,6.443742186663675,27.009330817651797,23.63936491797021,3.237724376958795e-05,0.0889859497547149,0,0,0
2272,74608.65162502174,2010-09-01 10:13:22,2731.3649925363984,2,7,0.5499359965324402,3.9139246940612793,6.825982965031765,6.443742186663675,27.02727920220644,23.63936491797021,3.237724376958795e-05,0.0889859497547149,0,0,0
2273,74638.66693942569,2010-09-01 10:13:52,2761.38030693035,2,7,0.5501165986061096,3.915219783782959,6.830569538376966,6.443742186663675,27.045233649798984,23.63936491797021,6.47544875391759e-05,0.0889859497547149,0,0,0
2274,74668.68197736064,2010-09-01 10:14:22,2791.3953448753045,2,7,0.5501165986061096,3.916514873504639,6.835156014191036,6.443742186663675,27.06319328466468,23.63936491797021,6.47544875391759e-05,0.0889859497547149,0,0,0
2275,74698.69713593124,2010-09-01 10:14:52,2821.4105034208337,2,7,0.5499359965324402,3.917648077011109,6.839742525185227,6.443742186663675,27.081159001902822,23.63936491797021,3.237724376958795e-05,0.0889859497547149,0,0,0
2276,74728.71231384002,2010-09-01 10:15:22,2851.425681329621,2,7,0.5501165986061096,3.918943166732788,6.844328976744627,6.443742186663675,27.099130340437057,23.63936491797021,3.237724376958795e-05,0.0889859497547149,0,0,0
2277,74758.72747925768,2010-09-01 10:15:52,2881.440846777353,2,7,0.5501165986061096,3.9204001426696777,6.848915413155338,6.443742186663675,27.1171076314538,23.63936491797021,6.47544875391759e-05,0.0889859497547149,0,0,0
2278,74788.74267312123,2010-09-01 10:16:22,2911.456040640905,2,7,0.5501165986061096,3.921695232391357,6.853501897228561,6.443742186663675,27.135091065950743,23.63936491797021,6.47544875391759e-05,0.0889859497547149,0,0,0
2279,74818.75795379614,2010-09-01 10:16:52,2941.471321295768,2,7,0.5501165986061096,3.922990322113037,6.858088395299813,6.443742186663675,27.15308068276214,23.63936491797021,6.47544875391759e-05,0.0889859497547149,0,0,0
2280,74848.77303297888,2010-09-01 10:17:22,2971.4864004885253,2,7,0.5499359965324402,3.924285411834717,6.862674642355788,6.443742186663675,27.17107542556161,23.63936491797021,6.47544875391759e-05,0.0889859497547149,0,0,0
2281,74878.78829812007,2010-09-01 10:17:52,3001.5016656397484,2,7,0.550297200679779,3.9257423877716064,6.867260313592876,6.443742186663675,27.18907411795189,23.63936491797021,3.237724376958795e-05,0.0889859497547149,0,0,0
2282,74908.80337216,2010-09-01 10:18:22,3031.516739689688,2,7,0.5501165986061096,3.927037477493286,6.871846200102668,6.443742186663675,27.20707985989372,23.63936491797021,3.237724376958795e-05,0.0889859497547149,0,0,0
2283,74938.818521277,2010-09-01 10:18:52,3061.531888791681,2,7,0.5499359965324402,3.928332567214966,6.876432693575664,6.443742186663675,27.225094535036828,23.63936491797021,0.0,0.0889859497547149,0,0,0
2284,74968.83372000771,2010-09-01 10:19:22,3091.547087532389,2,7,0.550297200679779,3.9301133155822754,6.881019051254481,6.443742186663675,27.243115095432028,23.63936491797021,9.713172767078504e-05,0.0889859497547149,0,0,0
2285,74998.8488835557,2010-09-01 10:19:52,3121.562251080385,2,7,0.550297200679779,3.931408405303955,6.885605408369834,6.443742186663675,27.261142222262222,23.63936491797021,6.47544875391759e-05,0.0889859497547149,0,0,0
2286,75028.86424962846,2010-09-01 10:20:22,3151.577617138098,2,7,0.5501165986061096,3.9328653812408447,6.890191947363163,6.443742186663675,27.279176653475965,23.63936491797021,3.237724376958795e-05,0.0889859497547149,0,0,0
2287,75058.87930783891,2010-09-01 10:20:52,3181.5926753936737,2,7,0.550297200679779,3.934484243392944,6.894778434536031,6.443742186663675,27.29721753595652,23.63936491797021,9.713172767078504e-05,0.0889859497547149,0,0,0
2288,75088.89457244377,2010-09-01 10:21:22,3211.607939943397,2,7,0.5501165986061096,3.935779333114624,6.899364940616803,6.443742186663675,27.31526527068847,23.63936491797021,6.47544875391759e-05,0.0889859497547149,0,0,0
2289,75118.90962681967,2010-09-01 10:21:52,3241.6229943193034,2,7,0.5501165986061096,3.937074422836304,6.903951408220433,6.443742186663675,27.33331947878087,23.63936491797021,3.237724376958795e-05,0.0889859497547149,0,0,0
2290,75148.92480862819,2010-09-01 10:22:22,3271.6381761278108,2,7,0.5501165986061096,3.938531398773194,6.908537807909622,6.443742186663675,27.35138040814737,23.63936491797021,0.0,0.0889859497547149,0,0,0
2291,75178.93996061738,2010-09-01 10:22:52,3301.6533281169995,2,7,0.5501165986061096,3.940150260925293,6.91312416856096,6.443742186663675,27.369448035414315,23.63936491797021,6.47544875391759e-05,0.0889859497547149,0,0,0
2292,75208.95513607004,2010-09-01 10:23:22,3331.668503574678,2,7,0.5499359965324402,3.941607236862183,6.917710636945076,6.443742186663675,27.387523112959407,23.63936491797021,0.0,0.0889859497547149,0,0,0
2293,75238.97031225453,2010-09-01 10:23:52,3361.683679759169,2,7,0.5501165986061096,3.943226099014282,6.922297088803458,6.443742186663675,27.405605144492423,23.63936491797021,0.0,0.0889859497547149,0,0,0
2294,75268.98551598267,2010-09-01 10:24:22,3391.698883482294,2,7,0.5501165986061096,3.944844961166382,6.926883525141424,6.443742186663675,27.423694263827013,23.63936491797021,6.47544875391759e-05,0.0889859497547149,0,0,0
2295,75299.0006705984,2010-09-01 10:24:52,3421.714038098029,2,7,0.5501165986061096,3.946301937103272,6.931469984990334,6.443742186663675,27.441790668699888,23.63936491797021,3.237724376958795e-05,0.0889859497547149,0,0,0
2296,75329.0158309384,2010-09-01 10:25:22,3451.7291984380304,2,7,0.5501165986061096,3.948082685470581,6.93605636467009,6.443742186663675,27.459893865861183,23.63936491797021,9.713172767078504e-05,0.0889859497547149,0,0,0
2297,75359.03101744864,2010-09-01 10:25:52,3481.744384948256,2,7,0.5501165986061096,3.9497015476226807,6.940642776530913,6.443742186663675,27.478004548049302,23.63936491797021,6.47544875391759e-05,0.0889859497547149,0,0,0
2298,75389.04618725723,2010-09-01 10:26:22,3511.759554756856,2,7,0.550297200679779,3.95132040977478,6.945229178171442,6.443742186663675,27.496122624594197,23.63936491797021,9.713172767078504e-05,0.0889859497547149,0,0,0
2299,75419.06134054465,2010-09-01 10:26:52,3541.77470804428,2,7,0.5499359965324402,3.95277738571167,6.949815618744925,6.443742186663675,27.514248280482423,23.63936491797021,3.237724376958795e-05,0.0889859497547149,0,0,0
2300,75449.07652504988,2010-09-01 10:27:22,3571.789892549508,2,7,0.5499359965324402,3.95455813407898,6.954401983701491,6.443742186663675,27.532381191369343,23.63936491797021,6.47544875391759e-05,0.0889859497547149,0,0,0
2301,75479.0917234347,2010-09-01 10:27:52,3601.805090939341,2,7,0.5501165986061096,3.956176996231079,6.958988479424288,6.443742186663675,27.55052232448912,23.63936491797021,9.713172767078504e-05,0.0889859497547149,0,0,0
2302,75509.10971136192,2010-09-01 10:28:22,3631.82307886656,2,7,0.5501165986061096,3.9577958583831783,6.963575358625277,6.443742186663675,27.568672638273902,23.63936491797021,3.237724376958795e-05,0.0889859497547149,0,0,0
2303,75539.12203333284,2010-09-01 10:28:52,3661.835400837472,2,7,0.550297200679779,3.959576606750488,6.968161282995074,6.443742186663675,27.58682706505729,23.63936491797021,6.47544875391759e-05,0.0889859497547149,0,0,0
2304,75569.13720364268,2010-09-01 10:29:22,3691.850571147321,2,7,0.5501165986061096,3.961357355117798,6.972747742279786,6.443742186663675,27.60499163646908,23.63936491797021,6.47544875391759e-05,0.0889859497547149,0,0,0
2305,75599.15261883286,2010-09-01 10:29:52,3721.865986337488,2,7,0.5499359965324402,3.9629762172698975,6.977334148131692,6.443742186663675,27.62316402571362,23.63936491797021,3.237724376958795e-05,0.0889859497547149,0,0,0
2306,75629.16756110937,2010-09-01 10:30:22,3751.880928608995,2,7,0.5499359965324402,3.964918851852417,6.981920518455463,6.443742186663675,27.64134453051819,23.63936491797021,6.47544875391759e-05,0.0889859497547149,0,0,0
2307,75659.18284501735,2010-09-01 10:30:52,3781.8962125069406,2,7,0.5497553944587708,3.966699600219727,6.986506944341065,6.443742186663675,27.659533632763665,23.63936491797021,3.237724376958795e-05,0.0889859497547149,0,0,0
2308,75689.19791909234,2010-09-01 10:31:22,3811.9112866120176,2,7,0.5499359965324402,3.968480348587036,6.991093339383435,6.443742186663675,27.677730982911264,23.63936491797021,3.237724376958795e-05,0.0889859497547149,0,0,0
2309,75719.21306173824,2010-09-01 10:31:52,3841.92642923787,2,7,0.5499359965324402,3.9705848693847656,6.99567976864764,6.443742186663675,27.695937091193212,23.63936491797021,6.47544875391759e-05,0.0889859497547149,0,0,0
2310,75749.22824547654,2010-09-01 10:32:22,3871.9416129811993,2,7,0.5501165986061096,3.972365617752075,7.00026621054012,6.443742186663675,27.714151962558542,23.63936491797021,6.47544875391759e-05,0.0889859497547149,0,0,0
2311,75779.24340245819,2010-09-01 10:32:52,3901.9567699578174,2,7,0.5501165986061096,3.9743082523345943,7.004852710634948,6.443742186663675,27.7323757754923,23.63936491797021,3.237724376958795e-05,0.0889859497547149,0,0,0
2312,75809.2585823419,2010-09-01 10:33:22,3931.971949831503,2,7,0.5499359965324402,3.976250886917114,7.00943920970297,6.443742186663675,27.750608491256777,23.63936491797021,3.237724376958795e-05,0.0889859497547149,0,0,0
2313,75839.27374959414,2010-09-01 10:33:52,3961.987117098769,2,7,0.5501165986061096,3.977869749069214,7.014025698449535,6.443742186663675,27.768849929719977,23.63936491797021,0.0,0.0889859497547149,0,0,0
2314,75869.28893854543,2010-09-01 10:34:22,3992.002306075141,2,7,0.550297200679779,3.980459928512573,7.018612031029909,6.443742186663675,27.787099791147263,23.63936491797021,9.713172767078504e-05,0.0889859497547149,0,0,0
2315,75899.30411929631,2010-09-01 10:34:52,4022.017486800949,2,7,0.5501165986061096,3.982240676879883,7.023198373300725,6.443742186663675,27.805358967242004,23.63936491797021,6.47544875391759e-05,0.0889859497547149,0,0,0
2316,75929.31926117529,2010-09-01 10:35:22,4052.032628679941,2,7,0.5501165986061096,3.9841833114624015,7.02778465197303,6.443742186663675,27.82362696144675,23.63936491797021,3.237724376958795e-05,0.0889859497547149,0,0,0
2317,75959.33443650768,2010-09-01 10:35:52,4082.0478040273447,2,7,0.550297200679779,3.986125946044922,7.032370983913991,6.443742186663675,27.84190433268232,23.63936491797021,3.237724376958795e-05,0.0889859497547149,0,0,0
2318,75989.34965272192,2010-09-01 10:36:22,4112.063020211527,2,7,0.5501165986061096,3.9880685806274414,7.036957315344026,6.443742186663675,27.860190846187304,23.63936491797021,3.237724376958795e-05,0.0889859497547149,0,0,0
2319,76019.36476083176,2010-09-01 10:36:52,4142.078128341404,2,7,0.5499359965324402,3.990173101425171,7.041543763247797,6.443742186663675,27.878486941908623,23.63936491797021,3.237724376958795e-05,0.0889859497547149,0,0,0
2320,76049.37992534215,2010-09-01 10:37:22,4172.0932928518005,2,7,0.5501165986061096,3.992277622222901,7.046130238022648,6.443742186663675,27.89679241160875,23.63936491797021,6.47544875391759e-05,0.0889859497547149,0,0,0
2321,76079.39516284446,2010-09-01 10:37:52,4202.108530369151,2,7,0.5499359965324402,3.994058132171631,7.050716612083817,6.443742186663675,27.91510680194974,23.63936491797021,0.0,0.0889859497547149,0,0,0
2322,76109.41034930956,2010-09-01 10:38:22,4232.123716834264,2,7,0.5501165986061096,3.9963245391845694,7.055302859399866,6.443742186663675,27.933430008699577,23.63936491797021,6.47544875391759e-05,0.0889859497547149,0,0,0
2323,76139.42549209083,2010-09-01 10:38:52,4262.138859590441,2,7,0.5499359965324402,3.99826717376709,7.059889185130903,6.443742186663675,27.95176298421036,23.63936491797021,3.237724376958795e-05,0.0889859497547149,0,0,0
2324,76169.44065665132,2010-09-01 10:39:22,4292.154024155973,2,7,0.550297200679779,4.000371932983398,7.06447570628007,6.443742186663675,27.97010605162385,23.63936491797021,3.24249267578125e-05,0.0889859497547149,0,0,0
2325,76199.45583056517,2010-09-01 10:39:52,4322.169198064792,2,7,0.550297200679779,4.002638339996338,7.069063073168215,6.443742186663675,27.98846219203209,23.63936491797021,6.47544875391759e-05,0.0889859497547149,0,0,0
2326,76229.47105115032,2010-09-01 10:40:22,4352.184418649943,2,7,0.5501165986061096,4.004580974578857,7.073650125212865,6.443742186663675,28.00682666108265,23.63936491797021,3.24249267578125e-05,0.0889859497547149,0,0,0
2327,76259.4862036608,2010-09-01 10:40:53,4382.199571165444,2,7,0.5501165986061096,4.006523609161377,7.078236362546508,6.443742186663675,28.025197471450312,23.63936491797021,0.0,0.0889859497547149,0,0,0
2328,76289.50163979818,2010-09-01 10:41:23,4412.215007332891,2,7,0.5501165986061096,4.008951663970947,7.082822696036639,6.443742186663675,28.04357848014325,23.63936491797021,9.70840483205393e-05,0.0889859497547149,0,0,0
2329,76319.51672144706,2010-09-01 10:41:53,4442.230088971745,2,7,0.5499359965324402,4.010894298553467,7.087408991535003,6.443742186663675,28.06196908843416,23.63936491797021,0.0,0.0889859497547149,0,0,0
2330,76349.53174388336,2010-09-01 10:42:23,4472.24511139301,2,7,0.5501165986061096,4.013160705566406,7.091995277664208,6.443742186663675,28.08036965753761,23.63936491797021,3.23295607813634e-05,0.0889859497547149,0,0,0
2331,76379.54688733627,2010-09-01 10:42:53,4502.260254835899,2,7,0.550297200679779,4.015427112579346,7.096581571417974,6.443742186663675,28.098780326411298,23.63936491797021,6.47544875391759e-05,0.0889859497547149,0,0,0
2332,76409.56206103456,2010-09-01 10:43:23,4532.275428539206,2,7,0.5501165986061096,4.017693519592285,7.101167893748791,6.443742186663675,28.117201282450527,23.63936491797021,6.47544875391759e-05,0.0889859497547149,0,0,0
2333,76439.57724413127,2010-09-01 10:43:53,4562.290611635924,2,7,0.5499359965324402,4.019798278808594,7.105754270373477,6.443742186663675,28.135632668934505,23.63936491797021,3.24249267578125e-05,0.0889859497547149,0,0,0
2334,76469.5926595019,2010-09-01 10:44:23,4592.30602700654,2,7,0.5501165986061096,4.022064685821533,7.11034058006496,6.443742186663675,28.154074213653285,23.63936491797021,6.47544875391759e-05,0.0889859497547149,0,0,0
2335,76499.6077173665,2010-09-01 10:44:53,4622.321084871141,2,7,0.550297200679779,4.024492740631104,7.114926779485822,6.443742186663675,28.172525816271012,23.63936491797021,6.47544875391759e-05,0.0889859497547149,0,0,0
2336,76529.62277679,2010-09-01 10:45:23,4652.336144289614,2,7,0.5501165986061096,4.026921272277832,7.119513017154684,6.443742186663675,28.19098811006457,23.63936491797021,0.0001295089750783,0.0889859497547149,0,0,0
2337,76559.63805326444,2010-09-01 10:45:53,4682.351420759045,2,7,0.5499359965324402,4.029025554656982,7.124099381283592,6.443742186663675,28.20946166261091,23.63936491797021,3.23295607813634e-05,0.0889859497547149,0,0,0
2338,76589.65311723926,2010-09-01 10:46:23,4712.3664847439,2,7,0.550297200679779,4.031454086303711,7.128685607445727,6.443742186663675,28.227945367043887,23.63936491797021,6.47544875391759e-05,0.0889859497547149,0,0,0
2339,76619.66827269208,2010-09-01 10:46:53,4742.3816401967215,2,7,0.5501165986061096,4.033882141113281,7.133271856358194,6.443742186663675,28.246440100268483,23.63936491797021,6.47544875391759e-05,0.0889859497547149,0,0,0
2340,76649.68344578387,2010-09-01 10:47:23,4772.396813288503,2,7,0.5501165986061096,4.036310195922852,7.137858101501546,6.443742186663675,28.264945879348588,23.63936491797021,6.47544875391759e-05,0.0889859497547149,0,0,0
2341,76679.69862287561,2010-09-01 10:47:53,4802.411990375244,2,7,0.5501165986061096,4.038900375366211,7.142444366749054,6.443742186663675,28.28346290303342,23.63936491797021,0.0001295089750783,0.0889859497547149,0,0,0
2342,76709.71380480943,2010-09-01 10:48:23,4832.427172334125,2,7,0.5501165986061096,4.04116678237915,7.147030704168427,6.443742186663675,28.301991471541967,23.63936491797021,6.47544875391759e-05,0.0889859497547149,0,0,0
2343,76739.7289611194,2010-09-01 10:48:53,4862.44232861902,2,7,0.5501165986061096,4.04375696182251,7.151616928058974,6.443742186663675,28.32053100373368,23.63936491797021,6.47544875391759e-05,0.0889859497547149,0,0,0
2344,76769.74411252212,2010-09-01 10:49:23,4892.457480011721,2,7,0.5499359965324402,4.046185493469238,7.156203112870291,6.443742186663675,28.339081900526377,23.63936491797021,9.71794142969884e-05,0.0889859497547149,0,0,0
2345,76799.75935070612,2010-09-01 10:49:53,4922.472718235834,2,7,0.5501165986061096,4.0489373207092285,7.160789426222366,6.443742186663675,28.357644981789463,23.63936491797021,0.0001295089750783,0.0889859497547149,0,0,0
2346,76829.77453172267,2010-09-01 10:50:23,4952.487899227305,2,7,0.5501165986061096,4.051365852355957,7.165375720906083,6.443742186663675,28.376219733820317,23.63936491797021,3.24249267578125e-05,0.0889859497547149,0,0,0
2347,76859.78968254896,2010-09-01 10:50:53,4982.503050058608,2,7,0.5499359965324402,4.053956031799316,7.169961987891207,6.443742186663675,28.394806249860416,23.63936491797021,9.71794142969884e-05,0.0889859497547149,0,0,0
2348,76889.80488477334,2010-09-01 10:51:23,5012.518252282997,2,7,0.5501165986061096,4.056546211242676,7.174548250482813,6.443742186663675,28.41340473210472,23.63936491797021,9.71794142969884e-05,0.0889859497547149,0,0,0
2349,76919.82001636169,2010-09-01 10:51:53,5042.533383871341,2,7,0.5501165986061096,4.059298038482666,7.17913457473439,6.443742186663675,28.43201558407552,23.63936491797021,9.70840483205393e-05,0.0889859497547149,0,0,0
2350,76949.8353457881,2010-09-01 10:52:23,5072.548713292745,2,7,0.5499359965324402,4.0617265701293945,7.183720933976565,6.443742186663675,28.45063852370349,23.63936491797021,6.47544875391759e-05,0.0889859497547149,0,0,0
2351,76979.85049899032,2010-09-01 10:52:53,5102.563866530044,2,7,0.5499359965324402,4.064478397369385,7.188307154158119,6.443742186663675,28.469273135965377,23.63936491797021,6.47544875391759e-05,0.0889859497547149,0,0,0
2352,77009.86554289011,2010-09-01 10:53:23,5132.578910399766,2,7,0.5501165986061096,4.067392349243164,7.192893317403505,6.443742186663675,28.48791998929123,23.63936491797021,9.70840483205393e-05,0.0889859497547149,0,0,0
2353,77039.88132308498,2010-09-01 10:53:53,5162.594690604661,2,7,0.5501165986061096,4.069982528686523,7.197479628115181,6.443742186663675,28.506580058625207,23.63936491797021,9.70840483205393e-05,0.0889859497547149,0,0,0
2354,77069.89588846716,2010-09-01 10:54:23,5192.609255966794,2,7,0.5497553944587708,4.072572708129883,7.202065742728552,6.443742186663675,28.525251971873224,23.63936491797021,3.23295607813634e-05,0.0889859497547149,0,0,0
2355,77099.9111958737,2010-09-01 10:54:53,5222.624563398393,2,7,0.550297200679779,4.075648784637451,7.20665204354937,6.443742186663675,28.543937504127104,23.63936491797021,9.71794142969884e-05,0.0889859497547149,0,0,0
2356,77129.92621540777,2010-09-01 10:55:23,5252.6395829074,2,7,0.5501165986061096,4.078562736511231,7.211238262261364,6.443742186663675,28.562635596225704,23.63936491797021,0.0001295089750783,0.0889859497547149,0,0,0
2357,77159.94153308492,2010-09-01 10:55:53,5282.654900599571,2,7,0.550297200679779,4.081314563751221,7.215824550100485,6.443742186663675,28.581346978402703,23.63936491797021,6.47544875391759e-05,0.0889859497547149,0,0,0
2358,77189.95660416243,2010-09-01 10:56:23,5312.669971662065,2,7,0.5501165986061096,4.084066867828369,7.220410825101923,6.443742186663675,28.600071326578583,23.63936491797021,6.47544875391759e-05,0.0889859497547149,0,0,0
2359,77219.97173373576,2010-09-01 10:56:53,5342.6851012404,2,7,0.5501165986061096,4.086980819702148,7.224997035515756,6.443742186663675,28.618808690995778,23.63936491797021,6.47544875391759e-05,0.0889859497547149,0,0,0
2360,77249.98690795535,2010-09-01 10:57:23,5372.700275465005,2,7,0.5501165986061096,4.090056419372559,7.229583293340985,6.443742186663675,28.63755962932772,23.63936491797021,9.70840483205393e-05,0.0889859497547149,0,0,0
2361,77280.00211173862,2010-09-01 10:57:53,5402.715479253293,2,7,0.5501165986061096,4.092970371246338,7.234169536977198,6.443742186663675,28.656323959814777,23.63936491797021,9.70840483205393e-05,0.0889859497547149,0,0,0
2362,77310.01726543708,2010-09-01 10:58:23,5432.730632946728,2,7,0.5501165986061096,4.095884323120117,7.23875576322896,6.443742186663675,28.675101776485818,23.63936491797021,9.70840483205393e-05,0.0889859497547149,0,0,0
2363,77340.03242439864,2010-09-01 10:58:53,5462.745791898269,2,7,0.5501165986061096,4.0989603996276855,7.243342040966605,6.443742186663675,28.6938935286871,23.63936491797021,9.71794142969884e-05,0.0889859497547149,0,0,0
2364,77370.04760889887,2010-09-01 10:59:23,5492.760976423548,2,7,0.5501165986061096,4.101874351501465,7.247928298391567,6.443742186663675,28.712699029606245,23.63936491797021,3.24249267578125e-05,0.0889859497547149,0,0,0
2365,77400.06276196071,2010-09-01 10:59:53,5522.77612946536,2,7,0.5497553944587708,4.104788303375244,7.252514527076011,6.443742186663675,28.73151825141082,23.63936491797021,6.47544875391759e-05,0.0889859497547149,0,0,0
2366,77430.08078063959,2010-09-01 11:00:23,5552.794148229434,2,7,0.5501165986061096,4.108187675476074,7.257101197312694,6.443742186663675,28.750353454912723,23.63936491797021,0.0001295089750783,0.0889859497547149,0,0,0
2367,77460.09327375704,2010-09-01 11:00:53,5582.806641266695,2,7,0.5501165986061096,4.1111016273498535,7.261687007737632,6.443742186663675,28.769199332825902,23.63936491797021,6.47544875391759e-05,0.0889859497547149,0,0,0
2368,77490.10828208318,2010-09-01 11:01:23,5612.821649592832,2,7,0.5499359965324402,4.114177703857422,7.266273258249305,6.443742186663675,28.788061317993733,23.63936491797021,6.47544875391759e-05,0.0889859497547149,0,0,0
2369,77520.12358182561,2010-09-01 11:01:53,5642.836949330253,2,7,0.5501165986061096,4.117577075958252,7.270859593771908,6.443742186663675,28.8069381440736,23.63936491797021,9.71794142969884e-05,0.0889859497547149,0,0,0
2370,77550.13864379044,2010-09-01 11:02:23,5672.852011300086,2,7,0.5501165986061096,4.120652675628662,7.275445877462309,6.443742186663675,28.82582926038836,23.63936491797021,9.70840483205393e-05,0.0889859497547149,0,0,0
2371,77580.15382303254,2010-09-01 11:02:53,5702.867190557235,2,7,0.5501165986061096,4.123890399932861,7.280032193095844,6.443742186663675,28.84473519678804,23.63936491797021,9.70840483205393e-05,0.0889859497547149,0,0,0
2372,77610.16896244539,2010-09-01 11:03:23,5732.882329945017,2,7,0.5501165986061096,4.1271281242370605,7.284618455425657,6.443742186663675,28.86365570376551,23.63936491797021,9.70840483205393e-05,0.0889859497547149,0,0,0
2373,77640.1841296876,2010-09-01 11:03:53,5762.897497192233,2,7,0.5501165986061096,4.130527973175049,7.289204667108191,6.443742186663675,28.88259095612107,23.63936491797021,0.0001295089750783,0.0889859497547149,0,0,0
2374,77670.19931756123,2010-09-01 11:04:23,5792.912685065856,2,7,0.5501165986061096,4.133603572845459,7.293790924606915,6.443742186663675,28.901541500593527,23.63936491797021,6.47544875391759e-05,0.0889859497547149,0,0,0
2375,77700.21447907413,2010-09-01 11:04:53,5822.927846573768,2,7,0.5501165986061096,4.137003421783447,7.298377201262592,6.443742186663675,28.92050735531704,23.63936491797021,9.71794142969884e-05,0.0889859497547149,0,0,0
2376,77730.22964616597,2010-09-01 11:05:23,5852.943013665597,2,7,0.5499359965324402,4.140402793884277,7.302963506522188,6.443742186663675,28.9394886243534,23.63936491797021,9.70840483205393e-05,0.0889859497547149,0,0,0
2377,77760.24482667123,2010-09-01 11:05:53,5882.958194175869,2,7,0.5501165986061096,4.143640518188477,7.307549874470683,6.443742186663675,28.95848563235045,23.63936491797021,6.47544875391759e-05,0.0889859497547149,0,0,0
2378,77790.2600199784,2010-09-01 11:06:23,5912.973387498072,2,7,0.5501165986061096,4.147202014923096,7.312136155342985,6.443742186663675,28.977498124628053,23.63936491797021,6.47544875391759e-05,0.0889859497547149,0,0,0
2379,77820.27516231353,2010-09-01 11:06:53,5942.9885298181625,2,7,0.5501165986061096,4.150763511657715,7.316722405282307,6.443742186663675,28.99652623093304,23.63936491797021,0.0001295089750783,0.0889859497547149,0,0,0
2380,77850.29042326428,2010-09-01 11:07:23,5973.003790773929,2,7,0.5501165986061096,4.154001235961914,7.321308727644758,6.443742186663675,29.015570457123147,23.63936491797021,6.47544875391759e-05,0.0889859497547149,0,0,0
2381,77880.30550947954,2010-09-01 11:07:53,6003.01887701425,2,7,0.5501165986061096,4.157724857330322,7.32589497169078,6.443742186663675,29.034630277716257,23.63936491797021,9.71794142969884e-05,0.0889859497547149,0,0,0
2382,77910.32083085089,2010-09-01 11:08:23,6033.034198355516,2,7,0.5499359965324402,4.1609625816345215,7.330481157584738,6.443742186663675,29.053705967495905,23.63936491797021,3.24249267578125e-05,0.0889859497547149,0,0,0
2383,77940.33582133254,2010-09-01 11:08:53,6063.049188862241,2,7,0.5501165986061096,4.164685726165772,7.335067410178022,6.443742186663675,29.07279821505132,23.63936491797021,9.70840483205393e-05,0.0889859497547149,0,0,0
2384,77970.35099466993,2010-09-01 11:09:23,6093.064362169561,2,7,0.550297200679779,4.16840934753418,7.339653642518719,6.443742186663675,29.09190672764935,23.63936491797021,0.0001295089750783,0.0889859497547149,0,0,0
2385,78000.3661896212,2010-09-01 11:09:53,6123.079557125837,2,7,0.5497553944587708,4.171970844268799,7.344240030540809,6.443742186663675,29.11103243854028,23.63936491797021,9.71794142969884e-05,0.0889859497547149,0,0,0
2386,78030.38136081825,2010-09-01 11:10:23,6153.094728322897,2,7,0.5499359965324402,4.175532341003418,7.348826362256778,6.443742186663675,29.130174548922955,23.63936491797021,6.47544875391759e-05,0.0889859497547149,0,0,0
2387,78060.39651164455,2010-09-01 11:10:53,6183.109879144175,2,7,0.5501165986061096,4.179255485534668,7.353412696354046,6.443742186663675,29.14933344047021,23.63936491797021,9.70840483205393e-05,0.0889859497547149,0,0,0
2388,78090.41169183904,2010-09-01 11:11:23,6213.125059368735,2,7,0.550297200679779,4.182979106903076,7.357999050185797,6.443742186663675,29.168509266856866,23.63936491797021,9.71794142969884e-05,0.0889859497547149,0,0,0
2389,78120.42685495094,2010-09-01 11:11:53,6243.140222450569,2,7,0.5501165986061096,4.186540603637695,7.362585438824214,6.443742186663675,29.187702225213645,23.63936491797021,6.47544875391759e-05,0.0889859497547149,0,0,0
2390,78150.442049822,2010-09-01 11:12:23,6273.155417321633,2,7,0.550297200679779,4.190425872802734,7.367171804551307,6.443742186663675,29.20691222034863,23.63936491797021,9.71794142969884e-05,0.0889859497547149,0,0,0
2391,78180.45719941022,2010-09-01 11:12:54,6303.170566909836,2,7,0.5501165986061096,4.194311141967773,7.371758124868405,6.443742186663675,29.22613925337867,23.63936491797021,0.0001295089750783,0.0889859497547149,0,0,0
2392,78210.4726598682,2010-09-01 11:13:24,6333.1860273828615,2,7,0.5501165986061096,4.197872161865234,7.376344499962461,6.443742186663675,29.2453838617741,23.63936491797021,6.47544875391759e-05,0.0889859497547149,0,0,0
2393,78226.09714066688,2010-09-01 11:13:39,6348.81050817152,2,7,0.550297200679779,4.200300693511963,7.378731908548653,6.443742186663675,29.25540842432705,23.63936491797021,0.0001619339018361,0.0889859497547149,0,0,0
2394,78256.10951499683,2010-09-01 11:14:09,30.01516173848669,3,7,0.0,4.122433662414551,7.378731908548653,6.443742186663675,29.25540842432705,23.63936491797021,-0.0003561019839253,0.0889859497547149,0,0,0
2395,78286.12467395337,2010-09-01 11:14:39,60.03032069503995,3,7,0.0,4.112558841705322,7.378731908548653,6.443742186663675,29.25540842432705,23.63936491797021,-0.0002590179501567,0.0889859497547149,0,0,0
2396,78316.13985990721,2010-09-01 11:15:09,90.04550664386625,3,7,0.0,4.107216358184815,7.378731908548653,6.443742186663675,29.25540842432705,23.63936491797021,-9.71794142969884e-05,0.0889859497547149,0,0,0
2397,78346.1081512703,2010-09-01 11:15:39,120.01379803201826,3,7,0.0,4.103331089019775,7.378731908548653,6.443742186663675,29.25540842432705,23.63936491797021,-6.47544875391759e-05,0.0889859497547149,0,0,0
2398,78346.12276389178,2010-09-01 11:15:39,0.015604796955489,4,7,0.996402144432068,4.199814796447754,7.378736227619061,6.443742186663675,29.25542656362286,23.63936491797021,0.0,0.0889859497547149,0,0,0
2399,78347.10713480199,2010-09-01 11:15:40,0.999975712159536,4,7,0.945831537246704,4.199653148651123,7.379000074026298,6.443742186663675,29.25653464921184,23.63936491797021,-3.23295607813634e-05,0.0889859497547149,0,0,0
2400,78349.31021983775,2010-09-01 11:15:43,3.203060747941022,4,7,0.8956221342086792,4.199814796447754,7.379562300987812,6.443742186663675,29.25889586446353,23.63936491797021,0.0,0.0889859497547149,0,0,0
2401,78352.54461550695,2010-09-01 11:15:46,6.437456502359727,4,7,0.8455933928489685,4.199814796447754,7.380343290499448,6.443742186663675,29.262175824290416,23.63936491797021,0.0,0.0889859497547149,0,0,0
2402,78356.85700170023,2010-09-01 11:15:50,10.74984263047904,4,7,0.795564591884613,4.199653148651123,7.381325139827657,6.443742186663675,29.2662993618684,23.63936491797021,-3.23295607813634e-05,0.0889859497547149,0,0,0
2403,78362.3725857127,2010-09-01 11:15:56,16.26542664795336,4,7,0.7455358505249023,4.199491024017334,7.382504429871992,6.443742186663675,29.27125210838603,23.63936491797021,-6.47544875391759e-05,0.0889859497547149,0,0,0
2404,78369.46617262892,2010-09-01 11:16:03,23.359013619328177,4,7,0.6955071091651917,4.199653148651123,7.383922217258126,6.443742186663675,29.277206492435116,23.63936491797021,-3.23295607813634e-05,0.0889859497547149,0,0,0
2405,78378.74728896657,2010-09-01 11:16:12,32.640129896819765,4,7,0.6452977061271667,4.199814796447754,7.385647769167958,6.443742186663675,29.284453443671243,23.63936491797021,0.0,0.0889859497547149,0,0,0
2406,78391.48147451016,2010-09-01 11:16:25,45.374315415342856,4,7,0.5952689051628113,4.199814796447754,7.387837372019423,6.443742186663675,29.29364929866785,23.63936491797021,0.0,0.0889859497547149,0,0,0
2407,78410.20019032957,2010-09-01 11:16:44,64.09303123978222,4,7,0.5452401638031006,4.199814796447754,7.390793615123356,6.443742186663675,29.30606489869725,23.63936491797021,3.23295607813634e-05,0.0889859497547149,0,0,0
2408,78440.29341604753,2010-09-01 11:17:14,94.18625695271292,4,7,0.4952113926410675,4.199653148651123,7.395124352351191,6.443742186663675,29.32425305713627,23.63936491797021,-3.23295607813634e-05,0.0889859497547149,0,0,0
2409,78492.19893604431,2010-09-01 11:18:06,146.09177695448656,4,7,0.4451826214790344,4.199814796447754,7.401873307974812,6.443742186663675,29.352597224633897,23.63936491797021,0.0,0.0889859497547149,0,0,0
2410,78574.43174847527,2010-09-01 11:19:28,228.3245893854684,4,7,0.3949732482433319,4.199814796447754,7.41143998375801,6.443742186663675,29.392775170427285,23.63936491797021,0.0,0.0889859497547149,0,0,0
2411,78683.18014014837,2010-09-01 11:21:17,337.07298105856137,4,7,0.3447638750076294,4.199653148651123,7.422599463369263,6.443742186663675,29.43964261216931,23.63936491797021,-3.23295607813634e-05,0.0889859497547149,0,0,0
2412,78816.10003242335,2010-09-01 11:23:29,469.99287332852646,4,7,0.2947351038455963,4.199653148651123,7.43439393933292,6.443742186663675,29.489176869245068,23.63936491797021,-3.23295607813634e-05,0.0889859497547149,0,0,0
2413,78975.17591026735,2010-09-01 11:26:09,629.0687511725376,4,7,0.2447063326835632,4.199653148651123,7.446288504034511,6.443742186663675,29.53913140787973,23.63936491797021,-3.23295607813634e-05,0.0889859497547149,0,0,0
2414,79173.98523532749,2010-09-01 11:29:27,827.8780762326875,4,7,0.1944969445466995,4.199814796447754,7.458378847752776,6.443742186663675,29.58990823342564,23.63936491797021,0.0,0.0889859497547149,0,0,0
2415,79437.18467661463,2010-09-01 11:33:51,1091.0775175248311,4,7,0.1444681733846664,4.199653148651123,7.470705272913542,6.443742186663675,29.641676609062262,23.63936491797021,-3.23295607813634e-05,0.0889859497547149,0,0,0
2416,79827.81939091797,2010-09-01 11:40:21,1481.7122318281718,4,7,0.0944394096732139,4.199653148651123,7.48350202603605,6.443742186663675,29.695420217883704,23.63936491797021,0.0,0.0889859497547149,0,0,0
2417,80454.12228594597,2010-09-01 11:50:47,2108.015126941377,4,7,0.0498289167881011,4.199653148651123,7.495650410695952,6.443742186663675,29.74644075111077,23.63936491797021,-3.23295607813634e-05,0.0889859497547149,0,0,0
2418,80484.13692162179,2010-09-01 11:51:18,30.015128405410408,5,7,0.0,4.192692279815674,7.495650410695952,6.443742186663675,29.74644075111077,23.63936491797021,-3.23295607813634e-05,0.0889859497547149,0,0,0
2419,80514.13648203196,2010-09-01 11:51:48,60.01468882059904,5,7,0.0,4.191558837890625,7.495650410695952,6.443742186663675,29.74644075111077,23.63936491797021,0.0,0.0889859497547149,0,0,0
2420,80514.32435295144,2010-09-01 11:51:48,0.187420414340356,6,7,-1.9243103452026844e-05,4.191558837890625,7.495650410695952,6.443742187665495,29.74644075111077,23.6393649221694,0.0,0.0897949114441871,0,0,0
2421,80519.15238295274,2010-09-01 11:51:53,5.015450415651316,6,7,0.0007031940040178,4.191397190093994,7.495651293353182,6.44374218775003,29.74644445085637,23.63936492252373,-6.47544875391759e-05,0.0897949114441871,0,0,0
2422,80549.16807619743,2010-09-01 11:52:23,30.015151743576297,7,7,-1.099568486213684,4.031615734100342,7.495651293353182,6.452910463170776,29.74644445085637,23.67650740486441,-0.0008741378551349,0.0897949114441871,0,0,0
2423,80579.18326915371,2010-09-01 11:52:53,60.03034470487986,7,7,-1.099568486213684,4.007980346679688,7.495651293353182,6.46207869710872,29.74644445085637,23.71335328201582,-0.0004857063177041,0.0897949114441871,0,0,0
2424,80609.19850208463,2010-09-01 11:53:23,90.0455776307875,7,7,-1.099568486213684,3.991630077362061,7.495651293353182,6.471246917624736,29.74644445085637,23.75001974520677,-0.0003561496851034,0.0897949114441871,0,0,0
2425,80639.21360739249,2010-09-01 11:53:53,120.06068293863169,7,7,-1.099568486213684,3.979002952575684,7.495651293353182,6.480415051664367,29.74644445085637,23.786554841228703,-0.0002913951757363,0.0897949114441871,0,0,0
2426,80669.22878366217,2010-09-01 11:54:23,150.07585923840958,7,7,-1.0993878841400146,3.968156576156616,7.495651293353182,6.489583121152095,29.74644445085637,23.82298231797267,-0.0002590179501567,0.0897949114441871,0,0,0
2427,80699.24398430262,2010-09-01 11:54:53,180.0910598738394,7,7,-1.0997490882873535,3.958119630813599,7.495651293353182,6.498751228186675,29.74644445085637,23.859316035075185,-0.0002590179501567,0.0897949114441871,0,0,0
2428,80729.259123525,2010-09-01 11:55:23,210.10619907114653,7,7,-1.099568486213684,3.949054002761841,7.495651293353182,6.507919305023925,29.74644445085637,23.895563303621262,-0.0002590179501567,0.0897949114441871,0,0,0
2429,80759.27431490233,2010-09-01 11:55:53,240.1213904535149,7,7,-1.099568486213684,3.940474033355713,7.495651293353182,6.517087430262926,29.74644445085637,23.931729242863547,-0.0001942634553415,0.0897949114441871,0,0,0
2430,80789.28946628503,2010-09-01 11:56:23,270.1365418361917,7,7,-1.0993878841400146,3.932055950164795,7.495651293353182,6.526255507807746,29.74644445085637,23.967816889610244,-0.0002266406954731,0.0897949114441871,0,0,0
2431,80819.30464627902,2010-09-01 11:56:53,300.15172182516426,7,7,-1.0997490882873535,3.923799753189087,7.495651293353182,6.535423622069485,29.74644445085637,24.00382924944162,-0.0002590179501567,0.0897949114441871,0,0,0
2432,80849.31982715018,2010-09-01 11:57:23,330.166902701348,7,7,-1.099568486213684,3.915867328643799,7.495651293353182,6.544591707139714,29.74644445085637,24.03976774126933,-0.0002266406954731,0.0897949114441871,0,0,0
2433,80879.33502373552,2010-09-01 11:57:53,360.18209928167124,7,7,-1.0997490882873535,3.9080970287323,7.495651293353182,6.553759812909661,29.74644445085637,24.07563426126456,-0.0001942634553415,0.0897949114441871,0,0,0
2434,80909.35017911818,2010-09-01 11:58:23,390.19725466932965,7,7,-1.099929690361023,3.900488376617432,7.495651293353182,6.562927915731189,29.74644445085637,24.11142968452636,-0.0001942634553415,0.0897949114441871,0,0,0
2435,80939.36535068114,2010-09-01 11:58:53,420.2124262272896,7,7,-1.0997490882873535,3.892879724502564,7.495651293353182,6.572095993754306,29.74644445085637,24.14715511000392,-0.0002590179501567,0.0897949114441871,0,0,0
2436,80969.38053955724,2010-09-01 11:59:23,450.2276151084242,7,7,-1.0997490882873535,3.885432958602905,7.495651293353182,6.581264176620162,29.74644445085637,24.18281256069308,-0.0002266406954731,0.0897949114441871,0,0,0
2437,80999.39571120546,2010-09-01 11:59:53,480.2427867515962,7,7,-1.0997490882873535,3.878309965133667,7.495651293353182,6.59043224505336,29.74644445085637,24.21840173033992,-0.0001942634553415,0.0897949114441871,0,0,0
2438,81029.41086353548,2010-09-01 12:00:23,510.2579390816342,7,7,-1.0997490882873535,3.870863199234009,7.495651293353182,6.599600361732446,29.74644445085637,24.253924073531465,-0.0002266406954731,0.0897949114441871,0,0,0
2439,81059.42603954453,2010-09-01 12:00:53,540.2731150906875,7,7,-1.099568486213684,3.8637402057647705,7.495651293353182,6.60876849514504,29.74644445085637,24.28938027527128,-0.0001942634553415,0.0897949114441871,0,0,0
2440,81089.44121409496,2010-09-01 12:01:23,570.2882896461181,7,7,-1.099568486213684,3.856779098510742,7.495651293353182,6.61793660824745,29.74644445085637,24.32477135984908,-0.0001942634553415,0.0897949114441871,0,0,0
2441,81119.45927766571,2010-09-01 12:01:53,600.3063532419261,7,7,-1.099568486213684,3.849817991256714,7.495651293353182,6.627105599305029,29.74644445085637,24.360101347036323,-0.0001618862152099,0.0897949114441871,0,0,0
2442,81149.4716961672,2010-09-01 12:02:23,630.318771753447,7,7,-1.0997490882873535,3.8428568840026855,7.495651293353182,6.636272833193337,29.74644445085637,24.395360989223555,-0.0001942634553415,0.0897949114441871,0,0,0
2443,81179.48673279888,2010-09-01 12:02:53,660.3338083500416,7,7,-1.099568486213684,3.836057662963867,7.495651293353182,6.645440980247918,29.74644445085637,24.43056136137948,-0.0001942634553415,0.0897949114441871,0,0,0
2444,81209.50216712174,2010-09-01 12:03:23,690.3492426829174,7,7,-1.0997490882873535,3.829258680343628,7.495651293353182,6.654609222804112,29.74644445085637,24.465700388802304,-0.0001942634553415,0.0897949114441871,0,0,0
2445,81239.51712445579,2010-09-01 12:03:53,720.3642000069405,7,7,-1.099568486213684,3.8227832317352295,7.495651293353182,6.663777344192591,29.74644445085637,24.50077795665339,-0.0001618862152099,0.0897949114441871,0,0,0
2446,81269.5322707608,2010-09-01 12:04:23,750.3793463069496,7,7,-1.099568486213684,3.816469669342041,7.495651293353182,6.672945465835801,29.74644445085637,24.53579569032541,-0.0001618862152099,0.0897949114441871,0,0,0
2447,81299.5474349103,2010-09-01 12:04:53,780.3945104614578,7,7,-1.099568486213684,3.8098323345184326,7.495651293353182,6.682113614243597,29.74644445085637,24.570754343070377,-0.0001618862152099,0.0897949114441871,0,0,0
2448,81329.56264819726,2010-09-01 12:05:23,810.409723768469,7,7,-1.0997490882873535,3.803518772125244,7.495651293353182,6.691281728387581,29.74644445085637,24.605654497659536,-0.0001942634553415,0.0897949114441871,0,0,0
2449,81359.57779661255,2010-09-01 12:05:53,840.4248721837503,7,7,-1.0993878841400146,3.7976908683776855,7.495651293353182,6.700449892196366,29.74644445085637,24.640497996327085,-0.0001295089750783,0.0897949114441871,0,0,0
2450,81389.59295965929,2010-09-01 12:06:23,870.4400352054352,7,7,-1.099568486213684,3.791377305984497,7.495651293353182,6.709618090417312,29.74644445085637,24.67528576021802,-0.0001295089750783,0.0897949114441871,0,0,0
2451,81419.60813968835,2010-09-01 12:06:53,900.4552152345075,7,7,-1.099568486213684,3.7855494022369385,7.495651293353182,6.718786237110051,29.74644445085637,24.710018585096435,-9.713172767078504e-05,0.0897949114441871,0,0,0
2452,81449.62331653951,2010-09-01 12:07:23,930.470392090672,7,7,-1.0993878841400146,3.77972149848938,7.495651293353182,6.727954446545319,29.74644445085637,24.744697864946584,-0.0001295089750783,0.0897949114441871,0,0,0
2453,81479.63850534546,2010-09-01 12:07:53,960.4855808916068,7,7,-1.0997490882873535,3.773893594741821,7.495651293353182,6.737122630873501,29.74644445085637,24.77932456936101,-0.0001618862152099,0.0897949114441871,0,0,0
2454,81509.6536738007,2010-09-01 12:08:23,990.500749351846,7,7,-1.099568486213684,3.7683894634246826,7.495651293353182,6.746290793114041,29.74644445085637,24.813899228151968,-0.0001295089750783,0.0897949114441871,0,0,0
2455,81539.66885821069,2010-09-01 12:08:53,1020.5159337618372,7,7,-1.0997490882873535,3.762723445892334,7.495651293353182,6.755458991115374,29.74644445085637,24.8484231947408,-0.0001942634553415,0.0897949114441871,0,0,0
2456,81569.68401608453,2010-09-01 12:09:23,1050.5310916356918,7,7,-1.0997490882873535,3.757381200790405,7.495651293353182,6.764627166764029,29.74644445085637,24.88289736531323,-0.0001618862152099,0.0897949114441871,0,0,0
2457,81599.6992399278,2010-09-01 12:09:53,1080.5463154789627,7,7,-1.099568486213684,3.7522010803222656,7.495651293353182,6.773795443060436,29.74644445085637,24.91732313358644,-0.0001295089750783,0.0897949114441871,0,0,0
2458,81629.71437075424,2010-09-01 12:10:23,1110.561446300395,7,7,-1.099568486213684,3.747020721435547,7.495651293353182,6.782963599387449,29.74644445085637,24.95170043276744,-0.0001618862152099,0.0897949114441871,0,0,0
2459,81659.7295480866,2010-09-01 12:10:53,1140.5766236377588,7,7,-1.0997490882873535,3.742002248764038,7.495651293353182,6.792131815336401,29.74644445085637,24.98603097164695,-0.0001295089750783,0.0897949114441871,0,0,0
2460,81689.7447171734,2010-09-01 12:11:23,1170.5917927195471,7,7,-1.099568486213684,3.736983776092529,7.495651293353182,6.801300060666015,29.74644445085637,25.020315372777283,-9.713172767078504e-05,0.0897949114441871,0,0,0
2461,81719.76006065485,2010-09-01 12:11:53,1200.6071362110183,7,7,-1.099568486213684,3.7321271896362314,7.495651293353182,6.810468300839632,29.74644445085637,25.0545542062965,-9.713172767078504e-05,0.0897949114441871,0,0,0
2462,81749.7750887302,2010-09-01 12:12:23,1230.6221643114377,7,7,-1.099568486213684,3.7274324893951416,7.495651293353182,6.819636395735199,29.74644445085637,25.088748154570528,-9.713172767078504e-05,0.0897949114441871,0,0,0
2463,81779.79024484467,2010-09-01 12:12:53,1260.6373203958326,7,7,-1.099568486213684,3.7225759029388423,7.495651293353182,6.828804499985241,29.74644445085637,25.122899050624017,-0.0001618862152099,0.0897949114441871,0,0,0
2464,81809.80541546029,2010-09-01 12:13:23,1290.652491006431,7,7,-1.0997490882873535,3.717881202697754,7.495651293353182,6.837972733687655,29.74644445085637,25.157007514303444,-0.0001295089750783,0.0897949114441871,0,0,0
2465,81839.82073791434,2010-09-01 12:13:53,1320.6678134905455,7,7,-1.0997490882873535,3.713348388671875,7.495651293353182,6.847140954792034,29.74644445085637,25.19107383445944,-0.0001618862152099,0.0897949114441871,0,0,0
2466,81869.83576862124,2010-09-01 12:14:24,1350.6828441723987,7,7,-1.099568486213684,3.708977460861206,7.495651293353182,6.856309120878702,29.74644445085637,25.22509859212372,-0.0001295089750783,0.0897949114441871,0,0,0
2467,81899.85134086783,2010-09-01 12:14:54,1380.6984164290227,7,7,-1.099929690361023,3.704444646835327,7.495651293353182,6.865477393814875,29.74644445085637,25.259082880900035,-0.0001295089750783,0.0897949114441871,0,0,0
2468,81929.86641180002,2010-09-01 12:15:24,1410.7134873561802,7,7,-1.099568486213684,3.700235605239868,7.495651293353182,6.874645592511921,29.74644445085637,25.293026731800516,-9.713172767078504e-05,0.0897949114441871,0,0,0
2469,81959.88132921958,2010-09-01 12:15:54,1440.7284047907865,7,7,-1.099568486213684,3.695864677429199,7.495651293353182,6.883813678148967,29.74644445085637,25.326930726092293,-9.713172767078504e-05,0.0897949114441871,0,0,0
2470,81989.89655770942,2010-09-01 12:16:24,1470.7436332856505,7,7,-1.0997490882873535,3.69165563583374,7.495651293353182,6.892981879099574,29.74644445085637,25.36079605077828,-0.0001295089750783,0.0897949114441871,0,0,0
2471,82019.9116410024,2010-09-01 12:16:54,1500.7587165535642,7,7,-1.0997490882873535,3.687446594238281,7.495651293353182,6.902150019965094,29.74644445085637,25.394622931653032,-0.0001295089750783,0.0897949114441871,0,0,0
2472,82049.92682518683,2010-09-01 12:17:24,1530.7739007329806,7,7,-1.0997490882873535,3.683399438858032,7.495651293353182,6.911318166179806,29.74644445085637,25.42841250226827,-0.0001295089750783,0.0897949114441871,0,0,0
2473,82079.94200540638,2010-09-01 12:17:54,1560.789080952528,7,7,-1.099568486213684,3.679514169692993,7.495651293353182,6.920486344895578,29.74644445085637,25.462165182563865,-9.713172767078504e-05,0.0897949114441871,0,0,0
2474,82109.95725088859,2010-09-01 12:18:24,1590.8043264547796,7,7,-1.099929690361023,3.675467014312744,7.495651293353182,6.929654534478469,29.74644445085637,25.495881372045165,-0.0001295089750783,0.0897949114441871,0,0,0
2475,82139.97234542458,2010-09-01 12:18:54,1620.8194209757396,7,7,-1.099568486213684,3.671581983566284,7.495651293353182,6.938822786012093,29.74644445085637,25.529561618424875,-9.713172767078504e-05,0.0897949114441871,0,0,0
2476,82169.98766223455,2010-09-01 12:19:24,1650.8347377907246,7,7,-1.099568486213684,3.667858600616455,7.495651293353182,6.947991074061466,29.74644445085637,25.563206344794104,-9.713172767078504e-05,0.0897949114441871,0,0,0
2477,82200.00271720193,2010-09-01 12:19:54,1680.8497927530923,7,7,-1.099568486213684,3.663973331451416,7.495651293353182,6.957159215476351,29.74644445085637,25.596815580908057,-9.713172767078504e-05,0.0897949114441871,0,0,0
2478,82230.01788462457,2010-09-01 12:20:24,1710.8649601757456,7,7,-1.099568486213684,3.660249948501587,7.495651293353182,6.966327448651906,29.74644445085637,25.63039073726892,-6.47544875391759e-05,0.0897949114441871,0,0,0
2479,82260.03299811784,2010-09-01 12:20:54,1740.880073663978,7,7,-1.0997490882873535,3.656526565551758,7.495651293353182,6.975496178611807,29.74644445085637,25.663933673104005,-9.713172767078504e-05,0.0897949114441871,0,0,0
2480,82290.04816760562,2010-09-01 12:21:24,1770.8952431517785,7,7,-1.0997490882873535,3.6529650688171382,7.495651293353182,6.984665216102586,29.74644445085637,25.697444593126185,-9.713172767078504e-05,0.0897949114441871,0,0,0
2481,82320.06337434126,2010-09-01 12:21:54,1800.9104498874117,7,7,-1.0997490882873535,3.6495654582977295,7.495651293353182,6.993834100746402,29.74644445085637,25.73092236473991,-9.713172767078504e-05,0.0897949114441871,0,0,0
2482,82350.07854169374,2010-09-01 12:22:24,1830.9256172649527,7,7,-1.0997490882873535,3.6460039615631104,7.495651293353182,7.003003077887776,29.74644445085637,25.764368314958205,-6.47544875391759e-05,0.0897949114441871,0,0,0
2483,82380.09374150712,2010-09-01 12:22:54,1860.9408170783336,7,7,-1.0997490882873535,3.642766237258911,7.495651293353182,7.012171998896535,29.74644445085637,25.79778300530188,-6.47544875391759e-05,0.0897949114441871,0,0,0
2484,82410.1089541224,2010-09-01 12:23:24,1890.9560296986333,7,7,-1.0997490882873535,3.639366626739502,7.495651293353182,7.021340912244834,29.74644445085637,25.8311673736224,-9.713172767078504e-05,0.0897949114441871,0,0,0
2485,82440.12408851273,2010-09-01 12:23:54,1920.9711640638973,7,7,-1.099568486213684,3.6362907886505127,7.495651293353182,7.030509422497013,29.74644445085637,25.864521006653003,-9.713172767078504e-05,0.0897949114441871,0,0,0
2486,82470.13924175505,2010-09-01 12:24:24,1950.9863173312715,7,7,-1.099568486213684,3.633214950561523,7.495651293353182,7.039677498762612,29.74644445085637,25.89784466294423,-6.47544875391759e-05,0.0897949114441871,0,0,0
2487,82500.1544335334,2010-09-01 12:24:54,1981.0015090845643,7,7,-1.099568486213684,3.630300998687744,7.495651293353182,7.048845599869005,29.74644445085637,25.93114020040308,-6.47544875391759e-05,0.0897949114441871,0,0,0
2488,82530.169591302,2010-09-01 12:25:24,2011.0166668481445,7,7,-1.099929690361023,3.627225160598755,7.495651293353182,7.058013765849362,29.74644445085637,25.96440862322467,-6.47544875391759e-05,0.0897949114441871,0,0,0
2489,82560.18478003275,2010-09-01 12:25:54,2041.0318555839167,7,7,-1.099568486213684,3.624311208724976,7.495651293353182,7.067181907381791,29.74644445085637,25.99765024827412,-6.47544875391759e-05,0.0897949114441871,0,0,0
2490,82590.19996148537,2010-09-01 12:26:24,2071.0470370365374,7,7,-1.0993878841400146,3.6215591430664062,7.495651293353182,7.076349999340883,29.74644445085637,26.030865358247333,-9.713172767078504e-05,0.0897949114441871,0,0,0
2491,82620.2152849419,2010-09-01 12:26:54,2101.0623605181377,7,7,-1.0997490882873535,3.618645191192627,7.495651293353182,7.085518144744586,29.74644445085637,26.064054578746063,-6.47544875391759e-05,0.0897949114441871,0,0,0
2492,82650.23029196983,2010-09-01 12:27:24,2131.077367515963,7,7,-1.099568486213684,3.6158931255340576,7.495651293353182,7.094686265177442,29.74644445085637,26.09721804129737,-6.47544875391759e-05,0.0897949114441871,0,0,0
2493,82680.24547908154,2010-09-01 12:27:54,2161.0925546327,7,7,-1.099568486213684,3.613141059875488,7.495651293353182,7.103854376681604,29.74644445085637,26.130356561966018,-9.713172767078504e-05,0.0897949114441871,0,0,0
2494,82710.26063955187,2010-09-01 12:28:24,2191.1077151030254,7,7,-1.099568486213684,3.610550880432129,7.495651293353182,7.113022483995125,29.74644445085637,26.16347057687357,-6.47544875391759e-05,0.0897949114441871,0,0,0
2495,82740.27581653335,2010-09-01 12:28:54,2221.1228920794906,7,7,-1.099568486213684,3.60779881477356,7.495651293353182,7.122190575925806,29.74644445085637,26.196559914993585,-9.713172767078504e-05,0.0897949114441871,0,0,0
2496,82770.29099709373,2010-09-01 12:29:24,2251.138072639887,7,7,-1.0997490882873535,3.6052086353302,7.495651293353182,7.131358693670319,29.74644445085637,26.229624944967675,-9.713172767078504e-05,0.0897949114441871,0,0,0
2497,82800.30622788933,2010-09-01 12:29:54,2281.153303435485,7,7,-1.099568486213684,3.602456569671631,7.495651293353182,7.1405267836084,29.74644445085637,26.262665851972848,-0.0001295089750783,0.0897949114441871,0,0,0
2498,82830.32135670076,2010-09-01 12:30:24,2311.168432246908,7,7,-1.0997490882873535,3.5998663902282715,7.495651293353182,7.149694929106685,29.74644445085637,26.295682856539223,-9.713172767078504e-05,0.0897949114441871,0,0,0
2499,82860.33656594765,2010-09-01 12:30:54,2341.1836414988124,7,7,-1.099568486213684,3.597276210784912,7.495651293353182,7.158863053947043,29.74644445085637,26.32867559557373,-9.713172767078504e-05,0.0897949114441871,0,0,0
2500,82890.35172597689,2010-09-01 12:31:24,2371.1988015230268,7,7,-1.0997490882873535,3.5945241451263428,7.495651293353182,7.168031186302348,29.74644445085637,26.36164400187452,-9.713172767078504e-05,0.0897949114441871,0,0,0
2501,82920.36701961911,2010-09-01 12:31:54,2401.214095175283,7,7,-1.0997490882873535,3.5917723178863525,7.495651293353182,7.177199378772333,29.74644445085637,26.394587901363916,-0.0001294612884521,0.0897949114441871,0,0,0
2502,82950.38217425991,2010-09-01 12:32:24,2431.2292498060547,7,7,-1.099568486213684,3.589020252227783,7.495651293353182,7.186367545921514,29.74644445085637,26.42750688758445,-9.713172767078504e-05,0.0897949114441871,0,0,0
2503,82980.39721959327,2010-09-01 12:32:54,2461.2442951394246,7,7,-1.099568486213684,3.586430072784424,7.495651293353182,7.195535685931319,29.74644445085637,26.46040089370953,-0.0001295089750783,0.0897949114441871,0,0,0
2504,83010.41254518012,2010-09-01 12:33:24,2491.2596207513334,7,7,-1.0997490882873535,3.5836780071258545,7.495651293353182,7.204703885024475,29.74644445085637,26.493269846898777,-6.47544875391759e-05,0.0897949114441871,0,0,0
2505,83040.4303802664,2010-09-01 12:33:54,2521.2774558426386,7,7,-1.099568486213684,3.580764055252075,7.495651293353182,7.213872815005376,29.74644445085637,26.526116036655157,-0.0001295089750783,0.0897949114441871,0,0,0
2506,83070.44288351914,2010-09-01 12:34:24,2551.289959070298,7,7,-1.099568486213684,3.578011989593506,7.495651293353182,7.223040125504835,29.74644445085637,26.558930198960045,-6.47544875391759e-05,0.0897949114441871,0,0,0
2507,83100.45792397035,2010-09-01 12:34:54,2581.3049995215,7,7,-1.0997490882873535,3.5749361515045166,7.495651293353182,7.232208247746141,29.74644445085637,26.59172007710837,-6.47544875391759e-05,0.0897949114441871,0,0,0
2508,83130.47334359154,2010-09-01 12:35:24,2611.320419147722,7,7,-1.099568486213684,3.5720221996307373,7.495651293353182,7.241376474393636,29.74644445085637,26.624482292431384,-3.237724376958795e-05,0.0897949114441871,0,0,0
2509,83160.48828787808,2010-09-01 12:35:54,2641.3353634242267,7,7,-1.099568486213684,3.568784475326538,7.495651293353182,7.250544520256897,29.74644445085637,26.657215661984296,-9.713172767078504e-05,0.0897949114441871,0,0,0
2510,83190.50346386204,2010-09-01 12:36:24,2671.350539408217,7,7,-1.0997490882873535,3.565546751022339,7.495651293353182,7.259712708292734,29.74644445085637,26.68992073497024,-9.713172767078504e-05,0.0897949114441871,0,0,0
2511,83220.51867437211,2010-09-01 12:36:54,2701.365749913245,7,7,-1.099568486213684,3.5624709129333496,7.495651293353182,7.268880856519844,29.74644445085637,26.72259613587457,-6.47544875391759e-05,0.0897949114441871,0,0,0
2512,83250.53380908324,2010-09-01 12:37:24,2731.380884629384,7,7,-1.0997490882873535,3.5589094161987305,7.495651293353182,7.27804894855394,29.74644445085637,26.755241650618537,-9.713172767078504e-05,0.0897949114441871,0,0,0
2513,83280.54898901707,2010-09-01 12:37:54,2761.396064563219,7,7,-1.0997490882873535,3.5555098056793213,7.495651293353182,7.287217131705072,29.74644445085637,26.787855558093582,-0.0001295089750783,0.0897949114441871,0,0,0
2514,83310.56415018415,2010-09-01 12:38:24,2791.411225730282,7,7,-1.0993878841400146,3.551948308944702,7.495651293353182,7.296385293892394,29.74644445085637,26.820436649465133,-9.713172767078504e-05,0.0897949114441871,0,0,0
2515,83340.57932328094,2010-09-01 12:38:54,2821.426398827077,7,7,-1.0997490882873535,3.547901153564453,7.495651293353182,7.305553439930165,29.74644445085637,26.85298367530935,-0.0001618862152099,0.0897949114441871,0,0,0
2516,83370.5944992148,2010-09-01 12:39:24,2851.441574760943,7,7,-1.0997490882873535,3.544015884399414,7.495651293353182,7.314721618543539,29.74644445085637,26.885494844912657,-0.0001295089750783,0.0897949114441871,0,0,0
2517,83400.6096911786,2010-09-01 12:39:54,2881.456766719748,7,7,-1.099568486213684,3.539968729019165,7.495651293353182,7.323889789920497,29.74644445085637,26.9179689716359,-9.713172767078504e-05,0.0897949114441871,0,0,0
2518,83430.62499771296,2010-09-01 12:40:24,2911.472073284185,7,7,-1.0997490882873535,3.535597801208496,7.495651293353182,7.333057972246972,29.74644445085637,26.950404957127425,-0.0001618862152099,0.0897949114441871,0,0,0
2519,83460.6400242545,2010-09-01 12:40:54,2941.487099810682,7,7,-1.0997490882873535,3.531388759613037,7.495651293353182,7.34222612424827,29.74644445085637,26.98280134883476,-0.0001295089750783,0.0897949114441871,0,0,0
2520,83490.65532323002,2010-09-01 12:41:24,2971.502398806256,7,7,-1.0997490882873535,3.526855945587158,7.495651293353182,7.351394363255723,29.74644445085637,27.015157522818537,-0.0001295089750783,0.0897949114441871,0,0,0
2521,83520.67037357089,2010-09-01 12:41:54,3001.5174491471053,7,7,-1.099568486213684,3.5223231315612797,7.495651293353182,7.360562412221794,29.74644445085637,27.04747171380853,-0.0001295089750783,0.0897949114441871,0,0,0
2522,83550.68551159526,2010-09-01 12:42:24,3031.5325871664763,7,7,-1.099568486213684,3.5177903175354004,7.495651293353182,7.369729744541013,29.74644445085637,27.07974133691325,-9.713172767078504e-05,0.0897949114441871,0,0,0
2523,83580.70066383007,2010-09-01 12:42:54,3061.5477394012773,7,7,-1.099568486213684,3.512771844863892,7.495651293353182,7.378897322284425,29.74644445085637,27.11196804963481,-0.0001618862152099,0.0897949114441871,0,0,0
2524,83610.71588696657,2010-09-01 12:43:24,3091.562962512724,7,7,-1.099568486213684,3.507591724395752,7.495651293353182,7.388064706685078,29.74644445085637,27.14414771137522,-0.0001618862152099,0.0897949114441871,0,0,0
2525,83640.73122391173,2010-09-01 12:43:54,3121.578299462892,7,7,-1.0993878841400146,3.5020875930786133,7.495651293353182,7.397232149418566,29.74644445085637,27.1762781562962,-0.0001618862152099,0.0897949114441871,0,0,0
2526,83670.746230283,2010-09-01 12:44:24,3151.593305834156,7,7,-1.0993878841400146,3.495774030685425,7.495651293353182,7.406399437837801,29.74644445085637,27.208354049857306,-0.0001942634553415,0.0897949114441871,0,0,0
2527,83700.76145736434,2010-09-01 12:44:54,3181.60853292051,7,7,-1.099568486213684,3.4889748096466064,7.495651293353182,7.415566866412767,29.74644445085637,27.24037094868449,-0.0001942634553415,0.0897949114441871,0,0,0
2528,83730.7766359498,2010-09-01 12:45:24,3211.6237115260337,7,7,-1.0997490882873535,3.4812042713165283,7.495651293353182,7.424734981344233,29.74644445085637,27.27232403469601,-0.0002266406954731,0.0897949114441871,0,0,0
2529,83760.79190456969,2010-09-01 12:45:54,3241.63898012084,7,7,-1.099568486213684,3.4724624156951904,7.495651293353182,7.433902995377886,29.74644445085637,27.304201172367733,-0.0002913951757363,0.0897949114441871,0,0,0
2530,83790.80693951716,2010-09-01 12:46:25,3271.6540150733367,7,7,-1.099568486213684,3.462425470352173,7.495651293353182,7.443071017303173,29.74644445085637,27.33599228336625,-0.0002913951757363,0.0897949114441871,0,0,0
2531,83820.82251210962,2010-09-01 12:46:55,3301.6695876708104,7,7,-1.099568486213684,3.450122117996216,7.495651293353182,7.452239207274703,29.74644445085637,27.367681552546028,-0.0003237724304199,0.0897949114441871,0,0,0
2532,83850.83743467701,2010-09-01 12:47:25,3331.684510248234,7,7,-1.099568486213684,3.434742927551269,7.495651293353182,7.461407242609639,29.74644445085637,27.39924426939741,-0.0004209041653666,0.0897949114441871,0,0,0
2533,83880.85247320343,2010-09-01 12:47:55,3361.699548759601,7,7,-1.099568486213684,3.414183616638184,7.495651293353182,7.470575335682554,29.74644445085637,27.430644463285585,-0.0006151676061563,0.0897949114441871,0,0,0
2534,83910.86761025539,2010-09-01 12:48:25,3391.714685801536,7,7,-1.099568486213684,3.3848822116851807,7.495651293353182,7.479743488118506,29.74644445085637,27.461820454610308,-0.0009389400365762,0.0897949114441871,0,0,0
2535,83940.88291417323,2010-09-01 12:48:55,3421.72998972439,7,7,-1.099568486213684,3.34214448928833,7.495651293353182,7.488911697789418,29.74644445085637,27.49267076991737,-0.0013274669181555,0.0897949114441871,0,0,0
2536,83970.89795937628,2010-09-01 12:49:25,3451.7450349224214,7,7,-1.099568486213684,3.2791707515716557,7.495651293353182,7.498079736640984,29.74644445085637,27.52304118940009,-0.0019750117789953,0.0897949114441871,0,0,0
2537,84000.91357667516,2010-09-01 12:49:55,3481.7606522513806,7,7,-1.099568486213684,3.187543630599976,7.495651293353182,7.507247952606853,29.74644445085637,27.552713148970064,-0.0028815269470214,0.0897949114441871,0,0,0
2538,84030.92833865232,2010-09-01 12:50:25,3511.775414203476,7,7,-1.099568486213684,3.0433032512664795,7.495651293353182,7.516415949816646,29.74644445085637,27.58133165165951,-0.0047594546340405,0.0897949114441871,0,0,0
2539,84052.70926322817,2010-09-01 12:50:46,3533.5563387793422,7,7,-1.099568486213684,2.843050718307495,7.495651293353182,7.523068874230057,29.74644445085637,27.60100117844053,-0.0101340292021632,0.0897949114441871,0,0,0
2540,84061.38103126737,2010-09-01 12:50:55,3542.22810681352,7,7,-1.0997490882873535,2.699458122253418,7.495651293353182,7.525717658820388,29.74644445085637,27.608351301218573,-0.0142783168703317,0.0897949114441871,0,0,0
2541,84121.39467979633,2010-09-01 12:51:55,60.01467822418952,8,7,0.0,3.3073389530181885,7.495651293353182,7.525717658820388,29.74644445085637,27.608351301218573,0.0010684489971026,0.0897949114441871,0,0,0
2542,84121.5823171608,2010-09-01 12:51:56,0.187734467056356,9,7,-1.9243103452026844e-05,3.3076627254486084,7.495651293353182,7.525717659823886,29.74644445085637,27.60835130453781,0.0,0.0859829038381576,0,0,0
2543,84126.41027174413,2010-09-01 12:52:00,5.015689050402542,9,7,0.0007031940040178,3.314138174057007,7.495652225355175,7.525717659906485,29.74644753692284,27.608351304811013,0.0009389400365762,0.0859829038381576,0,0,0
