Data_Point,Test_Time(s),Date_Time,Step_Time(s),Step_Index,Cycle_Index,Current(A),Voltage(V),Charge_Capacity(Ah),Discharge_Capacity(Ah),Charge_Energy(Wh),Discharge_Energy(Wh),dV/dt(V/s),Internal_Resistance(Ohm),Is_FC_Data,AC_Impedance(Ohm),ACI_Phase_Angle(Deg)
6492,218332.78005980072,2010-09-03 02:09:01,30.015300895308307,1,19,0.0,3.4340953826904297,19.209971540586395,19.215119888691564,76.36409727245659,70.39097860892939,0.000615119934082,0.0867155864834785,0,0,0
6493,218362.79530225537,2010-09-03 02:09:31,60.030543239689685,1,19,0.0,3.4522266387939453,19.209971540586395,19.215119888691564,76.36409727245659,70.39097860892939,0.0003885269106831,0.0867155864834785,0,0,0
6494,218392.81025458692,2010-09-03 02:10:01,90.04549557126992,1,19,0.0,3.465663194656372,19.209971540586395,19.215119888691564,76.36409727245659,70.39097860892939,0.0003237724304199,0.0867155864834785,0,0,0
6495,218422.77868342263,2010-09-03 02:10:31,120.01392441700854,1,19,0.0,3.4758620262146,19.209971540586395,19.215119888691564,76.36409727245659,70.39097860892939,0.0002590179501567,0.0867155864834785,0,0,0
6496,218452.7981516187,2010-09-03 02:11:01,30.01530767721089,2,19,0.5501165986061096,3.60812258720398,19.214558204522945,19.215119888691564,76.3805118554162,70.39097860892939,0.0013274669181555,0.0867155864834785,0,0,0
6497,218482.81319212003,2010-09-03 02:11:31,60.03034817853728,2,19,0.5499359965324402,3.64843225479126,19.21914481988131,19.215119888691564,76.39715801521344,70.39097860892939,0.0009389400365762,0.0867155864834785,0,0,0
6498,218512.8283465002,2010-09-03 02:12:01,90.04550256369721,2,19,0.5499359965324402,3.678704738616944,19.22373139054165,19.215119888691564,76.41396393941993,70.39097860892939,0.0007122993702068,0.0867155864834785,0,0,0
6499,218542.84353000796,2010-09-03 02:12:31,120.0606860664271,2,19,0.5501165986061096,3.703149557113648,19.228317944512657,19.215119888691564,76.43089457683813,70.39097860892939,0.0006151676061563,0.0867155864834785,0,0,0
6500,218572.85871419235,2010-09-03 02:13:01,150.07587029095592,2,19,0.5499359965324402,3.7233853340148926,19.232904550353897,19.215119888691564,76.44792744098656,70.39097860892939,0.0005180359003134,0.0867155864834785,0,0,0
6501,218602.8738698507,2010-09-03 02:13:31,180.09102591921405,2,19,0.5501165986061096,3.739412069320679,19.237491127215144,19.215119888691564,76.46504338511177,70.39097860892939,0.0003237724304199,0.0867155864834785,0,0,0
6502,218632.8891702548,2010-09-03 02:14:01,210.10632632329808,2,19,0.5501165986061096,3.751229763031006,19.24207771890553,19.215119888691564,76.48222359745026,70.39097860892939,0.0002590179501567,0.0867155864834785,0,0,0
6503,218662.9042395228,2010-09-03 02:14:31,240.12139560635737,2,19,0.5501165986061096,3.758352518081665,19.24666431532731,19.215119888691564,76.49944640693718,70.39097860892939,0.0001618862152099,0.0867155864834785,0,0,0
6504,218692.9195093356,2010-09-03 02:15:01,270.1366653991486,2,19,0.5501165986061096,3.762399673461914,19.251250898088426,19.215119888691564,76.51669424001459,70.39097860892939,6.47544875391759e-05,0.0867155864834785,0,0,0
6505,218722.9346811493,2010-09-03 02:15:31,300.15183721274565,2,19,0.5501165986061096,3.7657992839813232,19.255837483249035,19.215119888691564,76.53395902850903,70.39097860892939,6.47544875391759e-05,0.0867155864834785,0,0,0
6506,218752.94972610168,2010-09-03 02:16:01,330.166882170178,2,19,0.5501165986061096,3.768875122070313,19.26042408505714,19.215119888691564,76.55123828909845,70.39097860892939,6.47544875391759e-05,0.0867155864834785,0,0,0
6507,218782.96494584472,2010-09-03 02:16:31,360.1821019032049,2,19,0.5499359965324402,3.771789073944092,19.265010676564987,19.215119888691564,76.56853121553908,70.39097860892939,9.713172767078504e-05,0.0867155864834785,0,0,0
6508,218812.98011080624,2010-09-03 02:17:01,390.1972668647244,2,19,0.550297200679779,3.774864912033081,19.269597207875123,19.215119888691564,76.58583752116115,70.39097860892939,9.713172767078504e-05,0.0867155864834785,0,0,0
6509,218842.99526107617,2010-09-03 02:17:31,420.2124171346278,2,19,0.5501165986061096,3.7776169776916495,19.274183873814412,19.215119888691564,76.60315786599,70.39097860892939,6.47544875391759e-05,0.0867155864834785,0,0,0
6510,218873.0104990797,2010-09-03 02:18:01,450.22765515824045,2,19,0.5501165986061096,3.78069281578064,19.278770517322048,19.215119888691564,76.62049167655123,70.39097860892939,9.713172767078504e-05,0.0867155864834785,0,0,0
6511,218903.02561150023,2010-09-03 02:18:31,480.2427675587618,2,19,0.550297200679779,3.783606767654419,19.28335709507625,19.215119888691564,76.63783853796765,70.39097860892939,6.47544875391759e-05,0.0867155864834785,0,0,0
6512,218933.0407913489,2010-09-03 02:19:01,510.25794740738456,2,19,0.5501165986061096,3.786358833312988,19.287943713824497,19.215119888691564,76.65519890883492,70.39097860892939,6.47544875391759e-05,0.0867155864834785,0,0,0
6513,218963.0559448769,2010-09-03 02:19:31,540.2731009303958,2,19,0.5501165986061096,3.789272785186768,19.292530315983623,19.215119888691564,76.67257252683527,70.39097860892939,9.713172767078504e-05,0.0867155864834785,0,0,0
6514,218993.07112218425,2010-09-03 02:20:01,570.2882782426973,2,19,0.5501165986061096,3.792348623275757,19.297116996327485,19.215119888691564,76.68995962938709,70.39097860892939,9.713172767078504e-05,0.0867155864834785,0,0,0
6515,219023.0863075616,2010-09-03 02:20:31,600.3034636150869,2,19,0.5499359965324402,3.795100688934326,19.301703636137532,19.215119888691564,76.70735984117685,70.39097860892939,6.47544875391759e-05,0.0867155864834785,0,0,0
6516,219053.1014682325,2010-09-03 02:21:01,630.3186242909251,2,19,0.5501165986061096,3.7980146408081055,19.30629022589193,19.215119888691564,76.72477309126195,70.39097860892939,6.47544875391759e-05,0.0867155864834785,0,0,0
6517,219083.1166597301,2010-09-03 02:21:31,660.3338158186558,2,19,0.5499359965324402,3.8009285926818848,19.31087686908744,19.215119888691564,76.74219997997847,70.39097860892939,6.47544875391759e-05,0.0867155864834785,0,0,0
6518,219113.1320784891,2010-09-03 02:22:01,690.3492345576668,2,19,0.5501165986061096,3.803842544555664,19.315463529785976,19.215119888691564,76.75964053218394,70.39097860892939,3.237724376958795e-05,0.0867155864834785,0,0,0
6519,219143.147198639,2010-09-03 02:22:31,720.3643546974769,2,19,0.5501165986061096,3.8070802688598633,19.320050088375613,19.215119888691564,76.77709459556002,70.39097860892939,9.713172767078504e-05,0.0867155864834785,0,0,0
6520,219173.16216648923,2010-09-03 02:23:01,750.3793225477344,2,19,0.5499359965324402,3.810156106948853,19.324636700244504,19.215119888691564,76.79456315590654,70.39097860892939,3.237724376958795e-05,0.0867155864834785,0,0,0
6521,219203.17733470385,2010-09-03 02:23:31,780.3944907623616,2,19,0.550297200679779,3.8135557174682617,19.329223347568178,19.215119888691564,76.81204661231762,70.39097860892939,9.713172767078504e-05,0.0867155864834785,0,0,0
6522,219233.1925087029,2010-09-03 02:24:01,810.4096647614052,2,19,0.5501165986061096,3.816793441772461,19.33380993959817,19.215119888691564,76.82954534484855,70.39097860892939,9.713172767078504e-05,0.0867155864834785,0,0,0
6523,219263.20766511312,2010-09-03 02:24:31,840.4248211866499,2,19,0.5499359965324402,3.82035493850708,19.33839648265899,19.215119888691564,76.84705946739628,70.39097860892939,9.713172767078504e-05,0.0867155864834785,0,0,0
6524,219293.2232016056,2010-09-03 02:25:01,870.4403577142263,2,19,0.5501165986061096,3.823754549026489,19.34298306739113,19.215119888691564,76.86458961957092,70.39097860892939,9.713172767078504e-05,0.0867155864834785,0,0,0
6525,219323.2379912016,2010-09-03 02:25:31,900.455147295182,2,19,0.5501165986061096,3.827316045761109,19.34756955119434,19.215119888691564,76.88213544673076,70.39097860892939,9.713172767078504e-05,0.0867155864834785,0,0,0
6526,219353.2532939716,2010-09-03 02:26:01,930.4704500350872,2,19,0.5501165986061096,3.830877542495728,19.35215611243564,19.215119888691564,76.89969755394523,70.39097860892939,9.713172767078504e-05,0.0867155864834785,0,0,0
6527,219383.2683658812,2010-09-03 02:26:31,960.4855219396804,2,19,0.5501165986061096,3.834115028381348,19.356742671525744,19.215119888691564,76.91727550435414,70.39097860892939,9.713172767078504e-05,0.0867155864834785,0,0,0
6528,219413.2835289881,2010-09-03 02:27:01,990.5006850465776,2,19,0.5501165986061096,3.837676525115967,19.36132924392495,19.215119888691564,76.9348691422214,70.39097860892939,9.713172767078504e-05,0.0867155864834785,0,0,0
6529,219443.29870295204,2010-09-03 02:27:31,1020.5158590155464,2,19,0.5501165986061096,3.841076135635376,19.36591579130381,19.215119888691564,76.95247800122155,70.39097860892939,0.0001295089750783,0.0867155864834785,0,0,0
6530,219473.3138657632,2010-09-03 02:28:01,1050.531021821694,2,19,0.5499359965324402,3.8439900875091553,19.37050244107561,19.215119888691564,76.97010232054204,70.39097860892939,9.713172767078504e-05,0.0867155864834785,0,0,0
6531,219503.329064514,2010-09-03 02:28:31,1080.5462205974893,2,19,0.5501165986061096,3.847389698028565,19.37508895915886,19.215119888691564,76.98774087479312,70.39097860892939,9.713172767078504e-05,0.0867155864834785,0,0,0
6532,219533.34421177636,2010-09-03 02:29:01,1110.5613678348343,2,19,0.5501165986061096,3.850303649902344,19.37967555458801,19.215119888691564,77.00539429683818,70.39097860892939,3.237724376958795e-05,0.0867155864834785,0,0,0
6533,219563.35938291327,2010-09-03 02:29:31,1140.5765389717449,2,19,0.5501165986061096,3.853541374206543,19.38426221376431,19.215119888691564,77.0230622831761,70.39097860892939,9.713172767078504e-05,0.0867155864834785,0,0,0
6534,219593.3746816131,2010-09-03 02:30:01,1170.591837676594,2,19,0.5501165986061096,3.856617212295532,19.38884886769352,19.215119888691564,77.0407442097966,70.39097860892939,6.47544875391759e-05,0.0867155864834785,0,0,0
6535,219623.38974755784,2010-09-03 02:30:31,1200.6069036213332,2,19,0.5501165986061096,3.859531164169312,19.39343540130073,19.215119888691564,77.05843923749585,70.39097860892939,6.47544875391759e-05,0.0867155864834785,0,0,0
6536,219653.40503341568,2010-09-03 02:31:01,1230.622189504226,2,19,0.5501165986061096,3.862283229827881,19.39802194839526,19.215119888691564,77.07614734780603,70.39097860892939,9.713172767078504e-05,0.0867155864834785,0,0,0
6537,219683.42020339973,2010-09-03 02:31:31,1260.6373594632007,2,19,0.5501165986061096,3.86487340927124,19.40260850167145,19.215119888691564,77.09386790221961,70.39097860892939,6.47544875391759e-05,0.0867155864834785,0,0,0
6538,219713.4352702216,2010-09-03 02:32:01,1290.652426305176,2,19,0.5501165986061096,3.8674635887146,19.407195063631296,19.215119888691564,77.11160019760213,70.39097860892939,6.47544875391759e-05,0.0867155864834785,0,0,0
6539,219743.4533177975,2010-09-03 02:32:31,1320.67047388607,2,19,0.5501165986061096,3.869891881942749,19.411782063143008,19.215119888691564,77.1293451793564,70.39097860892939,0.0001295089750783,0.0867155864834785,0,0,0
6540,219773.46562365827,2010-09-03 02:33:02,1350.6827797167557,2,19,0.5499359965324402,3.871834516525269,19.416368232605667,19.215119888691564,77.14709720297353,70.39097860892939,6.47544875391759e-05,0.0867155864834785,0,0,0
6541,219803.4810167985,2010-09-03 02:33:32,1380.6981728619792,2,19,0.5501165986061096,3.873939037322998,19.420954857853783,19.215119888691564,77.16486052849864,70.39097860892939,6.47544875391759e-05,0.0867155864834785,0,0,0
6542,219833.4962145567,2010-09-03 02:34:02,1410.7133706152258,2,19,0.5501165986061096,3.8755578994750977,19.42554142165613,19.215119888691564,77.18263217077731,70.39097860892939,3.237724376958795e-05,0.0867155864834785,0,0,0
6543,219863.51116581063,2010-09-03 02:34:32,1440.72832186912,2,19,0.550297200679779,3.8773386478424072,19.430127998503057,19.215119888691564,77.20041189851231,70.39097860892939,3.237724376958795e-05,0.0867155864834785,0,0,0
6544,219893.52641676145,2010-09-03 02:35:02,1470.7435728249638,2,19,0.550297200679779,3.878795623779297,19.43471456300013,19.215119888691564,77.21819890817413,70.39097860892939,3.237724376958795e-05,0.0867155864834785,0,0,0
6545,219923.5416143092,2010-09-03 02:35:32,1500.7587703676857,2,19,0.5499359965324402,3.880090713500977,19.439301179721863,19.215119888691564,77.235992722895,70.39097860892939,0.0,0.0867155864834785,0,0,0
6546,219953.55663375807,2010-09-03 02:36:02,1530.7737898065177,2,19,0.5499359965324402,3.881385803222656,19.443887533830505,19.215119888691564,77.25379166471328,70.39097860892939,0.0,0.0867155864834785,0,0,0
6547,219983.5718265189,2010-09-03 02:36:32,1560.7889826024093,2,19,0.5497553944587708,3.882680892944336,19.448473237511728,19.215119888691564,77.2715937126487,70.39097860892939,3.237724376958795e-05,0.0867155864834785,0,0,0
6548,220013.58698290403,2010-09-03 02:37:02,1590.8041389825412,2,19,0.5501165986061096,3.883975982666016,19.453058921142524,19.215119888691564,77.28940111374588,70.39097860892939,6.47544875391759e-05,0.0867155864834785,0,0,0
6549,220043.6021576048,2010-09-03 02:37:32,1620.8193136532589,2,19,0.5501165986061096,3.8849472999572754,19.457644607588293,19.215119888691564,77.30721358781551,70.39097860892939,3.237724376958795e-05,0.0867155864834785,0,0,0
6550,220073.6174839836,2010-09-03 02:38:02,1650.83464003208,2,19,0.5499359965324402,3.885918617248535,19.462230417057825,19.215119888691564,77.32503156391627,70.39097860892939,-3.237724376958795e-05,0.0867155864834785,0,0,0
6551,220103.63275909968,2010-09-03 02:38:32,1680.8499151581634,2,19,0.5501165986061096,3.887051820755005,19.466817045668524,19.215119888691564,77.34285774015048,70.39097860892939,0.0,0.0867155864834785,0,0,0
6552,220133.64771411795,2010-09-03 02:39:02,1710.8648701964896,2,19,0.5501165986061096,3.8881850242614746,19.4714035333072,19.215119888691564,77.36068814053088,70.39097860892939,6.47544875391759e-05,0.0867155864834785,0,0,0
6553,220163.66288150556,2010-09-03 02:39:32,1740.880037569018,2,19,0.5501165986061096,3.8891563415527344,19.475990143182745,19.215119888691564,77.37852378650256,70.39097860892939,3.237724376958795e-05,0.0867155864834785,0,0,0
6554,220193.67802158504,2010-09-03 02:40:02,1770.8951776435115,2,19,0.5501165986061096,3.890127658843994,19.480576782901537,19.215119888691564,77.3963641687154,70.39097860892939,0.0,0.0867155864834785,0,0,0
6555,220223.6932069975,2010-09-03 02:40:32,1800.910363056001,2,19,0.550297200679779,3.891260862350464,19.485163357235507,19.215119888691564,77.41420900144979,70.39097860892939,3.237724376958795e-05,0.0867155864834785,0,0,0
6556,220253.70836666084,2010-09-03 02:41:02,1830.925522709291,2,19,0.5501165986061096,3.8920702934265137,19.489749952797062,19.215119888691564,77.43205856263081,70.39097860892939,0.0,0.0867155864834785,0,0,0
6557,220283.72354377765,2010-09-03 02:41:32,1860.9406998261047,2,19,0.5501165986061096,3.893203496932984,19.494336576321043,19.215119888691564,77.44991286046219,70.39097860892939,3.237724376958795e-05,0.0867155864834785,0,0,0
6558,220313.7388383572,2010-09-03 02:42:02,1890.95599442071,2,19,0.5501165986061096,3.894174814224243,19.4989231436765,19.215119888691564,77.46777163990386,70.39097860892939,3.237724376958795e-05,0.0867155864834785,0,0,0
6559,220343.75393892324,2010-09-03 02:42:32,1920.971094971699,2,19,0.550297200679779,3.894984245300293,19.50350975639208,19.215119888691564,77.48563499691666,70.39097860892939,0.0,0.0867155864834785,0,0,0
6560,220373.7690634991,2010-09-03 02:43:02,1950.9862195525773,2,19,0.5501165986061096,3.8962793350219727,19.50809634177629,19.215119888691564,77.50350267687128,70.39097860892939,6.47544875391759e-05,0.0867155864834785,0,0,0
6561,220403.7842561195,2010-09-03 02:43:32,1981.0014121730312,2,19,0.5501165986061096,3.8974125385284415,19.51268286790368,19.215119888691564,77.52137494722527,70.39097860892939,6.47544875391759e-05,0.0867155864834785,0,0,0
6562,220433.79940798343,2010-09-03 02:44:02,2011.01656404192,2,19,0.550297200679779,3.898221969604492,19.51726943272176,19.215119888691564,77.53925204431576,70.39097860892939,0.0,0.0867155864834785,0,0,0
6563,220463.81459636835,2010-09-03 02:44:32,2041.031752421805,2,19,0.5501165986061096,3.899355173110962,19.52185599162609,19.215119888691564,77.55713392003756,70.39097860892939,3.237724376958795e-05,0.0867155864834785,0,0,0
6564,220493.8297676456,2010-09-03 02:45:02,2071.046923699065,2,19,0.5501165986061096,3.900164604187012,19.526442564822823,19.215119888691564,77.57502058397561,70.39097860892939,-3.237724376958795e-05,0.0867155864834785,0,0,0
6565,220523.8449226523,2010-09-03 02:45:32,2101.062078710787,2,19,0.5501165986061096,3.9014596939086914,19.531029134596512,19.215119888691564,77.59291206798947,70.39097860892939,3.237724376958795e-05,0.0867155864834785,0,0,0
6566,220553.86012799948,2010-09-03 02:46:02,2131.0772840679847,2,19,0.5501165986061096,3.902431011199951,19.53561568549135,19.215119888691564,77.61080837266262,70.39097860892939,3.237724376958795e-05,0.0867155864834785,0,0,0
6567,220583.87556539,2010-09-03 02:46:32,2161.0927214685057,2,19,0.5501165986061096,3.903564214706421,19.54020230487661,19.215119888691564,77.62870990284065,70.39097860892939,3.237724376958795e-05,0.0867155864834785,0,0,0
6568,220613.89046038364,2010-09-03 02:47:02,2191.1076164321075,2,19,0.550297200679779,3.90469741821289,19.54478889210065,19.215119888691564,77.64661638952242,70.39097860892939,3.237724376958795e-05,0.0867155864834785,0,0,0
6569,220643.90562022745,2010-09-03 02:47:32,2221.1227762959224,2,19,0.550297200679779,3.90583062171936,19.549375486969293,19.215119888691564,77.66452782331751,70.39097860892939,0.0,0.0867155864834785,0,0,0
6570,220673.92079181547,2010-09-03 02:48:02,2251.137947873932,2,19,0.550297200679779,3.90696382522583,19.553962045980978,19.215119888691564,77.68244422255904,70.39097860892939,6.47544875391759e-05,0.0867155864834785,0,0,0
6571,220703.9359996388,2010-09-03 02:48:32,2281.1531556972764,2,19,0.5501165986061096,3.90793514251709,19.558548582162867,19.215119888691564,77.700365699157,70.39097860892939,3.237724376958795e-05,0.0867155864834785,0,0,0
6572,220733.9511375329,2010-09-03 02:49:02,2311.16829358131,2,19,0.5501165986061096,3.9092302322387695,19.56313513222112,19.215119888691564,77.7182924609072,70.39097860892939,9.713172767078504e-05,0.0867155864834785,0,0,0
6573,220763.96634650903,2010-09-03 02:49:32,2341.183502572565,2,19,0.5501165986061096,3.9103634357452393,19.567721725380256,19.215119888691564,77.73622474334262,70.39097860892939,6.47544875391759e-05,0.0867155864834785,0,0,0
6574,220793.9814864783,2010-09-03 02:50:02,2371.198642546809,2,19,0.5501165986061096,3.911496639251709,19.57230823809619,19.215119888691564,77.7541619601171,70.39097860892939,3.237724376958795e-05,0.0867155864834785,0,0,0
6575,220823.9966524524,2010-09-03 02:50:32,2401.2138085258644,2,19,0.5501165986061096,3.9126298427581783,19.576894794866497,19.215119888691564,77.77210482931343,70.39097860892939,0.0,0.0867155864834785,0,0,0
6576,220854.0118148976,2010-09-03 02:51:02,2431.22897094605,2,19,0.5501165986061096,3.9139246940612793,19.58148137107833,19.215119888691564,77.7900532490446,70.39097860892939,3.237724376958795e-05,0.0867155864834785,0,0,0
6577,220884.02702167333,2010-09-03 02:51:32,2461.244177731808,2,19,0.5501165986061096,3.915057897567749,19.586067923570617,19.215119888691564,77.80800718460945,70.39097860892939,0.0,0.0867155864834785,0,0,0
6578,220914.04215291585,2010-09-03 02:52:02,2491.2593089592524,2,19,0.5499359965324402,3.9161911010742183,19.590654528594268,19.215119888691564,77.82596679995368,70.39097860892939,0.0,0.0867155864834785,0,0,0
6579,220944.0574376358,2010-09-03 02:52:32,2521.274593699297,2,19,0.5501165986061096,3.917648077011109,19.5952411141524,19.215119888691564,77.8439321006627,70.39097860892939,6.47544875391759e-05,0.0867155864834785,0,0,0
6580,220974.0725221117,2010-09-03 02:53:02,2551.289678170209,2,19,0.5501165986061096,3.918781280517578,19.5998275879022,19.215119888691564,77.86190265324801,70.39097860892939,3.237724376958795e-05,0.0867155864834785,0,0,0
6581,221004.08770182505,2010-09-03 02:53:32,2581.3048579085566,2,19,0.5499359965324402,3.920076370239258,19.60441413183253,19.215119888691564,77.8798794004262,70.39097860892939,0.0,0.0867155864834785,0,0,0
6582,221034.10300296592,2010-09-03 02:54:02,2611.32015903444,2,19,0.5501165986061096,3.9213714599609375,19.60900081019868,19.215119888691564,77.89786253216965,70.39097860892939,6.47544875391759e-05,0.0867155864834785,0,0,0
6583,221064.11822285436,2010-09-03 02:54:32,2641.3353789128287,2,19,0.5501165986061096,3.922666549682617,19.61358745071553,19.215119888691564,77.91585150330178,70.39097860892939,3.237724376958795e-05,0.0867155864834785,0,0,0
6584,221094.13335713945,2010-09-03 02:55:02,2671.350513207918,2,19,0.550297200679779,3.924123525619507,19.61817396353105,19.215119888691564,77.93384598202223,70.39097860892939,6.47544875391759e-05,0.0867155864834785,0,0,0
6585,221124.14855336383,2010-09-03 02:55:32,2701.3657094273417,2,19,0.5501165986061096,3.9254186153411865,19.62276050574028,19.215119888691564,77.95184672222031,70.39097860892939,3.237724376958795e-05,0.0867155864834785,0,0,0
6586,221154.1635675596,2010-09-03 02:56:02,2731.380723618094,2,19,0.5501165986061096,3.926713705062866,19.627347067705596,19.215119888691564,77.96985361238092,70.39097860892939,-3.237724376958795e-05,0.0867155864834785,0,0,0
6587,221184.17893871,2010-09-03 02:56:32,2761.3960947985747,2,19,0.5501165986061096,3.928008794784546,19.63193359953805,19.215119888691564,77.98786663312556,70.39097860892939,0.0,0.0867155864834785,0,0,0
6588,221214.19391578325,2010-09-03 02:57:02,2791.411071846757,2,19,0.5501165986061096,3.9293038845062256,19.63652016626563,19.215119888691564,78.00588609221572,70.39097860892939,0.0,0.0867155864834785,0,0,0
6589,221244.2090954765,2010-09-03 02:57:32,2821.426251545005,2,19,0.5501165986061096,3.930922746658325,19.64110669540426,19.215119888691564,78.02391177544341,70.39097860892939,6.47544875391759e-05,0.0867155864834785,0,0,0
6590,221274.22424576647,2010-09-03 02:58:02,2851.4414018399707,2,19,0.5501165986061096,3.932217836380005,19.645693205239617,19.215119888691564,78.04194374181708,70.39097860892939,3.237724376958795e-05,0.0867155864834785,0,0,0
6591,221304.239458086,2010-09-03 02:58:32,2881.4566141394707,2,19,0.5501165986061096,3.933512926101685,19.650279631721723,19.215119888691564,78.0599818494369,70.39097860892939,0.0,0.0867155864834785,0,0,0
6592,221334.25459833592,2010-09-03 02:59:02,2911.471754389401,2,19,0.5499359965324402,3.934969902038574,19.654866112299324,19.215119888691564,78.07802664243506,70.39097860892939,0.0,0.0867155864834785,0,0,0
6593,221364.26976879613,2010-09-03 02:59:32,2941.486924869675,2,19,0.5501165986061096,3.936426877975464,19.659452599046897,19.215119888691564,78.09607804394798,70.39097860892939,3.237724376958795e-05,0.0867155864834785,0,0,0
6594,221394.28496283013,2010-09-03 03:00:02,2971.5021188986398,2,19,0.550297200679779,3.938207626342773,19.66403907367457,19.215119888691564,78.11413585250133,70.39097860892939,6.47544875391759e-05,0.0867155864834785,0,0,0
6595,221424.3002702066,2010-09-03 03:00:32,3001.5174262700884,2,19,0.550297200679779,3.939340829849243,19.668625592724688,19.215119888691564,78.13220059110486,70.39097860892939,3.237724376958795e-05,0.0867155864834785,0,0,0
6596,221454.31528439236,2010-09-03 03:01:02,3031.532440460841,2,19,0.5501165986061096,3.940959692001343,19.673212077242425,19.215119888691564,78.1502719397019,70.39097860892939,3.237724376958795e-05,0.0867155864834785,0,0,0
6597,221484.3304575192,2010-09-03 03:01:32,3061.5476135826984,2,19,0.5499359965324402,3.942416667938232,19.677798634380743,19.215119888691564,78.16835027679478,70.39097860892939,3.237724376958795e-05,0.0867155864834785,0,0,0
6598,221514.3456355984,2010-09-03 03:02:02,3091.562791661911,2,19,0.5501165986061096,3.943873643875122,19.682385169783075,19.215119888691564,78.18643537152073,70.39097860892939,6.47544875391759e-05,0.0867155864834785,0,0,0
6599,221544.3608269156,2010-09-03 03:02:32,3121.5779829741045,2,19,0.5501165986061096,3.9454925060272217,19.68697172641488,19.215119888691564,78.20452740731938,70.39097860892939,6.47544875391759e-05,0.0867155864834785,0,0,0
6600,221574.3759854411,2010-09-03 03:03:02,3151.5931414995835,2,19,0.550297200679779,3.946787595748901,19.69155828376194,19.215119888691564,78.22262639189782,70.39097860892939,3.237724376958795e-05,0.0867155864834785,0,0,0
6601,221604.3911811192,2010-09-03 03:03:32,3181.608337177658,2,19,0.5501165986061096,3.948406457901001,19.696144845775503,19.215119888691564,78.24073229382587,70.39097860892939,6.47544875391759e-05,0.0867155864834785,0,0,0
6602,221634.40633100813,2010-09-03 03:04:02,3211.623487066612,2,19,0.5501165986061096,3.9500253200531006,19.70073135299364,19.215119888691564,78.25884507561916,70.39097860892939,3.237724376958795e-05,0.0867155864834785,0,0,0
6603,221664.42221644527,2010-09-03 03:04:32,3241.639372513804,2,19,0.5499359965324402,3.9514822959899902,19.70531799377542,19.215119888691564,78.27696555816841,70.39097860892939,3.237724376958795e-05,0.0867155864834785,0,0,0
6604,221694.42406810093,2010-09-03 03:05:02,3271.641224199544,2,19,0.5499359965324402,3.95293927192688,19.709902491790693,19.215119888691564,78.29508472260645,70.39097860892939,3.237724376958795e-05,0.0867155864834785,0,0,0
6605,221724.43640297404,2010-09-03 03:05:33,3301.6535590525614,2,19,0.5501165986061096,3.9547200202941895,19.714488653479457,19.215119888691564,78.31321776121482,70.39097860892939,6.47544875391759e-05,0.0867155864834785,0,0,0
6606,221754.4517015686,2010-09-03 03:06:03,3331.6688576521483,2,19,0.550297200679779,3.956338882446289,19.7190752517721,19.215119888691564,78.3313599366809,70.39097860892939,3.237724376958795e-05,0.0867155864834785,0,0,0
6607,221784.46682877105,2010-09-03 03:06:33,3361.6839848395234,2,19,0.5501165986061096,3.9579577445983887,19.72366182378319,19.215119888691564,78.34950936928335,70.39097860892939,6.47544875391759e-05,0.0867155864834785,0,0,0
6608,221814.4818403553,2010-09-03 03:07:03,3391.6989964187665,2,19,0.550297200679779,3.959900379180908,19.72824837278537,19.215119888691564,78.36766633046473,70.39097860892939,9.713172767078504e-05,0.0867155864834785,0,0,0
6609,221844.48278859933,2010-09-03 03:07:33,3421.699944692927,2,19,0.5501165986061096,3.961357355117798,19.73283276804976,19.215119888691564,78.38582237392363,70.39097860892939,9.713172767078504e-05,0.0867155864834785,0,0,0
6610,221874.49648686545,2010-09-03 03:08:03,3451.713642943953,2,19,0.5501165986061096,3.9629762172698975,19.73741916069038,19.215119888691564,78.40399414668623,70.39097860892939,0.0,0.0867155864834785,0,0,0
6611,221904.51172397172,2010-09-03 03:08:33,3481.728880030229,2,19,0.5501165986061096,3.964595079421997,19.742005712523,19.215119888691564,78.42217440643931,70.39097860892939,3.237724376958795e-05,0.0867155864834785,0,0,0
6612,221934.52684053264,2010-09-03 03:09:03,3511.7439965911194,2,19,0.5501165986061096,3.966375827789306,19.7465922766182,19.215119888691564,78.4403627220846,70.39097860892939,0.0,0.0867155864834785,0,0,0
6613,221964.54201223093,2010-09-03 03:09:33,3541.759168294441,2,19,0.5501165986061096,3.968318462371826,19.751178848348616,19.215119888691564,78.45855910730742,70.39097860892939,9.713172767078504e-05,0.0867155864834785,0,0,0
6614,221994.55716487675,2010-09-03 03:10:03,3571.774320935254,2,19,0.5501165986061096,3.969937324523926,19.7557653835615,19.215119888691564,78.47676357901669,70.39097860892939,6.47544875391759e-05,0.0867155864834785,0,0,0
6615,222024.57233408888,2010-09-03 03:10:33,3601.78949015238,2,19,0.5501165986061096,3.971879959106445,19.76035196903292,19.215119888691564,78.49497661310035,70.39097860892939,6.47544875391759e-05,0.0867155864834785,0,0,0
6616,222054.587654157,2010-09-03 03:11:03,3631.8048102254847,2,19,0.5501165986061096,3.973822593688965,19.76493858977357,19.215119888691564,78.51319822024051,70.39097860892939,6.47544875391759e-05,0.0867155864834785,0,0,0
6617,222084.60291528812,2010-09-03 03:11:33,3661.8200713416513,2,19,0.5501165986061096,3.9756033420562735,19.769525214892905,19.215119888691564,78.53142838519254,70.39097860892939,6.47544875391759e-05,0.0867155864834785,0,0,0
6618,222114.61787479263,2010-09-03 03:12:03,3691.835030876184,2,19,0.5499359965324402,3.977384090423584,19.774111802962413,19.215119888691564,78.54966712406481,70.39097860892939,0.0,0.0867155864834785,0,0,0
6619,222144.63303679173,2010-09-03 03:12:33,3721.850192850258,2,19,0.5501165986061096,3.9794886112213135,19.77869838338428,19.215119888691564,78.56791408375858,70.39097860892939,6.47544875391759e-05,0.0867155864834785,0,0,0
6620,222174.6482006856,2010-09-03 03:13:03,3751.865356744116,2,19,0.550297200679779,3.981269359588623,19.783284896564627,19.215119888691564,78.58617005961189,70.39097860892939,0.0,0.0867155864834785,0,0,0
6621,222204.66338636377,2010-09-03 03:13:33,3781.880542422268,2,19,0.5501165986061096,3.983211994171143,19.78787139312661,19.215119888691564,78.60443483220729,70.39097860892939,3.237724376958795e-05,0.0867155864834785,0,0,0
6622,222234.67873068232,2010-09-03 03:14:03,3811.89588684105,2,19,0.5501165986061096,3.985316514968872,19.792457900023265,19.215119888691564,78.62270855522856,70.39097860892939,6.47544875391759e-05,0.0867155864834785,0,0,0
6623,222264.6937303469,2010-09-03 03:14:33,3841.9108864153736,2,19,0.5501165986061096,3.9870972633361816,19.797044353973344,19.215119888691564,78.64099105304962,70.39097860892939,3.237724376958795e-05,0.0867155864834785,0,0,0
6624,222294.70901615452,2010-09-03 03:15:03,3871.926172213055,2,19,0.5501165986061096,3.989201784133911,19.801630895361427,19.215119888691564,78.6592829216701,70.39097860892939,6.47544875391759e-05,0.0867155864834785,0,0,0
6625,222324.7242173163,2010-09-03 03:15:33,3901.941373374795,2,19,0.5499359965324402,3.991144418716431,19.80621737957119,19.215119888691564,78.6775837038758,70.39097860892939,3.237724376958795e-05,0.0867155864834785,0,0,0
6626,222354.73923984283,2010-09-03 03:16:03,3931.956395931398,2,19,0.5499359965324402,3.99308705329895,19.81080340710721,19.215119888691564,78.69589177196909,70.39097860892939,3.237724376958795e-05,0.0867155864834785,0,0,0
6627,222384.75441325043,2010-09-03 03:16:33,3961.9715693339554,2,19,0.5501165986061096,3.9951913356781006,19.81538904576093,19.215119888691564,78.71420743384373,70.39097860892939,6.47544875391759e-05,0.0867155864834785,0,0,0
6628,222414.7696033847,2010-09-03 03:17:03,3991.9867594431503,2,19,0.550297200679779,3.99713397026062,19.819975141255977,19.215119888691564,78.73253428515568,70.39097860892939,3.237724376958795e-05,0.0867155864834785,0,0,0
6629,222444.7848407767,2010-09-03 03:17:33,4022.001996920402,2,19,0.5499359965324402,3.9992384910583496,19.82456171221441,19.215119888691564,78.75087240380539,70.39097860892939,6.47544875391759e-05,0.0867155864834785,0,0,0
6630,222474.80011620856,2010-09-03 03:18:03,4052.0172722620223,2,19,0.550297200679779,4.001343250274658,19.82914818409632,19.215119888691564,78.76921950820795,70.39097860892939,6.47544875391759e-05,0.0867155864834785,0,0,0
6631,222504.81512067505,2010-09-03 03:18:33,4082.032276733551,2,19,0.5499359965324402,4.003285884857178,19.833734693438156,19.215119888691564,78.78757625616807,70.39097860892939,3.24249267578125e-05,0.0867155864834785,0,0,0
6632,222534.8304400665,2010-09-03 03:19:03,4112.047596134982,2,19,0.5501165986061096,4.005390167236328,19.83832121158587,19.215119888691564,78.8059425631229,70.39097860892939,6.47544875391759e-05,0.0867155864834785,0,0,0
6633,222564.84562289756,2010-09-03 03:19:33,4142.062778966038,2,19,0.5499359965324402,4.007494926452637,19.842907715088018,19.215119888691564,78.8243184977123,70.39097860892939,3.24249267578125e-05,0.0867155864834785,0,0,0
6634,222594.8606375344,2010-09-03 03:20:03,4172.077793592877,2,19,0.5501165986061096,4.009761333465576,19.84749418660704,19.215119888691564,78.84270400608791,70.39097860892939,3.24249267578125e-05,0.0867155864834785,0,0,0
6635,222624.87581903712,2010-09-03 03:20:33,4202.092975100635,2,19,0.5501165986061096,4.011865615844727,19.85208067734894,19.215119888691564,78.8610993979722,70.39097860892939,6.47544875391759e-05,0.0867155864834785,0,0,0
6636,222654.89101240947,2010-09-03 03:21:03,4232.108168513063,2,19,0.5501165986061096,4.013970375061035,19.85666729444074,19.215119888691564,78.87950528699858,70.39097860892939,3.24249267578125e-05,0.0867155864834785,0,0,0
6637,222684.90621628292,2010-09-03 03:21:33,4262.123372371526,2,19,0.5501165986061096,4.0163984298706055,19.86125385112357,19.215119888691564,78.89792090029795,70.39097860892939,9.70840483205393e-05,0.0867155864834785,0,0,0
6638,222714.92135433745,2010-09-03 03:22:03,4292.138510425985,2,19,0.5501165986061096,4.018503189086914,19.86584040446117,19.215119888691564,78.91634662978589,70.39097860892939,6.47544875391759e-05,0.0867155864834785,0,0,0
6639,222744.93654388524,2010-09-03 03:22:33,4322.153699968769,2,19,0.5499359965324402,4.0206074714660645,19.87042699692904,19.215119888691564,78.9347826247251,70.39097860892939,3.23295607813634e-05,0.0867155864834785,0,0,0
6640,222774.95168501732,2010-09-03 03:23:03,4352.168841080847,2,19,0.5499359965324402,4.022873878479004,19.875013498608297,19.215119888691564,78.95322865701229,70.39097860892939,3.23295607813634e-05,0.0867155864834785,0,0,0
6641,222804.9668833069,2010-09-03 03:23:33,4382.184039365418,2,19,0.5501165986061096,4.025302410125732,19.87960006460185,19.215119888691564,78.97168537251342,70.39097860892939,6.47544875391759e-05,0.0867155864834785,0,0,0
6642,222834.98203645903,2010-09-03 03:24:03,4412.19919252753,2,19,0.5501165986061096,4.027568817138672,19.88418656484152,19.215119888691564,78.99015235312636,70.39097860892939,6.47544875391759e-05,0.0867155864834785,0,0,0
6643,222864.99720467365,2010-09-03 03:24:33,4442.214360737145,2,19,0.5501165986061096,4.029835224151611,19.888773035924203,19.215119888691564,79.00862986467274,70.39097860892939,6.47544875391759e-05,0.0867155864834785,0,0,0
6644,222895.01238910368,2010-09-03 03:25:03,4472.229545162173,2,19,0.5501165986061096,4.032263278961182,19.8933595030003,19.215119888691564,79.0271180127254,70.39097860892939,6.47544875391759e-05,0.0867155864834785,0,0,0
6645,222925.0275874835,2010-09-03 03:25:33,4502.244743541981,2,19,0.5501165986061096,4.034529685974121,19.897946002091885,19.215119888691564,79.04561718056605,70.39097860892939,3.24249267578125e-05,0.0867155864834785,0,0,0
6646,222955.0427480992,2010-09-03 03:26:03,4532.259904157671,2,19,0.5501165986061096,4.036957740783691,19.90253253590316,19.215119888691564,79.064127456748,70.39097860892939,6.47544875391759e-05,0.0867155864834785,0,0,0
6647,222985.0578958227,2010-09-03 03:26:33,4562.275051881226,2,19,0.5501165986061096,4.039547920227051,19.907119061545867,19.215119888691564,79.08264884708447,70.39097860892939,6.47544875391759e-05,0.0867155864834785,0,0,0
6648,223015.0733137447,2010-09-03 03:27:03,4592.290469813227,2,19,0.550297200679779,4.041976451873779,19.911705625830155,19.215119888691564,79.10118146921639,70.39097860892939,6.47544875391759e-05,0.0867155864834785,0,0,0
6649,223045.0885922943,2010-09-03 03:27:33,4622.3057483828925,2,19,0.5499359965324402,4.044242858886719,19.916292100387537,19.215119888691564,79.11972506255852,70.39097860892939,6.47544875391759e-05,0.0867155864834785,0,0,0
6650,223075.10341798028,2010-09-03 03:28:03,4652.320574048783,2,19,0.5501165986061096,4.046833038330078,19.920878542777977,19.215119888691564,79.13827988599188,70.39097860892939,6.47544875391759e-05,0.0867155864834785,0,0,0
6651,223105.11859064092,2010-09-03 03:28:33,4682.33574672453,2,19,0.5501165986061096,4.0494232177734375,19.925465300957956,19.215119888691564,79.1568475648225,70.39097860892939,9.71794142969884e-05,0.0867155864834785,0,0,0
6652,223135.1339855456,2010-09-03 03:29:03,4712.351141689288,2,19,0.550297200679779,4.051851272583008,19.93005273651743,19.215119888691564,79.17542964523399,70.39097860892939,6.47544875391759e-05,0.0867155864834785,0,0,0
6653,223165.14897197217,2010-09-03 03:29:33,4742.366128035643,2,19,0.5501165986061096,4.054441452026367,19.93464000295326,19.215119888691564,79.19402279505205,70.39097860892939,6.47544875391759e-05,0.0867155864834785,0,0,0
6654,223195.1641066081,2010-09-03 03:30:03,4772.381262691632,2,19,0.5501165986061096,4.057031631469727,19.939227400138684,19.215119888691564,79.2126283479094,70.39097860892939,3.23295607813634e-05,0.0867155864834785,0,0,0
6655,223225.1792822412,2010-09-03 03:30:33,4802.396438309711,2,19,0.5501165986061096,4.059783935546875,19.943814501129346,19.215119888691564,79.23124466841189,70.39097860892939,9.71794142969884e-05,0.0867155864834785,0,0,0
6656,223255.19458042475,2010-09-03 03:31:03,4832.41173649326,2,19,0.5501165986061096,4.062374114990234,19.94840116587746,19.215119888691564,79.24987096842969,70.39097860892939,9.71794142969884e-05,0.0867155864834785,0,0,0
6657,223285.20963899617,2010-09-03 03:31:33,4862.42679505961,2,19,0.5501165986061096,4.064964294433594,19.95298766336066,19.215119888691564,79.26850872494208,70.39097860892939,9.71794142969884e-05,0.0867155864834785,0,0,0
6658,223315.2248129751,2010-09-03 03:32:03,4892.441969063667,2,19,0.5501165986061096,4.067716121673584,19.95757420055607,19.215119888691564,79.28715899683534,70.39097860892939,9.70840483205393e-05,0.0867155864834785,0,0,0
6659,223345.2399797662,2010-09-03 03:32:33,4922.457135829684,2,19,0.5501165986061096,4.070306301116943,19.96216065086693,19.215119888691564,79.30582134328192,70.39097860892939,6.47544875391759e-05,0.0867155864834785,0,0,0
6660,223375.2551769079,2010-09-03 03:33:03,4952.472332991456,2,19,0.5499359965324402,4.073058605194092,19.966747185134647,19.215119888691564,79.32449647246571,70.39097860892939,3.24249267578125e-05,0.0867155864834785,0,0,0
6661,223405.2703389772,2010-09-03 03:33:33,4982.487495040717,2,19,0.5501165986061096,4.075972557067871,19.971333606705805,19.215119888691564,79.3431838361587,70.39097860892939,9.71794142969884e-05,0.0867155864834785,0,0,0
6662,223435.2854989764,2010-09-03 03:34:03,5012.502655059919,2,19,0.550297200679779,4.078724384307861,19.975920005247588,19.215119888691564,79.3618838814868,70.39097860892939,9.70840483205393e-05,0.0867155864834785,0,0,0
6663,223465.30067339147,2010-09-03 03:34:33,5042.5178294499365,2,19,0.5501165986061096,4.08147668838501,19.98050649067733,19.215119888691564,79.38059725431292,70.39097860892939,6.47544875391759e-05,0.0867155864834785,0,0,0
6664,223495.3158480321,2010-09-03 03:35:03,5072.533004095592,2,19,0.5501165986061096,4.084390640258789,19.98509293989321,19.215119888691564,79.39932344014284,70.39097860892939,6.47544875391759e-05,0.0867155864834785,0,0,0
6665,223525.3310375248,2010-09-03 03:35:33,5102.548193583238,2,19,0.5499359965324402,4.087142467498779,19.98967938480491,19.215119888691564,79.41806284431023,70.39097860892939,6.47544875391759e-05,0.0867155864834785,0,0,0
6666,223555.34620257647,2010-09-03 03:36:03,5132.56335862997,2,19,0.5501165986061096,4.090056419372559,19.99426575578379,19.215119888691564,79.43681522700065,70.39097860892939,3.23295607813634e-05,0.0867155864834785,0,0,0
6667,223585.3613616032,2010-09-03 03:36:33,5162.578517676749,2,19,0.5501165986061096,4.093132495880127,19.998852172792645,19.215119888691564,79.45558117892833,70.39097860892939,9.71794142969884e-05,0.0867155864834785,0,0,0
6668,223615.3765403541,2010-09-03 03:37:03,5192.593696422622,2,19,0.5501165986061096,4.096046447753906,20.00343855181003,19.215119888691564,79.47436051131679,70.39097860892939,6.47544875391759e-05,0.0867155864834785,0,0,0
6669,223645.392309717,2010-09-03 03:37:33,5222.609465775471,2,19,0.5501165986061096,4.0989603996276855,20.00802503961125,19.215119888691564,79.49315395238717,70.39097860892939,6.47544875391759e-05,0.0867155864834785,0,0,0
6670,223675.3940702806,2010-09-03 03:38:03,5252.611226364169,2,19,0.5501165986061096,4.101874351501465,20.01260942113447,19.215119888691564,79.51195256426288,70.39097860892939,3.24249267578125e-05,0.0867155864834785,0,0,0
6671,223705.406558546,2010-09-03 03:38:34,5282.6237146145,2,19,0.5499359965324402,4.105112075805664,20.017195359727246,19.215119888691564,79.53077138925272,70.39097860892939,9.71794142969884e-05,0.0867155864834785,0,0,0
6672,223735.4219153707,2010-09-03 03:39:04,5312.639071444215,2,19,0.5501165986061096,4.108187675476074,20.02178185547437,19.215119888691564,79.54960663554827,70.39097860892939,6.47544875391759e-05,0.0867155864834785,0,0,0
6673,223765.43692013287,2010-09-03 03:39:34,5342.654076191431,2,19,0.5501165986061096,4.111263751983643,20.02636829090592,19.215119888691564,79.56845578785426,70.39097860892939,6.47544875391759e-05,0.0867155864834785,0,0,0
6674,223795.4522841456,2010-09-03 03:40:04,5372.669440224097,2,19,0.5501165986061096,4.114501476287842,20.030954805404065,19.215119888691564,79.58731956537696,70.39097860892939,9.71794142969884e-05,0.0867155864834785,0,0,0
6675,223825.4671371696,2010-09-03 03:40:34,5402.684293238147,2,19,0.5501165986061096,4.117577075958252,20.035541127097087,19.215119888691564,79.60619692524901,70.39097860892939,9.71794142969884e-05,0.0867155864834785,0,0,0
6676,223855.4824917237,2010-09-03 03:41:04,5432.699647782165,2,19,0.5499359965324402,4.120652675628662,20.040127583949733,19.215119888691564,79.62508939376768,70.39097860892939,3.23295607813634e-05,0.0867155864834785,0,0,0
6677,223885.49762077068,2010-09-03 03:41:34,5462.714776829173,2,19,0.5499359965324402,4.123890399932861,20.044714058805777,19.215119888691564,79.64399662257026,70.39097860892939,6.47544875391759e-05,0.0867155864834785,0,0,0
6678,223915.5126769561,2010-09-03 03:42:04,5492.72983301459,2,19,0.5501165986061096,4.12729024887085,20.049300547249832,19.215119888691564,79.66291875797276,70.39097860892939,6.47544875391759e-05,0.0867155864834785,0,0,0
6679,223945.5278640728,2010-09-03 03:42:34,5522.745020131327,2,19,0.5501165986061096,4.130527973175049,20.05388699245097,19.215119888691564,79.68185562058063,70.39097860892939,6.47544875391759e-05,0.0867155864834785,0,0,0
6680,223975.54304038265,2010-09-03 03:43:04,5552.76019644113,2,19,0.5501165986061096,4.133765697479248,20.05847341583629,19.215119888691564,79.70080748141562,70.39097860892939,9.71794142969884e-05,0.0867155864834785,0,0,0
6681,224005.5583591575,2010-09-03 03:43:34,5582.775515246075,2,19,0.5499359965324402,4.137003421783447,20.063059890904217,19.215119888691564,79.71977481029461,70.39097860892939,3.24249267578125e-05,0.0867155864834785,0,0,0
6682,224035.57361021865,2010-09-03 03:44:04,5612.790766277107,2,19,0.5501165986061096,4.140564918518066,20.06764632973783,19.215119888691564,79.73875734175867,70.39097860892939,6.47544875391759e-05,0.0867155864834785,0,0,0
6683,224065.58854237996,2010-09-03 03:44:34,5642.805698448441,2,19,0.5501165986061096,4.1439642906188965,20.072232808124276,19.215119888691564,79.75775549637238,70.39097860892939,9.70840483205393e-05,0.0867155864834785,0,0,0
6684,224095.60371280505,2010-09-03 03:45:04,5672.820868863552,2,19,0.5501165986061096,4.147364139556885,20.07681923172208,19.215119888691564,79.7767694004401,70.39097860892939,6.47544875391759e-05,0.0867155864834785,0,0,0
6685,224125.6188881274,2010-09-03 03:45:34,5702.836044185894,2,19,0.5501165986061096,4.150925636291504,20.08140562939282,19.215119888691564,79.79579899001821,70.39097860892939,9.71794142969884e-05,0.0867155864834785,0,0,0
6686,224155.63418064683,2010-09-03 03:46:04,5732.851336730389,2,19,0.5501165986061096,4.154325008392334,20.085992004728062,19.215119888691564,79.81484436050488,70.39097860892939,6.47544875391759e-05,0.0867155864834785,0,0,0
6687,224185.64935619972,2010-09-03 03:46:34,5762.866512258243,2,19,0.5501165986061096,4.157724857330322,20.09057833821148,19.215119888691564,79.8339055608974,70.39097860892939,6.47544875391759e-05,0.0867155864834785,0,0,0
6688,224215.66439820483,2010-09-03 03:47:04,5792.881554278355,2,19,0.5501165986061096,4.161124229431152,20.09516473059902,19.215119888691564,79.85298318771743,70.39097860892939,3.23295607813634e-05,0.0867155864834785,0,0,0
6689,224245.6797004084,2010-09-03 03:47:34,5822.896856461874,2,19,0.5499359965324402,4.1648478507995605,20.099751146778377,19.215119888691564,79.87207711009161,70.39097860892939,9.71794142969884e-05,0.0867155864834785,0,0,0
6690,224275.69475949105,2010-09-03 03:48:04,5852.911915574586,2,19,0.5501165986061096,4.16840934753418,20.10433745633257,19.215119888691564,79.89118699847388,70.39097860892939,6.47544875391759e-05,0.0867155864834785,0,0,0
6691,224305.7100609828,2010-09-03 03:48:34,5882.927217051343,2,19,0.550297200679779,4.172294616699219,20.1089238706683,19.215119888691564,79.91031383528156,70.39097860892939,0.0001295089750783,0.0867155864834785,0,0,0
6692,224335.72510147412,2010-09-03 03:49:04,5912.942257537632,2,19,0.550297200679779,4.175856113433838,20.11351030698452,19.215119888691564,79.92945745390126,70.39097860892939,0.0001295089750783,0.0867155864834785,0,0,0
6693,224365.74029637527,2010-09-03 03:49:34,5942.957452438771,2,19,0.5501165986061096,4.179417610168457,20.118096680201862,19.215119888691564,79.94861760080826,70.39097860892939,6.47544875391759e-05,0.0867155864834785,0,0,0
6694,224395.7554578531,2010-09-03 03:50:04,5972.97261390157,2,19,0.5499359965324402,4.182979106903076,20.122683100449816,19.215119888691564,79.9677948581477,70.39097860892939,6.47544875391759e-05,0.0867155864834785,0,0,0
6695,224425.77084285804,2010-09-03 03:50:34,6002.987998921543,2,19,0.5499359965324402,4.187026023864746,20.12726955184513,19.215119888691564,79.98698924479639,70.39097860892939,0.0001295089750783,0.0867155864834785,0,0,0
6696,224455.78579777107,2010-09-03 03:51:04,6033.002953829545,2,19,0.550297200679779,4.190749645233154,20.131855871169705,19.215119888691564,80.00620028055613,70.39097860892939,0.0001295089750783,0.0867155864834785,0,0,0
6697,224485.800986166,2010-09-03 03:51:34,6063.018142249529,2,19,0.5501165986061096,4.194634914398193,20.1364423014148,19.215119888691564,80.02542914710689,70.39097860892939,0.0001295089750783,0.0867155864834785,0,0,0
6698,224515.816012898,2010-09-03 03:52:04,6093.033168966501,2,19,0.5499359965324402,4.198195934295654,20.14102866747422,19.215119888691564,80.04467514315836,70.39097860892939,9.70840483205393e-05,0.0867155864834785,0,0,0
6699,224528.84729581463,2010-09-03 03:52:17,6106.064451888167,2,19,0.550297200679779,4.200138568878174,20.143019921115528,19.215119888691564,80.05303664410751,70.39097860892939,0.0001295089750783,0.0867155864834785,0,0,0
6700,224558.8647801845,2010-09-03 03:52:47,30.015140731129893,3,19,0.0,4.119519710540772,20.143019921115528,19.215119888691564,80.05303664410751,70.39097860892939,-0.0003561019839253,0.0867155864834785,0,0,0
6701,224588.88008133543,2010-09-03 03:53:17,60.03044186703785,3,19,0.0,4.109482765197754,20.143019921115528,19.215119888691564,80.05303664410751,70.39097860892939,-0.0001619339018361,0.0867155864834785,0,0,0
6702,224618.895149611,2010-09-03 03:53:47,90.04551014759863,3,19,0.0,4.103331089019775,20.143019921115528,19.215119888691564,80.05303664410751,70.39097860892939,-9.71794142969884e-05,0.0867155864834785,0,0,0
6703,224648.86343898915,2010-09-03 03:54:17,120.0137995107036,3,19,0.0,4.099445819854736,20.143019921115528,19.215119888691564,80.05303664410751,70.39097860892939,-6.47544875391759e-05,0.0867155864834785,0,0,0
6704,224648.8677088864,2010-09-03 03:54:17,2.771908449e-06,4,19,1.011573314666748,4.199976921081543,20.143019921894417,19.215119888691564,80.0530366473788,70.39097860892939,0.0,0.0867155864834785,0,0,0
6705,224649.52395782067,2010-09-03 03:54:18,0.656251701162898,4,19,0.9615445733070374,4.199653148651123,20.14319813819735,19.215119888691564,80.0537851146607,70.39097860892939,-6.47544875391759e-05,0.0867155864834785,0,0,0
6706,224651.44587365128,2010-09-03 03:54:20,2.578167526759,4,19,0.911515772342682,4.199814796447754,20.143696871162824,19.215119888691564,80.05587966132605,70.39097860892939,-3.24249267578125e-05,0.0867155864834785,0,0,0
6707,224654.41451991617,2010-09-03 03:54:23,5.546813816743268,4,19,0.8611257672309875,4.199976921081543,20.144426572000423,19.215119888691564,80.05894423025488,70.39097860892939,6.47544875391759e-05,0.0867155864834785,0,0,0
6708,224658.47694256844,2010-09-03 03:54:27,9.609236443906353,4,19,0.8105552196502686,4.199653148651123,20.14536861919706,19.215119888691564,80.06290060877936,70.39097860892939,0.0,0.0867155864834785,0,0,0
6709,224663.6956030361,2010-09-03 03:54:32,14.82789691153336,4,19,0.7605264186859131,4.199814796447754,20.14650597473863,19.215119888691564,80.06767723877797,70.39097860892939,0.0,0.0867155864834785,0,0,0
6710,224670.2581358671,2010-09-03 03:54:39,21.390429772664177,4,19,0.7104976773262024,4.199491024017334,20.147845107034144,19.215119888691564,80.07330130967941,70.39097860892939,-6.47544875391759e-05,0.0867155864834785,0,0,0
6711,224678.89859672412,2010-09-03 03:54:47,30.030890629723316,4,19,0.6602882742881775,4.199491024017334,20.149488187313946,19.215119888691564,80.08020189029962,70.39097860892939,-3.24249267578125e-05,0.0867155864834785,0,0,0
6712,224690.69519832503,2010-09-03 03:54:59,41.82749221559887,4,19,0.6100788712501526,4.199653148651123,20.15156579342279,19.215119888691564,80.08892739257547,70.39097860892939,-6.47544875391759e-05,0.0867155864834785,0,0,0
6713,224707.60119945672,2010-09-03 03:55:16,58.73349332220303,4,19,0.5600501298904419,4.199976921081543,20.154305716884902,19.215119888691564,80.10043448662996,70.39097860892939,3.24249267578125e-05,0.0867155864834785,0,0,0
6714,224734.22579257496,2010-09-03 03:55:43,85.35808645046116,4,19,0.5100213289260864,4.199814796447754,20.158247778526707,19.215119888691564,80.11699030096715,70.39097860892939,0.0,0.0867155864834785,0,0,0
6715,224780.3657330185,2010-09-03 03:56:29,131.4980268889386,4,19,0.4599925875663757,4.199814796447754,20.16443668570424,19.215119888691564,80.14298234762975,70.39097860892939,3.23295607813634e-05,0.0867155864834785,0,0,0
6716,224856.8489946698,2010-09-03 03:57:45,207.98128857537245,4,19,0.4099638164043426,4.199814796447754,20.173648631155512,19.215119888691564,80.1816704936074,70.39097860892939,3.23295607813634e-05,0.0867155864834785,0,0,0
6717,224962.159866586,2010-09-03 03:59:31,313.2921604514328,4,19,0.3599350452423095,4.199814796447754,20.18489183503652,19.215119888691564,80.22888950678903,70.39097860892939,0.0,0.0867155864834785,0,0,0
6718,225090.09556943228,2010-09-03 04:01:39,441.2278633178074,4,19,0.3099062740802765,4.199653148651123,20.196780158200013,19.215119888691564,80.27881805074348,70.39097860892939,-3.23295607813634e-05,0.0867155864834785,0,0,0
6719,225242.5462519761,2010-09-03 04:04:11,593.6785458616089,4,19,0.2598775029182434,4.199814796447754,20.20882501422259,19.215119888691564,80.32940400967497,70.39097860892939,0.0,0.0867155864834785,0,0,0
6720,225431.12161111928,2010-09-03 04:07:20,782.2539049947561,4,19,0.2098487317562103,4.199814796447754,20.22109761970417,19.215119888691564,80.3809463967018,70.39097860892939,3.23295607813634e-05,0.0867155864834785,0,0,0
6721,225674.83648206684,2010-09-03 04:11:23,1025.9687759724236,4,19,0.1596393585205078,4.199814796447754,20.233547659098924,19.215119888691564,80.43323391671343,70.39097860892939,0.0,0.0867155864834785,0,0,0
6722,226023.4406377356,2010-09-03 04:17:12,1374.5729316211173,4,19,0.1096105873584747,4.199814796447754,20.246465876967235,19.215119888691564,80.48748775865387,70.39097860892939,-3.24249267578125e-05,0.0867155864834785,0,0,0
6723,226623.72799209645,2010-09-03 04:27:12,1974.860285971961,4,19,0.0595818199217319,4.199814796447754,20.260163374107517,19.215119888691564,80.54501448064185,70.39097860892939,0.0,0.0867155864834785,0,0,0
6724,226809.0061937236,2010-09-03 04:30:17,2160.1384876041056,4,19,0.0498289167881011,4.199814796447754,20.26299539245151,19.215119888691564,80.55690838195385,70.39097860892939,0.0,0.0867155864834785,0,0,0
6725,226839.02759465465,2010-09-03 04:30:48,30.01499063203677,5,19,0.0,4.192206382751465,20.26299539245151,19.215119888691564,80.55690838195385,70.39097860892939,-3.24249267578125e-05,0.0867155864834785,0,0,0
6726,226869.0271323331,2010-09-03 04:31:18,60.014528305546136,5,19,0.0,4.190911293029785,20.26299539245151,19.215119888691564,80.55690838195385,70.39097860892939,-6.47544875391759e-05,0.0867155864834785,0,0,0
6727,226869.22200084737,2010-09-03 04:31:18,0.187517386023628,6,19,0.0007031940040178,4.191720962524414,20.262995429079595,19.215119888691564,80.55690853548855,70.39097860892939,0.0,0.0930307656526565,0,0,0
6728,226874.0501466272,2010-09-03 04:31:23,5.01566316087788,6,19,0.0005225847125984,4.190749645233154,20.262996399884862,19.215119888691564,80.55691260419948,70.39097860892939,-6.47544875391759e-05,0.0930307656526565,0,0,0
6729,226904.0727582573,2010-09-03 04:31:53,30.01529628882754,7,19,-1.0997490882873535,4.020445823669434,20.262996399884862,19.22428725728532,80.55691260419948,70.42803138089944,-0.0009713172912597,0.0930307656526565,0,0,0
6730,226934.08775193692,2010-09-03 04:32:23,60.03028995843487,7,19,-1.0993878841400146,3.994220018386841,20.262996399884862,19.23345446903892,80.55691260419948,70.46475896040317,-0.0005504131549969,0.0930307656526565,0,0,0
6731,226964.1029228533,2010-09-03 04:32:53,90.04546091489559,7,19,-1.099568486213684,3.976089000701904,20.262996399884862,19.242621691957027,80.55691260419948,70.50128705090874,-0.0003561496851034,0.0930307656526565,0,0,0
6732,226994.11805942908,2010-09-03 04:33:23,120.06059748565656,7,19,-1.099568486213684,3.962166786193848,20.262996399884862,19.2517887683448,80.55691260419948,70.53766988531304,-0.0003237724304199,0.0930307656526565,0,0,0
6733,227024.13323896696,2010-09-03 04:33:53,150.07577701347975,7,19,-1.0993878841400146,3.9505109786987305,20.262996399884862,19.26095593893403,80.55691260419948,70.57393688984696,-0.0002913951757363,0.0930307656526565,0,0,0
6734,227054.14835428973,2010-09-03 04:34:23,180.09089232625928,7,19,-1.099568486213684,3.940150260925293,20.262996399884862,19.270123097594716,80.55691260419948,70.61010371384336,-0.0002590179501567,0.0930307656526565,0,0,0
6735,227084.16352097053,2010-09-03 04:34:53,210.10605900205127,7,19,-1.099568486213684,3.930598974227905,20.262996399884862,19.279290259697557,80.55691260419948,70.6461798018886,-0.0002590179501567,0.0930307656526565,0,0,0
6736,227114.1786560526,2010-09-03 04:35:23,240.1211940891144,7,19,-1.0993878841400146,3.921695232391357,20.262996399884862,19.288457458173248,80.55691260419948,70.68217147873752,-0.0002266406954731,0.0930307656526565,0,0,0
6737,227144.19379681372,2010-09-03 04:35:53,270.1363348753817,7,19,-1.0993878841400146,3.9131155014038086,20.262996399884862,19.297624650219515,80.55691260419948,70.71808255690858,-0.0002265930233988,0.0930307656526565,0,0,0
6738,227174.20894169027,2010-09-03 04:36:23,300.1514797568555,7,19,-1.0993878841400146,3.9048593044281006,20.262996399884862,19.306791885342943,80.55691260419948,70.7539161495437,-0.0001942634553415,0.0930307656526565,0,0,0
6739,227204.2241233233,2010-09-03 04:36:53,330.1666613598507,7,19,-1.099568486213684,3.8966031074523926,20.262996399884862,19.3159591272038,80.55691260419948,70.78967452046862,-0.0002266406954731,0.0930307656526565,0,0,0
6740,227234.23928972843,2010-09-03 04:37:23,360.1818277499306,7,19,-1.099568486213684,3.8888325691223145,20.262996399884862,19.32512634012493,80.55691260419948,70.82535994856876,-0.0001618862152099,0.0930307656526565,0,0,0
6741,227264.2544556724,2010-09-03 04:37:53,390.1969936989112,7,19,-1.099568486213684,3.8809001445770255,20.262996399884862,19.33429357048171,80.55691260419948,70.86097369124808,-0.0002266406954731,0.0930307656526565,0,0,0
6742,227294.2696168044,2010-09-03 04:38:23,420.2121549211111,7,19,-1.099568486213684,3.873453378677368,20.262996399884862,19.343460864418137,80.55691260419948,70.89651717668353,-0.0001942634553415,0.0930307656526565,0,0,0
6743,227324.28470089936,2010-09-03 04:38:53,450.2272389208489,7,19,-1.099568486213684,3.86600661277771,20.262996399884862,19.352628084711668,80.55691260419948,70.93199104141053,-0.0001942634553415,0.0930307656526565,0,0,0
6744,227354.29988976044,2010-09-03 04:39:23,480.2424278069959,7,19,-1.099568486213684,3.858559846878052,20.262996399884862,19.361795353123053,80.55691260419948,70.96739711913521,-0.0002266406954731,0.0930307656526565,0,0,0
6745,227384.3151952272,2010-09-03 04:39:53,510.25773326868506,7,19,-1.099568486213684,3.851274967193604,20.262996399884862,19.37096262431794,80.55691260419948,71.00273622676491,-0.0001618862152099,0.0930307656526565,0,0,0
6746,227414.3302143251,2010-09-03 04:40:23,540.2727523616552,7,19,-1.099568486213684,3.844151973724365,20.262996399884862,19.380129851446128,80.55691260419948,71.03800928468543,-0.0002266406954731,0.0930307656526565,0,0,0
6747,227444.3453932063,2010-09-03 04:40:53,570.2879312378543,7,19,-1.099568486213684,3.837190866470337,20.262996399884862,19.389297084962127,80.55691260419948,71.07321750136516,-0.0001618862152099,0.0930307656526565,0,0,0
6748,227474.36050512065,2010-09-03 04:41:23,600.3030431521638,7,19,-1.099568486213684,3.8303918838500977,20.262996399884862,19.39846432765219,80.55691260419948,71.10836179421919,-9.713172767078504e-05,0.0930307656526565,0,0,0
6749,227504.37568729004,2010-09-03 04:41:53,630.3182253115457,7,19,-1.0993878841400146,3.823430776596069,20.262996399884862,19.40763160841983,80.55691260419948,71.14344331938469,-0.0001942634553415,0.0930307656526565,0,0,0
6750,227534.39079590616,2010-09-03 04:42:23,660.3333339426724,7,19,-1.099568486213684,3.816793441772461,20.262996399884862,19.41679882316697,80.55691260419948,71.17846250894816,-0.0001618862152099,0.0930307656526565,0,0,0
6751,227564.40594411592,2010-09-03 04:42:53,690.3484821374041,7,19,-1.099568486213684,3.8099942207336426,20.262996399884862,19.425966066270146,80.55691260419948,71.21342044924202,-0.0001942634553415,0.0930307656526565,0,0,0
6752,227594.42122519683,2010-09-03 04:43:23,720.3637632333662,7,19,-1.099568486213684,3.803518772125244,20.262996399884862,19.43513334776042,80.55691260419948,71.24831834810699,-0.0001618862152099,0.0930307656526565,0,0,0
6753,227624.4364660325,2010-09-03 04:43:53,750.3790040639749,7,19,-1.099568486213684,3.797205209732056,20.262996399884862,19.44430065854827,80.55691260419948,71.28315753462759,-0.0001618862152099,0.0930307656526565,0,0,0
6754,227654.45142327127,2010-09-03 04:44:23,780.3939613077979,7,19,-1.099568486213684,3.790891647338867,20.262996399884862,19.45346780761579,80.55691260419948,71.31793832966227,-0.0001618862152099,0.0930307656526565,0,0,0
6755,227684.46654012796,2010-09-03 04:44:53,810.4090781594128,7,19,-1.099568486213684,3.784901857376098,20.262996399884862,19.462635038860057,80.55691260419948,71.35266260251717,-0.0001618862152099,0.0930307656526565,0,0,0
6756,227714.48168860332,2010-09-03 04:45:23,840.4242266348439,7,19,-1.0993878841400146,3.77891206741333,20.262996399884862,19.47180229291271,80.55691260419948,71.38733122224278,-0.0001295089750783,0.0930307656526565,0,0,0
6757,227744.49703780405,2010-09-03 04:45:53,870.4395758606064,7,19,-1.099568486213684,3.7729222774505615,20.262996399884862,19.48096966360752,80.55691260419948,71.42194563105338,-0.0001618862152099,0.0930307656526565,0,0,0
6758,227774.51199405035,2010-09-03 04:46:23,900.4545320868934,7,19,-1.099568486213684,3.767094373703003,20.262996399884862,19.490136900241243,80.55691260419948,71.45650571627014,-0.0001295089750783,0.0930307656526565,0,0,0
6759,227804.52714398943,2010-09-03 04:46:53,930.4696820209598,7,19,-1.099568486213684,3.7611045837402335,20.262996399884862,19.49930421360265,80.55691260419948,71.49101331196584,-0.0001942634553415,0.0930307656526565,0,0,0
6760,227834.5422904148,2010-09-03 04:47:23,960.4848284462817,7,19,-1.099568486213684,3.7557623386383057,20.262996399884862,19.50847149226277,80.55691260419948,71.52546918470787,-0.0001618862152099,0.0930307656526565,0,0,0
6761,227864.55752506497,2010-09-03 04:47:53,990.5000630964868,7,19,-1.099568486213684,3.750258445739746,20.262996399884862,19.517638789402664,80.55691260419948,71.55987484643953,-0.0001942634553415,0.0930307656526565,0,0,0
6762,227894.57267050285,2010-09-03 04:48:23,1020.5152085594096,7,19,-1.0993878841400146,3.7449162006378174,20.262996399884862,19.52680608440755,80.55691260419948,71.59423094083233,-0.0001618862152099,0.0930307656526565,0,0,0
6763,227924.58774206656,2010-09-03 04:48:53,1050.530280103103,7,19,-1.099568486213684,3.7395739555358887,20.262996399884862,19.53597333278413,80.55691260419948,71.62853774593324,-0.0001618862152099,0.0930307656526565,0,0,0
6764,227954.60297365417,2010-09-03 04:49:23,1080.5455116906753,7,19,-1.0993878841400146,3.73455548286438,20.262996399884862,19.545140678269416,80.55691260419948,71.66279723507353,-0.0001295089750783,0.0930307656526565,0,0,0
6765,227984.61805278173,2010-09-03 04:49:53,1110.5605908132577,7,19,-1.099568486213684,3.729375123977661,20.262996399884862,19.55430792812159,80.55691260419948,71.69700987926744,-0.0001942634553415,0.0930307656526565,0,0,0
6766,228014.6332777378,2010-09-03 04:50:23,1140.5758157642892,7,19,-1.099568486213684,3.7248423099517822,20.262996399884862,19.56347518810177,80.55691260419948,71.73117760324789,-9.713172767078504e-05,0.0930307656526565,0,0,0
6767,228044.64840362687,2010-09-03 04:50:53,1170.5909416885158,7,19,-1.0993878841400146,3.7198238372802734,20.262996399884862,19.572642470701247,80.55691260419948,71.76530057876289,-9.713172767078504e-05,0.0930307656526565,0,0,0
6768,228074.66359757568,2010-09-03 04:51:23,1200.6061356222433,7,19,-1.099568486213684,3.714967250823975,20.262996399884862,19.58180979472759,80.55691260419948,71.79937925138549,-0.0001295089750783,0.0930307656526565,0,0,0
6769,228104.6787758554,2010-09-03 04:51:53,1230.6213138768933,7,19,-1.099568486213684,3.7102725505828857,20.262996399884862,19.590977103010086,80.55691260419948,71.83341437487225,-9.713172767078504e-05,0.0930307656526565,0,0,0
6770,228134.6938544617,2010-09-03 04:52:23,1260.6363924982263,7,19,-1.0997490882873535,3.705739736557007,20.262996399884862,19.600144383250942,80.55691260419948,71.86740665226122,-9.713172767078504e-05,0.0930307656526565,0,0,0
6771,228164.7090691622,2010-09-03 04:52:53,1290.6516071936985,7,19,-1.099568486213684,3.701045036315918,20.262996399884862,19.60931176626173,80.55691260419948,71.90135714365005,-0.0001618862152099,0.0930307656526565,0,0,0
6772,228194.7242417828,2010-09-03 04:53:23,1320.6667798243311,7,19,-1.099568486213684,3.696512222290039,20.262996399884862,19.618479032283503,80.55691260419948,71.9352655566357,-0.0001618862152099,0.0930307656526565,0,0,0
6773,228224.7420564432,2010-09-03 04:53:53,1350.6845944746908,7,19,-1.099568486213684,3.69214129447937,20.262996399884862,19.627647150111496,80.55691260419948,71.96913629820753,-0.0001295089750783,0.0930307656526565,0,0,0
6774,228254.7544852153,2010-09-03 04:54:24,1380.697023367084,7,19,-1.099568486213684,3.687932252883911,20.262996399884862,19.63681369552824,80.55691260419948,72.00296129477675,-0.0001295089750783,0.0930307656526565,0,0,0
6775,228284.76984557376,2010-09-03 04:54:54,1410.712383605293,7,19,-1.099568486213684,3.683399438858032,20.262996399884862,19.645981019042623,80.55691260419948,72.03674977987521,-0.0001618862152099,0.0930307656526565,0,0,0
6776,228314.7848240104,2010-09-03 04:55:24,1440.7273620469475,7,19,-1.0993878841400146,3.679352283477783,20.262996399884862,19.65514829776161,80.55691260419948,72.07049893385354,-0.0001295089750783,0.0930307656526565,0,0,0
6777,228344.79990414556,2010-09-03 04:55:54,1470.7424421820538,7,19,-1.099568486213684,3.675467014312744,20.262996399884862,19.66431557568756,80.55691260419948,72.10420970255892,-6.47544875391759e-05,0.0930307656526565,0,0,0
6778,228374.8154008388,2010-09-03 04:56:24,1500.7579388903885,7,19,-1.099568486213684,3.671258211135864,20.262996399884862,19.673483027712383,80.55691260419948,72.13788352239972,-9.713172767078504e-05,0.0930307656526565,0,0,0
6779,228404.83016797385,2010-09-03 04:56:54,1530.772706005352,7,19,-1.0997490882873535,3.667049169540405,20.262996399884862,19.682650308429707,80.55691260419948,72.1715195217819,-0.0001295089750783,0.0930307656526565,0,0,0
6780,228434.84532807823,2010-09-03 04:57:24,1560.787866109766,7,19,-1.099568486213684,3.663163900375366,20.262996399884862,19.691817639221536,80.55691260419948,72.20511915867945,-0.0001295089750783,0.0930307656526565,0,0,0
6781,228464.86047430808,2010-09-03 04:57:54,1590.8030123446129,7,19,-1.0993878841400146,3.659278631210327,20.262996399884862,19.700984984727835,80.55691260419948,72.23868252570242,-9.713172767078504e-05,0.0930307656526565,0,0,0
6782,228494.87562360053,2010-09-03 04:58:24,1620.81816165713,7,19,-1.0997490882873535,3.655231475830078,20.262996399884862,19.71015234363715,80.55691260419948,72.27221021232275,-0.0001618862152099,0.0930307656526565,0,0,0
6783,228524.89072732447,2010-09-03 04:58:54,1650.833265386039,7,19,-1.099568486213684,3.651669979095459,20.262996399884862,19.71931966016772,80.55691260419948,72.30570267987348,-6.47544875391759e-05,0.0930307656526565,0,0,0
6784,228554.9060015683,2010-09-03 04:59:24,1680.8485395948362,7,19,-1.099568486213684,3.64778470993042,20.262996399884862,19.7284870080782,80.55691260419948,72.33916086492256,-0.0001295089750783,0.0930307656526565,0,0,0
6785,228584.9214040418,2010-09-03 04:59:54,1710.8639420733211,7,19,-1.099568486213684,3.644223213195801,20.262996399884862,19.73765433671632,80.55691260419948,72.37258455868174,-0.0001295089750783,0.0930307656526565,0,0,0
6786,228614.9362234822,2010-09-03 05:00:24,1740.8787615136955,7,19,-1.0997490882873535,3.6406617164611816,20.262996399884862,19.746821409397,80.55691260419948,72.40597438235169,-9.713172767078504e-05,0.0930307656526565,0,0,0
6787,228644.9515049791,2010-09-03 05:00:54,1770.8940430307075,7,19,-1.099568486213684,3.6371002197265625,20.262996399884862,19.75598859601934,80.55691260419948,72.43933209826363,-6.47544875391759e-05,0.0930307656526565,0,0,0
6788,228674.96652809213,2010-09-03 05:01:24,1800.909066128659,7,19,-1.0993878841400146,3.633700609207153,20.262996399884862,19.765155748697143,80.55691260419948,72.47265804500955,-9.713172767078504e-05,0.0930307656526565,0,0,0
6789,228704.98173811595,2010-09-03 05:01:54,1830.9242761625128,7,19,-1.099568486213684,3.630300998687744,20.262996399884862,19.77432299536704,80.55691260419948,72.50595332356595,-9.713172767078504e-05,0.0930307656526565,0,0,0
6790,228734.9968476844,2010-09-03 05:02:24,1860.9393857460127,7,19,-1.0993878841400146,3.626901388168335,20.262996399884862,19.78349019618434,80.55691260419948,72.53921839815604,-0.0001295089750783,0.0930307656526565,0,0,0
6791,228765.0120243752,2010-09-03 05:02:54,1890.954562411703,7,19,-1.0993878841400146,3.6238255500793457,20.262996399884862,19.792657441747824,80.55691260419948,72.57245381439294,-6.47544875391759e-05,0.0930307656526565,0,0,0
6792,228795.0271548708,2010-09-03 05:03:24,1920.969692907323,7,19,-1.0993878841400146,3.620749711990357,20.262996399884862,19.80182458351477,80.55691260419948,72.6056597068378,-9.713172767078504e-05,0.0930307656526565,0,0,0
6793,228825.04231366693,2010-09-03 05:03:54,1950.984851698464,7,19,-1.0997490882873535,3.617511987686157,20.262996399884862,19.81099186694568,80.55691260419948,72.63883786106854,-9.713172767078504e-05,0.0930307656526565,0,0,0
6794,228855.05743215763,2010-09-03 05:04:24,1980.999970189164,7,19,-1.099568486213684,3.614759922027588,20.262996399884862,19.82015904653173,80.55691260419948,72.67198779103911,-6.47544875391759e-05,0.0930307656526565,0,0,0
6795,228885.07259057288,2010-09-03 05:04:54,2011.015128604368,7,19,-1.099568486213684,3.6115221977233887,20.262996399884862,19.82932625348129,80.55691260419948,72.70511033052014,-9.713172767078504e-05,0.0930307656526565,0,0,0
6796,228915.08783511777,2010-09-03 05:05:24,2041.0303731692832,7,19,-1.099568486213684,3.60860824584961,20.262996399884862,19.83849348136304,80.55691260419948,72.7382058016654,-0.0001295089750783,0.0930307656526565,0,0,0
6797,228945.1028867919,2010-09-03 05:05:54,2071.045424823406,7,19,-1.0993878841400146,3.60601806640625,20.262996399884862,19.84766073306321,80.55691260419948,72.77127463687593,-3.237724376958795e-05,0.0930307656526565,0,0,0
6798,228975.11802105693,2010-09-03 05:06:24,2101.060559093433,7,19,-1.099568486213684,3.6029422283172607,20.262996399884862,19.856827916318647,80.55691260419948,72.8043168007256,-9.713172767078504e-05,0.0930307656526565,0,0,0
6799,229005.13317062004,2010-09-03 05:06:54,2131.075708661588,7,19,-1.099568486213684,3.600028276443481,20.262996399884862,19.865995181544108,80.55691260419948,72.83733298780284,-6.47544875391759e-05,0.0930307656526565,0,0,0
6800,229035.13325018916,2010-09-03 05:07:24,2161.0757882256544,7,19,-1.099568486213684,3.597276210784912,20.262996399884862,19.87515778824117,80.55691260419948,72.87030642604198,-6.47544875391759e-05,0.0930307656526565,0,0,0
6801,229065.1478685734,2010-09-03 05:07:54,2191.090406629986,7,19,-1.0992072820663452,3.5945241451263428,20.262996399884862,19.88432483275282,80.55691260419948,72.90326983740546,-6.47544875391759e-05,0.0930307656526565,0,0,0
6802,229095.16313210057,2010-09-03 05:08:24,2221.105670132098,7,19,-1.0993878841400146,3.5916104316711426,20.262996399884862,19.893492096942488,80.55691260419948,72.93620828982843,-9.713172767078504e-05,0.0930307656526565,0,0,0
6803,229125.17814247683,2010-09-03 05:08:54,2251.120680508344,7,19,-1.0993878841400146,3.589020252227783,20.262996399884862,19.90265928927788,80.55691260419948,72.96912067376887,-3.237724376958795e-05,0.0930307656526565,0,0,0
6804,229155.1932915287,2010-09-03 05:09:24,2281.1358295602117,7,19,-1.099568486213684,3.585944414138794,20.262996399884862,19.91182650464105,80.55691260419948,73.00200728659205,-9.713172767078504e-05,0.0930307656526565,0,0,0
6805,229185.20844759804,2010-09-03 05:09:54,2311.1509856295693,7,19,-1.0993878841400146,3.5833542346954346,20.262996399884862,19.920993719403626,80.55691260419948,73.03486729509225,-3.237724376958795e-05,0.0930307656526565,0,0,0
6806,229215.2236226347,2010-09-03 05:10:24,2341.1661606661987,7,19,-1.099568486213684,3.580116510391236,20.262996399884862,19.930160991751613,80.55691260419948,73.06770055328167,-6.47544875391759e-05,0.0930307656526565,0,0,0
6807,229245.2387450652,2010-09-03 05:10:54,2371.1812831017305,7,19,-1.099568486213684,3.577202558517456,20.262996399884862,19.939328195639195,80.55691260419948,73.10050646467444,-6.47544875391759e-05,0.0930307656526565,0,0,0
6808,229275.25395817676,2010-09-03 05:11:24,2401.1964962282923,7,19,-1.099568486213684,3.574126720428467,20.262996399884862,19.948495494367844,80.55691260419948,73.13328513742528,-9.713172767078504e-05,0.0930307656526565,0,0,0
6809,229305.26905172528,2010-09-03 05:11:54,2431.211589766803,7,19,-1.099568486213684,3.571050882339477,20.262996399884862,19.95766269659766,80.55691260419948,73.16603560523058,-6.47544875391759e-05,0.0930307656526565,0,0,0
6810,229335.2843284303,2010-09-03 05:12:24,2461.2268664718217,7,19,-1.099568486213684,3.5678131580352783,20.262996399884862,19.966829963228424,80.55691260419948,73.19875787485974,-9.713172767078504e-05,0.0930307656526565,0,0,0
6811,229365.2993378792,2010-09-03 05:12:54,2491.241875915744,7,19,-1.0997490882873535,3.564575433731079,20.262996399884862,19.975997197359117,80.55691260419948,73.23145108535427,-0.0001295089750783,0.0930307656526565,0,0,0
6812,229395.31447912665,2010-09-03 05:13:24,2521.257017158148,7,19,-1.0993878841400146,3.5616614818573,20.262996399884862,19.98516439277427,80.55691260419948,73.2641150368999,-3.237724376958795e-05,0.0930307656526565,0,0,0
6813,229425.3297602176,2010-09-03 05:13:54,2551.2722982641358,7,19,-1.0993878841400146,3.55826187133789,20.262996399884862,19.994331648894377,80.55691260419948,73.29674975360076,-0.0001295089750783,0.0930307656526565,0,0,0
6814,229455.34479097964,2010-09-03 05:14:24,2581.28732901115,7,19,-1.0993878841400146,3.5550241470336914,20.262996399884862,20.00349886216537,80.55691260419948,73.32935340243208,-6.47544875391759e-05,0.0930307656526565,0,0,0
6815,229485.36007388512,2010-09-03 05:14:54,2611.3026119316605,7,19,-1.0993878841400146,3.5514626502990723,20.262996399884862,20.01266618135176,80.55691260419948,73.36192570905217,-9.713172767078504e-05,0.0930307656526565,0,0,0
6816,229515.3750824719,2010-09-03 05:15:24,2641.3176205034083,7,19,-1.0993878841400146,3.547739267349243,20.262996399884862,20.021833383228305,80.55691260419948,73.39446572243305,-0.0001295089750783,0.0930307656526565,0,0,0
6817,229545.39035141256,2010-09-03 05:15:54,2671.332889444076,7,19,-1.099568486213684,3.544177770614624,20.262996399884862,20.0310007260928,80.55691260419948,73.42697347987674,-9.713172767078504e-05,0.0930307656526565,0,0,0
6818,229575.40559099507,2010-09-03 05:16:24,2701.3481290566488,7,19,-1.0993878841400146,3.540454387664795,20.262996399884862,20.04016806253082,80.55691260419948,73.45944727176588,-9.713172767078504e-05,0.0930307656526565,0,0,0
6819,229605.42052924156,2010-09-03 05:16:54,2731.3630672780623,7,19,-1.099568486213684,3.536731004714966,20.262996399884862,20.049335260619166,80.55691260419948,73.49188566584442,-6.47544875391759e-05,0.0930307656526565,0,0,0
6820,229635.43568264425,2010-09-03 05:17:24,2761.3782206807737,7,19,-1.099568486213684,3.532521963119507,20.262996399884862,20.05850258260239,80.55691260419948,73.524288300947,-0.0001295089750783,0.0930307656526565,0,0,0
6821,229665.45077962137,2010-09-03 05:17:54,2791.3933176528426,7,19,-1.099568486213684,3.528474807739258,20.262996399884862,20.06767008143053,80.55691260419948,73.55665445443768,-0.0001295089750783,0.0930307656526565,0,0,0
6822,229695.46595747,2010-09-03 05:18:24,2821.408495516518,7,19,-1.0997490882873535,3.524103879928589,20.262996399884862,20.076838195962768,80.55691260419948,73.58898442578952,-9.713172767078504e-05,0.0930307656526565,0,0,0
6823,229725.48107060732,2010-09-03 05:18:54,2851.4236086388382,7,19,-1.0993878841400146,3.51989483833313,20.262996399884862,20.086006138920943,80.55691260419948,73.6212737284577,-9.713172767078504e-05,0.0930307656526565,0,0,0
6824,229755.4962396189,2010-09-03 05:19:24,2881.4387776554645,7,19,-1.099568486213684,3.514876365661621,20.262996399884862,20.095174202851418,80.55691260419948,73.653521343501,-0.0001295089750783,0.0930307656526565,0,0,0
6825,229785.5114491716,2010-09-03 05:19:54,2911.453987243206,7,19,-1.099568486213684,3.5101819038391118,20.262996399884862,20.10434232261468,80.55691260419948,73.68572539871484,-0.0001618862152099,0.0930307656526565,0,0,0
6826,229815.52655388296,2010-09-03 05:20:24,2941.4690919395266,7,19,-1.0997490882873535,3.5050015449523926,20.262996399884862,20.11351044266525,80.55691260419948,73.71788347589606,-0.0001295089750783,0.0930307656526565,0,0,0
6827,229845.54166018328,2010-09-03 05:20:54,2971.4841982248063,7,19,-1.099568486213684,3.499497413635254,20.262996399884862,20.122678438199127,80.55691260419948,73.74999207060048,-0.0001618862152099,0.0930307656526565,0,0,0
6828,229875.5568311448,2010-09-03 05:21:24,3001.49936918628,7,19,-1.0993878841400146,3.4935076236724854,20.262996399884862,20.13184565693024,80.55691260419948,73.78204637504724,-0.0001618862152099,0.0930307656526565,0,0,0
6829,229905.57200912872,2010-09-03 05:21:54,3031.51454716023,7,19,-1.0993878841400146,3.487355947494507,20.262996399884862,20.141012918341797,80.55691260419948,73.81404466591637,-0.0001618862152099,0.0930307656526565,0,0,0
6830,229935.58714532352,2010-09-03 05:22:24,3061.529683355054,7,19,-1.0993878841400146,3.4803948402404785,20.262996399884862,20.150180129721196,80.55691260419948,73.84598199773491,-0.0002266406954731,0.0930307656526565,0,0,0
6831,229965.6022939443,2010-09-03 05:22:54,3091.5448319758475,7,19,-1.0993878841400146,3.4726243019104004,20.262996399884862,20.159347216535732,80.55691260419948,73.8778512760649,-0.0001942634553415,0.0930307656526565,0,0,0
6832,229995.6174526252,2010-09-03 05:23:24,3121.5599906567136,7,19,-1.099568486213684,3.4635586738586426,20.262996399884862,20.168514386064626,80.55691260419948,73.90964457403697,-0.0002590179501567,0.0930307656526565,0,0,0
6833,230025.6325836873,2010-09-03 05:23:54,3151.5751217187453,7,19,-1.099568486213684,3.453359842300415,20.262996399884862,20.17768156805717,80.55691260419948,73.94135051881288,-0.0002913951757363,0.0930307656526565,0,0,0
6834,230055.6477460824,2010-09-03 05:24:24,3181.5902841138686,7,19,-1.0993878841400146,3.441056489944458,20.262996399884862,20.186848804081745,80.55691260419948,73.97295297858602,-0.0003237724304199,0.0930307656526565,0,0,0
6835,230085.6628984876,2010-09-03 05:24:54,3211.605436539144,7,19,-1.0993878841400146,3.425515651702881,20.262996399884862,20.196015995403787,80.55691260419948,74.0044279346734,-0.0004532813909463,0.0930307656526565,0,0,0
6836,230115.6780744014,2010-09-03 05:25:24,3241.620612467997,7,19,-1.0993878841400146,3.405117988586426,20.262996399884862,20.205183272282017,80.55691260419948,74.03574050544074,-0.0005827903514727,0.0930307656526565,0,0,0
6837,230145.69317869676,2010-09-03 05:25:54,3271.6357167282304,7,19,-1.0993878841400146,3.3775973320007324,20.262996399884862,20.21435051167817,80.55691260419948,74.06683689901716,-0.0008741855854168,0.0930307656526565,0,0,0
6838,230175.71114084468,2010-09-03 05:26:24,3301.653678881212,7,19,-1.099568486213684,3.339230537414551,20.262996399884862,20.223518578311356,80.55691260419948,74.09763816577586,-0.0012303352123126,0.0930307656526565,0,0,0
6839,230205.72345918155,2010-09-03 05:26:55,3331.665997273204,7,19,-1.0993878841400146,3.284189224243164,20.262996399884862,20.2326848314531,80.55691260419948,74.1280111273665,-0.0017483711708337,0.0930307656526565,0,0,0
6840,230235.73802827296,2010-09-03 05:27:25,3361.680566309494,7,19,-1.0993878841400146,3.2038938999176025,20.262996399884862,20.24183752631985,80.55691260419948,74.15772824193068,-0.0026873112656176,0.0930307656526565,0,0,0
6841,230265.73844519784,2010-09-03 05:27:55,3391.6809832544186,7,19,-1.099568486213684,3.078108787536621,20.262996399884862,20.251014385404417,80.55691260419948,74.1866004951174,-0.0041442872025072,0.0930307656526565,0,0,0
6842,230291.65965013628,2010-09-03 05:28:20,3417.6021882029054,7,19,-1.0993878841400146,2.8778560161590576,20.262996399884862,20.25893122269396,80.55691260419948,74.21027700716796,-0.0084180831909179,0.0930307656526565,0,0,0
6843,230304.84690412087,2010-09-03 05:28:34,3430.789442147352,7,19,-1.0993878841400146,2.699458122253418,20.262996399884862,20.262958906254276,80.55691260419948,74.22152770056262,-0.0119471549987792,0.0930307656526565,0,0,0
6844,230364.8608351843,2010-09-03 05:29:34,60.014686715352106,8,19,0.0,3.424058675765991,20.262996399884862,20.262958906254276,80.55691260419948,74.22152770056262,0.0011332035064697,0.0930307656526565,0,0,0
6845,230365.04844676185,2010-09-03 05:29:34,0.187424334109627,9,19,-1.9243103452026844e-05,3.424220561981201,20.262996399884862,20.262958907256117,80.55691260419948,74.22152770399315,0.0,0.0882566422224044,0,0,0
6846,230369.87649274297,2010-09-03 05:29:39,5.015470315247232,9,19,0.0007031940040178,3.4308578968048096,20.26299732771692,20.262958907340064,80.55691578496486,74.22152770428062,0.0009713172912597,0.0882566422224044,0,0,0
