Data_Point,Test_Time(s),Date_Time,Step_Time(s),Step_Index,Cycle_Index,Current(A),Voltage(V),Charge_Capacity(Ah),Discharge_Capacity(Ah),Charge_Energy(Wh),Discharge_Energy(Wh),dV/dt(V/s),Internal_Resistance(Ohm),Is_FC_Data,AC_Impedance(Ohm),ACI_Phase_Angle(Deg)
1474,49487.41447086498,2010-09-01 03:14:38,30.015186690675225,1,5,0.0,3.2733428478240967,4.3427396829912,4.385365629258905,17.255263019622856,16.11562531354034,0.0006474971887655,0.0851717442274093,0,0,0
1475,49517.42971645243,2010-09-01 03:15:08,60.030432298189325,1,5,0.0,3.2942261695861816,4.3427396829912,4.385365629258905,17.255263019622856,16.11562531354034,0.0004532813909463,0.0851717442274093,0,0,0
1476,49547.44501571868,2010-09-01 03:15:38,90.04573153937505,1,5,0.0,3.310576677322388,4.3427396829912,4.385365629258905,17.255263019622856,16.11562531354034,0.0004209041653666,0.0851717442274093,0,0,0
1477,49577.41339398336,2010-09-01 03:16:08,120.0141097990376,1,5,0.0,3.3240132331848145,4.3427396829912,4.385365629258905,17.255263019622856,16.11562531354034,0.0003561496851034,0.0851717442274093,0,0,0
1478,49607.42925023593,2010-09-01 03:16:38,30.01543292937783,2,5,0.5499359965324402,3.4794235229492188,4.347326259357824,4.385365629258905,17.271030942519776,16.11562531354034,0.0019426345825195,0.0851717442274093,0,0,0
1479,49637.44433297753,2010-09-01 03:17:08,60.030515665967485,2,5,0.5501165986061096,3.5373785495758057,4.351912737120292,4.385365629258905,17.287130052224395,16.11562531354034,0.0012950897216796,0.0851717442274093,0,0,0
1480,49667.459572940985,2010-09-01 03:17:38,90.04575565447732,2,5,0.5501165986061096,3.581573486328125,4.356499316347772,4.385365629258905,17.30346034052742,16.11562531354034,0.0010684489971026,0.0851717442274093,0,0,0
1481,49697.4748222427,2010-09-01 03:18:08,120.06100492612356,2,5,0.5501165986061096,3.6170263290405273,4.361085828599038,4.385365629258905,17.319971367235105,16.11562531354034,0.0008094310760498,0.0851717442274093,0,0,0
1482,49727.49007829124,2010-09-01 03:18:38,150.0762609846849,2,5,0.5501165986061096,3.64729905128479,4.365672389039172,4.385365629258905,17.3366322548167,16.11562531354034,0.0007770538213662,0.0851717442274093,0,0,0
1483,49757.5053522444,2010-09-01 03:19:08,180.0915349278201,2,5,0.5499359965324402,3.6728768348693848,4.370258973491074,4.385365629258905,17.353420736456375,16.11562531354034,0.0006474971887655,0.0851717442274093,0,0,0
1484,49787.52060088447,2010-09-01 03:19:38,210.10678357791727,2,5,0.5497553944587708,3.695055246353149,4.374845531369068,4.385365629258905,17.37031904309878,16.11562531354034,0.0005504131549969,0.0851717442274093,0,0,0
1485,49817.53585562976,2010-09-01 03:20:08,240.12203832320552,2,5,0.5501165986061096,3.7144815921783447,4.379432076399945,4.385365629258905,17.38731287251432,16.11562531354034,0.0004856586456298,0.0851717442274093,0,0,0
1486,49847.55109160827,2010-09-01 03:20:38,270.1372742916962,2,5,0.5501165986061096,3.730832099914551,4.384018707650796,4.385365629258905,17.40438904241461,16.11562531354034,0.0003885269106831,0.0851717442274093,0,0,0
1487,49877.56637504507,2010-09-01 03:21:08,300.15255773851754,2,5,0.5501165986061096,3.7436211109161377,4.388605274715282,4.385365629258905,17.421531930759123,16.11562531354034,0.0002913951757363,0.0851717442274093,0,0,0
1488,49907.58159019167,2010-09-01 03:21:38,330.1677728750887,2,5,0.550297200679779,3.751553535461426,4.393191905121769,4.385365629258905,17.438722644604162,16.11562531354034,0.0001942634553415,0.0851717442274093,0,0,0
1489,49937.59683797962,2010-09-01 03:22:08,360.18302066804955,2,5,0.5501165986061096,3.755600452423096,4.397778460132153,4.385365629258905,17.455939611662533,16.11562531354034,9.713172767078504e-05,0.0851717442274093,0,0,0
1490,49967.6123098711,2010-09-01 03:22:38,390.1984926046454,2,5,0.550297200679779,3.758352518081665,4.402365049079116,4.385365629258905,17.4731719356608,16.11562531354034,6.47544875391759e-05,0.0851717442274093,0,0,0
1491,49997.63017228049,2010-09-01 03:23:08,420.2163549689226,2,5,0.5499359965324402,3.7607808113098153,4.406952068971466,4.385365629258905,17.490417428278768,16.11562531354034,6.47544875391759e-05,0.0851717442274093,0,0,0
1492,50027.64264744821,2010-09-01 03:23:38,450.2288301416607,2,5,0.5501165986061096,3.763209104537964,4.41153817615638,4.385365629258905,17.507670200938186,16.11562531354034,9.713172767078504e-05,0.0851717442274093,0,0,0
1493,50057.65786526646,2010-09-01 03:24:08,480.24404795991546,2,5,0.5501165986061096,3.7654755115509033,4.416124666086501,4.385365629258905,17.52493514537049,16.11562531354034,6.47544875391759e-05,0.0851717442274093,0,0,0
1494,50087.67323954467,2010-09-01 03:24:38,510.2594222381165,2,5,0.5501165986061096,3.7679038047790527,4.420711237742863,4.385365629258905,17.542211195471502,16.11562531354034,6.47544875391759e-05,0.0851717442274093,0,0,0
1495,50117.68838270185,2010-09-01 03:25:08,540.2745654153427,2,5,0.5501165986061096,3.770170211791992,4.425297858905345,4.385365629258905,17.55949833677411,16.11562531354034,6.47544875391759e-05,0.0851717442274093,0,0,0
1496,50147.70358769313,2010-09-01 03:25:38,570.2897703815663,2,5,0.550297200679779,3.772760391235352,4.429885184888025,4.385365629258905,17.57679903766973,16.11562531354034,9.713172767078504e-05,0.0851717442274093,0,0,0
1497,50177.71883206757,2010-09-01 03:26:08,600.3050147509947,2,5,0.5501165986061096,3.775026798248291,4.434472708606699,4.385365629258905,17.594111458226052,16.11562531354034,3.237724376958795e-05,0.0851717442274093,0,0,0
1498,50207.7342452377,2010-09-01 03:26:38,630.3204279211265,2,5,0.5501165986061096,3.7772932052612314,4.439060072450105,4.385365629258905,17.61143411155089,16.11562531354034,6.47544875391759e-05,0.0851717442274093,0,0,0
1499,50237.74946296072,2010-09-01 03:27:08,660.3356457343687,2,5,0.550297200679779,3.77972149848938,4.443647598213483,4.385365629258905,17.62876823849939,16.11562531354034,3.237724376958795e-05,0.0851717442274093,0,0,0
1500,50267.76473777603,2010-09-01 03:27:38,690.3509204895278,2,5,0.5501165986061096,3.7819879055023193,4.448235143135043,4.385365629258905,17.646113215644796,16.11562531354034,6.47544875391759e-05,0.0851717442274093,0,0,0
1501,50297.77985165022,2010-09-01 03:28:08,720.3660343336469,2,5,0.550297200679779,3.7844161987304688,4.452822626394589,4.385365629258905,17.66346881260292,16.11562531354034,6.47544875391759e-05,0.0851717442274093,0,0,0
1502,50327.79510766868,2010-09-01 03:28:38,750.3812903571207,2,5,0.5499359965324402,3.786682605743408,4.457409635581596,4.385365629258905,17.680833592127843,16.11562531354034,0.0,0.0851717442274093,0,0,0
1503,50357.80962128185,2010-09-01 03:29:08,780.3958039652673,2,5,0.5499359965324402,3.789272785186768,4.461972506406192,4.385365629258905,17.698118079390323,16.11562531354034,6.47544875391759e-05,0.0851717442274093,0,0,0
1504,50387.80999712433,2010-09-01 03:29:38,810.3961798127641,2,5,0.550297200679779,3.791862964630127,4.466580746783067,4.385365629258905,17.715585877931325,16.11562531354034,9.713172767078504e-05,0.0851717442274093,0,0,0
1505,50417.82525524804,2010-09-01 03:30:08,840.4114379615348,2,5,0.5501165986061096,3.794615030288696,4.471167443051122,4.385365629258905,17.732983896006072,16.11562531354034,9.713172767078504e-05,0.0851717442274093,0,0,0
1506,50447.84047223924,2010-09-01 03:30:38,870.4266549176408,2,5,0.550297200679779,3.7973670959472656,4.475754185706027,4.385365629258905,17.750394504632002,16.11562531354034,9.713172767078504e-05,0.0851717442274093,0,0,0
1507,50477.85572282414,2010-09-01 03:31:08,900.4419055326352,2,5,0.5499359965324402,3.800119161605835,4.480340930861812,4.385365629258905,17.76781806699073,16.11562531354034,9.713172767078504e-05,0.0851717442274093,0,0,0
1508,50507.87100539379,2010-09-01 03:31:38,930.457188077208,2,5,0.5499359965324402,3.8030331134796143,4.48492773049514,4.385365629258905,17.78525544424273,16.11562531354034,3.237724376958795e-05,0.0851717442274093,0,0,0
1509,50537.88623568814,2010-09-01 03:32:08,960.4724183715568,2,5,0.550297200679779,3.806432723999024,4.489514505433895,4.385365629258905,17.80270693390285,16.11562531354034,9.713172767078504e-05,0.0851717442274093,0,0,0
1510,50567.90180294732,2010-09-01 03:32:38,990.4879857009006,2,5,0.5501165986061096,3.8095085620880127,4.494101369591215,4.385365629258905,17.82017342736201,16.11562531354034,6.47544875391759e-05,0.0851717442274093,0,0,0
1511,50597.916792421456,2010-09-01 03:33:08,1020.5029751098892,2,5,0.5499359965324402,3.812908172607422,4.498688189873861,4.385365629258905,17.837654789304374,16.11562531354034,0.0001295089750783,0.0851717442274093,0,0,0
1512,50627.93202546265,2010-09-01 03:33:38,1050.518208171134,2,5,0.5501165986061096,3.816307783126831,4.503274983314879,4.385365629258905,17.855151555284227,16.11562531354034,0.0001295089750783,0.0851717442274093,0,0,0
1513,50657.94724955654,2010-09-01 03:34:08,1080.5334322449798,2,5,0.5501165986061096,3.8195455074310303,4.507861867923956,4.385365629258905,17.87266392633645,16.11562531354034,6.47544875391759e-05,0.0851717442274093,0,0,0
1514,50687.9625005575,2010-09-01 03:34:38,1110.5486832409235,2,5,0.5499359965324402,3.82262134552002,4.512448699038554,4.385365629258905,17.89019120822309,16.11562531354034,3.237724376958795e-05,0.0851717442274093,0,0,0
1515,50717.97775272135,2010-09-01 03:35:08,1140.563935404778,2,5,0.5499359965324402,3.8260209560394287,4.517035549614115,4.385365629258905,17.907733470514856,16.11562531354034,6.47544875391759e-05,0.0851717442274093,0,0,0
1516,50747.993041686925,2010-09-01 03:35:38,1170.5792243803787,2,5,0.5501165986061096,3.829096794128418,4.521622352458936,4.385365629258905,17.925290204983074,16.11562531354034,6.47544875391759e-05,0.0851717442274093,0,0,0
1517,50778.00829757006,2010-09-01 03:36:09,1200.5944802635029,2,5,0.5501165986061096,3.832334518432617,4.52620914137626,4.385365629258905,17.94286123160611,16.11562531354034,6.47544875391759e-05,0.0851717442274093,0,0,0
1518,50808.02380909031,2010-09-01 03:36:39,1230.609991788766,2,5,0.550297200679779,3.8354101181030273,4.530796025464229,4.385365629258905,17.960446591441478,16.11562531354034,9.713172767078504e-05,0.0851717442274093,0,0,0
1519,50838.03898503419,2010-09-01 03:37:09,1260.6251678379192,2,5,0.550297200679779,3.8384859561920166,4.535382794031455,4.385365629258905,17.97804544906214,16.11562531354034,9.713172767078504e-05,0.0851717442274093,0,0,0
1520,50868.05402626735,2010-09-01 03:37:39,1290.6402089507696,2,5,0.550297200679779,3.841399908065796,4.539969587739435,4.385365629258905,17.99565818289884,16.11562531354034,6.47544875391759e-05,0.0851717442274093,0,0,0
1521,50898.06926421076,2010-09-01 03:38:09,1320.655446904207,2,5,0.5501165986061096,3.844151973724365,4.544556337096771,4.385365629258905,18.013284249967725,16.11562531354034,6.47544875391759e-05,0.0851717442274093,0,0,0
1522,50928.08465354649,2010-09-01 03:38:39,1350.670836234924,2,5,0.5501165986061096,3.847065925598145,4.54914310243194,4.385365629258905,18.03092362805292,16.11562531354034,6.47544875391759e-05,0.0851717442274093,0,0,0
1523,50958.09989825176,2010-09-01 03:39:09,1380.6860809401894,2,5,0.5499359965324402,3.849817991256714,4.553729918594161,4.385365629258905,18.04857613772385,16.11562531354034,6.47544875391759e-05,0.0851717442274093,0,0,0
1524,50988.11523778837,2010-09-01 03:39:39,1410.7014204768038,2,5,0.5501165986061096,3.852570056915283,4.55831675420854,4.385365629258905,18.06624120793279,16.11562531354034,6.47544875391759e-05,0.0851717442274093,0,0,0
1525,51018.13046652384,2010-09-01 03:40:09,1440.7166492122674,2,5,0.5501165986061096,3.8549983501434326,4.562903588896063,4.385365629258905,18.083918060514897,16.11562531354034,6.47544875391759e-05,0.0851717442274093,0,0,0
1526,51048.14554025297,2010-09-01 03:40:39,1470.7317229464204,2,5,0.5501165986061096,3.857264757156372,4.567490381060639,4.385365629258905,18.101605989464648,16.11562531354034,3.237724376958795e-05,0.0851717442274093,0,0,0
1527,51078.160915257984,2010-09-01 03:41:09,1500.7470979414077,2,5,0.5501165986061096,3.8596930503845215,4.572077191875664,4.385365629258905,18.119304414580625,16.11562531354034,6.47544875391759e-05,0.0851717442274093,0,0,0
1528,51108.17607551779,2010-09-01 03:41:39,1530.7622582964466,2,5,0.5501165986061096,3.861797571182251,4.576664025175569,4.385365629258905,18.13701257422529,16.11562531354034,9.713172767078504e-05,0.0851717442274093,0,0,0
1529,51138.19142056313,2010-09-01 03:42:09,1560.7776032515656,2,5,0.5501165986061096,3.863416433334351,4.581250858102415,4.385365629258905,18.154729685928963,16.11562531354034,6.47544875391759e-05,0.0851717442274093,0,0,0
1530,51168.206541610205,2010-09-01 03:42:39,1590.792724303649,2,5,0.550297200679779,3.86519718170166,4.585837641036894,4.385365629258905,18.17245465243035,16.11562531354034,3.237724376958795e-05,0.0851717442274093,0,0,0
1531,51198.2219254773,2010-09-01 03:43:09,1620.808108165736,2,5,0.5501165986061096,3.86665415763855,4.590424469746771,4.385365629258905,18.19018727502043,16.11562531354034,3.237724376958795e-05,0.0851717442274093,0,0,0
1532,51228.23707464947,2010-09-01 03:43:39,1650.8232573629662,2,5,0.5501165986061096,3.8682730197906494,4.595011247562286,4.385365629258905,18.20792651038943,16.11562531354034,6.47544875391759e-05,0.0851717442274093,0,0,0
1533,51258.252311149285,2010-09-01 03:44:09,1680.8384938427312,2,5,0.5501165986061096,3.869406223297119,4.599598140780933,4.385365629258905,18.225672407129544,16.11562531354034,3.237724376958795e-05,0.0851717442274093,0,0,0
1534,51288.26755941342,2010-09-01 03:44:39,1710.8537420968414,2,5,0.5499359965324402,3.870701313018799,4.604184953820553,4.385365629258905,18.2434236911532,16.11562531354034,3.237724376958795e-05,0.0851717442274093,0,0,0
1535,51318.28281797822,2010-09-01 03:45:09,1740.8690006666611,2,5,0.5501165986061096,3.8716726303100586,4.608771731577606,4.385365629258905,18.26118016051226,16.11562531354034,0.0,0.0851717442274093,0,0,0
1536,51348.29808999656,2010-09-01 03:45:39,1770.8842727050494,2,5,0.550297200679779,3.872805833816528,4.61335854141303,4.385365629258905,18.27894178439229,16.11562531354034,3.237724376958795e-05,0.0851717442274093,0,0,0
1537,51378.31332874699,2010-09-01 03:46:09,1800.8995114304112,2,5,0.550297200679779,3.873939037322998,4.617945377438089,4.385365629258905,18.296708316650108,16.11562531354034,6.47544875391759e-05,0.0851717442274093,0,0,0
1538,51408.32862533155,2010-09-01 03:46:39,1830.914808035025,2,5,0.550297200679779,3.874910354614258,4.622532304385901,4.385365629258905,18.314479597324976,16.11562531354034,6.47544875391759e-05,0.0851717442274093,0,0,0
1539,51438.34384645304,2010-09-01 03:47:09,1860.9300291615257,2,5,0.5501165986061096,3.8758816719055176,4.627119138724777,4.385365629258905,18.332255086544897,16.11562531354034,3.237724376958795e-05,0.0851717442274093,0,0,0
1540,51468.35909629611,2010-09-01 03:47:39,1890.9452789795337,2,5,0.5501165986061096,3.876691102981568,4.631705947327628,4.385365629258905,18.350034858609018,16.11562531354034,3.237724376958795e-05,0.0851717442274093,0,0,0
1541,51498.37445983755,2010-09-01 03:48:09,1920.9606425209752,2,5,0.5501165986061096,3.877662420272827,4.636292816792843,4.385365629258905,18.367819119357662,16.11562531354034,0.0,0.0851717442274093,0,0,0
1542,51528.3895866941,2010-09-01 03:48:39,1950.975769382538,2,5,0.5501165986061096,3.878633737564087,4.640879544529064,4.385365629258905,18.385607024722827,16.11562531354034,3.237724376958795e-05,0.0851717442274093,0,0,0
1543,51558.40497305241,2010-09-01 03:49:09,1980.991155745859,2,5,0.550297200679779,3.8794431686401367,4.645466386846469,4.385365629258905,18.40339956089701,16.11562531354034,3.237724376958795e-05,0.0851717442274093,0,0,0
1544,51588.42013971317,2010-09-01 03:49:39,2011.0063223965883,2,5,0.5501165986061096,3.880414485931397,4.650053300313605,4.385365629258905,18.42119652767032,16.11562531354034,0.0,0.0851717442274093,0,0,0
1545,51618.435358644194,2010-09-01 03:50:09,2041.021541337641,2,5,0.5501165986061096,3.8812239170074463,4.654640144012311,4.385365629258905,18.438997399754296,16.11562531354034,0.0,0.0851717442274093,0,0,0
1546,51648.45063373519,2010-09-01 03:50:39,2071.036816448688,2,5,0.550297200679779,3.882195234298706,4.65922702397756,4.385365629258905,18.45680253023534,16.11562531354034,3.237724376958795e-05,0.0851717442274093,0,0,0
1547,51678.46586600947,2010-09-01 03:51:09,2101.052048702921,2,5,0.5501165986061096,3.883166551589966,4.663813819139742,4.385365629258905,18.474611514100776,16.11562531354034,3.237724376958795e-05,0.0851717442274093,0,0,0
1548,51708.48123934031,2010-09-01 03:51:39,2131.067422144036,2,5,0.5499359965324402,3.8838140964508057,4.668400702788703,4.385365629258905,18.49242507616547,16.11562531354034,-6.47544875391759e-05,0.0851717442274093,0,0,0
1549,51738.4963938959,2010-09-01 03:52:09,2161.0825765843333,2,5,0.550297200679779,3.8849472999572754,4.672987513419548,4.385365629258905,18.51024240966709,16.11562531354034,3.237724376958795e-05,0.0851717442274093,0,0,0
1550,51768.511651252695,2010-09-01 03:52:39,2191.0978339361177,2,5,0.550297200679779,3.885918617248535,4.677574344190474,4.385365629258905,18.52806408432372,16.11562531354034,3.237724376958795e-05,0.0851717442274093,0,0,0
1551,51798.5269069303,2010-09-01 03:53:09,2221.113089618742,2,5,0.550297200679779,3.886889934539795,4.682161209731573,4.385365629258905,18.54589018829061,16.11562531354034,3.237724376958795e-05,0.0851717442274093,0,0,0
1552,51828.5421564626,2010-09-01 03:53:39,2251.12833915605,2,5,0.5501165986061096,3.887861251831055,4.686748075271524,4.385365629258905,18.56372053874115,16.11562531354034,3.237724376958795e-05,0.0851717442274093,0,0,0
1553,51858.5574094886,2010-09-01 03:54:09,2281.143592202104,2,5,0.5501165986061096,3.888670682907105,4.691334880119998,4.385365629258905,18.58155504715665,16.11562531354034,0.0,0.0851717442274093,0,0,0
1554,51888.57264947712,2010-09-01 03:54:39,2311.1588321705635,2,5,0.5501165986061096,3.889642000198364,4.695921772790152,4.385365629258905,18.59939432391807,16.11562531354034,3.237724376958795e-05,0.0851717442274093,0,0,0
1555,51918.58790474872,2010-09-01 03:55:09,2341.174087437151,2,5,0.5501165986061096,3.890613317489624,4.700508692086545,4.385365629258905,18.617238058804773,16.11562531354034,3.237724376958795e-05,0.0851717442274093,0,0,0
1556,51948.60390162863,2010-09-01 03:55:39,2371.190084317067,2,5,0.5501165986061096,3.891584634780884,4.705095655660294,4.385365629258905,18.63508653123516,16.11562531354034,3.237724376958795e-05,0.0851717442274093,0,0,0
1557,51978.60558516028,2010-09-01 03:56:09,2401.1917678737777,2,5,0.550297200679779,3.892555952072144,4.70968046899643,4.385365629258905,18.652931167279377,16.11562531354034,-3.237724376958795e-05,0.0851717442274093,0,0,0
1558,52008.61805894957,2010-09-01 03:56:39,2431.204241643018,2,5,0.550297200679779,3.893689155578613,4.714266875766702,4.385365629258905,18.67078663469717,16.11562531354034,3.237724376958795e-05,0.0851717442274093,0,0,0
1559,52038.633289093545,2010-09-01 03:57:09,2461.219471776968,2,5,0.5501165986061096,3.894660472869873,4.718853720850935,4.385365629258905,18.68864851317075,16.11562531354034,0.0,0.0851717442274093,0,0,0
1560,52068.648670088485,2010-09-01 03:57:39,2491.234852781933,2,5,0.550297200679779,3.895631790161133,4.723440671646583,4.385365629258905,18.7065150403564,16.11562531354034,3.237724376958795e-05,0.0851717442274093,0,0,0
1561,52098.66381543612,2010-09-01 03:58:09,2521.249998119544,2,5,0.550297200679779,3.8967649936676025,4.728027492218113,4.385365629258905,18.72438601001619,16.11562531354034,3.237724376958795e-05,0.0851717442274093,0,0,0
1562,52128.67905132943,2010-09-01 03:58:39,2551.265234037909,2,5,0.5501165986061096,3.8977363109588623,4.732614355646376,4.385365629258905,18.742262063299552,16.11562531354034,0.0,0.0851717442274093,0,0,0
1563,52158.69434844532,2010-09-01 03:59:09,2581.280531128736,2,5,0.5501165986061096,3.898869514465332,4.737201237442367,4.385365629258905,18.760143129775976,16.11562531354034,3.237724376958795e-05,0.0851717442274093,0,0,0
1564,52188.70957185752,2010-09-01 03:59:39,2611.295754565995,2,5,0.5501165986061096,3.9000027179718018,4.741788118689728,4.385365629258905,18.77802926772616,16.11562531354034,3.237724376958795e-05,0.0851717442274093,0,0,0
1565,52218.72483716412,2010-09-01 04:00:09,2641.3110198826307,2,5,0.550297200679779,3.9012978076934814,4.746375022460813,4.385365629258905,18.795920507792985,16.11562531354034,6.47544875391759e-05,0.0851717442274093,0,0,0
1566,52248.7402134774,2010-09-01 04:00:39,2671.326396170841,2,5,0.5501165986061096,3.902269124984741,4.750961933453201,4.385365629258905,18.8138170059828,16.11562531354034,3.237724376958795e-05,0.0851717442274093,0,0,0
1567,52278.75531531659,2010-09-01 04:01:09,2701.34149801004,2,5,0.5501165986061096,3.903564214706421,4.755548768500039,4.385365629258905,18.831718400768644,16.11562531354034,6.47544875391759e-05,0.0851717442274093,0,0,0
1568,52308.77071160464,2010-09-01 04:01:39,2731.356894288072,2,5,0.5501165986061096,3.9045355319976807,4.760135661816994,4.385365629258905,18.849625397218063,16.11562531354034,3.237724376958795e-05,0.0851717442274093,0,0,0
1569,52338.78586442591,2010-09-01 04:02:09,2761.3720471093343,2,5,0.5499359965324402,3.9056687355041504,4.764722532405203,4.385365629258905,18.86753771974292,16.11562531354034,0.0,0.0851717442274093,0,0,0
1570,52368.801219275694,2010-09-01 04:02:39,2791.387401974151,2,5,0.5501165986061096,3.90696382522583,4.769309364761817,4.385365629258905,18.885455482840364,16.11562531354034,0.0,0.0851717442274093,0,0,0
1571,52398.81630283934,2010-09-01 04:03:09,2821.402485547827,2,5,0.5501165986061096,3.9082589149475098,4.773896174968304,4.385365629258905,18.90337888319004,16.11562531354034,3.237724376958795e-05,0.0851717442274093,0,0,0
1572,52428.8315449331,2010-09-01 04:03:39,2851.4177276415835,2,5,0.550297200679779,3.9095540046691895,4.778482849099108,4.385365629258905,18.92130760105549,16.11562531354034,3.237724376958795e-05,0.0851717442274093,0,0,0
1573,52458.84677890161,2010-09-01 04:04:09,2881.43296161009,2,5,0.5499359965324402,3.910849094390869,4.783069557809297,4.385365629258905,18.93924235698784,16.11562531354034,3.237724376958795e-05,0.0851717442274093,0,0,0
1574,52488.86202363193,2010-09-01 04:04:39,2911.4482063153555,2,5,0.5501165986061096,3.912144184112549,4.787656282116338,4.385365629258905,18.957183230692216,16.11562531354034,3.237724376958795e-05,0.0851717442274093,0,0,0
1575,52518.8772675302,2010-09-01 04:05:09,2941.463450218622,2,5,0.550297200679779,3.9136011600494394,4.792243005961782,4.385365629258905,18.975130232254056,16.11562531354034,3.237724376958795e-05,0.0851717442274093,0,0,0
1576,52548.89264222944,2010-09-01 04:05:39,2971.478824922885,2,5,0.550297200679779,3.915057897567749,4.796829779324282,4.385365629258905,18.99308364585153,16.11562531354034,6.47544875391759e-05,0.0851717442274093,0,0,0
1577,52578.90805174045,2010-09-01 04:06:09,3001.4942344739966,2,5,0.5501165986061096,3.9163529872894287,4.801416596286561,4.385365629258905,19.011043446857787,16.11562531354034,6.47544875391759e-05,0.0851717442274093,0,0,0
1578,52608.92299654828,2010-09-01 04:06:39,3031.5091792317003,2,5,0.5501165986061096,3.917648077011109,4.806003318713424,4.385365629258905,19.02900939636206,16.11562531354034,3.237724376958795e-05,0.0851717442274093,0,0,0
1579,52638.93837779384,2010-09-01 04:07:09,3061.524560487291,2,5,0.550297200679779,3.919266939163208,4.810590071717686,4.385365629258905,19.04698188976484,16.11562531354034,6.47544875391759e-05,0.0851717442274093,0,0,0
1580,52668.95346490634,2010-09-01 04:07:39,3091.5396475897624,2,5,0.550297200679779,3.920562028884888,4.815176765033371,4.385365629258905,19.064960773120717,16.11562531354034,3.237724376958795e-05,0.0851717442274093,0,0,0
1581,52698.96872470924,2010-09-01 04:08:09,3121.554907397668,2,5,0.5501165986061096,3.922019004821777,4.819763567368391,4.385365629258905,19.08294672490554,16.11562531354034,6.47544875391759e-05,0.0851717442274093,0,0,0
1582,52728.98393835709,2010-09-01 04:08:40,3151.5701210405164,2,5,0.5501165986061096,3.923475980758667,4.824350256430982,4.385365629258905,19.100939021585525,16.11562531354034,3.237724376958795e-05,0.0851717442274093,0,0,0
1583,52758.999441516506,2010-09-01 04:09:10,3181.585624199929,2,5,0.5501165986061096,3.925094842910767,4.828937098647248,4.385365629258905,19.11893879763961,16.11562531354034,6.47544875391759e-05,0.0851717442274093,0,0,0
1584,52789.01452718039,2010-09-01 04:09:40,3211.6007098638147,2,5,0.5501165986061096,3.9263899326324463,4.833523810212132,4.385365629258905,19.13694497490582,16.11562531354034,3.237724376958795e-05,0.0851717442274093,0,0,0
1585,52819.02964670366,2010-09-01 04:10:10,3241.615829387088,2,5,0.5501165986061096,3.928008794784546,4.838110539604072,4.385365629258905,19.15495822343589,16.11562531354034,3.237724376958795e-05,0.0851717442274093,0,0,0
1586,52849.04487268727,2010-09-01 04:10:40,3271.631055370693,2,5,0.5499359965324402,3.929465770721436,4.842697261716829,4.385365629258905,19.17297851398132,16.11562531354034,3.237724376958795e-05,0.0851717442274093,0,0,0
1587,52879.06007749811,2010-09-01 04:11:10,3301.646260186542,2,5,0.5501165986061096,3.931084632873535,4.847283960092967,4.385365629258905,19.1910058791844,16.11562531354034,3.237724376958795e-05,0.0851717442274093,0,0,0
1588,52909.07530773732,2010-09-01 04:11:40,3331.661490420741,2,5,0.550297200679779,3.9328653812408447,4.851870652041908,4.385365629258905,19.209040395728007,16.11562531354034,6.47544875391759e-05,0.0851717442274093,0,0,0
1589,52939.0907659447,2010-09-01 04:12:10,3361.676948648169,2,5,0.550297200679779,3.9343223571777344,4.856457401372778,4.385365629258905,19.227082465879025,16.11562531354034,3.237724376958795e-05,0.0851717442274093,0,0,0
1590,52969.10593794376,2010-09-01 04:12:40,3391.6921206672782,2,5,0.5499359965324402,3.935779333114624,4.861044143838779,4.385365629258905,19.245131928844724,16.11562531354034,0.0,0.0851717442274093,0,0,0
1591,52999.120971913806,2010-09-01 04:13:10,3421.707154607252,2,5,0.5499359965324402,3.937398195266724,4.865630825526968,4.385365629258905,19.263188487190583,16.11562531354034,3.237724376958795e-05,0.0851717442274093,0,0,0
1592,53029.13632576109,2010-09-01 04:13:40,3451.7225084495203,2,5,0.5501165986061096,3.939178943634033,4.870217523455554,4.385365629258905,19.28125270020874,16.11562531354034,6.47544875391759e-05,0.0851717442274093,0,0,0
1593,53059.15146274788,2010-09-01 04:14:10,3481.737645466393,2,5,0.5501165986061096,3.940959692001343,4.874804240553895,4.385365629258905,19.2993246174203,16.11562531354034,6.47544875391759e-05,0.0851717442274093,0,0,0
1594,53089.16660449154,2010-09-01 04:14:40,3511.7527871749594,2,5,0.5501165986061096,3.9425785541534415,4.87939101888506,4.385365629258905,19.317404450250752,16.11562531354034,3.237724376958795e-05,0.0851717442274093,0,0,0
1595,53119.1818185855,2010-09-01 04:15:10,3541.768001268932,2,5,0.5499359965324402,3.944197416305542,4.883977781225683,4.385365629258905,19.335491976359656,16.11562531354034,3.237724376958795e-05,0.0851717442274093,0,0,0
1596,53149.1970425591,2010-09-01 04:15:40,3571.783225242528,2,5,0.550297200679779,3.945978164672852,4.888564569137083,4.385365629258905,19.35358743446474,16.11562531354034,6.47544875391759e-05,0.0851717442274093,0,0,0
1597,53179.21226333474,2010-09-01 04:16:10,3601.798446018153,2,5,0.5501165986061096,3.947597026824951,4.893151444544588,4.385365629258905,19.37169108233501,16.11562531354034,3.237724376958795e-05,0.0851717442274093,0,0,0
1598,53209.22747022575,2010-09-01 04:16:40,3631.8136529191984,2,5,0.5501165986061096,3.949539661407471,4.897738269790785,4.385365629258905,19.389802533304,16.11562531354034,3.237724376958795e-05,0.0851717442274093,0,0,0
1599,53239.24268160796,2010-09-01 04:17:10,3661.8288642964,2,5,0.5497553944587708,3.9511585235595694,4.902325052087975,4.385365629258905,19.407921961525258,16.11562531354034,3.237724376958795e-05,0.0851717442274093,0,0,0
1600,53269.25791339604,2010-09-01 04:17:40,3691.8440961045226,2,5,0.550297200679779,3.95293927192688,4.906911837420263,4.385365629258905,19.426049552626747,16.11562531354034,3.237724376958795e-05,0.0851717442274093,0,0,0
1601,53299.273146913416,2010-09-01 04:18:10,3721.8593296018535,2,5,0.550297200679779,3.9548819065094,4.91149857383134,4.385365629258905,19.444185270588644,16.11562531354034,6.47544875391759e-05,0.0851717442274093,0,0,0
1602,53329.288502139134,2010-09-01 04:18:40,3751.8746848275705,2,5,0.5501165986061096,3.956662654876709,4.916085353205,4.385365629258905,19.46232963228952,16.11562531354034,3.237724376958795e-05,0.0851717442274093,0,0,0
1603,53359.3035399688,2010-09-01 04:19:10,3781.8897226522254,2,5,0.550297200679779,3.9584434032440186,4.920672088078144,4.385365629258905,19.480482201126037,16.11562531354034,6.47544875391759e-05,0.0851717442274093,0,0,0
1604,53389.318734915054,2010-09-01 04:19:40,3811.9049176034887,2,5,0.550297200679779,3.960386037826538,4.925258894439279,4.385365629258905,19.498643711214903,16.11562531354034,3.237724376958795e-05,0.0851717442274093,0,0,0
1605,53419.33395261802,2010-09-01 04:20:10,3841.9201353114686,2,5,0.5499359965324402,3.9623286724090576,4.929845694936582,4.385365629258905,19.516813949056072,16.11562531354034,6.47544875391759e-05,0.0851717442274093,0,0,0
1606,53449.34937377807,2010-09-01 04:20:40,3871.9355564665007,2,5,0.550297200679779,3.964433193206787,4.93443252761004,4.385365629258905,19.53499317439117,16.11562531354034,6.47544875391759e-05,0.0851717442274093,0,0,0
1607,53479.36437860548,2010-09-01 04:21:10,3901.950561318979,2,5,0.550297200679779,3.9662139415740967,4.939019323490618,4.385365629258905,19.553181211716144,16.11562531354034,6.47544875391759e-05,0.0851717442274093,0,0,0
1608,53509.37969149067,2010-09-01 04:21:40,3931.9658741690832,2,5,0.5501165986061096,3.968156576156616,4.943606220220768,4.385365629258905,19.571378694585817,16.11562531354034,3.237724376958795e-05,0.0851717442274093,0,0,0
1609,53539.394812181854,2010-09-01 04:22:10,3961.98099486528,2,5,0.550297200679779,3.970422983169556,4.948193044384047,4.385365629258905,19.58958504012042,16.11562531354034,9.713172767078504e-05,0.0851717442274093,0,0,0
1610,53569.40997811079,2010-09-01 04:22:40,3991.9961607992223,2,5,0.5501165986061096,3.972203731536865,4.952779856009428,4.385365629258905,19.60780057892797,16.11562531354034,3.237724376958795e-05,0.0851717442274093,0,0,0
1611,53599.425178650985,2010-09-01 04:23:10,4022.0113613344015,2,5,0.5501165986061096,3.9743082523345943,4.957366708703129,4.385365629258905,19.626025533245187,16.11562531354034,9.713172767078504e-05,0.0851717442274093,0,0,0
1612,53629.44038417861,2010-09-01 04:23:40,4052.0265668670377,2,5,0.550297200679779,3.976412773132324,4.961953577992159,4.385365629258905,19.644259899001025,16.11562531354034,3.237724376958795e-05,0.0851717442274093,0,0,0
1613,53659.45561546543,2010-09-01 04:24:10,4082.04179815386,2,5,0.550297200679779,3.978355407714844,4.96654048783501,4.385365629258905,19.662503499327272,16.11562531354034,9.713172767078504e-05,0.0851717442274093,0,0,0
1614,53689.47083392528,2010-09-01 04:24:40,4112.057016633765,2,5,0.5501165986061096,3.9802980422973633,4.971127319954883,4.385365629258905,19.68075651638858,16.11562531354034,0.0,0.0851717442274093,0,0,0
1615,53719.485995393086,2010-09-01 04:25:10,4142.072178081527,2,5,0.5501165986061096,3.982564449310303,4.975714030807242,4.385365629258905,19.69901858460617,16.11562531354034,3.237724376958795e-05,0.0851717442274093,0,0,0
1616,53749.50119653979,2010-09-01 04:25:40,4172.087379228231,2,5,0.5501165986061096,3.984668970108032,4.980300810034646,4.385365629258905,19.717290365778844,16.11562531354034,6.47544875391759e-05,0.0851717442274093,0,0,0
1617,53779.5164137766,2010-09-01 04:26:10,4202.102596460024,2,5,0.5501165986061096,3.986611604690552,4.984887602128789,4.385365629258905,19.73557169844249,16.11562531354034,3.237724376958795e-05,0.0851717442274093,0,0,0
1618,53809.531608838144,2010-09-01 04:26:40,4232.117791531586,2,5,0.5499359965324402,3.988716125488281,4.989474404062459,4.385365629258905,19.75386253333611,16.11562531354034,6.47544875391759e-05,0.0851717442274093,0,0,0
1619,53839.546806776845,2010-09-01 04:27:10,4262.1329894602695,2,5,0.550297200679779,3.9908206462860103,4.994061111931222,4.385365629258905,19.77216248436833,16.11562531354034,6.47544875391759e-05,0.0851717442274093,0,0,0
1620,53869.56200903131,2010-09-01 04:27:40,4292.148191719748,2,5,0.5501165986061096,3.99292516708374,4.998647916375165,4.385365629258905,19.790472422218983,16.11562531354034,6.47544875391759e-05,0.0851717442274093,0,0,0
1621,53899.58058812189,2010-09-01 04:28:10,4322.166770965715,2,5,0.5501165986061096,3.99502944946289,5.003235163787537,4.385365629258905,19.808793701234453,16.11562531354034,3.237724376958795e-05,0.0851717442274093,0,0,0
1622,53929.5924638356,2010-09-01 04:28:40,4352.178646549091,2,5,0.5501165986061096,3.99697208404541,5.007821384572574,4.385365629258905,19.82712056787955,16.11562531354034,3.237724376958795e-05,0.0851717442274093,0,0,0
1623,53959.60761916812,2010-09-01 04:29:10,4382.193801851538,2,5,0.5501165986061096,3.99907660484314,5.012408169819019,4.385365629258905,19.84545935712228,16.11562531354034,3.237724376958795e-05,0.0851717442274093,0,0,0
1624,53989.62306050344,2010-09-01 04:29:40,4412.209243186866,2,5,0.5501165986061096,4.001504898071289,5.016994873000838,4.385365629258905,19.86380762051918,16.11562531354034,9.70840483205393e-05,0.0851717442274093,0,0,0
1625,54019.63802697025,2010-09-01 04:30:10,4442.2242096637,2,5,0.5501165986061096,4.003447532653809,5.021581590939987,4.385365629258905,19.88216587658832,16.11562531354034,0.0,0.0851717442274093,0,0,0
1626,54049.653339083525,2010-09-01 04:30:40,4472.239521766942,2,5,0.5501165986061096,4.005713939666748,5.026168374455747,4.385365629258905,19.900534327314976,16.11562531354034,3.23295607813634e-05,0.0851717442274093,0,0,0
1627,54079.66841430137,2010-09-01 04:31:10,4502.254597009855,2,5,0.5504778623580933,4.008142471313477,5.030755071627094,4.385365629258905,19.918912559715316,16.11562531354034,6.47544875391759e-05,0.0851717442274093,0,0,0
1628,54109.68375044954,2010-09-01 04:31:40,4532.269933132962,2,5,0.550297200679779,4.010246753692627,5.035341935472173,4.385365629258905,19.93730159175069,16.11562531354034,6.47544875391759e-05,0.0851717442274093,0,0,0
1629,54139.69882608844,2010-09-01 04:32:10,4562.285008771862,2,5,0.5501165986061096,4.012351512908936,5.039928723574852,4.385365629258905,19.95570057094425,16.11562531354034,3.24249267578125e-05,0.0851717442274093,0,0,0
1630,54169.71401400216,2010-09-01 04:32:40,4592.300196685585,2,5,0.5501165986061096,4.014617919921875,5.044515477371428,4.385365629258905,19.97410978358215,16.11562531354034,3.24249267578125e-05,0.0851717442274093,0,0,0
1631,54199.72919422672,2010-09-01 04:33:10,4622.3153769101455,2,5,0.5501165986061096,4.017045974731445,5.049102210041896,4.385365629258905,19.99252936188145,16.11562531354034,6.47544875391759e-05,0.0851717442274093,0,0,0
1632,54229.74439104764,2010-09-01 04:33:40,4652.330573731068,2,5,0.5501165986061096,4.019150733947754,5.053689024758197,4.385365629258905,20.010959848260395,16.11562531354034,6.47544875391759e-05,0.0851717442274093,0,0,0
1633,54259.7596207806,2010-09-01 04:34:10,4682.345803474042,2,5,0.5501165986061096,4.021578788757324,5.058275814047398,4.385365629258905,20.029400813288145,16.11562531354034,6.47544875391759e-05,0.0851717442274093,0,0,0
1634,54289.774800002655,2010-09-01 04:34:40,4712.360982686079,2,5,0.550297200679779,4.024007320404053,5.06286251040039,4.385365629258905,20.04785221722656,16.11562531354034,6.47544875391759e-05,0.0851717442274093,0,0,0
1635,54319.790065720284,2010-09-01 04:35:10,4742.376248418751,2,5,0.550297200679779,4.026435375213623,5.067449294914401,4.385365629258905,20.066314867741816,16.11562531354034,6.47544875391759e-05,0.0851717442274093,0,0,0
1636,54349.80518035639,2010-09-01 04:35:40,4772.39136304482,2,5,0.550297200679779,4.028863906860352,5.072036029364742,4.385365629258905,20.08478830109493,16.11562531354034,6.47544875391759e-05,0.0851717442274093,0,0,0
1637,54379.82039022482,2010-09-01 04:36:10,4802.406572918274,2,5,0.5501165986061096,4.031130313873291,5.076622754553015,4.385365629258905,20.10327272454732,16.11562531354034,6.47544875391759e-05,0.0851717442274093,0,0,0
1638,54409.83571196709,2010-09-01 04:36:40,4832.421894660539,2,5,0.5499359965324402,4.033396720886231,5.081209497632158,4.385365629258905,20.12176839158776,16.11562531354034,3.24249267578125e-05,0.0851717442274093,0,0,0
1639,54439.8507612503,2010-09-01 04:37:10,4862.436943943752,2,5,0.5501165986061096,4.036148548126221,5.085796201986359,4.385365629258905,20.140275207986868,16.11562531354034,6.47544875391759e-05,0.0851717442274093,0,0,0
1640,54469.866134636286,2010-09-01 04:37:40,4892.45231732973,2,5,0.5501165986061096,4.038576602935791,5.090383019190224,4.385365629258905,20.158793887206397,16.11562531354034,6.47544875391759e-05,0.0851717442274093,0,0,0
1641,54499.8813316176,2010-09-01 04:38:10,4922.467514311052,2,5,0.5501165986061096,4.04100513458252,5.094969825082119,4.385365629258905,20.177323972949807,16.11562531354034,3.24249267578125e-05,0.0851717442274093,0,0,0
1642,54529.89637222419,2010-09-01 04:38:40,4952.482554932678,2,5,0.5501165986061096,4.04375696182251,5.099556533245629,4.385365629258905,20.19586530806016,16.11562531354034,9.70840483205393e-05,0.0851717442274093,0,0,0
1643,54559.91166987642,2010-09-01 04:39:10,4982.497852559841,2,5,0.550297200679779,4.046347141265869,5.104143301999313,4.385365629258905,20.21441867654897,16.11562531354034,6.47544875391759e-05,0.0851717442274093,0,0,0
1644,54589.92673506427,2010-09-01 04:39:40,5012.512917747694,2,5,0.5501165986061096,4.048775672912598,5.108729998581219,4.385365629258905,20.23298359334944,16.11562531354034,6.47544875391759e-05,0.0851717442274093,0,0,0
1645,54619.94195368954,2010-09-01 04:40:10,5042.528136398023,2,5,0.5499359965324402,4.051365852355957,5.113316790462441,4.385365629258905,20.251560820543776,16.11562531354034,6.47544875391759e-05,0.0851717442274093,0,0,0
1646,54649.957133127136,2010-09-01 04:40:41,5072.543315810558,2,5,0.5499359965324402,4.053956031799316,5.117903526614376,4.385365629258905,20.27014982031494,16.11562531354034,6.47544875391759e-05,0.0851717442274093,0,0,0
1647,54679.97259600115,2010-09-01 04:41:11,5102.558778714643,2,5,0.5499359965324402,4.056707859039307,5.122490374656066,4.385365629258905,20.288751471661566,16.11562531354034,3.23295607813634e-05,0.0851717442274093,0,0,0
1648,54709.9876465475,2010-09-01 04:41:41,5132.57382923093,2,5,0.550297200679779,4.059621810913086,5.127077185512933,4.385365629258905,20.30736527870363,16.11562531354034,9.70840483205393e-05,0.0851717442274093,0,0,0
1649,54740.00286461639,2010-09-01 04:42:11,5162.589047329884,2,5,0.5501165986061096,4.062050342559815,5.131663989908382,4.385365629258905,20.3259911417687,16.11562531354034,9.71794142969884e-05,0.0851717442274093,0,0,0
1650,54770.01789948868,2010-09-01 04:42:41,5192.604082177119,2,5,0.5501165986061096,4.064964294433594,5.136250746910505,4.385365629258905,20.344629308460345,16.11562531354034,0.0001295089750783,0.0851717442274093,0,0,0
1651,54800.03309647502,2010-09-01 04:43:11,5222.619279168466,2,5,0.5501165986061096,4.067554473876953,5.140837503494047,4.385365629258905,20.363280113181546,16.11562531354034,6.47544875391759e-05,0.0851717442274093,0,0,0
1652,54830.048415224825,2010-09-01 04:43:41,5252.634597918273,2,5,0.5499359965324402,4.070468425750732,5.14542429968751,4.385365629258905,20.38194386729032,16.11562531354034,6.47544875391759e-05,0.0851717442274093,0,0,0
1653,54860.06370946856,2010-09-01 04:44:11,5282.649892151979,2,5,0.550297200679779,4.073220252990723,5.150010995686381,4.385365629258905,20.40061997946739,16.11562531354034,6.47544875391759e-05,0.0851717442274093,0,0,0
1654,54890.07881608968,2010-09-01 04:44:41,5312.664998778108,2,5,0.550297200679779,4.075972557067871,5.15459769885428,4.385365629258905,20.4193091074732,16.11562531354034,6.47544875391759e-05,0.0851717442274093,0,0,0
1655,54920.09387235529,2010-09-01 04:45:11,5342.680055043725,2,5,0.5501165986061096,4.078724384307861,5.159184475001846,4.385365629258905,20.438011617585232,16.11562531354034,3.23295607813634e-05,0.0851717442274093,0,0,0
1656,54950.1092278617,2010-09-01 04:45:41,5372.695410550141,2,5,0.5501165986061096,4.08180046081543,5.163771318952028,4.385365629258905,20.45672759386828,16.11562531354034,9.71794142969884e-05,0.0851717442274093,0,0,0
1657,54980.124406377,2010-09-01 04:46:11,5402.710589060428,2,5,0.5501165986061096,4.084714412689209,5.168358068703539,4.385365629258905,20.47545649363149,16.11562531354034,6.47544875391759e-05,0.0851717442274093,0,0,0
1658,55010.13945893338,2010-09-01 04:46:41,5432.725641616799,2,5,0.550297200679779,4.087790012359619,5.172944832855311,4.385365629258905,20.494198893493664,16.11562531354034,9.70840483205393e-05,0.0851717442274093,0,0,0
1659,55040.15464495739,2010-09-01 04:47:11,5462.740827645825,2,5,0.5501165986061096,4.090703964233398,5.177531567274595,4.385365629258905,20.512954723298584,16.11562531354034,9.70840483205393e-05,0.0851717442274093,0,0,0
1660,55070.1698390465,2010-09-01 04:47:41,5492.756021729927,2,5,0.550297200679779,4.093780040740967,5.182118303580187,4.385365629258905,20.531724208497053,16.11562531354034,0.0001295089750783,0.0851717442274093,0,0,0
1661,55100.18503839873,2010-09-01 04:48:11,5522.771221082158,2,5,0.550297200679779,4.096531867980957,5.186705095481353,4.385365629258905,20.55050776984145,16.11562531354034,0.0,0.0851717442274093,0,0,0
1662,55130.20023308935,2010-09-01 04:48:41,5552.786415772773,2,5,0.5501165986061096,4.099769592285156,5.191291913226849,4.385365629258905,20.56930534754881,16.11562531354034,6.47544875391759e-05,0.0851717442274093,0,0,0
1663,55160.21543283256,2010-09-01 04:49:11,5582.8016155410405,2,5,0.5501165986061096,4.102683544158936,5.195878697709317,4.385365629258905,20.58811678976704,16.11562531354034,6.47544875391759e-05,0.0851717442274093,0,0,0
1664,55190.23061744806,2010-09-01 04:49:41,5612.816800131481,2,5,0.5501165986061096,4.105921268463135,5.200465369663462,4.385365629258905,20.606941929503325,16.11562531354034,9.70840483205393e-05,0.0851717442274093,0,0,0
1665,55220.2458176875,2010-09-01 04:50:11,5642.832000375936,2,5,0.550297200679779,4.108997344970703,5.205052093882,4.385365629258905,20.625781548544133,16.11562531354034,6.47544875391759e-05,0.0851717442274093,0,0,0
1666,55250.26100734557,2010-09-01 04:50:41,5672.847190028995,2,5,0.5501165986061096,4.112072944641113,5.209638857831886,4.385365629258905,20.64463576923785,16.11562531354034,6.47544875391759e-05,0.0851717442274093,0,0,0
1667,55280.27623679281,2010-09-01 04:51:11,5702.862419486258,2,5,0.5501165986061096,4.1153106689453125,5.214225638557172,4.385365629258905,20.66350449580464,16.11562531354034,6.47544875391759e-05,0.0851717442274093,0,0,0
1668,55310.29140288215,2010-09-01 04:51:41,5732.877585565563,2,5,0.5501165986061096,4.118548393249512,5.218812425157047,4.385365629258905,20.682387939649303,16.11562531354034,6.47544875391759e-05,0.0851717442274093,0,0,0
1669,55340.30658453025,2010-09-01 04:52:11,5762.892767213671,2,5,0.5501165986061096,4.121623992919922,5.223399194968919,4.385365629258905,20.701286165281264,16.11562531354034,3.23295607813634e-05,0.0851717442274093,0,0,0
1670,55370.32190103948,2010-09-01 04:52:41,5792.908083747957,2,5,0.5501165986061096,4.12502384185791,5.227985943233177,4.385365629258905,20.720199135212155,16.11562531354034,6.47544875391759e-05,0.0851717442274093,0,0,0
1671,55400.33694168616,2010-09-01 04:53:11,5822.923124369583,2,5,0.5501165986061096,4.128261566162109,5.232572643266535,4.385365629258905,20.739126912272543,16.11562531354034,6.47544875391759e-05,0.0851717442274093,0,0,0
1672,55430.35226970406,2010-09-01 04:53:41,5852.938452392502,2,5,0.5501165986061096,4.13166093826294,5.237159426623657,4.385365629258905,20.758070163664343,16.11562531354034,9.70840483205393e-05,0.0851717442274093,0,0,0
1673,55460.36737074126,2010-09-01 04:54:11,5882.953553424689,2,5,0.5501165986061096,4.134898662567139,5.241746156871645,4.385365629258905,20.777028376430938,16.11562531354034,3.23295607813634e-05,0.0851717442274093,0,0,0
1674,55490.382522264284,2010-09-01 04:54:41,5912.968704952728,2,5,0.5499359965324402,4.138298511505127,5.246332907505779,4.385365629258905,20.79600205486948,16.11562531354034,9.71794142969884e-05,0.0851717442274093,0,0,0
1675,55520.39771587722,2010-09-01 04:55:11,5942.983898565655,2,5,0.5501165986061096,4.141697883605957,5.250919682589371,4.385365629258905,20.814991261614125,16.11562531354034,9.70840483205393e-05,0.0851717442274093,0,0,0
1676,55550.41290436738,2010-09-01 04:55:41,5972.999087075866,2,5,0.5501165986061096,4.145259380340576,5.255506478966943,4.385365629258905,20.833996272596373,16.11562531354034,9.70840483205393e-05,0.0851717442274093,0,0,0
1677,55580.42813740357,2010-09-01 04:56:11,6003.014320112049,2,5,0.5501165986061096,4.1486592292785645,5.260093197565768,4.385365629258905,20.853017087987137,16.11562531354034,9.71794142969884e-05,0.0851717442274093,0,0,0
1678,55610.443291578194,2010-09-01 04:56:41,6033.029474261621,2,5,0.5501165986061096,4.152220726013184,5.264679918696205,4.385365629258905,20.872053749572306,16.11562531354034,0.0001295089750783,0.0851717442274093,0,0,0
1679,55640.458469276455,2010-09-01 04:57:11,6063.0446519598845,2,5,0.5501165986061096,4.155620098114014,5.269266649202132,4.385365629258905,20.89110644939755,16.11562531354034,9.70840483205393e-05,0.0851717442274093,0,0,0
1680,55670.47366404226,2010-09-01 04:57:41,6093.059846725686,2,5,0.5501165986061096,4.159019947052002,5.273853411267521,4.385365629258905,20.91017542031985,16.11562531354034,6.47544875391759e-05,0.0851717442274093,0,0,0
1681,55700.48886586566,2010-09-01 04:58:11,6123.075048549076,2,5,0.550297200679779,4.162743091583252,5.278440182542278,4.385365629258905,20.92926065416788,16.11562531354034,9.70840483205393e-05,0.0851717442274093,0,0,0
1682,55730.50404055141,2010-09-01 04:58:41,6153.090223234832,2,5,0.5499359965324402,4.166304588317871,5.283026938382097,4.385365629258905,20.948362179042416,16.11562531354034,6.47544875391759e-05,0.0851717442274093,0,0,0
1683,55760.51923143754,2010-09-01 04:59:11,6183.105414120962,2,5,0.5501165986061096,4.16986608505249,5.287613697434985,4.385365629258905,20.967480158915805,16.11562531354034,9.70840483205393e-05,0.0851717442274093,0,0,0
1684,55790.53444446886,2010-09-01 04:59:41,6213.120627177349,2,5,0.550297200679779,4.173589706420898,5.292200406452476,4.385365629258905,20.986614532320605,16.11562531354034,0.0001619339018361,0.0851717442274093,0,0,0
1685,55820.55242531844,2010-09-01 05:00:11,6243.138608031942,2,5,0.5499359965324402,4.177151203155518,5.296787576633896,4.385365629258905,21.00576755328857,16.11562531354034,9.71794142969884e-05,0.0851717442274093,0,0,0
1686,55850.564812085846,2010-09-01 05:00:41,6273.150994769271,2,5,0.5501165986061096,4.180874347686768,5.301373869484446,4.385365629258905,21.02493378629504,16.11562531354034,9.70840483205393e-05,0.0851717442274093,0,0,0
1687,55880.58000128277,2010-09-01 05:01:11,6303.166183991255,2,5,0.5501165986061096,4.184435844421387,5.305960669354096,4.385365629258905,21.044119131001093,16.11562531354034,6.47544875391759e-05,0.0851717442274093,0,0,0
1688,55910.59531505016,2010-09-01 05:01:41,6333.181497733582,2,5,0.5501165986061096,4.188321113586426,5.310547415104689,4.385365629258905,21.06332130615208,16.11562531354034,9.70840483205393e-05,0.0851717442274093,0,0,0
1689,55940.610404007246,2010-09-01 05:02:11,6363.196586695688,2,5,0.5499359965324402,4.192044734954834,5.315134159523279,4.385365629258905,21.08254079705878,16.11562531354034,9.71794142969884e-05,0.0851717442274093,0,0,0
1690,55970.62562474779,2010-09-01 05:02:41,6393.211807456276,2,5,0.550297200679779,4.195929527282715,5.319720967389388,4.385365629258905,21.101777894669087,16.11562531354034,0.0001295089750783,0.0851717442274093,0,0,0
1691,56000.64079918292,2010-09-01 05:03:11,6423.226981891407,2,5,0.550297200679779,4.199814796447754,5.324307753011302,4.385365629258905,21.12103241810603,16.11562531354034,0.0001295089750783,0.0851717442274093,0,0,0
1692,56002.20323682828,2010-09-01 05:03:13,6424.789419516719,2,5,0.550297200679779,4.200138568878174,5.324546519488195,4.385365629258905,21.12203520164748,16.11562531354034,0.0001295089750783,0.0851717442274093,0,0,0
1693,56032.21864516175,2010-09-01 05:03:43,30.015340950137265,3,5,0.0,4.12405252456665,5.324546519488195,4.385365629258905,21.12203520164748,16.11562531354034,-0.0003885269106831,0.0851717442274093,0,0,0
1694,56062.23370623435,2010-09-01 05:04:13,60.03040205280854,3,5,0.0,4.114501476287842,5.324546519488195,4.385365629258905,21.12203520164748,16.11562531354034,-0.0002265930233988,0.0851717442274093,0,0,0
1695,56092.248999761294,2010-09-01 05:04:43,90.04569555970264,3,5,0.0,4.109321117401123,5.324546519488195,4.385365629258905,21.12203520164748,16.11562531354034,-6.47544875391759e-05,0.0851717442274093,0,0,0
1696,56122.21730120952,2010-09-01 05:05:13,120.01399700291496,3,5,0.0,4.105597496032715,5.324546519488195,4.385365629258905,21.12203520164748,16.11562531354034,-6.47544875391759e-05,0.0851717442274093,0,0,0
1697,56122.21899576447,2010-09-01 05:05:13,2.716771029e-06,4,5,0.9967633485794068,4.199653148651123,5.324546520240411,4.385365629258905,21.12203520480653,16.11562531354034,0.0,0.0851717442274093,0,0,0
1698,56123.0628539838,2010-09-01 05:05:14,0.843860966177242,4,5,0.9463733434677124,4.199814796447754,5.324772591931709,4.385365629258905,21.12298464554649,16.11562531354034,3.23295607813634e-05,0.0851717442274093,0,0,0
1699,56125.17219846427,2010-09-01 05:05:16,2.953205341389309,4,5,0.8963446021080017,4.199814796447754,5.325311400132755,4.385365629258905,21.125247506590927,16.11562531354034,3.23295607813634e-05,0.0851717442274093,0,0,0
1700,56128.34390299789,2010-09-01 05:05:19,6.124909874996144,4,5,0.8461351990699768,4.199653148651123,5.326077922324077,4.385365629258905,21.12846668739999,16.11562531354034,0.0,0.0851717442274093,0,0,0
1701,56132.60959067409,2010-09-01 05:05:23,10.39059755120454,4,5,0.7961064577102661,4.199814796447754,5.327049746383942,4.385365629258905,21.13254810219884,16.11562531354034,3.23295607813634e-05,0.0851717442274093,0,0,0
1702,56138.04703675779,2010-09-01 05:05:29,15.828043629892964,4,5,0.7460776567459106,4.199653148651123,5.328213006200494,4.385365629258905,21.13743352265984,16.11562531354034,-3.23295607813634e-05,0.0851717442274093,0,0,0
1703,56144.95303480484,2010-09-01 05:05:36,22.73404170201117,4,5,0.6960489153862,4.199653148651123,5.329594144080817,4.385365629258905,21.143233909058072,16.11562531354034,0.0,0.0851717442274093,0,0,0
1704,56154.07790882356,2010-09-01 05:05:45,31.858915705681856,4,5,0.6460201144218445,4.199653148651123,5.331291999951525,4.385365629258905,21.15036440908962,16.11562531354034,-3.23295607813634e-05,0.0851717442274093,0,0,0
1705,56166.4839905214,2010-09-01 05:05:57,44.264997418566274,4,5,0.5959913730621338,4.199491024017334,5.333427708417379,4.385365629258905,21.159333759063184,16.11562531354034,-3.24249267578125e-05,0.0851717442274093,0,0,0
1706,56184.7024596271,2010-09-01 05:06:16,62.4834665042105,4,5,0.5459625720977783,4.199653148651123,5.336309288308535,4.385365629258905,21.17143552893548,16.11562531354034,-3.23295607813634e-05,0.0851717442274093,0,0,0
1707,56213.17079776021,2010-09-01 05:06:44,90.95180463231438,4,5,0.4959338307380676,4.199653148651123,5.340416288832738,4.385365629258905,21.18868372184632,16.11562531354034,0.0,0.0851717442274093,0,0,0
1708,56263.57631785568,2010-09-01 05:07:34,141.35732472778307,4,5,0.4459050595760345,4.199814796447754,5.346982355577534,4.385365629258905,21.216259354573705,16.11562531354034,3.23295607813634e-05,0.0851717442274093,0,0,0
1709,56342.13779149074,2010-09-01 05:08:53,219.91879852324257,4,5,0.3958762884140014,4.199653148651123,5.356137264722912,4.385365629258905,21.25470791092635,16.11562531354034,-3.23295607813634e-05,0.0851717442274093,0,0,0
1710,56446.93306506719,2010-09-01 05:10:38,324.71407193929485,4,5,0.3458475172519684,4.199814796447754,5.366911683097999,4.385365629258905,21.299958069157302,16.11562531354034,3.23295607813634e-05,0.0851717442274093,0,0,0
1711,56574.89991457057,2010-09-01 05:12:46,452.6809214526974,4,5,0.2958187460899353,4.199653148651123,5.378296854236868,4.385365629258905,21.347773234439117,16.11562531354034,-3.23295607813634e-05,0.0851717442274093,0,0,0
1712,56728.94456216072,2010-09-01 05:15:20,606.7255690378328,4,5,0.2457899898290634,4.199653148651123,5.389863576649245,4.385365629258905,21.396350865538576,16.11562531354034,-3.23295607813634e-05,0.0851717442274093,0,0,0
1713,56920.47301951327,2010-09-01 05:18:31,798.2540264004134,4,5,0.1957612186670303,4.199653148651123,5.40159100941302,4.385365629258905,21.44560363250121,16.11562531354034,-3.23295607813634e-05,0.0851717442274093,0,0,0
1714,57177.3599465576,2010-09-01 05:22:48,1055.1409534196769,4,5,0.1457324475049972,4.199814796447754,5.413710956858132,4.385365629258905,21.49650467340063,16.11562531354034,3.23295607813634e-05,0.0851717442274093,0,0,0
1715,57550.23221957188,2010-09-01 05:29:01,1428.0132264991207,4,5,0.0957036763429641,4.199814796447754,5.426057717836418,4.385365629258905,21.548358294014097,16.11562531354034,0.0,0.0851717442274093,0,0,0
1716,58167.23610656061,2010-09-01 05:39:18,2045.0171134377213,4,5,0.0498289167881011,4.199653148651123,5.438153689507327,4.385365629258905,21.5991586179567,16.11562531354034,-3.23295607813634e-05,0.0851717442274093,0,0,0
1717,58197.25161451966,2010-09-01 05:39:48,30.015176384990284,5,5,0.0,4.192692279815674,5.438153689507327,4.385365629258905,21.5991586179567,16.11562531354034,-3.23295607813634e-05,0.0851717442274093,0,0,0
1718,58227.251320407406,2010-09-01 05:40:18,60.014882247678834,5,5,0.0,4.191720962524414,5.438153689507327,4.385365629258905,21.5991586179567,16.11562531354034,-3.23295607813634e-05,0.0851717442274093,0,0,0
1719,58227.43992599449,2010-09-01 05:40:19,0.18753111022857,6,5,-1.9243103452026844e-05,4.191558837890625,5.438153689507327,4.385365630261316,21.5991586179567,16.115625317742005,0.0,0.0889859497547149,0,0,0
1720,58232.26799882755,2010-09-01 05:40:23,5.015603958326906,6,5,0.0008838032954372,4.191558837890625,5.438154626714443,4.385365630429384,21.5991625464296,16.11562531844647,-3.24249267578125e-05,0.0889859497547149,0,0,0
1721,58262.28440338933,2010-09-01 05:40:54,30.015164685832385,7,5,-1.0997490882873535,4.03404426574707,5.438154626714443,4.394533928580145,21.5991625464296,16.152786343002592,-0.000841712928377,0.0889859497547149,0,0,0
1722,58292.29986998762,2010-09-01 05:41:24,60.0306312941485,7,5,-1.0997490882873535,4.010732650756836,5.438154626714443,4.403702260575319,21.5991625464296,16.189657081814733,-0.0005180359003134,0.0889859497547149,0,0,0
1723,58322.31494739593,2010-09-01 05:41:54,90.04570869744593,7,5,-1.0997490882873535,3.994705677032471,5.438154626714443,4.412870510346058,21.5991625464296,16.226352057016534,-0.0003885269106831,0.0889859497547149,0,0,0
1724,58352.33000207259,2010-09-01 05:42:24,120.06076336407664,7,5,-1.0997490882873535,3.982240676879883,5.438154626714443,4.422038716913121,21.5991625464296,16.262918502918172,-0.0003237724304199,0.0889859497547149,0,0,0
1725,58382.34516416195,2010-09-01 05:42:54,150.07592542837534,7,5,-1.0993878841400146,3.971879959106445,5.438154626714443,4.431206804116673,21.5991625464296,16.299378961663827,-0.0001942634553415,0.0889859497547149,0,0,0
1726,58412.36035370473,2010-09-01 05:43:24,180.09111499622136,7,5,-1.0997490882873535,3.962166786193848,5.438154626714443,4.440375576228623,21.5991625464296,16.335749103800232,-0.0002266406954731,0.0889859497547149,0,0,0
1727,58442.37552192437,2010-09-01 05:43:54,210.10628322588605,7,5,-1.099929690361023,3.95293927192688,5.438154626714443,4.449544580531858,21.5991625464296,16.372034668738426,-0.0002266406954731,0.0889859497547149,0,0,0
1728,58472.390744068405,2010-09-01 05:44:24,240.121505359897,7,5,-1.0993878841400146,3.944521188735962,5.438154626714443,4.458712792509655,21.5991625464296,16.40823651928057,-0.0001942634553415,0.0889859497547149,0,0,0
1729,58502.40592549095,2010-09-01 05:44:54,270.1366867573799,7,5,-1.099568486213684,3.936103105545044,5.438154626714443,4.467880615354956,21.5991625464296,16.444359261239708,-0.0001942634553415,0.0889859497547149,0,0,0
1730,58532.421106627786,2010-09-01 05:45:24,300.1518679142632,7,5,-1.099568486213684,3.927846908569336,5.438154626714443,4.477048441197499,21.5991625464296,16.480406849331068,-0.0002590179501567,0.0889859497547149,0,0,0
1731,58562.436414405245,2010-09-01 05:45:54,330.167175681699,7,5,-1.0997490882873535,3.919752597808838,5.438154626714443,4.486216457812608,21.5991625464296,16.516381669913997,-0.0002266406954731,0.0889859497547149,0,0,0
1732,58592.45151476576,2010-09-01 05:46:24,360.1822760572504,7,5,-1.099568486213684,3.912306070327759,5.438154626714443,4.495384567696016,21.5991625464296,16.552285155127528,-0.0001942634553415,0.0889859497547149,0,0,0
1733,58622.46668946655,2010-09-01 05:46:54,390.1974507630556,7,5,-1.099568486213684,3.90469741821289,5.438154626714443,4.504552838543259,21.5991625464296,16.58811858130885,-0.0001618862152099,0.0889859497547149,0,0,0
1734,58652.48184398705,2010-09-01 05:47:24,420.2126052785404,7,5,-1.0993878841400146,3.897250652313232,5.438154626714443,4.513721044745182,21.5991625464296,16.623882312827508,-0.0001618862152099,0.0889859497547149,0,0,0
1735,58682.49704785554,2010-09-01 05:47:54,450.22780913700296,7,5,-1.0993878841400146,3.889803886413574,5.438154626714443,4.522889212242257,21.5991625464296,16.65957761266328,-0.0001618862152099,0.0889859497547149,0,0,0
1736,58712.51223424546,2010-09-01 05:48:24,480.2429955169037,7,5,-1.099568486213684,3.882357120513916,5.438154626714443,4.532057400115376,21.5991625464296,16.69520534233333,-0.0002266406954731,0.0889859497547149,0,0,0
1737,58742.527408475085,2010-09-01 05:48:54,510.2581697515346,7,5,-1.0997490882873535,3.875072240829468,5.438154626714443,4.541225631628835,21.5991625464296,16.730766180399886,-0.0002266406954731,0.0889859497547149,0,0,0
1738,58772.54259131115,2010-09-01 05:49:24,540.273352577578,7,5,-1.0997490882873535,3.86778736114502,5.438154626714443,4.550393883696886,21.5991625464296,16.766261278611907,-0.0002266406954731,0.0889859497547149,0,0,0
1739,58802.55778394664,2010-09-01 05:49:54,570.2885452130695,7,5,-1.0997490882873535,3.860826253890991,5.438154626714443,4.55956216190211,21.5991625464296,16.801691516276787,-0.0001942634553415,0.0889859497547149,0,0,0
1740,58832.573001820034,2010-09-01 05:50:24,600.3037630864617,7,5,-1.099568486213684,3.853865146636963,5.438154626714443,4.568730438177866,21.5991625464296,16.83705736479084,-0.0001618862152099,0.0889859497547149,0,0,0
1741,58862.588158490886,2010-09-01 05:50:54,630.3189197573182,7,5,-1.099568486213684,3.846904039382935,5.438154626714443,4.577898634885182,21.5991625464296,16.87235928609277,-0.0001942634553415,0.0889859497547149,0,0,0
1742,58892.60335243464,2010-09-01 05:51:24,660.3341137060828,7,5,-1.099568486213684,3.840266704559326,5.438154626714443,4.587066860436578,21.5991625464296,16.90759860062286,-0.0001618862152099,0.0889859497547149,0,0,0
1743,58922.618528283296,2010-09-01 05:51:54,690.3492895848115,7,5,-1.099568486213684,3.833467483520508,5.438154626714443,4.596235102625923,21.5991625464296,16.942776087105713,-0.0001942634553415,0.0889859497547149,0,0,0
1744,58952.633723284685,2010-09-01 05:52:24,720.364484551112,7,5,-1.0997490882873535,3.8268303871154794,5.438154626714443,4.605403399994777,21.5991625464296,16.977892575544097,-0.0001942634553415,0.0889859497547149,0,0,0
1745,58982.64890390022,2010-09-01 05:52:54,750.3796651716585,7,5,-1.099568486213684,3.82035493850708,5.438154626714443,4.61457170230555,21.5991625464296,17.012948749210373,-0.0001618862152099,0.0889859497547149,0,0,0
1746,59012.66408523254,2010-09-01 05:53:24,780.3948464989667,7,5,-1.0997490882873535,3.8138794898986816,5.438154626714443,4.623739965070087,21.5991625464296,17.047945443685705,-0.0001942634553415,0.0889859497547149,0,0,0
1747,59042.67929036919,2010-09-01 05:53:54,810.4100516556649,7,5,-1.099568486213684,3.807565927505493,5.438154626714443,4.632908133422499,21.5991625464296,17.082883125860207,-0.0001618862152099,0.0889859497547149,0,0,0
1748,59072.69447747089,2010-09-01 05:54:24,840.4252387724019,7,5,-1.099568486213684,3.8015761375427246,5.438154626714443,4.642076331923572,21.5991625464296,17.117763417187458,-9.713172767078504e-05,0.0889859497547149,0,0,0
1749,59102.70979578962,2010-09-01 05:54:54,870.4405570811099,7,5,-1.0997490882873535,3.795424461364746,5.438154626714443,4.651244654398544,21.5991625464296,17.152588031074767,-0.0001618862152099,0.0889859497547149,0,0,0
1750,59132.72483067696,2010-09-01 05:55:24,900.4555919383695,7,5,-1.0997490882873535,3.789272785186768,5.438154626714443,4.660412889785711,21.5991625464296,17.187357072626494,-0.0001618862152099,0.0889859497547149,0,0,0
1751,59162.74002670591,2010-09-01 05:55:54,930.4707880124312,7,5,-1.0997490882873535,3.783444881439209,5.438154626714443,4.669581213044251,21.5991625464296,17.22207258905612,-0.0001942634553415,0.0889859497547149,0,0,0
1752,59192.75523035885,2010-09-01 05:56:24,960.4859916252816,7,5,-1.099568486213684,3.7779407501220703,5.438154626714443,4.678749504726265,21.5991625464296,17.256734917684568,-0.0001295089750783,0.0889859497547149,0,0,0
1753,59222.77040122008,2010-09-01 05:56:54,990.5011625115671,7,5,-1.099568486213684,3.7722747325897217,5.438154626714443,4.68791779365994,21.5991625464296,17.29134546125745,-0.0001295089750783,0.0889859497547149,0,0,0
1754,59252.78559439191,2010-09-01 05:57:24,1020.516355678383,7,5,-1.099568486213684,3.766770601272583,5.438154626714443,4.697086133797283,21.5991625464296,17.325905174691577,-9.713172767078504e-05,0.0889859497547149,0,0,0
1755,59282.80077322299,2010-09-01 05:57:54,1050.531534499445,7,5,-1.0997490882873535,3.761266469955444,5.438154626714443,4.706254404990818,21.5991625464296,17.360414545740856,-0.0001295089750783,0.0889859497547149,0,0,0
1756,59312.81597251006,2010-09-01 05:58:24,1080.5467338015517,7,5,-1.0997490882873535,3.755924224853516,5.438154626714443,4.715422649039094,21.5991625464296,17.394874787890583,-0.0001295089750783,0.0889859497547149,0,0,0
1757,59342.83115176219,2010-09-01 05:58:54,1110.561913048675,7,5,-1.099568486213684,3.750744104385376,5.438154626714443,4.724590943401564,21.5991625464296,17.429286834267693,-0.0001295089750783,0.0889859497547149,0,0,0
1758,59372.84632163095,2010-09-01 05:59:24,1140.5770829224375,7,5,-1.0997490882873535,3.745563745498657,5.438154626714443,4.733759222166768,21.5991625464296,17.46365184806587,-0.0001618862152099,0.0889859497547149,0,0,0
1759,59402.86150042194,2010-09-01 05:59:54,1170.5922617234492,7,5,-1.0997490882873535,3.740545272827149,5.438154626714443,4.74292749668874,21.5991625464296,17.49797055851738,-0.0001942634553415,0.0889859497547149,0,0,0
1760,59432.87951561711,2010-09-01 06:00:24,1200.6102769236404,7,5,-1.099568486213684,3.73585057258606,5.438154626714443,4.752096615474671,21.5991625464296,17.532247360453503,-0.0001295089750783,0.0889859497547149,0,0,0
1761,59462.89191304108,2010-09-01 06:00:54,1230.6226743175298,7,5,-1.099929690361023,3.7309939861297607,5.438154626714443,4.761264108959702,21.5991625464296,17.56647341801671,-0.0001295089750783,0.0889859497547149,0,0,0
1762,59492.90706465934,2010-09-01 06:01:24,1260.6378259408064,7,5,-1.099568486213684,3.726299285888672,5.438154626714443,4.770431684571396,21.5991625464296,17.60065620066234,-0.0001295089750783,0.0889859497547149,0,0,0
1763,59522.922369684944,2010-09-01 06:01:54,1290.653130961396,7,5,-1.099568486213684,3.721766471862793,5.438154626714443,4.779599281698807,21.5991625464296,17.634796351060544,-0.0001295089750783,0.0889859497547149,0,0,0
1764,59552.937471734665,2010-09-01 06:02:24,1320.6682330161327,7,5,-1.0997490882873535,3.717071771621704,5.438154626714443,4.78876756281345,21.5991625464296,17.66889650658164,-9.713172767078504e-05,0.0889859497547149,0,0,0
1765,59582.95263600446,2010-09-01 06:02:54,1350.6833972708905,7,5,-1.099568486213684,3.712538957595825,5.438154626714443,4.797935876613476,21.5991625464296,17.702955139101356,-9.713172767078504e-05,0.0889859497547149,0,0,0
1766,59612.967823447005,2010-09-01 06:03:24,1380.698584718452,7,5,-1.099568486213684,3.708168029785156,5.438154626714443,4.807104221908207,21.5991625464296,17.736972642992416,-6.47544875391759e-05,0.0889859497547149,0,0,0
1767,59642.98300407258,2010-09-01 06:03:54,1410.7137653490238,7,5,-1.099568486213684,3.703958988189697,5.438154626714443,4.816272543405161,21.5991625464296,17.77094987158555,-6.47544875391759e-05,0.0889859497547149,0,0,0
1768,59672.99821635704,2010-09-01 06:04:24,1440.7289776435116,7,5,-1.099568486213684,3.6994261741638175,5.438154626714443,4.82544092386641,21.5991625464296,17.804887535405395,-0.0001295089750783,0.0889859497547149,0,0,0
1769,59703.0133743963,2010-09-01 06:04:54,1470.7441356677411,7,5,-1.099568486213684,3.69521713256836,5.438154626714443,4.834609217324232,21.5991625464296,17.83878571047224,-9.713172767078504e-05,0.0889859497547149,0,0,0
1770,59733.02855528252,2010-09-01 06:05:24,1500.7593165589622,7,5,-1.099568486213684,3.691008090972901,5.438154626714443,4.843777559645848,21.5991625464296,17.872645450352135,-9.713172767078504e-05,0.0889859497547149,0,0,0
1771,59763.04374280526,2010-09-01 06:05:54,1530.7745040716864,7,5,-1.0997490882873535,3.6869609355926514,5.438154626714443,4.852945924609938,21.5991625464296,17.9064670350651,-6.47544875391759e-05,0.0889859497547149,0,0,0
1772,59793.058939014656,2010-09-01 06:06:24,1560.7897002961226,7,5,-1.0997490882873535,3.682751893997192,5.438154626714443,4.862114282303422,21.5991625464296,17.940251192662075,-0.0001295089750783,0.0889859497547149,0,0,0
1773,59823.07412190085,2010-09-01 06:06:54,1590.8048831773035,7,5,-1.099568486213684,3.678866624832153,5.438154626714443,4.871282618681686,21.5991625464296,17.9739981714769,-9.713172767078504e-05,0.0889859497547149,0,0,0
1774,59853.089302060245,2010-09-01 06:07:24,1620.8200633417132,7,5,-1.0997490882873535,3.674819469451904,5.438154626714443,4.88045102101138,21.5991625464296,18.007708718666002,-0.0001295089750783,0.0889859497547149,0,0,0
1775,59883.10449177847,2010-09-01 06:07:54,1650.835253079984,7,5,-1.0997490882873535,3.6707725524902335,5.438154626714443,4.889619382963231,21.5991625464296,18.041383173093312,-0.0001295089750783,0.0889859497547149,0,0,0
1776,59913.119672338864,2010-09-01 06:08:24,1680.8504336052931,7,5,-1.0997490882873535,3.667049169540405,5.438154626714443,4.89878775966978,21.5991625464296,18.07502238362773,-0.0001295089750783,0.0889859497547149,0,0,0
1777,59943.134833541015,2010-09-01 06:08:54,1710.8655948074431,7,5,-1.0997490882873535,3.663325786590576,5.438154626714443,4.907956160169708,21.5991625464296,18.108627173498963,-0.0001295089750783,0.0889859497547149,0,0,0
1778,59973.15005194072,2010-09-01 06:09:24,1740.8808132322094,7,5,-1.0997490882873535,3.659602403640747,5.438154626714443,4.917124547528297,21.5991625464296,18.14219752035164,-9.713172767078504e-05,0.0889859497547149,0,0,0
1779,60003.16551906031,2010-09-01 06:09:54,1770.8962803467873,7,5,-1.0997490882873535,3.656202793121338,5.438154626714443,4.92629293204281,21.5991625464296,18.17573403872598,-6.47544875391759e-05,0.0889859497547149,0,0,0
1780,60033.18043587336,2010-09-01 06:10:24,1800.9111971397945,7,5,-1.0997490882873535,3.652479410171509,5.438154626714443,4.935461196920201,21.5991625464296,18.209237339724982,-9.713172767078504e-05,0.0889859497547149,0,0,0
1781,60063.19574792648,2010-09-01 06:10:54,1830.9265092129613,7,5,-1.099568486213684,3.6490797996521,5.438154626714443,4.944629631964729,21.5991625464296,18.24270895378604,-6.47544875391759e-05,0.0889859497547149,0,0,0
1782,60093.21080598658,2010-09-01 06:11:24,1860.9415672880875,7,5,-1.0997490882873535,3.645518302917481,5.438154626714443,4.953797960899065,21.5991625464296,18.276148320509662,-0.0001295089750783,0.0889859497547149,0,0,0
1783,60123.22596029154,2010-09-01 06:11:54,1890.95672155796,7,5,-1.0997490882873535,3.6421186923980713,5.438154626714443,4.962966253579282,21.5991625464296,18.30955679569895,-9.713172767078504e-05,0.0889859497547149,0,0,0
1784,60153.24117432034,2010-09-01 06:12:24,1920.9719355817576,7,5,-1.0997490882873535,3.639042854309082,5.438154626714443,4.97213455066301,21.5991625464296,18.342935044696222,-9.713172767078504e-05,0.0889859497547149,0,0,0
1785,60183.25632327196,2010-09-01 06:12:55,1950.987084538388,7,5,-1.0997490882873535,3.635643243789673,5.438154626714443,4.981302787546021,21.5991625464296,18.37628347524831,-0.0001295089750783,0.0889859497547149,0,0,0
1786,60213.27177823625,2010-09-01 06:13:25,1981.0025395127088,7,5,-1.0997490882873535,3.632567405700684,5.438154626714443,4.990471177172328,21.5991625464296,18.4096035849334,-6.47544875391759e-05,0.0889859497547149,0,0,0
1787,60243.28681971502,2010-09-01 06:13:55,2011.017580981446,7,5,-1.099568486213684,3.629653453826904,5.438154626714443,4.999639446627108,21.5991625464296,18.44289523026897,-6.47544875391759e-05,0.0889859497547149,0,0,0
1788,60273.30188899808,2010-09-01 06:14:25,2041.03265029458,7,5,-1.0997490882873535,3.626739501953125,5.438154626714443,5.008807810698956,21.5991625464296,18.47616012907438,-9.713172767078504e-05,0.0889859497547149,0,0,0
1789,60303.317155983874,2010-09-01 06:14:55,2071.047917275363,7,5,-1.099568486213684,3.623987436294556,5.438154626714443,5.017976146751829,21.5991625464296,18.509398484525164,-6.47544875391759e-05,0.0889859497547149,0,0,0
1790,60333.332263141325,2010-09-01 06:15:25,2101.06302441778,7,5,-1.099568486213684,3.621073484420776,5.438154626714443,5.02714448399565,21.5991625464296,18.54261112576159,-6.47544875391759e-05,0.0889859497547149,0,0,0
1791,60363.34755996649,2010-09-01 06:15:55,2131.0783212479564,7,5,-1.0993878841400146,3.618321418762207,5.438154626714443,5.03631284987613,21.5991625464296,18.57579863183656,-9.713172767078504e-05,0.0889859497547149,0,0,0
1792,60393.36280391486,2010-09-01 06:16:25,2161.093565191323,7,5,-1.099568486213684,3.6158931255340576,5.438154626714443,5.045481250507682,21.5991625464296,18.608961304901367,-3.237724376958795e-05,0.0889859497547149,0,0,0
1793,60423.37790976907,2010-09-01 06:16:55,2191.108671045529,7,5,-1.099568486213684,3.613141059875488,5.438154626714443,5.054649530942543,21.5991625464296,18.64209905224376,-6.47544875391759e-05,0.0889859497547149,0,0,0
1794,60453.39296137307,2010-09-01 06:17:25,2221.123722639501,7,5,-1.0997490882873535,3.610388994216919,5.438154626714443,5.063817895526295,21.5991625464296,18.67521275976863,-9.713172767078504e-05,0.0889859497547149,0,0,0
1795,60483.40826962172,2010-09-01 06:17:55,2251.139030918212,7,5,-1.099568486213684,3.6076369285583496,5.438154626714443,5.072986343392393,21.5991625464296,18.70830236939216,-9.713172767078504e-05,0.0889859497547149,0,0,0
1796,60513.42348218186,2010-09-01 06:18:25,2281.154243458312,7,5,-1.0993878841400146,3.6050467491149902,5.438154626714443,5.082154695655022,21.5991625464296,18.741367260804957,-6.47544875391759e-05,0.0889859497547149,0,0,0
1797,60543.43862940416,2010-09-01 06:18:55,2311.1693906906444,7,5,-1.099568486213684,3.602456569671631,5.438154626714443,5.0913229471199966,21.5991625464296,18.77440773917196,-6.47544875391759e-05,0.0889859497547149,0,0,0
1798,60573.45369699802,2010-09-01 06:19:25,2341.1844582644435,7,5,-1.0997490882873535,3.5998663902282715,5.438154626714443,5.100491237035978,21.5991625464296,18.807423840918712,-9.713172767078504e-05,0.0889859497547149,0,0,0
1799,60603.46898905129,2010-09-01 06:19:55,2371.199750322728,7,5,-1.099568486213684,3.597114324569702,5.438154626714443,5.109659607438917,21.5991625464296,18.840416099851623,-6.47544875391759e-05,0.0889859497547149,0,0,0
1800,60633.48407173274,2010-09-01 06:20:25,2401.214832999167,7,5,-1.0993878841400146,3.5946860313415527,5.438154626714443,5.118827954008125,21.5991625464296,18.87338389201912,-6.47544875391759e-05,0.0889859497547149,0,0,0
1801,60663.49935025729,2010-09-01 06:20:55,2431.2301115437704,7,5,-1.099568486213684,3.5919342041015625,5.438154626714443,5.127996256804542,21.5991625464296,18.90632731698417,-6.470680091297254e-05,0.0889859497547149,0,0,0
1802,60693.51440326478,2010-09-01 06:21:25,2461.245164536229,7,5,-1.099568486213684,3.589182138442993,5.438154626714443,5.137164551007781,21.5991625464296,18.93924622268787,-6.47544875391759e-05,0.0889859497547149,0,0,0
1803,60723.529605855096,2010-09-01 06:21:55,2491.260367121518,7,5,-1.0997490882873535,3.586430072784424,5.438154626714443,5.146332945647914,21.5991625464296,18.972140652049923,-6.47544875391759e-05,0.0889859497547149,0,0,0
1804,60753.54477893184,2010-09-01 06:22:25,2521.275540198263,7,5,-1.099568486213684,3.5838398933410645,5.438154626714443,5.155501261709005,21.5991625464296,19.005009397822032,0.0,0.0889859497547149,0,0,0
1805,60783.5599454773,2010-09-01 06:22:55,2551.290706748743,7,5,-1.099568486213684,3.580925941467285,5.438154626714443,5.164669586341122,21.5991625464296,19.03785240032816,-6.47544875391759e-05,0.0889859497547149,0,0,0
1806,60813.57512966173,2010-09-01 06:23:25,2581.305890928159,7,5,-1.0997490882873535,3.577850103378296,5.438154626714443,5.173837902795834,21.5991625464296,19.07066893349273,-6.47544875391759e-05,0.0889859497547149,0,0,0
1807,60843.59043321867,2010-09-01 06:23:55,2611.3211944951263,7,5,-1.099929690361023,3.574774265289306,5.438154626714443,5.183006285915242,21.5991625464296,19.10345832738211,-6.47544875391759e-05,0.0889859497547149,0,0,0
1808,60873.60549213088,2010-09-01 06:24:25,2641.3362533973136,7,5,-1.0997490882873535,3.571860313415528,5.438154626714443,5.192174484968137,21.5991625464296,19.136219505325897,-3.237724376958795e-05,0.0889859497547149,0,0,0
1809,60903.62078855505,2010-09-01 06:24:55,2671.351549851553,7,5,-1.0993878841400146,3.568784475326538,5.438154626714443,5.201342904715467,21.5991625464296,19.168953411348436,-6.47544875391759e-05,0.0889859497547149,0,0,0
1810,60933.6358506903,2010-09-01 06:25:25,2701.366611981786,7,5,-1.099568486213684,3.565546751022339,5.438154626714443,5.210511192178456,21.5991625464296,19.20165808139052,-6.47544875391759e-05,0.0889859497547149,0,0,0
1811,60963.65115262319,2010-09-01 06:25:55,2731.381913924705,7,5,-1.0997490882873535,3.56230902671814,5.438154626714443,5.219679524637737,21.5991625464296,19.234332800444463,-9.713172767078504e-05,0.0889859497547149,0,0,0
1812,60993.66620861312,2010-09-01 06:26:25,2761.3969698795454,7,5,-1.099568486213684,3.5587475299835205,5.438154626714443,5.228847768614789,21.5991625464296,19.266976173940428,-9.713172767078504e-05,0.0889859497547149,0,0,0
1813,61023.68152636043,2010-09-01 06:26:55,2791.41228763688,7,5,-1.0997490882873535,3.5550241470336914,5.438154626714443,5.238016127826528,21.5991625464296,19.29958719051434,-9.713172767078504e-05,0.0889859497547149,0,0,0
1814,61053.6965693279,2010-09-01 06:27:25,2821.4273305943275,7,5,-1.099568486213684,3.5514626502990723,5.438154626714443,5.247184397376877,21.5991625464296,19.332164139971347,-6.47544875391759e-05,0.0889859497547149,0,0,0
1815,61083.71173705632,2010-09-01 06:27:55,2851.442498332768,7,5,-1.0997490882873535,3.5474154949188232,5.438154626714443,5.2563527198977,21.5991625464296,19.36470630324605,-9.713172767078504e-05,0.0889859497547149,0,0,0
1816,61113.7269402381,2010-09-01 06:28:25,2881.457701504519,7,5,-1.0997490882873535,3.543368339538574,5.438154626714443,5.265521041664797,21.5991625464296,19.397212175860684,-9.713172767078504e-05,0.0889859497547149,0,0,0
1817,61143.74212476337,2010-09-01 06:28:55,2911.4728860297973,7,5,-1.099568486213684,3.5391592979431152,5.438154626714443,5.27468936872042,21.5991625464296,19.429679868214112,-0.0001295089750783,0.0889859497547149,0,0,0
1818,61173.757264782726,2010-09-01 06:29:25,2941.488026054166,7,5,-1.099568486213684,3.534950256347656,5.438154626714443,5.283857654513936,21.5991625464296,19.462108392113937,-6.47544875391759e-05,0.0889859497547149,0,0,0
1819,61203.77244095719,2010-09-01 06:29:55,2971.503202233644,7,5,-1.1001102924346924,3.5304174423217773,5.438154626714443,5.293026005099536,21.5991625464296,19.49449700266844,-9.713172767078504e-05,0.0889859497547149,0,0,0
1820,61233.78763230448,2010-09-01 06:30:25,3001.518393585937,7,5,-1.0997490882873535,3.5258846282958984,5.438154626714443,5.302194309896163,21.5991625464296,19.526844419159936,-0.0001295089750783,0.0889859497547149,0,0,0
1821,61263.80280205794,2010-09-01 06:30:55,3031.533563324362,7,5,-1.099568486213684,3.521513700485229,5.438154626714443,5.311362634520662,21.5991625464296,19.559150040157697,-9.713172767078504e-05,0.0889859497547149,0,0,0
1822,61293.81798495416,2010-09-01 06:31:25,3061.5487462356177,7,5,-1.0997490882873535,3.5166571140289307,5.438154626714443,5.320530974593525,21.5991625464296,19.591413154395564,-9.713172767078504e-05,0.0889859497547149,0,0,0
1823,61323.833153178806,2010-09-01 06:31:55,3091.5639144402203,7,5,-1.099568486213684,3.511476993560791,5.438154626714443,5.329699295204999,21.5991625464296,19.623631529845063,-0.0001618385285837,0.0889859497547149,0,0,0
1824,61353.84905872109,2010-09-01 06:32:25,3121.579819987508,7,5,-1.099568486213684,3.5062966346740723,5.438154626714443,5.338867869566765,21.5991625464296,19.65580310912669,-0.0001295089750783,0.0889859497547149,0,0,0
1825,61383.850865710425,2010-09-01 06:32:55,3151.581627067075,7,5,-1.0997490882873535,3.5001449584960938,5.438154626714443,5.348032122695752,21.5991625464296,19.687907452724588,-0.0001942634553415,0.0889859497547149,0,0,0
1826,61413.863105862416,2010-09-01 06:33:25,3181.5938671288445,7,5,-1.099568486213684,3.4938313961029053,5.438154626714443,5.357199601204712,21.5991625464296,19.71996629999243,-0.0001295089750783,0.0889859497547149,0,0,0
1827,61443.87826730014,2010-09-01 06:33:55,3211.6090285766063,7,5,-1.099568486213684,3.486546516418457,5.438154626714443,5.366367957515355,21.5991625464296,19.751965176931517,-0.0001618862152099,0.0889859497547149,0,0,0
1828,61473.89357496734,2010-09-01 06:34:25,3241.6243362437926,7,5,-1.0997490882873535,3.478128433227539,5.438154626714443,5.375536318436168,21.5991625464296,19.783892923897984,-0.0002590179501567,0.0889859497547149,0,0,0
1829,61503.90865156864,2010-09-01 06:34:55,3271.639412860128,7,5,-1.0993878841400146,3.4687390327453613,5.438154626714443,5.384704608050055,21.5991625464296,19.815739102740075,-0.0002590179501567,0.0889859497547149,0,0,0
1830,61533.923927050615,2010-09-01 06:35:25,3301.6546883270616,7,5,-1.0997490882873535,3.457568883895874,5.438154626714443,5.393872940632533,21.5991625464296,19.847491686523007,-0.0003237724304199,0.0889859497547149,0,0,0
1831,61563.93896446424,2010-09-01 06:35:55,3331.669725730668,7,5,-1.099929690361023,3.4439704418182373,5.438154626714443,5.403041270494115,21.5991625464296,19.879131463843173,-0.0003885269106831,0.0889859497547149,0,0,0
1832,61593.95427437201,2010-09-01 06:36:25,3361.68503564345,7,5,-1.099568486213684,3.4261631965637207,5.438154626714443,5.412209654882335,21.5991625464296,19.910629010270156,-0.0005504131549969,0.0889859497547149,0,0,0
1833,61623.969330913314,2010-09-01 06:36:55,3391.700092189765,7,5,-1.099568486213684,3.4017183780670166,5.438154626714443,5.421378006269241,21.5991625464296,19.94193534050797,-0.0007446765666827,0.0889859497547149,0,0,0
1834,61653.984624214696,2010-09-01 06:37:25,3421.715385491147,7,5,-1.099568486213684,3.366427183151245,5.438154626714443,5.430546354786997,21.5991625464296,19.9729722570008,-0.0011332035064697,0.0889859497547149,0,0,0
1835,61683.99967345781,2010-09-01 06:37:55,3451.730434744286,7,5,-1.099568486213684,3.3157570362091064,5.438154626714443,5.439714728576242,21.5991625464296,20.00361908528325,-0.0015864849556237,0.0889859497547149,0,0,0
1836,61714.01500928017,2010-09-01 06:38:25,3481.745770556618,7,5,-1.099568486213684,3.242422819137573,5.438154626714443,5.44888309781584,21.5991625464296,20.03370287692781,-0.0022664070129394,0.0889859497547149,0,0,0
1837,61744.03006814727,2010-09-01 06:38:55,3511.76082940868,7,5,-1.0997490882873535,3.1347687244415283,5.438154626714443,5.45805140553441,21.5991625464296,20.06297225234163,-0.0033996105194091,0.0889859497547149,0,0,0
1838,61774.04533743379,2010-09-01 06:39:25,3541.77609871526,7,5,-1.099568486213684,2.949733257293701,5.438154626714443,5.46721974791958,21.5991625464296,20.09096505134386,-0.0068315984681248,0.0889859497547149,0,0,0
1839,61789.52935575176,2010-09-01 06:39:41,3557.260117058284,7,5,-1.099568486213684,2.749318838119507,5.438154626714443,5.471949414853356,21.5991625464296,20.104493389573616,-0.012853717431426,0.0889859497547149,0,0,0
1840,61792.32632558619,2010-09-01 06:39:44,3560.05708687768,7,5,-1.0997490882873535,2.699620008468628,5.438154626714443,5.472803765963157,21.5991625464296,20.10682137231618,-0.0140192983672022,0.0889859497547149,0,0,0
1841,61852.33999770749,2010-09-01 06:40:44,60.0147929801968,8,5,0.0,3.293092966079712,5.438154626714443,5.472803765963157,21.5991625464296,20.10682137231618,0.0010360718006268,0.0889859497547149,0,0,0
1842,61852.527255176894,2010-09-01 06:40:44,0.187448198587248,9,5,-1.9243103452026844e-05,3.293254852294922,5.438154626714443,5.472803766965125,21.5991625464296,20.106821375615915,0.0,0.0881769880652427,0,0,0
1843,61857.35530383972,2010-09-01 06:40:49,5.015496861408434,9,5,0.0003419754502829,3.2995684146881104,5.438155466960088,5.472803767048848,21.5991653167226,20.10682137589164,0.0009065627818927,0.0881769880652427,0,0,0
