Data_Point,Test_Time(s),Date_Time,Step_Time(s),Step_Index,Cycle_Index,Current(A),Voltage(V),Charge_Capacity(Ah),Discharge_Capacity(Ah),Charge_Energy(Wh),Discharge_Energy(Wh),dV/dt(V/s),Internal_Resistance(Ohm),Is_FC_Data,AC_Impedance(Ohm),ACI_Phase_Angle(Deg)
1844,61887.38607668194,2010-09-01 06:41:19,30.015137227397517,1,6,0.0,3.3275747299194336,5.438155466960088,5.472803767048848,21.5991653167226,20.10682137589164,0.0006151676061563,0.0881769880652427,0,0,0
1845,61917.40127908678,2010-09-01 06:41:49,60.0303396121873,1,6,0.0,3.347162961959839,5.438155466960088,5.472803767048848,21.5991653167226,20.10682137589164,0.0004532813909463,0.0881769880652427,0,0,0
1846,61947.41648591264,2010-09-01 06:42:19,90.04554643804559,1,6,0.0,3.362218141555786,5.438155466960088,5.472803767048848,21.5991653167226,20.10682137589164,0.0003885269106831,0.0881769880652427,0,0,0
1847,61977.38481242834,2010-09-01 06:42:49,120.01387294873376,1,6,0.0,3.374359607696533,5.438155466960088,5.472803767048848,21.5991653167226,20.10682137589164,0.0002913951757363,0.0881769880652427,0,0,0
1848,62007.40196077495,2010-09-01 06:43:19,30.015401746660903,2,6,0.5501165986061096,3.5247514247894287,5.442741700835795,5.472803767048848,21.61515772277172,20.10682137589164,0.0017483711708337,0.0881769880652427,0,0,0
1849,62037.41690874065,2010-09-01 06:43:49,60.03034971236004,2,6,0.5499359965324402,3.577526330947876,5.447327905309409,5.472803767048848,21.631450563986537,20.10682137589164,0.0012303352123126,0.0881769880652427,0,0,0
1850,62067.43220196183,2010-09-01 06:44:19,90.04564293354204,2,6,0.5501165986061096,3.617673873901367,5.451914244306352,5.472803767048848,21.647953651209317,20.10682137589164,0.0009713172912597,0.0881769880652427,0,0,0
1851,62097.447240703776,2010-09-01 06:44:49,120.06068167548352,2,6,0.5501165986061096,3.649889230728149,5.456500565040763,5.472803767048848,21.66462126092996,20.10682137589164,0.0007770538213662,0.0881769880652427,0,0,0
1852,62127.462463845295,2010-09-01 06:45:19,150.07590480698047,2,6,0.550297200679779,3.677085876464844,5.461086795221744,5.472803767048848,21.68142442939696,20.10682137589164,0.0006799221155233,0.0881769880652427,0,0,0
1853,62157.47763822029,2010-09-01 06:45:49,180.09107920702365,2,6,0.5501165986061096,3.700235605239868,5.465672939242893,5.472803767048848,21.698342460128288,20.10682137589164,0.0005827903514727,0.0881769880652427,0,0,0
1854,62187.49277392388,2010-09-01 06:46:19,210.10621489057343,2,6,0.5501165986061096,3.720147609710693,5.470259172893919,5.472803767048848,21.71535957732432,20.10682137589164,0.0004856586456298,0.0881769880652427,0,0,0
1855,62217.50794422872,2010-09-01 06:46:49,240.1213851954101,2,6,0.550297200679779,3.7368218898773193,5.474845430938204,5.472803767048848,21.732460340401435,20.10682137589164,0.0004209041653666,0.0881769880652427,0,0,0
1856,62247.523124954525,2010-09-01 06:47:19,270.1365659212191,2,6,0.5501165986061096,3.749449014663696,5.479431661501425,5.472803767048848,21.74962878378367,20.10682137589164,0.0002913951757363,0.0881769880652427,0,0,0
1857,62277.53831032691,2010-09-01 06:47:49,300.1517512936087,2,6,0.5501165986061096,3.757381200790405,5.48401784939918,5.472803767048848,21.766844209148463,20.10682137589164,0.0001942634553415,0.0881769880652427,0,0,0
1858,62307.55349568428,2010-09-01 06:48:19,330.1669366459484,2,6,0.5501165986061096,3.761266469955444,5.488604056655863,5.472803767048848,21.78408594043919,20.10682137589164,6.47544875391759e-05,0.0881769880652427,0,0,0
1859,62337.5686664302,2010-09-01 06:48:49,360.1821073918844,2,6,0.5501165986061096,3.7643423080444336,5.49319027708796,5.472803767048848,21.80134322718457,20.10682137589164,9.713172767078504e-05,0.0881769880652427,0,0,0
1860,62367.5838529705,2010-09-01 06:49:19,390.19729395724727,2,6,0.5499359965324402,3.766770601272583,5.497776537480118,5.472803767048848,21.818612864477444,20.10682137589164,6.47544875391759e-05,0.0881769880652427,0,0,0
1861,62397.5990054058,2010-09-01 06:49:49,420.2124463724976,2,6,0.550297200679779,3.7693607807159424,5.502362845253957,5.472803767048848,21.835894127309263,20.10682137589164,9.713172767078504e-05,0.0881769880652427,0,0,0
1862,62427.61419739469,2010-09-01 06:50:19,450.2276383864401,2,6,0.550297200679779,3.771789073944092,5.5069490868047,5.472803767048848,21.853186423903267,20.10682137589164,6.47544875391759e-05,0.0881769880652427,0,0,0
1863,62457.6293443814,2010-09-01 06:50:49,480.2427853430858,2,6,0.5501165986061096,3.774217367172241,5.511535320621954,5.472803767048848,21.87049024949192,20.10682137589164,6.47544875391759e-05,0.0881769880652427,0,0,0
1864,62487.64451662608,2010-09-01 06:51:19,510.2579575877572,2,6,0.5499359965324402,3.776645660400391,5.516121528471532,5.472803767048848,21.887805553446047,20.10682137589164,0.0,0.0881769880652427,0,0,0
1865,62517.65971704096,2010-09-01 06:51:49,540.2731580026373,2,6,0.5499359965324402,3.77923583984375,5.520707680863591,5.472803767048848,21.90513230171504,20.10682137589164,6.47544875391759e-05,0.0881769880652427,0,0,0
1866,62547.67499337505,2010-09-01 06:52:19,570.2884343467565,2,6,0.5499359965324402,3.781826019287109,5.525293985543908,5.472803767048848,21.92247134844201,20.10682137589164,6.47544875391759e-05,0.0881769880652427,0,0,0
1867,62577.690085635375,2010-09-01 06:52:49,600.3035266221198,2,6,0.5499359965324402,3.7844161987304688,5.529880217037124,5.472803767048848,21.939821725725317,20.10682137589164,6.47544875391759e-05,0.0881769880652427,0,0,0
1868,62607.70524412075,2010-09-01 06:53:19,630.3186851074987,2,6,0.5501165986061096,3.787006378173828,5.534466434492452,5.472803767048848,21.957183717603304,20.10682137589164,6.47544875391759e-05,0.0881769880652427,0,0,0
1869,62637.720409297806,2010-09-01 06:53:49,660.3338502645054,2,6,0.5501165986061096,3.789596557617188,5.53905269594461,5.472803767048848,21.974557543923357,20.10682137589164,0.0001295089750783,0.0881769880652427,0,0,0
1870,62667.73556289099,2010-09-01 06:54:20,690.349003852679,2,6,0.5501165986061096,3.792024850845337,5.543638990290861,5.472803767048848,21.991943117775246,20.10682137589164,6.47544875391759e-05,0.0881769880652427,0,0,0
1871,62697.75114335808,2010-09-01 06:54:50,720.3645843297911,2,6,0.5501165986061096,3.794615030288696,5.54822536515542,5.472803767048848,22.009340746161783,20.10682137589164,9.713172767078504e-05,0.0881769880652427,0,0,0
1872,62727.766031409454,2010-09-01 06:55:20,750.379472376153,2,6,0.5501165986061096,3.7973670959472656,5.552811642222076,5.472803767048848,22.026749882067623,20.10682137589164,0.0001295089750783,0.0881769880652427,0,0,0
1873,62757.781204375926,2010-09-01 06:55:50,780.3946453476356,2,6,0.5499359965324402,3.799957275390625,5.557397937007255,5.472803767048848,22.044171232131816,20.10682137589164,9.713172767078504e-05,0.0881769880652427,0,0,0
1874,62787.79625664659,2010-09-01 06:56:20,810.4096976132824,2,6,0.5501165986061096,3.8027093410491934,5.561984372981246,5.472803767048848,22.061605581679597,20.10682137589164,6.47544875391759e-05,0.0881769880652427,0,0,0
1875,62817.811459933626,2010-09-01 06:56:50,840.4249009003208,2,6,0.5501165986061096,3.805461406707764,5.566570780173912,5.472803767048848,22.079052783683697,20.10682137589164,6.47544875391759e-05,0.0881769880652427,0,0,0
1876,62847.82663199784,2010-09-01 06:57:20,870.44007295953,2,6,0.5501165986061096,3.808537244796753,5.571157028011778,5.472803767048848,22.09651283386183,20.10682137589164,9.713172767078504e-05,0.0881769880652427,0,0,0
1877,62877.84202411551,2010-09-01 06:57:50,900.4554650822049,2,6,0.5499359965324402,3.811613082885742,5.575743319354363,5.472803767048848,22.113987094681256,20.10682137589164,6.47544875391759e-05,0.0881769880652427,0,0,0
1878,62907.85697937438,2010-09-01 06:58:20,930.4704203460934,2,6,0.5499359965324402,3.814688920974731,5.580329496660856,5.472803767048848,22.13147555382337,20.10682137589164,6.47544875391759e-05,0.0881769880652427,0,0,0
1879,62937.87217015024,2010-09-01 06:58:50,960.48561112195,2,6,0.550297200679779,3.818250417709351,5.584915710982107,5.472803767048848,22.148979210136456,20.10682137589164,6.47544875391759e-05,0.0881769880652427,0,0,0
1880,62967.872182587,2010-09-01 06:59:20,990.4856235687406,2,6,0.5501165986061096,3.82165002822876,5.589499681893534,5.472803767048848,22.166489507216244,20.10682137589164,9.713172767078504e-05,0.0881769880652427,0,0,0
1881,62997.88701540071,2010-09-01 06:59:50,1020.5004563724206,2,6,0.5499359965324402,3.824887752532959,5.594085833863913,5.472803767048848,22.18402333434744,20.10682137589164,6.47544875391759e-05,0.0881769880652427,0,0,0
1882,63027.902095806494,2010-09-01 07:00:20,1050.5155367782013,2,6,0.5499359965324402,3.828125476837158,5.598672032700859,5.472803767048848,22.201572675897733,20.10682137589164,6.47544875391759e-05,0.0881769880652427,0,0,0
1883,63057.91721529468,2010-09-01 07:00:50,1080.5306562613746,2,6,0.550297200679779,3.831686973571777,5.603258283076989,5.472803767048848,22.21913738719197,20.10682137589164,9.713172767078504e-05,0.0881769880652427,0,0,0
1884,63087.9323816647,2010-09-01 07:01:20,1110.5458226364167,2,6,0.5499359965324402,3.8346006870269775,5.607844506500612,5.472803767048848,22.23671685475664,20.10682137589164,6.47544875391759e-05,0.0881769880652427,0,0,0
1885,63117.947685577536,2010-09-01 07:01:50,1140.5611265442335,2,6,0.5501165986061096,3.8378384113311768,5.612430724694901,5.472803767048848,22.254310891175923,20.10682137589164,9.713172767078504e-05,0.0881769880652427,0,0,0
1886,63147.962776920576,2010-09-01 07:02:20,1170.576217912335,2,6,0.5501165986061096,3.840914249420166,5.617016951651694,5.472803767048848,22.271919255031413,20.10682137589164,6.47544875391759e-05,0.0881769880652427,0,0,0
1887,63177.97791170188,2010-09-01 07:02:50,1200.5913526635616,2,6,0.5501165986061096,3.844151973724365,5.621603186345095,5.472803767048848,22.28954176062336,20.10682137589164,0.0001295089750783,0.0881769880652427,0,0,0
1888,63207.99307685888,2010-09-01 07:03:20,1230.6065178305932,2,6,0.5501165986061096,3.847065925598145,5.626189390496533,5.472803767048848,22.307178071466527,20.10682137589164,9.713172767078504e-05,0.0881769880652427,0,0,0
1889,63238.008261810224,2010-09-01 07:03:50,1260.621702796971,2,6,0.5501165986061096,3.849979877471924,5.630775696346903,5.472803767048848,22.3248286121614,20.10682137589164,6.47544875391759e-05,0.0881769880652427,0,0,0
1890,63268.02343396968,2010-09-01 07:04:20,1290.6368749313674,2,6,0.5501165986061096,3.852893829345703,5.635361968728062,5.472803767048848,22.34249261779083,20.10682137589164,6.47544875391759e-05,0.0881769880652427,0,0,0
1891,63298.038720825,2010-09-01 07:04:50,1320.6521617866838,2,6,0.5501165986061096,3.855645895004273,5.639948261768021,5.472803767048848,22.36016979431435,20.10682137589164,3.237724376958795e-05,0.0881769880652427,0,0,0
1892,63328.053793040366,2010-09-01 07:05:20,1350.6672340120765,2,6,0.5499359965324402,3.858397960662842,5.644534487914562,5.472803767048848,22.377859589763144,20.10682137589164,3.237724376958795e-05,0.0881769880652427,0,0,0
1893,63358.069084717696,2010-09-01 07:05:50,1380.6825256894106,2,6,0.5501165986061096,3.861150026321411,5.649120722612989,5.472803767048848,22.39556158964309,20.10682137589164,9.713172767078504e-05,0.0881769880652427,0,0,0
1894,63388.084253017536,2010-09-01 07:06:20,1410.6976939842375,2,6,0.5501165986061096,3.863578319549561,5.653706977686859,5.472803767048848,22.413275265469156,20.10682137589164,9.713172767078504e-05,0.0881769880652427,0,0,0
1895,63418.099283383606,2010-09-01 07:06:50,1440.7127243603288,2,6,0.5501165986061096,3.8658447265625,5.658293248475611,5.472803767048848,22.43099979595151,20.10682137589164,9.713172767078504e-05,0.0881769880652427,0,0,0
1896,63448.114591978105,2010-09-01 07:07:20,1470.7280329448008,2,6,0.5501165986061096,3.8679492473602295,5.66287951622949,5.472803767048848,22.44873445520369,20.10682137589164,6.47544875391759e-05,0.0881769880652427,0,0,0
1897,63478.12963665484,2010-09-01 07:07:50,1500.7430776215338,2,6,0.5499359965324402,3.869891881942749,5.667465770600411,5.472803767048848,22.466478417586625,20.10682137589164,3.237724376958795e-05,0.0881769880652427,0,0,0
1898,63508.14495005632,2010-09-01 07:08:20,1530.758391028024,2,6,0.5501165986061096,3.8716726303100586,5.672052064177486,5.472803767048848,22.484231134059986,20.10682137589164,3.237724376958795e-05,0.0881769880652427,0,0,0
1899,63538.159985880986,2010-09-01 07:08:50,1560.7734268526945,2,6,0.5501165986061096,3.873291492462158,5.676638301685232,5.472803767048848,22.501991419301667,20.10682137589164,6.47544875391759e-05,0.0881769880652427,0,0,0
1900,63568.17529756819,2010-09-01 07:09:20,1590.7887385549368,2,6,0.5501165986061096,3.874748468399048,5.681224597632695,5.472803767048848,22.519758925105577,20.10682137589164,3.237724376958795e-05,0.0881769880652427,0,0,0
1901,63598.1903426359,2010-09-01 07:09:50,1620.8037836076066,2,6,0.5499359965324402,3.876043558120728,5.685810763554857,5.472803767048848,22.537532313443556,20.10682137589164,3.237724376958795e-05,0.0881769880652427,0,0,0
1902,63628.2056757866,2010-09-01 07:10:20,1650.8191167482803,2,6,0.550297200679779,3.877500534057617,5.690397028890341,5.472803767048848,22.55531193600133,20.10682137589164,3.237724376958795e-05,0.0881769880652427,0,0,0
1903,63658.220672584,2010-09-01 07:10:50,1680.8341135456833,2,6,0.550297200679779,3.878633737564087,5.69498318869907,5.472803767048848,22.57309658768521,20.10682137589164,9.713172767078504e-05,0.0881769880652427,0,0,0
1904,63688.235964060834,2010-09-01 07:11:20,1710.8494050225177,2,6,0.5499359965324402,3.8796050548553462,5.699569494225657,5.472803767048848,22.590886853647085,20.10682137589164,6.47544875391759e-05,0.0881769880652427,0,0,0
1905,63718.251019750016,2010-09-01 07:11:50,1740.8644607217218,2,6,0.5501165986061096,3.8805763721466064,5.704155715784248,5.472803767048848,22.60868156886264,20.10682137589164,0.0,0.0881769880652427,0,0,0
1906,63748.26619827533,2010-09-01 07:12:20,1770.8796392470465,2,6,0.5499359965324402,3.881385803222656,5.708741953522714,5.472803767048848,22.626481011729147,20.10682137589164,0.0,0.0881769880652427,0,0,0
1907,63778.28150836856,2010-09-01 07:12:50,1800.8949493603288,2,6,0.5499359965324402,3.882519006729126,5.713328199709097,5.472803767048848,22.644284923586856,20.10682137589164,0.0,0.0881769880652427,0,0,0
1908,63808.2965272861,2010-09-01 07:13:20,1830.9099682527992,2,6,0.550297200679779,3.8834903240203857,5.71791441762858,5.472803767048848,22.662093140312752,20.10682137589164,3.237724376958795e-05,0.0881769880652427,0,0,0
1909,63838.31182348972,2010-09-01 07:13:50,1860.925264451402,2,6,0.5499359965324402,3.884299755096436,5.722500714264985,5.472803767048848,22.67990602628059,20.10682137589164,0.0,0.0881769880652427,0,0,0
1910,63868.32787971754,2010-09-01 07:14:20,1890.9413206792312,2,6,0.550297200679779,3.885432958602905,5.727087145493224,5.472803767048848,22.697723513305384,20.10682137589164,3.237724376958795e-05,0.0881769880652427,0,0,0
1911,63898.34212049071,2010-09-01 07:14:50,1920.9555614574017,2,6,0.550297200679779,3.886242389678955,5.731673290552478,5.472803767048848,22.715544220778,20.10682137589164,6.47544875391759e-05,0.0881769880652427,0,0,0
1912,63928.35723210427,2010-09-01 07:15:20,1950.9706730659493,2,6,0.550297200679779,3.887213706970215,5.736259539480043,5.472803767048848,22.733369538463258,20.10682137589164,3.237724376958795e-05,0.0881769880652427,0,0,0
1913,63958.37252264877,2010-09-01 07:15:50,1980.9859636405347,2,6,0.5501165986061096,3.8880231380462646,5.740845826635925,5.472803767048848,22.75119919283361,20.10682137589164,3.237724376958795e-05,0.0881769880652427,0,0,0
1914,63988.38760098941,2010-09-01 07:16:20,2011.0010419611183,2,6,0.5499359965324402,3.888994455337525,5.745432120717221,5.472803767048848,22.76903320901678,20.10682137589164,0.0,0.0881769880652427,0,0,0
1915,64018.40274001629,2010-09-01 07:16:50,2041.016180977976,2,6,0.5501165986061096,3.889965772628784,5.750018415376362,5.472803767048848,22.786871388571267,20.10682137589164,6.47544875391759e-05,0.0881769880652427,0,0,0
1916,64048.41790274224,2010-09-01 07:17:20,2071.0313437139484,2,6,0.5501165986061096,3.890775203704834,5.754604680899772,5.472803767048848,22.8047136849128,20.10682137589164,3.237724376958795e-05,0.0881769880652427,0,0,0
1917,64078.433072079664,2010-09-01 07:17:50,2101.0465130463617,2,6,0.5501165986061096,3.891908407211304,5.759190959850347,5.472803767048848,22.82256033114109,20.10682137589164,3.237724376958795e-05,0.0881769880652427,0,0,0
1918,64108.44826081544,2010-09-01 07:18:20,2131.0617017871464,2,6,0.5501165986061096,3.8927178382873535,5.763777259070317,5.472803767048848,22.84041132634306,20.10682137589164,3.237724376958795e-05,0.0881769880652427,0,0,0
1919,64138.46341580711,2010-09-01 07:18:50,2161.076856778818,2,6,0.5501165986061096,3.8938510417938232,5.768363574073591,5.472803767048848,22.858266732787104,20.10682137589164,6.47544875391759e-05,0.0881769880652427,0,0,0
1920,64168.47859025226,2010-09-01 07:19:20,2191.092031218961,2,6,0.5501165986061096,3.894660472869873,5.772949892402066,5.472803767048848,22.876126565893383,20.10682137589164,3.237724376958795e-05,0.0881769880652427,0,0,0
1921,64198.49377875245,2010-09-01 07:19:50,2221.1072197391964,2,6,0.5501165986061096,3.895631790161133,5.777536190327608,5.472803767048848,22.89399018485529,20.10682137589164,3.237724376958795e-05,0.0881769880652427,0,0,0
1922,64228.508963969456,2010-09-01 07:20:20,2251.122404931136,2,6,0.5501165986061096,3.8966031074523926,5.782122432964393,5.472803767048848,22.911858233962835,20.10682137589164,6.47544875391759e-05,0.0881769880652427,0,0,0
1923,64258.52410506148,2010-09-01 07:20:50,2281.1375460331906,2,6,0.5499359965324402,3.897574424743652,5.786708654187446,5.472803767048848,22.929730754364552,20.10682137589164,3.237724376958795e-05,0.0881769880652427,0,0,0
1924,64288.5392741984,2010-09-01 07:21:20,2311.152715170116,2,6,0.550297200679779,3.898545742034912,5.791294872869928,5.472803767048848,22.947607825438087,20.10682137589164,3.237724376958795e-05,0.0881769880652427,0,0,0
1925,64318.55444958592,2010-09-01 07:21:50,2341.167890552608,2,6,0.5501165986061096,3.899678945541382,5.795881119420074,5.472803767048848,22.96548973132364,20.10682137589164,3.237724376958795e-05,0.0881769880652427,0,0,0
1926,64348.569631133774,2010-09-01 07:22:20,2371.183072100466,2,6,0.5499359965324402,3.900488376617432,5.800467395451912,5.472803767048848,22.983376367746807,20.10682137589164,0.0,0.0881769880652427,0,0,0
1927,64378.58479355396,2010-09-01 07:22:50,2401.198234525664,2,6,0.5501165986061096,3.901621580123901,5.805053582059585,5.472803767048848,23.00126744421237,20.10682137589164,3.237724376958795e-05,0.0881769880652427,0,0,0
1928,64408.59999192875,2010-09-01 07:23:20,2431.213432890435,2,6,0.5501165986061096,3.902754783630371,5.809639774294834,5.472803767048848,23.019163406203063,20.10682137589164,6.47544875391759e-05,0.0881769880652427,0,0,0
1929,64438.61513002331,2010-09-01 07:23:50,2461.228570990006,2,6,0.5499359965324402,3.903726100921631,5.814226087853918,5.472803767048848,23.037064740067944,20.10682137589164,3.237724376958795e-05,0.0881769880652427,0,0,0
1930,64468.63031825784,2010-09-01 07:24:20,2491.2437592295414,2,6,0.5499359965324402,3.90469741821289,5.81881234886678,5.472803767048848,23.05497089664272,20.10682137589164,0.0,0.0881769880652427,0,0,0
1931,64498.645477470025,2010-09-01 07:24:50,2521.258918441732,2,6,0.5501165986061096,3.9059925079345694,5.823398572253547,5.472803767048848,23.072881812138647,20.10682137589164,0.0,0.0881769880652427,0,0,0
1932,64528.66064833125,2010-09-01 07:25:20,2551.27408929293,2,6,0.5501165986061096,3.90712571144104,5.827984771733099,5.472803767048848,23.090797838719787,20.10682137589164,3.237724376958795e-05,0.0881769880652427,0,0,0
1933,64558.67596617379,2010-09-01 07:25:50,2581.289407145501,2,6,0.5501165986061096,3.90842080116272,5.832570972079421,5.472803767048848,23.108719019357476,20.10682137589164,6.47544875391759e-05,0.0881769880652427,0,0,0
1934,64588.69102000333,2010-09-01 07:26:20,2611.304460970033,2,6,0.5501165986061096,3.90939211845398,5.837157175605825,5.472803767048848,23.126645505160777,20.10682137589164,6.47544875391759e-05,0.0881769880652427,0,0,0
1935,64618.706325830935,2010-09-01 07:26:51,2641.3197668226967,2,6,0.5501165986061096,3.910525321960449,5.841743474593425,5.472803767048848,23.14457774766796,20.10682137589164,3.237724376958795e-05,0.0881769880652427,0,0,0
1936,64648.721551889736,2010-09-01 07:27:21,2671.3349928564267,2,6,0.5499359965324402,3.911658525466919,5.846329748901157,5.472803767048848,23.16251528514347,20.10682137589164,3.237724376958795e-05,0.0881769880652427,0,0,0
1937,64678.73663001484,2010-09-01 07:27:51,2701.350070986536,2,6,0.5499359965324402,3.9127917289733887,5.850915970379315,5.472803767048848,23.18045815587501,20.10682137589164,0.0,0.0881769880652427,0,0,0
1938,64708.75169541821,2010-09-01 07:28:21,2731.365136384913,2,6,0.5501165986061096,3.914248466491699,5.855502201044136,5.472803767048848,23.19840660439803,20.10682137589164,3.237724376958795e-05,0.0881769880652427,0,0,0
1939,64738.76684995876,2010-09-01 07:28:51,2761.3802909304727,2,6,0.5501165986061096,3.915381669998169,5.860088571921905,5.472803767048848,23.216361341487204,20.10682137589164,3.237724376958795e-05,0.0881769880652427,0,0,0
1940,64768.78201382255,2010-09-01 07:29:21,2791.395454789244,2,6,0.5499359965324402,3.9166767597198486,5.864674839031989,5.472803767048848,23.23432119328982,20.10682137589164,6.47544875391759e-05,0.0881769880652427,0,0,0
1941,64798.797199590925,2010-09-01 07:29:51,2821.410640557621,2,6,0.5501165986061096,3.9181337356567374,5.869261100991271,5.472803767048848,23.252286987079767,20.10682137589164,9.713172767078504e-05,0.0881769880652427,0,0,0
1942,64828.81238552471,2010-09-01 07:30:21,2851.425826486397,2,6,0.5501165986061096,3.919428825378418,5.873847319912256,5.472803767048848,23.27025851263302,20.10682137589164,6.47544875391759e-05,0.0881769880652427,0,0,0
1943,64858.827565373336,2010-09-01 07:30:51,2881.441006355069,2,6,0.5501165986061096,3.920562028884888,5.878433580201525,5.472803767048848,23.28823621381293,20.10682137589164,0.0,0.0881769880652427,0,0,0
1944,64888.8428447049,2010-09-01 07:31:21,2911.456285676609,2,6,0.5501165986061096,3.921857118606568,5.883019892033677,5.472803767048848,23.30622006809715,20.10682137589164,3.237724376958795e-05,0.0881769880652427,0,0,0
1945,64918.85797698998,2010-09-01 07:31:51,2941.471417961689,2,6,0.5499359965324402,3.923314094543457,5.887606093038261,5.472803767048848,23.324209620340813,20.10682137589164,6.47544875391759e-05,0.0881769880652427,0,0,0
1946,64948.87303378692,2010-09-01 07:32:21,2971.486474748604,2,6,0.5501165986061096,3.924447298049927,5.892192347233054,5.472803767048848,23.34220548267907,20.10682137589164,0.0,0.0881769880652427,0,0,0
1947,64978.88818661319,2010-09-01 07:32:51,3001.501627574879,2,6,0.5499359965324402,3.925904273986816,5.896778569330786,5.472803767048848,23.36020748417278,20.10682137589164,3.237724376958795e-05,0.0881769880652427,0,0,0
1948,65008.90336133905,2010-09-01 07:33:21,3031.516802320784,2,6,0.5501165986061096,3.927199363708496,5.90136478329404,5.472803767048848,23.37821557384776,20.10682137589164,3.237724376958795e-05,0.0881769880652427,0,0,0
1949,65038.91868074549,2010-09-01 07:33:51,3061.532121717203,2,6,0.550297200679779,3.9286563396453857,5.905951107766828,5.472803767048848,23.39623056249786,20.10682137589164,3.237724376958795e-05,0.0881769880652427,0,0,0
1950,65068.93373441965,2010-09-01 07:34:21,3091.547175386347,2,6,0.5501165986061096,3.9299514293670654,5.910537386733673,5.472803767048848,23.414251772758117,20.10682137589164,0.0,0.0881769880652427,0,0,0
1951,65098.9488803738,2010-09-01 07:34:51,3121.562321365557,2,6,0.550297200679779,3.931570291519165,5.915123714311081,5.472803767048848,23.43227968595983,20.10682137589164,6.47544875391759e-05,0.0881769880652427,0,0,0
1952,65128.96404699446,2010-09-01 07:35:21,3151.577487956137,2,6,0.5499359965324402,3.9328653812408447,5.919710104054291,5.472803767048848,23.45031439122759,20.10682137589164,0.0,0.0881769880652427,0,0,0
1953,65158.9792176652,2010-09-01 07:35:51,3181.5926586268856,2,6,0.5499359965324402,3.9343223571777344,5.924296453036416,5.472803767048848,23.46835553097961,20.10682137589164,0.0,0.0881769880652427,0,0,0
1954,65188.9944186916,2010-09-01 07:36:21,3211.60785965329,2,6,0.5501165986061096,3.935941219329834,5.928882874080876,5.472803767048848,23.486403681763584,20.10682137589164,6.47544875391759e-05,0.0881769880652427,0,0,0
1955,65219.00956695651,2010-09-01 07:36:51,3241.6230079181964,2,6,0.5501165986061096,3.937398195266724,5.933469253666564,5.472803767048848,23.504458265836792,20.10682137589164,6.47544875391759e-05,0.0881769880652427,0,0,0
1956,65249.02476097545,2010-09-01 07:37:21,3271.6382019621983,2,6,0.5501165986061096,3.9386932849884033,5.938055552007422,5.472803767048848,23.52251948949536,20.10682137589164,-3.237724376958795e-05,0.0881769880652427,0,0,0
1957,65279.039902844415,2010-09-01 07:37:51,3301.653343806101,2,6,0.5501165986061096,3.940474033355713,5.942641943227965,5.472803767048848,23.54058791196785,20.10682137589164,6.47544875391759e-05,0.0881769880652427,0,0,0
1958,65309.05508560029,2010-09-01 07:38:21,3331.66852656197,2,6,0.5501165986061096,3.9417691230773926,5.947228336796292,5.472803767048848,23.55866322834512,20.10682137589164,6.47544875391759e-05,0.0881769880652427,0,0,0
1959,65339.0702468275,2010-09-01 07:38:51,3361.6836877891824,2,6,0.5501165986061096,3.943387985229492,5.951814722083772,5.472803767048848,23.576745545905077,20.10682137589164,3.237724376958795e-05,0.0881769880652427,0,0,0
1960,65369.085418014525,2010-09-01 07:39:21,3391.698859006293,2,6,0.5499359965324402,3.944844961166382,5.956401085896206,5.472803767048848,23.59483482252641,20.10682137589164,6.47544875391759e-05,0.0881769880652427,0,0,0
1961,65399.100594068696,2010-09-01 07:39:51,3421.7140350303835,2,6,0.5501165986061096,3.9466257095336914,5.960987509426558,5.472803767048848,23.612931522396345,20.10682137589164,3.237724376958795e-05,0.0881769880652427,0,0,0
1962,65429.11575151649,2010-09-01 07:40:21,3451.729192503239,2,6,0.5501165986061096,3.947920799255371,5.965573901392333,5.472803767048848,23.63103516360424,20.10682137589164,3.237724376958795e-05,0.0881769880652427,0,0,0
1963,65459.1310201113,2010-09-01 07:40:51,3481.744461143157,2,6,0.5499359965324402,3.9497015476226807,5.970160278837875,5.472803767048848,23.64914604247512,20.10682137589164,6.47544875391759e-05,0.0881769880652427,0,0,0
1964,65489.14597996162,2010-09-01 07:41:21,3511.759420948364,2,6,0.5501165986061096,3.95132040977478,5.974746630267426,5.472803767048848,23.667264231602168,20.10682137589164,6.47544875391759e-05,0.0881769880652427,0,0,0
1965,65519.16124269682,2010-09-01 07:41:51,3541.7746836835654,2,6,0.5501165986061096,3.95310115814209,5.979332810727456,5.472803767048848,23.685389130641155,20.10682137589164,9.713172767078504e-05,0.0881769880652427,0,0,0
1966,65549.17642422463,2010-09-01 07:42:21,3571.7898651913238,2,6,0.5499359965324402,3.95455813407898,5.983918941666417,5.472803767048848,23.703521414236253,20.10682137589164,6.47544875391759e-05,0.0881769880652427,0,0,0
1967,65579.19161142156,2010-09-01 07:42:51,3601.805052383247,2,6,0.5499359965324402,3.956338882446289,5.988505207644391,5.472803767048848,23.721661901517876,20.10682137589164,6.47544875391759e-05,0.0881769880652427,0,0,0
1968,65609.20674264901,2010-09-01 07:43:21,3631.8201836357534,2,6,0.5501165986061096,3.9579577445983887,5.993091405086832,5.472803767048848,23.739809762508184,20.10682137589164,3.237724376958795e-05,0.0881769880652427,0,0,0
1969,65639.22206272712,2010-09-01 07:43:51,3661.835503718885,2,6,0.550297200679779,3.959738492965698,5.997677674256965,5.472803767048848,23.757965788842085,20.10682137589164,6.47544875391759e-05,0.0881769880652427,0,0,0
1970,65669.23712548391,2010-09-01 07:44:21,3691.85056646064,2,6,0.5501165986061096,3.961519241333008,6.002263983407101,5.472803767048848,23.77612990159857,20.10682137589164,3.237724376958795e-05,0.0881769880652427,0,0,0
1971,65699.25227169872,2010-09-01 07:44:51,3721.865712665412,2,6,0.5497553944587708,3.9631381034851074,6.006850399009942,5.472803767048848,23.794302507063858,20.10682137589164,3.237724376958795e-05,0.0881769880652427,0,0,0
1972,65729.267430144,2010-09-01 07:45:21,3751.880871105679,2,6,0.5501165986061096,3.964918851852417,6.011436785306627,5.472803767048848,23.812483123924316,20.10682137589164,6.47544875391759e-05,0.0881769880652427,0,0,0
1973,65759.28260588738,2010-09-01 07:45:51,3781.896046854082,2,6,0.5501165986061096,3.966861486434937,6.016023180939039,5.472803767048848,23.83067202879525,20.10682137589164,6.47544875391759e-05,0.0881769880652427,0,0,0
1974,65789.30059658652,2010-09-01 07:46:21,3811.914037578272,2,6,0.5499359965324402,3.968480348587036,6.020610011273603,5.472803767048848,23.84887099680316,20.10682137589164,3.237724376958795e-05,0.0881769880652427,0,0,0
1975,65819.31291905366,2010-09-01 07:46:51,3841.9263600203594,2,6,0.5499359965324402,3.970422983169556,6.025195414568462,5.472803767048848,23.867072755950343,20.10682137589164,6.47544875391759e-05,0.0881769880652427,0,0,0
1976,65849.32809615544,2010-09-01 07:47:21,3871.9415371171226,2,6,0.5499359965324402,3.972365617752075,6.029780886638173,5.472803767048848,23.88528340156821,20.10682137589164,3.237724376958795e-05,0.0881769880652427,0,0,0
1977,65879.34344700525,2010-09-01 07:47:51,3901.956887991996,2,6,0.5497553944587708,3.9741463661193848,6.034366593795246,5.472803767048848,23.90350373384052,20.10682137589164,3.237724376958795e-05,0.0881769880652427,0,0,0
1978,65909.35847752671,2010-09-01 07:48:21,3931.9719184883866,2,6,0.5501165986061096,3.976250886917114,6.038952103436536,5.472803767048848,23.921732142239502,20.10682137589164,3.237724376958795e-05,0.0881769880652427,0,0,0
1979,65939.37362471392,2010-09-01 07:48:51,3961.9870657307447,2,6,0.5499359965324402,3.977869749069214,6.043537633895622,5.472803767048848,23.93996944530709,20.10682137589164,3.237724376958795e-05,0.0881769880652427,0,0,0
1980,65969.38877961035,2010-09-01 07:49:21,3992.002220602116,2,6,0.5499359965324402,3.980136156082153,6.048123046090844,5.472803767048848,23.958215203012188,20.10682137589164,6.47544875391759e-05,0.0881769880652427,0,0,0
1981,65999.40408033023,2010-09-01 07:49:51,4022.017521316975,2,6,0.5501165986061096,3.982078790664673,6.052708871239577,5.472803767048848,23.976471949781725,20.10682137589164,6.47544875391759e-05,0.0881769880652427,0,0,0
1982,66029.4192671362,2010-09-01 07:50:21,4052.0327081329615,2,6,0.5501165986061096,3.984021425247192,6.057295306903392,5.472803767048848,23.99474030081107,20.10682137589164,3.237724376958795e-05,0.0881769880652427,0,0,0
1983,66059.43429701103,2010-09-01 07:50:51,4082.0477379827416,2,6,0.5501165986061096,3.985964059829712,6.061881643297064,5.472803767048848,24.013017348771164,20.10682137589164,0.0,0.0881769880652427,0,0,0
1984,66089.44961700393,2010-09-01 07:51:21,4112.063057975647,2,6,0.5501165986061096,3.9880685806274414,6.066468019739698,5.472803767048848,24.031303742502203,20.10682137589164,3.237724376958795e-05,0.0881769880652427,0,0,0
1985,66119.46463799664,2010-09-01 07:51:51,4142.078078963339,2,6,0.5501165986061096,3.990011215209961,6.071054423607492,5.472803767048848,24.04959935451976,20.10682137589164,0.0,0.0881769880652427,0,0,0
1986,66149.47982364472,2010-09-01 07:52:21,4172.093264611416,2,6,0.5501165986061096,3.9921157360076895,6.07564077958728,5.472803767048848,24.067904043553312,20.10682137589164,6.47544875391759e-05,0.0881769880652427,0,0,0
1987,66179.49498972904,2010-09-01 07:52:51,4202.108430690721,2,6,0.5499359965324402,3.994220018386841,6.080227198689253,5.472803767048848,24.08621827964256,20.10682137589164,6.470680091297254e-05,0.0881769880652427,0,0,0
1988,66209.51015029961,2010-09-01 07:53:21,4232.12359126631,2,6,0.5499359965324402,3.9960007667541504,6.084813555336416,5.472803767048848,24.104541591431342,20.10682137589164,0.0,0.0881769880652427,0,0,0
1989,66239.52532745151,2010-09-01 07:53:51,4262.138768418212,2,6,0.550297200679779,3.99826717376709,6.089399966459968,5.472803767048848,24.12287454982269,20.10682137589164,9.713172767078504e-05,0.0881769880652427,0,0,0
1990,66269.54054706925,2010-09-01 07:54:21,4292.153988035951,2,6,0.550297200679779,4.000371932983398,6.093986378700226,5.472803767048848,24.14121680206373,20.10682137589164,3.24249267578125e-05,0.0881769880652427,0,0,0
1991,66299.55569786046,2010-09-01 07:54:51,4322.169138847204,2,6,0.5499359965324402,4.002314567565918,6.098572746253948,5.472803767048848,24.15956845486998,20.10682137589164,3.24249267578125e-05,0.0881769880652427,0,0,0
1992,66329.57084704265,2010-09-01 07:55:21,4352.184288004334,2,6,0.5499359965324402,4.004580974578857,6.103159170080437,5.472803767048848,24.17792990579757,20.10682137589164,6.47544875391759e-05,0.0881769880652427,0,0,0
1993,66359.58598300189,2010-09-01 07:55:51,4382.199423973596,2,6,0.5501165986061096,4.006685256958008,6.107745547163249,5.472803767048848,24.196300832321157,20.10682137589164,9.70840483205393e-05,0.0881769880652427,0,0,0
1994,66389.60130069406,2010-09-01 07:56:21,4412.214741655742,2,6,0.5501165986061096,4.008790016174316,6.112332075684281,5.472803767048848,24.21468219622341,20.10682137589164,6.47544875391759e-05,0.0881769880652427,0,0,0
1995,66419.61645291884,2010-09-01 07:56:51,4442.229893895556,2,6,0.5501165986061096,4.010894298553467,6.116918583615336,5.472803767048848,24.233073227731296,20.10682137589164,6.47544875391759e-05,0.0881769880652427,0,0,0
1996,66449.63150269828,2010-09-01 07:57:21,4472.24494366498,2,6,0.550297200679779,4.013160705566406,6.121504965146104,5.472803767048848,24.25147370125629,20.10682137589164,6.47544875391759e-05,0.0881769880652427,0,0,0
1997,66479.64668077248,2010-09-01 07:57:51,4502.260121734168,2,6,0.5499359965324402,4.015103340148926,6.126091420121582,5.472803767048848,24.269884549207912,20.10682137589164,3.23295607813634e-05,0.0881769880652427,0,0,0
1998,66509.66188438534,2010-09-01 07:58:21,4532.275325372081,2,6,0.550297200679779,4.017693519592285,6.130678019378786,5.472803767048848,24.28830619539957,20.10682137589164,9.70840483205393e-05,0.0881769880652427,0,0,0
1999,66539.67701593359,2010-09-01 07:58:52,4562.290456900274,2,6,0.5501165986061096,4.019798278808594,6.135264478948877,5.472803767048848,24.306737461168,20.10682137589164,6.47544875391759e-05,0.0881769880652427,0,0,0
2000,66569.69245707343,2010-09-01 07:59:22,4592.305898060165,2,6,0.550297200679779,4.022064685821533,6.139850953435871,5.472803767048848,24.3251792037489,20.10682137589164,9.71794142969884e-05,0.0881769880652427,0,0,0
2001,66599.70751179519,2010-09-01 07:59:52,4622.320952756871,2,6,0.5501165986061096,4.024331092834473,6.144437401495294,5.472803767048848,24.34363136707555,20.10682137589164,6.47544875391759e-05,0.0881769880652427,0,0,0
2002,66629.72254525898,2010-09-01 08:00:22,4652.335986215646,2,6,0.5501165986061096,4.026759147644043,6.149023837362977,5.472803767048848,24.36209404262112,20.10682137589164,9.70840483205393e-05,0.0881769880652427,0,0,0
2003,66659.73785170812,2010-09-01 08:00:52,4682.351292689858,2,6,0.550297200679779,4.029025554656982,6.153610350650643,5.472803767048848,24.38056776811712,20.10682137589164,6.47544875391759e-05,0.0881769880652427,0,0,0
2004,66689.75288497141,2010-09-01 08:01:22,4712.366325933095,2,6,0.5499359965324402,4.031291961669922,6.158196817005911,5.472803767048848,24.39905203901307,20.10682137589164,6.47544875391759e-05,0.0881769880652427,0,0,0
2005,66719.76806575236,2010-09-01 08:01:52,4742.3815067190535,2,6,0.5501165986061096,4.03372049331665,6.162783270168688,5.472803767048848,24.417547188027488,20.10682137589164,6.47544875391759e-05,0.0881769880652427,0,0,0
2006,66749.78348636604,2010-09-01 08:02:22,4772.396927352787,2,6,0.5501165986061096,4.036148548126221,6.16736980863081,5.472803767048848,24.436053770577093,20.10682137589164,3.24249267578125e-05,0.0881769880652427,0,0,0
2007,66779.79839015163,2010-09-01 08:02:52,4802.411831138375,2,6,0.550297200679779,4.03873872756958,6.171956253694037,5.472803767048848,24.454571115575483,20.10682137589164,9.71794142969884e-05,0.0881769880652427,0,0,0
2008,66809.81355535374,2010-09-01 08:03:22,4832.426996345507,2,6,0.5501165986061096,4.04116678237915,6.176542691511229,5.472803767048848,24.47309966879833,20.10682137589164,9.70840483205393e-05,0.0881769880652427,0,0,0
2009,66839.82893593766,2010-09-01 08:03:52,4862.442376899349,2,6,0.5501165986061096,4.04375696182251,6.181129463938985,5.472803767048848,24.49164098305805,20.10682137589164,9.70840483205393e-05,0.0881769880652427,0,0,0
2010,66869.8438906953,2010-09-01 08:04:22,4892.457331687051,2,6,0.550297200679779,4.046185493469238,6.185716826706345,5.472803767048848,24.510196228832847,20.10682137589164,0.0001295089750783,0.0881769880652427,0,0,0
2011,66899.85905274957,2010-09-01 08:04:52,4922.472493716262,2,6,0.5501165986061096,4.048613548278809,6.190304072100589,5.472803767048848,24.528762587684422,20.10682137589164,6.47544875391759e-05,0.0881769880652427,0,0,0
2012,66929.87423655805,2010-09-01 08:05:22,4952.4876775147295,2,6,0.5501165986061096,4.051042079925537,6.194891396586173,5.472803767048848,24.547341006037502,20.10682137589164,3.24249267578125e-05,0.0881769880652427,0,0,0
2013,66959.88938528912,2010-09-01 08:05:52,4982.502826250809,2,6,0.5501165986061096,4.053956031799316,6.199478761423733,5.472803767048848,24.56593138345045,20.10682137589164,0.0001295089750783,0.0881769880652427,0,0,0
2014,66989.90456925803,2010-09-01 08:06:22,5012.518010224714,2,6,0.550297200679779,4.056546211242676,6.204066192332572,5.472803767048848,24.58453399918028,20.10682137589164,9.71794142969884e-05,0.0881769880652427,0,0,0
2015,67019.91976716665,2010-09-01 08:06:52,5042.533208128335,2,6,0.5501165986061096,4.059136390686035,6.208653473185735,5.472803767048848,24.603148042292563,20.10682137589164,9.71794142969884e-05,0.0881769880652427,0,0,0
2016,67049.93490467976,2010-09-01 08:07:22,5072.548345646458,2,6,0.550297200679779,4.0617265701293945,6.213240170974131,5.472803767048848,24.621771645891,20.10682137589164,0.0001295089750783,0.0881769880652427,0,0,0
2017,67079.95008430783,2010-09-01 08:07:52,5102.563525299593,2,6,0.5501165986061096,4.064316749572754,6.217826851649343,5.472803767048848,24.64040734882838,20.10682137589164,6.47544875391759e-05,0.0881769880652427,0,0,0
2018,67109.96579314988,2010-09-01 08:08:22,5132.57923414163,2,6,0.5501165986061096,4.067068576812744,6.222413623713144,5.472803767048848,24.659055823401687,20.10682137589164,9.70840483205393e-05,0.0881769880652427,0,0,0
2019,67139.98042210049,2010-09-01 08:08:52,5162.593863057158,2,6,0.5499359965324402,4.069820880889893,6.227000150797149,5.472803767048848,24.67771580839737,20.10682137589164,9.71794142969884e-05,0.0881769880652427,0,0,0
2020,67169.99556535791,2010-09-01 08:09:22,5192.609006344659,2,6,0.5501165986061096,4.072734832763672,6.231586782508347,5.472803767048848,24.69638877335244,20.10682137589164,0.0001295089750783,0.0881769880652427,0,0,0
2021,67200.0107283796,2010-09-01 08:09:52,5222.624169356319,2,6,0.5501165986061096,4.075325012207031,6.23617337349235,5.472803767048848,24.71507430764298,20.10682137589164,9.71794142969884e-05,0.0881769880652427,0,0,0
2022,67230.02592125066,2010-09-01 08:10:22,5252.63936221236,2,6,0.5501165986061096,4.0780768394470215,6.240759978081291,5.472803767048848,24.733772721126964,20.10682137589164,9.70840483205393e-05,0.0881769880652427,0,0,0
2023,67260.0410718514,2010-09-01 08:10:52,5282.654512823114,2,6,0.5501165986061096,4.080990791320801,6.245346616220798,5.472803767048848,24.75248424623691,20.10682137589164,6.47544875391759e-05,0.0881769880652427,0,0,0
2024,67290.05637869655,2010-09-01 08:11:22,5312.66981966825,2,6,0.550297200679779,4.08390474319458,6.249933259393522,5.472803767048848,24.77120873972059,20.10682137589164,9.70840483205393e-05,0.0881769880652427,0,0,0
2025,67320.0714272379,2010-09-01 08:11:52,5342.684868204602,2,6,0.5501165986061096,4.086818695068359,6.254519871879574,5.472803767048848,24.789946338214836,20.10682137589164,6.47544875391759e-05,0.0881769880652427,0,0,0
2026,67350.08663999355,2010-09-01 08:12:22,5372.700080985303,2,6,0.5501165986061096,4.089732646942139,6.25910650522402,5.472803767048848,24.808697313593072,20.10682137589164,9.70840483205393e-05,0.0881769880652427,0,0,0
2027,67380.10176146668,2010-09-01 08:12:52,5402.715202458435,2,6,0.5499359965324402,4.092484951019287,6.263693184474619,5.472803767048848,24.82746193148451,20.10682137589164,3.24249267578125e-05,0.0881769880652427,0,0,0
2028,67410.11693376649,2010-09-01 08:13:22,5432.730374733181,2,6,0.5501165986061096,4.095560550689697,6.268279810804609,5.472803767048848,24.84623988989917,20.10682137589164,9.70840483205393e-05,0.0881769880652427,0,0,0
2029,67440.13210413649,2010-09-01 08:13:52,5462.745545098168,2,6,0.5501165986061096,4.098636627197266,6.272866530111628,5.472803767048848,24.86503193311627,20.10682137589164,9.71794142969884e-05,0.0881769880652427,0,0,0
2030,67470.14731173927,2010-09-01 08:14:22,5492.760752700962,2,6,0.5501165986061096,4.101550579071045,6.277453225240237,5.472803767048848,24.883837733852403,20.10682137589164,6.47544875391759e-05,0.0881769880652427,0,0,0
2031,67500.16245185387,2010-09-01 08:14:52,5522.775892845631,2,6,0.5501165986061096,4.104788303375244,6.282039887709782,5.472803767048848,24.90265728146983,20.10682137589164,0.0001295089750783,0.0881769880652427,0,0,0
2032,67530.17762838422,2010-09-01 08:15:22,5552.791069345908,2,6,0.5501165986061096,4.107702255249023,6.286626552945658,5.472803767048848,24.921490980244453,20.10682137589164,9.71794142969884e-05,0.0881769880652427,0,0,0
2033,67560.19283331036,2010-09-01 08:15:52,5582.806274292082,2,6,0.5501165986061096,4.110939979553223,6.291213273864775,5.472803767048848,24.94033914240236,20.10682137589164,0.0001295089750783,0.0881769880652427,0,0,0
2034,67590.20797834721,2010-09-01 08:16:22,5612.821419308893,2,6,0.5501165986061096,4.113853931427002,6.295800011230476,5.472803767048848,24.959201678861053,20.10682137589164,3.24249267578125e-05,0.0881769880652427,0,0,0
2035,67620.22313267222,2010-09-01 08:16:52,5642.836573633903,2,6,0.5501165986061096,4.117253303527832,6.300386675384489,5.472803767048848,24.978078390896783,20.10682137589164,9.71794142969884e-05,0.0881769880652427,0,0,0
2036,67650.23829945827,2010-09-01 08:17:22,5672.851740424982,2,6,0.5501165986061096,4.120167255401611,6.304973385061653,5.472803767048848,24.99696985345058,20.10682137589164,6.47544875391759e-05,0.0881769880652427,0,0,0
2037,67680.25347851995,2010-09-01 08:17:52,5702.866919486643,2,6,0.5501165986061096,4.123566627502441,6.30956009486518,5.472803767048848,25.015875969322977,20.10682137589164,9.70840483205393e-05,0.0881769880652427,0,0,0
2038,67710.27150109853,2010-09-01 08:18:22,5732.884942115349,2,6,0.5501165986061096,4.126804351806641,6.314147171633329,5.472803767048848,25.03479841885306,20.10682137589164,9.70840483205393e-05,0.0881769880652427,0,0,0
2039,67740.28382455313,2010-09-01 08:18:52,5762.897265514822,2,6,0.5501165986061096,4.130204200744629,6.318733435013491,5.472803767048848,25.053732497348825,20.10682137589164,6.47544875391759e-05,0.0881769880652427,0,0,0
2040,67770.29901230647,2010-09-01 08:19:22,5792.912453268145,2,6,0.5501165986061096,4.133441925048828,6.323320089561838,5.472803767048848,25.07268333500393,20.10682137589164,9.71794142969884e-05,0.0881769880652427,0,0,0
2041,67800.31428293133,2010-09-01 08:19:52,5822.927723923085,2,6,0.5499359965324402,4.136517524719238,6.327906835663262,5.472803767048848,25.091649768313285,20.10682137589164,3.23295607813634e-05,0.0881769880652427,0,0,0
2042,67830.32935451512,2010-09-01 08:20:22,5852.942795486828,2,6,0.5499359965324402,4.139917373657227,6.332493556477586,5.472803767048848,25.110631467916026,20.10682137589164,6.47544875391759e-05,0.0881769880652427,0,0,0
2043,67860.34466796172,2010-09-01 08:20:52,5882.958108933419,2,6,0.5501165986061096,4.143316745758057,6.337080324405368,5.472803767048848,25.12962886985584,20.10682137589164,6.47544875391759e-05,0.0881769880652427,0,0,0
2044,67890.35966847336,2010-09-01 08:21:22,5912.973109440066,2,6,0.5499359965324402,4.146878242492676,6.341667036154613,5.472803767048848,25.148641821912488,20.10682137589164,6.47544875391759e-05,0.0881769880652427,0,0,0
2045,67920.37544162569,2010-09-01 08:21:52,5942.988882607422,2,6,0.5501165986061096,4.150439739227295,6.346253826787842,5.472803767048848,25.167670966426552,20.10682137589164,0.0001295089750783,0.0881769880652427,0,0,0
2046,67950.3901610568,2010-09-01 08:22:22,5973.003602028517,2,6,0.5501165986061096,4.153839588165283,6.350840435968261,5.472803767048848,25.18671524847197,20.10682137589164,6.47544875391759e-05,0.0881769880652427,0,0,0
2047,67980.40519589903,2010-09-01 08:22:52,6003.01863689079,2,6,0.5501165986061096,4.157238960266113,6.355427068500517,5.472803767048848,25.205775519592404,20.10682137589164,6.47544875391759e-05,0.0881769880652427,0,0,0
2048,68010.42048725055,2010-09-01 08:23:22,6033.033928222261,2,6,0.5501165986061096,4.1609625816345215,6.360013763577238,5.472803767048848,25.22485217612062,20.10682137589164,9.71794142969884e-05,0.0881769880652427,0,0,0
2049,68040.43563785129,2010-09-01 08:23:52,6063.04907882299,2,6,0.5501165986061096,4.164361953735352,6.364600433286389,5.472803767048848,25.24394496059292,20.10682137589164,9.70840483205393e-05,0.0881769880652427,0,0,0
2050,68070.45069922964,2010-09-01 08:24:22,6093.064140196336,2,6,0.5499359965324402,4.167923450469971,6.369187136500425,5.472803767048848,25.26305418552801,20.10682137589164,9.70840483205393e-05,0.0881769880652427,0,0,0
2051,68100.46586241674,2010-09-01 08:24:52,6123.0793033834325,2,6,0.5501165986061096,4.171647071838379,6.373773799635959,5.472803767048848,25.28217976704447,20.10682137589164,6.47544875391759e-05,0.0881769880652427,0,0,0
2052,68130.4810238244,2010-09-01 08:25:22,6153.094464796107,2,6,0.5501165986061096,4.175208568572998,6.378360484366975,5.472803767048848,25.301322072197483,20.10682137589164,9.71794142969884e-05,0.0881769880652427,0,0,0
2053,68160.49620186351,2010-09-01 08:25:52,6183.109642825196,2,6,0.5501165986061096,4.179093837738037,6.382947145172912,5.472803767048848,25.32048098494227,20.10682137589164,0.0001295089750783,0.0881769880652427,0,0,0
2054,68190.51142976189,2010-09-01 08:26:22,6213.124870723573,2,6,0.5501165986061096,4.182655334472656,6.387533776632687,5.472803767048848,25.33965666816878,20.10682137589164,9.71794142969884e-05,0.0881769880652427,0,0,0
2055,68220.52654164111,2010-09-01 08:26:52,6243.139982607807,2,6,0.5501165986061096,4.186378479003906,6.392120508067187,5.472803767048848,25.35884976123397,20.10682137589164,9.70840483205393e-05,0.0881769880652427,0,0,0
2056,68250.54171786069,2010-09-01 08:27:22,6273.155158847436,2,6,0.5501165986061096,4.1901021003723145,6.396707188457274,5.472803767048848,25.378059768030383,20.10682137589164,0.0001295089750783,0.0881769880652427,0,0,0
2057,68280.55688746378,2010-09-01 08:27:52,6303.170328430473,2,6,0.5499359965324402,4.1938252449035645,6.40129388916866,5.472803767048848,25.39728712704013,20.10682137589164,6.47544875391759e-05,0.0881769880652427,0,0,0
2058,68310.57206817454,2010-09-01 08:28:22,6333.185509141244,2,6,0.5501165986061096,4.197548389434815,6.405880526687066,5.472803767048848,25.41653156617392,20.10682137589164,9.70840483205393e-05,0.0881769880652427,0,0,0
2059,68328.38430920489,2010-09-01 08:28:40,6350.997750166569,2,6,0.550297200679779,4.200138568878174,6.408602451418948,5.472803767048848,25.427960391920145,20.10682137589164,0.0001295089750783,0.0881769880652427,0,0,0
2060,68358.40347589436,2010-09-01 08:29:10,30.01517433989327,3,6,0.0,4.122595310211182,6.408602451418948,5.472803767048848,25.427960391920145,20.10682137589164,-0.0003561973571777,0.0881769880652427,0,0,0
2061,68388.4186925397,2010-09-01 08:29:40,60.0303909902372,3,6,0.0,4.112558841705322,6.408602451418948,5.472803767048848,25.427960391920145,20.10682137589164,-0.0002590179501567,0.0881769880652427,0,0,0
2062,68418.43382255913,2010-09-01 08:30:10,90.04552102972023,3,6,0.0,4.107216358184815,6.408602451418948,5.472803767048848,25.427960391920145,20.10682137589164,-0.0001295089750783,0.0881769880652427,0,0,0
2063,68448.40210694984,2010-09-01 08:30:40,120.01380542043246,3,6,0.0,4.103654861450195,6.408602451418948,5.472803767048848,25.427960391920145,20.10682137589164,-9.71794142969884e-05,0.0881769880652427,0,0,0
2064,68478.41280765917,2010-09-01 08:31:11,30.01494684290077,5,6,0.0,4.101388454437256,6.408602451419065,5.472803767048848,25.427960391920625,20.10682137589164,-3.24249267578125e-05,0.0881769880652427,0,0,0
2065,68508.41235108703,2010-09-01 08:31:41,60.01449027576421,5,6,0.0,4.099445819854736,6.408602451419065,5.472803767048848,25.427960391920625,20.10682137589164,-3.24249267578125e-05,0.0881769880652427,0,0,0
2066,68508.5987033041,2010-09-01 08:31:41,0.187419512091675,6,6,-1.9243103452026844e-05,4.099445819854736,6.408602451419065,5.472803768050663,25.427960391920625,20.106821379998525,0.0,0.090522177517414,0,0,0
2067,68513.42691251705,2010-09-01 08:31:46,5.015628745103181,6,6,0.0007031940040178,4.0992841720581055,6.408603432367475,5.472803768135483,25.427964413210645,20.106821380346243,-3.23295607813634e-05,0.090522177517414,0,0,0
2068,68543.44091645839,2010-09-01 08:32:16,30.01516587880564,7,6,-1.0993878841400146,3.9451687335968018,6.408603432367475,5.481971680526093,25.427964413210645,20.14315470603295,-0.0007446765666827,0.090522177517414,0,0,0
2069,68573.45606444261,2010-09-01 08:32:46,60.03031380787501,7,6,-1.099568486213684,3.922990322113037,6.408603432367475,5.491139634828825,25.427964413210645,20.17921363367563,-0.0004532813909463,0.090522177517414,0,0,0
2070,68603.47125537385,2010-09-01 08:33:16,90.04550474914402,7,6,-1.0997490882873535,3.90793514251709,6.408603432367475,5.500307589433692,25.427964413210645,20.215107020373964,-0.0003561496851034,0.090522177517414,0,0,0
2071,68633.48641551836,2010-09-01 08:33:46,120.06066487862056,7,6,-1.099568486213684,3.8962793350219727,6.408603432367475,5.509475495631249,25.427964413210645,20.25087905671239,-0.0002913951757363,0.090522177517414,0,0,0
2072,68663.5015892768,2010-09-01 08:34:16,150.07583864207717,7,6,-1.099568486213684,3.886242389678955,6.408603432367475,5.518643293881095,25.427964413210645,20.28655193702843,-0.0002590179501567,0.090522177517414,0,0,0
2073,68693.5167704337,2010-09-01 08:34:46,180.09101979896047,7,6,-1.0997490882873535,3.8770148754119873,6.408603432367475,5.527811110727923,25.427964413210645,20.32213777373444,-0.0002590179501567,0.090522177517414,0,0,0
2074,68723.5319311396,2010-09-01 08:35:16,210.1061804998612,7,6,-1.099568486213684,3.8687586784362793,6.408603432367475,5.536979005040993,25.427964413210645,20.35764385294696,-0.0002266406954731,0.090522177517414,0,0,0
2075,68753.54711252706,2010-09-01 08:35:46,240.12136188731915,7,6,-1.0993878841400146,3.860826253890991,6.408603432367475,5.546146824526108,25.427964413210645,20.39307445206865,-0.0001942634553415,0.090522177517414,0,0,0
2076,68783.56228025549,2010-09-01 08:36:16,270.13652965082207,7,6,-1.099568486213684,3.853055715560913,6.408603432367475,5.555314701067753,25.427964413210645,20.42843341402436,-0.0001618862152099,0.090522177517414,0,0,0
2077,68813.577518244,2010-09-01 08:36:46,300.1517676243098,7,6,-1.099568486213684,3.845608949661255,6.408603432367475,5.564482544869887,25.427964413210645,20.46372328929369,-0.0001942634553415,0.090522177517414,0,0,0
2078,68843.59262832876,2010-09-01 08:37:16,330.16687768900954,7,6,-1.0993878841400146,3.8386478424072266,6.408603432367475,5.573650395354608,25.427964413210645,20.498946301339497,-0.0001618862152099,0.090522177517414,0,0,0
2079,68873.60779540554,2010-09-01 08:37:46,360.1820447658009,7,6,-1.099568486213684,3.831525087356568,6.408603432367475,5.582818367362219,25.427964413210645,20.53410497677016,-0.0001618862152099,0.090522177517414,0,0,0
2080,68903.62295130448,2010-09-01 08:38:16,390.19720066974617,7,6,-1.099568486213684,3.824725866317749,6.408603432367475,5.591986275898475,25.427964413210645,20.56920042741686,-0.0001618862152099,0.090522177517414,0,0,0
2081,68933.63812489249,2010-09-01 08:38:46,420.212374262778,7,6,-1.099568486213684,3.8180885314941406,6.408603432367475,5.601154162569616,25.427964413210645,20.60423409692803,-0.0001618862152099,0.090522177517414,0,0,0
2082,68963.65336783337,2010-09-01 08:39:16,450.2276171986334,7,6,-1.099568486213684,3.811451196670532,6.408603432367475,5.610322045325843,25.427964413210645,20.63920722958478,-0.0001618862152099,0.090522177517414,0,0,0
2083,68993.67109613853,2010-09-01 08:39:46,480.2453454987816,7,6,-1.099568486213684,3.805137634277344,6.408603432367475,5.619490649780183,25.427964413210645,20.674123389591227,-0.0001295089750783,0.090522177517414,0,0,0
2084,69023.68366667393,2010-09-01 08:40:16,510.2579160341929,7,6,-1.0997490882873535,3.798662185668945,6.408603432367475,5.628657732703022,25.427964413210645,20.708975507143013,-0.0001618862152099,0.090522177517414,0,0,0
2085,69053.69880274846,2010-09-01 08:40:46,540.2730521087171,7,6,-1.099568486213684,3.792348623275757,6.408603432367475,5.637825649209917,25.427964413210645,20.743773619780296,-0.0001942634553415,0.090522177517414,0,0,0
2086,69083.7141065109,2010-09-01 08:41:16,570.2883558811963,7,6,-1.0993878841400146,3.786682605743408,6.408603432367475,5.646993528095708,25.427964413210645,20.77851551548329,-0.0001295089750783,0.090522177517414,0,0,0
2087,69113.72915945324,2010-09-01 08:41:46,600.3034088185169,7,6,-1.099568486213684,3.7805309295654297,6.408603432367475,5.65616138419004,25.427964413210645,20.81320230689853,-0.0001295089750783,0.090522177517414,0,0,0
2088,69143.74430928705,2010-09-01 08:42:16,630.3185586523335,7,6,-1.0997490882873535,3.774703025817871,6.408603432367475,5.66532926621487,25.427964413210645,20.84783558173904,-0.0001618862152099,0.090522177517414,0,0,0
2089,69173.75960649818,2010-09-01 08:42:46,660.3338558684721,7,6,-1.0993878841400146,3.7690370082855225,6.408603432367475,5.674497231166969,25.427964413210645,20.88241605435049,-0.0001618862152099,0.090522177517414,0,0,0
2090,69203.77465528516,2010-09-01 08:43:16,690.348904645424,7,6,-1.0997490882873535,3.763370990753174,6.408603432367475,5.683665169451706,25.427964413210645,20.91694474361351,-0.0001942634553415,0.090522177517414,0,0,0
2091,69233.789979263,2010-09-01 08:43:46,720.3642286282736,7,6,-1.099929690361023,3.757866859436035,6.408603432367475,5.692833197285619,25.427964413210645,20.951422862682147,-0.0001295089750783,0.090522177517414,0,0,0
2092,69263.80498890743,2010-09-01 08:44:16,750.379238272695,7,6,-1.099568486213684,3.7525248527526855,6.408603432367475,5.702001058924321,25.427964413210645,20.98585020585326,-0.0001294612884521,0.090522177517414,0,0,0
2093,69293.820301948,2010-09-01 08:44:46,780.3945513182855,7,6,-1.099568486213684,3.747020721435547,6.408603432367475,5.711168998895217,25.427964413210645,21.02022855962661,-0.0001942634553415,0.090522177517414,0,0,0
2094,69323.83548795697,2010-09-01 08:45:16,810.4097373222494,7,6,-1.099568486213684,3.742002248764038,6.408603432367475,5.720336958690748,25.427964413210645,21.054558643203805,-0.0001618862152099,0.090522177517414,0,0,0
2095,69353.85064391606,2010-09-01 08:45:46,840.4248932763195,7,6,-1.099568486213684,3.7368218898773193,6.408603432367475,5.729504906591123,25.427964413210645,21.08884128527477,-0.0001618862152099,0.090522177517414,0,0,0
2096,69383.86567846755,2010-09-01 08:46:16,870.4399278278171,7,6,-1.099568486213684,3.7318034172058105,6.408603432367475,5.738672812679094,25.427964413210645,21.1230769036656,-9.713172767078504e-05,0.090522177517414,0,0,0
2097,69413.88097436039,2010-09-01 08:46:46,900.4552237306825,7,6,-1.099568486213684,3.7267849445343018,6.408603432367475,5.747840730865812,25.427964413210645,21.157266756277487,-0.0001618862152099,0.090522177517414,0,0,0
2098,69443.89603310719,2010-09-01 08:47:16,930.4702824925198,7,6,-1.0997490882873535,3.721928358078003,6.408603432367475,5.757008556442432,25.427964413210645,21.19141155720722,-0.0001295089750783,0.090522177517414,0,0,0
2099,69473.91137434305,2010-09-01 08:47:46,960.4856237233566,7,6,-1.099568486213684,3.717233657836914,6.408603432367475,5.766176495324296,25.427964413210645,21.22551225888932,-0.0001295089750783,0.090522177517414,0,0,0
2100,69503.9263668297,2010-09-01 08:48:16,990.5006161949782,7,6,-1.099568486213684,3.7123770713806152,6.408603432367475,5.775344324200843,25.427964413210645,21.259568945510715,-0.0001618862152099,0.090522177517414,0,0,0
2101,69533.94152593664,2010-09-01 08:48:46,1020.5157753019064,7,6,-1.099568486213684,3.7076823711395264,6.408603432367475,5.784512239448127,25.427964413210645,21.293582764433197,-0.0001295089750783,0.090522177517414,0,0,0
2102,69563.95672175506,2010-09-01 08:49:16,1050.5309711203308,7,6,-1.0993878841400146,3.7033114433288574,6.408603432367475,5.793680096218838,25.427964413210645,21.32755428552061,-9.713172767078504e-05,0.090522177517414,0,0,0
2103,69593.97188376423,2010-09-01 08:49:46,1080.5461331345043,7,6,-1.099568486213684,3.698616743087769,6.408603432367475,5.802848027127296,25.427964413210645,21.36148470540905,-0.0001295089750783,0.090522177517414,0,0,0
2104,69623.98717001804,2010-09-01 08:50:16,1110.5614193833092,7,6,-1.0997490882873535,3.6942458152771,6.408603432367475,5.812015997861099,25.427964413210645,21.39537446906628,-0.0001295089750783,0.090522177517414,0,0,0
2105,69654.00224233365,2010-09-01 08:50:46,1140.576491713964,7,6,-1.0993878841400146,3.6900367736816406,6.408603432367475,5.82118387196133,25.427964413210645,21.429223650456827,-9.713172767078504e-05,0.090522177517414,0,0,0
2106,69684.01745159057,2010-09-01 08:51:16,1170.591700955844,7,6,-1.099568486213684,3.6858277320861816,6.408603432367475,5.830351820864085,25.427964413210645,21.463033645617767,-6.47544875391759e-05,0.090522177517414,0,0,0
2107,69714.03257946466,2010-09-01 08:51:46,1200.6068288249176,7,6,-1.099568486213684,3.681618690490722,6.408603432367475,5.839519704744296,25.427964413210645,21.49680458660887,-9.713172767078504e-05,0.090522177517414,0,0,0
2108,69744.04784382391,2010-09-01 08:52:17,1230.6220931941916,7,6,-1.099568486213684,3.6775715351104736,6.408603432367475,5.848687646935947,25.427964413210645,21.53053762022119,-9.713172767078504e-05,0.090522177517414,0,0,0
2109,69774.0631132959,2010-09-01 08:52:47,1260.6373626661834,7,6,-1.099568486213684,3.673362493515015,6.408603432367475,5.85785565190048,25.427964413210645,21.56423392688881,-0.0001295089750783,0.090522177517414,0,0,0
2110,69804.07821684938,2010-09-01 08:53:17,1290.6524662096303,7,6,-1.0997490882873535,3.6694774627685542,6.408603432367475,5.867023557894164,25.427964413210645,21.59789339209876,-9.713172767078504e-05,0.090522177517414,0,0,0
2111,69834.09325985693,2010-09-01 08:53:47,1320.6675092121902,7,6,-1.0997490882873535,3.665592193603516,6.408603432367475,5.876191406878021,25.427964413210645,21.63151696309096,-9.713172767078504e-05,0.090522177517414,0,0,0
2112,69864.10842606658,2010-09-01 08:54:17,1350.6826754268332,7,6,-1.0997490882873535,3.6618688106536874,6.408603432367475,5.88535927316188,25.427964413210645,21.665105825942945,-0.0001295089750783,0.090522177517414,0,0,0
2113,69894.12357834147,2010-09-01 08:54:47,1380.6978277318085,7,6,-1.0993878841400146,3.6581454277038574,6.408603432367475,5.894527151058793,25.427964413210645,21.69866066842584,-0.0001295089750783,0.090522177517414,0,0,0
2114,69924.13874421026,2010-09-01 08:55:17,1410.7129936005892,7,6,-1.099568486213684,3.654422044754028,6.408603432367475,5.903694993743462,25.427964413210645,21.732182175846475,-0.0001295089750783,0.090522177517414,0,0,0
2115,69954.15413936549,2010-09-01 08:55:47,1440.7283887307597,7,6,-1.099568486213684,3.651022434234619,6.408603432367475,5.912862944360366,25.427964413210645,21.76567134599096,-0.0001295089750783,0.090522177517414,0,0,0
2116,69984.16909027853,2010-09-01 08:56:17,1470.743339638792,7,6,-1.0997490882873535,3.64762282371521,6.408603432367475,5.922030745895893,25.427964413210645,21.79912815157904,-9.713172767078504e-05,0.090522177517414,0,0,0
2117,70014.18425736534,2010-09-01 08:56:47,1500.758506730621,7,6,-1.0993878841400146,3.6443850994110103,6.408603432367475,5.931198537575225,25.427964413210645,21.832553391126343,-6.47544875391759e-05,0.090522177517414,0,0,0
2118,70044.1995604461,2010-09-01 08:57:17,1530.7738098163886,7,6,-1.0997490882873535,3.6409854888916016,6.408603432367475,5.940366382718285,25.427964413210645,21.86594877788467,-0.0001295089750783,0.090522177517414,0,0,0
2119,70074.21463970904,2010-09-01 08:57:47,1560.7888890692957,7,6,-1.0997490882873535,3.637585878372192,6.408603432367475,5.949534223953633,25.427964413210645,21.899314402790708,-0.0001295089750783,0.090522177517414,0,0,0
2120,70104.22976606936,2010-09-01 08:58:17,1590.8040154346215,7,6,-1.099568486213684,3.634671926498413,6.408603432367475,5.958701981647155,25.427964413210645,21.93265066651443,-9.713172767078504e-05,0.090522177517414,0,0,0
2121,70134.24493704586,2010-09-01 08:58:47,1620.81918640612,7,6,-1.099568486213684,3.631757974624634,6.408603432367475,5.967869866020903,25.427964413210645,21.96595913480021,-9.713172767078504e-05,0.090522177517414,0,0,0
2122,70164.26010386701,2010-09-01 08:59:17,1650.8343532322867,7,6,-1.099568486213684,3.628682136535645,6.408603432367475,5.977037752986255,25.427964413210645,21.999240141558847,-6.47544875391759e-05,0.090522177517414,0,0,0
2123,70194.27534131419,2010-09-01 08:59:47,1680.8495906744502,7,6,-1.099568486213684,3.625768184661865,6.408603432367475,5.986205711864461,25.427964413210645,22.0324942845846,-6.47544875391759e-05,0.090522177517414,0,0,0
2124,70224.29044503307,2010-09-01 09:00:17,1710.8646944183963,7,6,-1.099568486213684,3.622854232788086,6.408603432367475,5.995373530152138,25.427964413210645,22.06572152872847,-9.713172767078504e-05,0.090522177517414,0,0,0
2125,70254.30562284662,2010-09-01 09:00:47,1740.879872206885,7,6,-1.099568486213684,3.619940280914306,6.408603432367475,6.004541424223122,25.427964413210645,22.098922720931643,-9.713172767078504e-05,0.090522177517414,0,0,0
2126,70284.32081050471,2010-09-01 09:01:17,1770.895059895046,7,6,-1.099568486213684,3.6173501014709473,6.408603432367475,6.013709367078054,25.427964413210645,22.132098172440244,-6.47544875391759e-05,0.090522177517414,0,0,0
2127,70314.33598756137,2010-09-01 09:01:47,1800.9102369216355,7,6,-1.099568486213684,3.614598035812378,6.408603432367475,6.022877273947771,25.427964413210645,22.165248309604863,-6.47544875391759e-05,0.090522177517414,0,0,0
2128,70344.35112353064,2010-09-01 09:02:17,1830.9253729009224,7,6,-1.099568486213684,3.6118459701538086,6.408603432367475,6.032045161823131,25.427964413210645,22.19837372297167,-9.713172767078504e-05,0.090522177517414,0,0,0
2129,70374.36646201463,2010-09-01 09:02:47,1860.940711384913,7,6,-1.099568486213684,3.6090939044952393,6.408603432367475,6.041213169976548,25.427964413210645,22.23147492814937,-9.713172767078504e-05,0.090522177517414,0,0,0
2130,70404.3814656591,2010-09-01 09:03:17,1890.9557150243684,7,6,-1.0997490882873535,3.60634183883667,6.408603432367475,6.050381046097869,25.427964413210645,22.26455057606498,-6.47544875391759e-05,0.090522177517414,0,0,0
2131,70434.39677975731,2010-09-01 09:03:47,1920.9710291225824,7,6,-1.099568486213684,3.6035897731781006,6.408603432367475,6.05954899259011,25.427964413210645,22.297601249913345,-9.713172767078504e-05,0.090522177517414,0,0,0
2132,70464.41195803702,2010-09-01 09:04:17,1950.9862074223447,7,6,-1.0993878841400146,3.601161479949951,6.408603432367475,6.068716822589048,25.427964413210645,22.33062676484975,-3.237724376958795e-05,0.090522177517414,0,0,0
2133,70494.4270016912,2010-09-01 09:04:47,1981.0012510815416,7,6,-1.099568486213684,3.598247528076172,6.408603432367475,6.077884683879358,25.427964413210645,22.363627634679126,-6.47544875391759e-05,0.090522177517414,0,0,0
2134,70524.44227728847,2010-09-01 09:05:17,2011.0165266537367,7,6,-1.099568486213684,3.5954954624176025,6.408603432367475,6.087052617180283,25.427964413210645,22.396603746671165,-6.47544875391759e-05,0.090522177517414,0,0,0
2135,70554.45734558908,2010-09-01 09:05:47,2041.0315949593603,7,6,-1.0997490882873535,3.592743396759033,6.408603432367475,6.096220442959003,25.427964413210645,22.429554646235548,-9.713172767078504e-05,0.090522177517414,0,0,0
2136,70584.47261461495,2010-09-01 09:06:17,2071.0468639802275,7,6,-1.099568486213684,3.589991569519043,6.408603432367475,6.105388398253184,25.427964413210645,22.46248069683463,-6.47544875391759e-05,0.090522177517414,0,0,0
2137,70614.48777202265,2010-09-01 09:06:47,2101.0620214380456,7,6,-1.099568486213684,3.5872395038604736,6.408603432367475,6.114556262227027,25.427964413210645,22.49538111093618,-9.713172767078504e-05,0.090522177517414,0,0,0
2138,70644.50284280945,2010-09-01 09:07:17,2131.077092169715,7,6,-1.0993878841400146,3.5843255519866943,6.408603432367475,6.123724150125602,25.427964413210645,22.52825569101704,-9.713172767078504e-05,0.090522177517414,0,0,0
2139,70674.51804812154,2010-09-01 09:07:47,2161.092297486813,7,6,-1.099568486213684,3.581573486328125,6.408603432367475,6.132892092284982,25.427964413210645,22.56110431468986,-6.47544875391759e-05,0.090522177517414,0,0,0
2140,70704.53332204462,2010-09-01 09:08:17,2191.107571414911,7,6,-1.099568486213684,3.578497648239136,6.408603432367475,6.142059976436047,25.427964413210645,22.59392602682013,-0.0001295089750783,0.090522177517414,0,0,0
2141,70734.54835127285,2010-09-01 09:08:47,2221.122600633116,7,6,-1.099568486213684,3.5755836963653564,6.408603432367475,6.151227880707523,25.427964413210645,22.626720618803777,-9.713172767078504e-05,0.090522177517414,0,0,0
2142,70764.56366840865,2010-09-01 09:09:17,2251.1379177789254,7,6,-1.0997490882873535,3.572507858276367,6.408603432367475,6.160395842784495,25.427964413210645,22.659487428181183,-6.47544875391759e-05,0.090522177517414,0,0,0
2143,70794.57870610297,2010-09-01 09:09:47,2281.152955468244,7,6,-1.099568486213684,3.569270133972168,6.408603432367475,6.169563717741762,25.427964413210645,22.69222527211446,-9.713172767078504e-05,0.090522177517414,0,0,0
2144,70824.59385554581,2010-09-01 09:10:17,2311.168104921111,7,6,-1.099568486213684,3.565870523452759,6.408603432367475,6.178731688935885,25.427964413210645,22.724933392763685,-0.0001295089750783,0.090522177517414,0,0,0
2145,70854.60917943342,2010-09-01 09:10:47,2341.1834288037107,7,6,-1.099568486213684,3.562794685363769,6.408603432367475,6.187899637574645,25.427964413210645,22.75761054586825,-3.237724376958795e-05,0.090522177517414,0,0,0
2146,70884.62419680711,2010-09-01 09:11:17,2371.198446177396,7,6,-1.099568486213684,3.5590713024139404,6.408603432367475,6.197067556949513,25.427964413210645,22.790256460092788,-9.713172767078504e-05,0.090522177517414,0,0,0
2147,70914.64237489826,2010-09-01 09:11:47,2401.2166242886115,7,6,-1.0997490882873535,3.5553479194641118,6.408603432367475,6.206236425713182,25.427964413210645,22.822872608885465,-9.713172767078504e-05,0.090522177517414,0,0,0
2148,70944.65468028285,2010-09-01 09:12:17,2431.228929653136,7,6,-1.099568486213684,3.5516245365142822,6.408603432367475,6.215403491683993,25.427964413210645,22.855448143680075,-0.0001295089750783,0.090522177517414,0,0,0
2149,70974.66970972161,2010-09-01 09:12:47,2461.2439590818653,7,6,-1.099568486213684,3.547739267349243,6.408603432367475,6.224571366647593,25.427964413210645,22.88799092169727,-6.47544875391759e-05,0.090522177517414,0,0,0
2150,71004.68511595947,2010-09-01 09:13:17,2491.25936531972,7,6,-1.099568486213684,3.543368339538574,6.408603432367475,6.233739324205276,25.427964413210645,22.92049649098957,-9.713172767078504e-05,0.090522177517414,0,0,0
2151,71034.70006233119,2010-09-01 09:13:47,2521.274311701472,7,6,-1.0993878841400146,3.539321184158325,6.408603432367475,6.242907147565919,25.427964413210645,22.95296310492069,-9.713172767078504e-05,0.090522177517414,0,0,0
2152,71064.71534290085,2010-09-01 09:14:17,2551.289592271122,7,6,-1.0997490882873535,3.5346264839172363,6.408603432367475,6.252075087459533,25.427964413210645,22.98539019827752,-0.0001618862152099,0.090522177517414,0,0,0
2153,71094.7303899184,2010-09-01 09:14:47,2581.304639278664,7,6,-1.0993878841400146,3.5302555561065674,6.408603432367475,6.261242979591157,25.427964413210645,23.017775512966505,-9.713172767078504e-05,0.090522177517414,0,0,0
2154,71124.74561672406,2010-09-01 09:15:17,2611.3198661093807,7,6,-1.099568486213684,3.5255608558654785,6.408603432367475,6.270410897305831,25.427964413210645,23.05011928129239,-0.0001618862152099,0.090522177517414,0,0,0
2155,71154.76073614207,2010-09-01 09:15:47,2641.3349855073416,7,6,-1.0997490882873535,3.5210280418396,6.408603432367475,6.279578828531461,25.427964413210645,23.08242109620538,-0.0001295089750783,0.090522177517414,0,0,0
2156,71184.77589813118,2010-09-01 09:16:17,2671.3501474964523,7,6,-1.0993878841400146,3.5163333415985107,6.408603432367475,6.288746841205211,25.427964413210645,23.11468035408496,-0.0001295089750783,0.090522177517414,0,0,0
2157,71214.7910667017,2010-09-01 09:16:47,2701.365316066967,7,6,-1.099568486213684,3.511315107345581,6.408603432367475,6.297914824364445,25.427964413210645,23.146894751461545,-0.0001294612884521,0.090522177517414,0,0,0
2158,71244.80624802399,2010-09-01 09:17:17,2731.3804973842502,7,6,-1.099568486213684,3.5059728622436523,6.408603432367475,6.307082754474742,25.427964413210645,23.17906166646505,-0.0001295089750783,0.090522177517414,0,0,0
2159,71274.82142356187,2010-09-01 09:17:47,2761.3956729271417,7,6,-1.099568486213684,3.500306844711304,6.408603432367475,6.316250817158673,25.427964413210645,23.211178135872217,-9.713172767078504e-05,0.090522177517414,0,0,0
2160,71304.83658883917,2010-09-01 09:18:17,2791.410838199436,7,6,-1.099568486213684,3.4938313961029053,6.408603432367475,6.325418826005559,25.427964413210645,23.24323904112841,-0.0001618862152099,0.090522177517414,0,0,0
2161,71334.85178478292,2010-09-01 09:18:47,2821.42603417826,7,6,-1.0997490882873535,3.486708402633667,6.408603432367475,6.334586840954279,25.427964413210645,23.27523849329492,-0.0002266406954731,0.090522177517414,0,0,0
2162,71364.8669236895,2010-09-01 09:19:17,2851.44117305978,7,6,-1.0993878841400146,3.478614091873169,6.408603432367475,6.343754824285047,25.427964413210645,23.307168104884745,-0.0001942634553415,0.090522177517414,0,0,0
2163,71394.88212914193,2010-09-01 09:19:47,2881.45637850219,7,6,-1.0997490882873535,3.469386577606201,6.408603432367475,6.35292277923899,25.427964413210645,23.339018311551147,-0.0002590179501567,0.090522177517414,0,0,0
2164,71424.89741429301,2010-09-01 09:20:17,2911.4716636783214,7,6,-1.0997490882873535,3.458702087402344,6.408603432367475,6.362090765120914,25.427964413210645,23.370777948315983,-0.0003237724304199,0.090522177517414,0,0,0
2165,71454.91244646357,2010-09-01 09:20:47,2941.4866958538973,7,6,-1.099568486213684,3.445751190185547,6.408603432367475,6.371258538999259,25.427964413210645,23.402429145945483,-0.0003561496851034,0.090522177517414,0,0,0
2166,71484.92761804658,2010-09-01 09:21:17,2971.5018674118573,7,6,-1.0997490882873535,3.42923903465271,6.408603432367475,6.380426197099708,25.427964413210645,23.43394686690584,-0.0004856109735555,0.090522177517414,0,0,0
2167,71514.94281597025,2010-09-01 09:21:47,3001.517065360591,7,6,-1.0997490882873535,3.407708168029785,6.408603432367475,6.389593907801822,25.427964413210645,23.465292898312043,-0.0006799221155233,0.090522177517414,0,0,0
2168,71544.95856523304,2010-09-01 09:22:17,3031.532814593294,7,6,-1.0993878841400146,3.3769497871398926,6.408603432367475,6.398761692005905,25.427964413210645,23.496402627097325,-0.0009713172912597,0.090522177517414,0,0,0
2169,71574.97314084071,2010-09-01 09:22:47,3061.547390200962,7,6,-1.0997490882873535,3.3319456577301025,6.408603432367475,6.407929347539882,25.427964413210645,23.52716940831646,-0.0014245987404137,0.090522177517414,0,0,0
2170,71604.98842558074,2010-09-01 09:23:17,3091.562674941007,7,6,-1.0993878841400146,3.266220092773437,6.408603432367475,6.417097364817877,25.427964413210645,23.557434493763143,-0.0020397186744958,0.090522177517414,0,0,0
2171,71635.00351870322,2010-09-01 09:23:47,3121.5777680835317,7,6,-1.0993878841400146,3.16989803314209,6.408603432367475,6.426265297508899,25.427964413210645,23.586967233724938,-0.0030434608925133,0.090522177517414,0,0,0
2172,71665.01867234653,2010-09-01 09:24:18,3151.5929217168173,7,6,-1.0997490882873535,3.016106605529785,6.408603432367475,6.43543327408938,25.427964413210645,23.61538881612328,-0.0052126883529126,0.090522177517414,0,0,0
2173,71685.23709805445,2010-09-01 09:24:38,3171.811347439773,7,6,-1.0997490882873535,2.8155300617218018,6.408603432367475,6.441608885140906,25.427964413210645,23.63347687729681,-0.0107491966336965,0.090522177517414,0,0,0
2174,71692.2213624002,2010-09-01 09:24:45,3178.79561177049,7,6,-1.099568486213684,2.699943780899048,6.408603432367475,6.443742185494767,25.427964413210645,23.63936491411104,-0.0139221670106053,0.090522177517414,0,0,0
2175,71752.23644740912,2010-09-01 09:25:45,60.014838273080606,8,6,0.0,3.30151104927063,6.408603432367475,6.443742185494767,25.427964413210645,23.63936491411104,0.0010036944877356,0.090522177517414,0,0,0
2176,71752.42489826147,2010-09-01 09:25:45,0.187434915481662,9,6,-1.9243103452026844e-05,3.30151104927063,6.408603432367475,6.443742186496664,25.427964413210645,23.639364917418817,0.0,0.0889859497547149,0,0,0
2177,71757.25291527041,2010-09-01 09:25:50,5.015451924411611,9,6,0.0008838032954372,3.3076627254486084,6.408604373024617,6.443742186663675,25.427967522273423,23.63936491797021,0.0008094310760498,0.0889859497547149,0,0,0
