Data_Point,Test_Time(s),Date_Time,Step_Time(s),Step_Index,Cycle_Index,Current(A),Voltage(V),Charge_Capacity(Ah),Discharge_Capacity(Ah),Charge_Energy(Wh),Discharge_Energy(Wh),dV/dt(V/s),Internal_Resistance(Ohm),Is_FC_Data,AC_Impedance(Ohm),ACI_Phase_Angle(Deg)
6137,206229.2560427164,2010-09-02 22:47:16,30.01521151755144,1,18,0.0,3.4337716102600098,18.1556290521891,18.16170805133995,72.16578836074618,66.53534092867586,0.000615119934082,0.086637258529663,0,0,0
6138,206259.27118270064,2010-09-02 22:47:46,60.03035147675746,1,18,0.0,3.4517409801483154,18.1556290521891,18.16170805133995,72.16578836074618,66.53534092867586,0.0004532813909463,0.086637258529663,0,0,0
6139,206289.2863373013,2010-09-02 22:48:16,90.04550608246707,1,18,0.0,3.465015649795532,18.1556290521891,18.16170805133995,72.16578836074618,66.53534092867586,0.0002913951757363,0.086637258529663,0,0,0
6140,206319.2546785237,2010-09-02 22:48:46,120.01384729980876,1,18,0.0,3.4753763675689697,18.1556290521891,18.16170805133995,72.16578836074618,66.53534092867586,0.0002913951757363,0.086637258529663,0,0,0
6141,206349.26301773515,2010-09-02 22:49:16,30.015260850504337,2,18,0.5499359965324402,3.6076369285583496,18.160215605503257,18.16170805133995,72.18220118643475,66.53534092867586,0.0013274669181555,0.086637258529663,0,0,0
6142,206379.27805665252,2010-09-02 22:49:46,60.030299757858046,2,18,0.5501165986061096,3.64843225479126,18.1648021237374,18.16170805133995,72.19884627696105,66.53534092867586,0.0009713172912597,0.086637258529663,0,0,0
6143,206409.29322979943,2010-09-02 22:50:16,90.04547290477805,2,18,0.5499359965324402,3.678704738616944,18.16938860454303,18.16170805133995,72.21565154987013,66.53534092867586,0.0007122993702068,0.086637258529663,0,0,0
6144,206439.30840828476,2010-09-02 22:50:46,120.06065139000276,2,18,0.5501165986061096,3.7033114433288574,18.17397503584809,18.16170805133995,72.23258186034793,66.53534092867586,0.0006151676061563,0.086637258529663,0,0,0
6145,206469.3235126702,2010-09-02 22:51:16,150.0757557755483,2,18,0.5501165986061096,3.7233853340148926,18.178561461913738,18.16170805133995,72.24961438579422,66.53534092867586,0.0004532813909463,0.086637258529663,0,0,0
6146,206499.33865723087,2010-09-02 22:51:46,180.09090036629755,2,18,0.550297200679779,3.739735841751098,18.1831480035392,18.16170805133995,72.26673077943305,66.53534092867586,0.0004209041653666,0.086637258529663,0,0,0
6147,206529.35389971064,2010-09-02 22:52:16,210.10614281594127,2,18,0.5501165986061096,3.751391649246216,18.187735279064796,18.16170805133995,72.28391441264573,66.53534092867586,0.0002590179501567,0.086637258529663,0,0,0
6148,206559.36918473136,2010-09-02 22:52:46,240.12142783668529,2,18,0.5504778623580933,3.758514404296875,18.192322524188747,18.16170805133995,72.30114057721084,66.53534092867586,0.0001618862152099,0.086637258529663,0,0,0
6149,206589.3841898695,2010-09-02 22:53:16,270.13643297988835,2,18,0.5504778623580933,3.762723445892334,18.19690976706447,18.16170805133995,72.31839184735888,66.53534092867586,9.713172767078504e-05,0.086637258529663,0,0,0
6150,206619.3993452472,2010-09-02 22:53:46,300.1515883775718,2,18,0.5501165986061096,3.766123056411743,18.201496992339333,18.16170805133995,72.33565995328152,66.53534092867586,9.713172767078504e-05,0.086637258529663,0,0,0
6151,206649.4146942975,2010-09-02 22:54:16,330.1669374228848,2,18,0.5501165986061096,3.769198894500733,18.206083517028183,18.16170805133995,72.35293977240053,66.53534092867586,9.713172767078504e-05,0.086637258529663,0,0,0
6152,206679.42995587984,2010-09-02 22:54:46,360.182198985163,2,18,0.5501165986061096,3.772112846374512,18.210670002531167,18.16170805133995,72.37023303102042,66.53534092867586,9.713172767078504e-05,0.086637258529663,0,0,0
6153,206709.4449457149,2010-09-02 22:55:16,390.1971888202135,2,18,0.5501165986061096,3.775026798248291,18.21525639742204,18.16170805133995,72.38753950235585,66.53534092867586,9.713172767078504e-05,0.086637258529663,0,0,0
6154,206739.4601053331,2010-09-02 22:55:46,420.21234843841575,2,18,0.5499359965324402,3.7779407501220703,18.219842820272444,18.16170805133995,72.40485961245722,66.53534092867586,9.713172767078504e-05,0.086637258529663,0,0,0
6155,206769.47524450536,2010-09-02 22:56:16,450.22748763572287,2,18,0.5499359965324402,3.78069281578064,18.22442924706817,18.16170805133995,72.4221932962134,66.53534092867586,3.237724376958795e-05,0.086637258529663,0,0,0
6156,206799.49043286016,2010-09-02 22:56:46,480.2426759654832,2,18,0.5501165986061096,3.783606767654419,18.22901569391362,18.16170805133995,72.4395404802202,66.53534092867586,6.47544875391759e-05,0.086637258529663,0,0,0
6157,206829.50558576663,2010-09-02 22:57:16,510.25782887195777,2,18,0.5501165986061096,3.786682605743408,18.23360210334521,18.16170805133995,72.45690093847264,66.53534092867586,9.713172767078504e-05,0.086637258529663,0,0,0
6158,206859.52075525947,2010-09-02 22:57:46,540.2729983647706,2,18,0.550297200679779,3.7894346714019775,18.238188534154556,18.16170805133995,72.47427480503465,66.53534092867586,6.47544875391759e-05,0.086637258529663,0,0,0
6159,206889.53592976977,2010-09-02 22:58:16,570.2881729001512,2,18,0.5501165986061096,3.792510509490967,18.24277500369696,18.16170805133995,72.49166204953636,66.53534092867586,6.47544875391759e-05,0.086637258529663,0,0,0
6160,206919.5511807958,2010-09-02 22:58:46,600.3034239311824,2,18,0.550297200679779,3.795262575149536,18.247361364994205,18.16170805133995,72.5090620436986,66.53534092867586,6.47544875391759e-05,0.086637258529663,0,0,0
6161,206949.5663125646,2010-09-02 22:59:16,630.3185556699004,2,18,0.5501165986061096,3.798338413238525,18.251947796556205,18.16170805133995,72.52647560710999,66.53534092867586,9.713172767078504e-05,0.086637258529663,0,0,0
6162,206979.58146357632,2010-09-02 22:59:46,660.3337066916777,2,18,0.5501165986061096,3.801090478897095,18.256534175543184,18.16170805133995,72.54390236249264,66.53534092867586,6.47544875391759e-05,0.086637258529663,0,0,0
6163,207009.59672662232,2010-09-02 23:00:16,690.3489697476789,2,18,0.5501165986061096,3.804004430770874,18.261120480065365,18.16170805133995,72.56134237402813,66.53534092867586,3.237724376958795e-05,0.086637258529663,0,0,0
6164,207039.61178206583,2010-09-02 23:00:46,720.3640251962584,2,18,0.5501165986061096,3.807242155075073,18.265706696612988,18.16170805133995,72.57879588773626,66.53534092867586,9.713172767078504e-05,0.086637258529663,0,0,0
6165,207069.6270633874,2010-09-02 23:01:16,750.3793064977328,2,18,0.550297200679779,3.810479879379273,18.270293042057208,18.16170805133995,72.59626416409759,66.53534092867586,9.713172767078504e-05,0.086637258529663,0,0,0
6166,207099.64211011925,2010-09-02 23:01:46,780.3943532245751,2,18,0.5501165986061096,3.813717603683472,18.274879405932587,18.16170805133995,72.61374724822855,66.53534092867586,9.713172767078504e-05,0.086637258529663,0,0,0
6167,207129.65728266467,2010-09-02 23:02:16,810.409525769996,2,18,0.5501165986061096,3.816955327987671,18.27946578316869,18.16170805133995,72.6312458046953,66.53534092867586,9.713172767078504e-05,0.086637258529663,0,0,0
6168,207159.6724775508,2010-09-02 23:02:46,840.4247206811592,2,18,0.550297200679779,3.82051682472229,18.284052242170635,18.16170805133995,72.64876021668456,66.53534092867586,0.0001295089750783,0.086637258529663,0,0,0
6169,207189.68761878816,2010-09-02 23:03:16,870.4398618934885,2,18,0.5501165986061096,3.823916435241699,18.288638624609906,18.16170805133995,72.66629014154478,66.53534092867586,9.713172767078504e-05,0.086637258529663,0,0,0
6170,207219.70278975967,2010-09-02 23:03:46,900.4550328950615,2,18,0.550297200679779,3.8274779319763184,18.29322505268024,18.16170805133995,72.68383625025459,66.53534092867586,0.0001295089750783,0.086637258529663,0,0,0
6171,207249.71796110712,2010-09-02 23:04:16,930.4702042174342,2,18,0.5499359965324402,3.830877542495728,18.29781145629361,18.16170805133995,72.70139822787793,66.53534092867586,9.713172767078504e-05,0.086637258529663,0,0,0
6172,207279.73593103443,2010-09-02 23:04:46,960.488174169854,2,18,0.5501165986061096,3.8342769145965576,18.30239829777865,18.16170805133995,72.71897775635297,66.53534092867586,6.47544875391759e-05,0.086637258529663,0,0,0
6173,207309.7484930737,2010-09-02 23:05:17,990.5007361790152,2,18,0.5499359965324402,3.837676525115967,18.306984282355387,18.16170805133995,72.73656966941742,66.53534092867586,6.47544875391759e-05,0.086637258529663,0,0,0
6174,207339.7637713276,2010-09-02 23:05:47,1020.5160145181068,2,18,0.5501165986061096,3.841076135635376,18.31157070526174,18.16170805133995,72.75417862353295,66.53534092867586,0.0001295089750783,0.086637258529663,0,0,0
6175,207369.7789359232,2010-09-02 23:06:17,1050.5311790535643,2,18,0.5501165986061096,3.844313859939575,18.316157120553385,18.16170805133995,72.77180260125007,66.53534092867586,9.713172767078504e-05,0.086637258529663,0,0,0
6176,207399.79389181864,2010-09-02 23:06:47,1080.5461349289767,2,18,0.5501165986061096,3.8475515842437744,18.320743452488493,18.16170805133995,72.78944104377905,66.53534092867586,9.713172767078504e-05,0.086637258529663,0,0,0
6177,207429.80919769136,2010-09-02 23:07:17,1110.5614407866533,2,18,0.5499359965324402,3.850627422332764,18.32532984245229,18.16170805133995,72.80709425153223,66.53534092867586,9.713172767078504e-05,0.086637258529663,0,0,0
6178,207459.8241505242,2010-09-02 23:07:47,1140.5763936345195,2,18,0.5501165986061096,3.853703260421753,18.329916206806143,18.16170805133995,72.82476171888625,66.53534092867586,6.47544875391759e-05,0.086637258529663,0,0,0
6179,207489.8393960716,2010-09-02 23:08:17,1170.591639201934,2,18,0.5501165986061096,3.856779098510742,18.334502624781383,18.16170805133995,72.8424433573948,66.53534092867586,0.0001295089750783,0.086637258529663,0,0,0
6180,207519.8545135447,2010-09-02 23:08:47,1200.6067566750978,2,18,0.5501165986061096,3.8596930503845215,18.33908896916776,18.16170805133995,72.86013833786538,66.53534092867586,6.47544875391759e-05,0.086637258529663,0,0,0
6181,207549.86973113733,2010-09-02 23:09:17,1230.6219742377157,2,18,0.5499359965324402,3.862283229827881,18.343675328776097,18.16170805133995,72.8778464622166,66.53534092867586,3.237724376958795e-05,0.086637258529663,0,0,0
6182,207579.88486202905,2010-09-02 23:09:47,1260.6371051593972,2,18,0.5501165986061096,3.86503529548645,18.3482616795934,18.16170805133995,72.89556696136978,66.53534092867586,6.47544875391759e-05,0.086637258529663,0,0,0
6183,207609.90032772504,2010-09-02 23:10:17,1290.6525708303773,2,18,0.5499359965324402,3.8674635887146,18.352848078027748,18.16170805133995,72.91329938987818,66.53534092867586,6.47544875391759e-05,0.086637258529663,0,0,0
6184,207639.9153805521,2010-09-02 23:10:47,1320.667623687498,2,18,0.550297200679779,3.869891881942749,18.357434436804336,18.16170805133995,72.93104270286196,66.53534092867586,6.47544875391759e-05,0.086637258529663,0,0,0
6185,207669.9305215539,2010-09-02 23:11:17,1350.6827646742652,2,18,0.550297200679779,3.872158288955689,18.362020799187395,18.16170805133995,72.94879632076052,66.53534092867586,6.47544875391759e-05,0.086637258529663,0,0,0
6186,207699.945526251,2010-09-02 23:11:47,1380.6977693563188,2,18,0.5501165986061096,3.873939037322998,18.36660723410843,18.16170805133995,72.9665597685076,66.53534092867586,6.47544875391759e-05,0.086637258529663,0,0,0
6187,207729.9607757181,2010-09-02 23:12:17,1410.713018973827,2,18,0.5499359965324402,3.875719785690308,18.37119368951971,18.16170805133995,72.98433187961952,66.53534092867586,3.237724376958795e-05,0.086637258529663,0,0,0
6188,207759.9758583144,2010-09-02 23:12:47,1440.7281014196922,2,18,0.5501165986061096,3.877500534057617,18.37578003031871,18.16170805133995,73.00211163930234,66.53534092867586,6.47544875391759e-05,0.086637258529663,0,0,0
6189,207789.99104926063,2010-09-02 23:13:17,1470.7432923910362,2,18,0.5499359965324402,3.878957509994507,18.38036640989712,18.16170805133995,73.01989889602501,66.53534092867586,6.47544875391759e-05,0.086637258529663,0,0,0
6190,207820.00618224248,2010-09-02 23:13:47,1500.75842534779,2,18,0.5501165986061096,3.880414485931397,18.38495281291408,18.16170805133995,73.03769286038133,66.53534092867586,6.47544875391759e-05,0.086637258529663,0,0,0
6191,207850.02135193572,2010-09-02 23:14:17,1530.7735950411025,2,18,0.5501165986061096,3.881547689437866,18.38953921868458,18.16170805133995,73.05549304000526,66.53534092867586,0.0,0.086637258529663,0,0,0
6192,207880.03660770864,2010-09-02 23:14:47,1560.7888508340016,2,18,0.5501165986061096,3.883004665374756,18.39412557136329,18.16170805133995,73.0732987038151,66.53534092867586,6.47544875391759e-05,0.086637258529663,0,0,0
6193,207910.051666681,2010-09-02 23:15:17,1590.8039097963383,2,18,0.5499359965324402,3.883975982666016,18.398712005613422,18.16170805133995,73.09111015275613,66.53534092867586,0.0,0.086637258529663,0,0,0
6194,207940.06684067,2010-09-02 23:15:47,1620.8190838003948,2,18,0.5501165986061096,3.885109186172485,18.40329847640671,18.16170805133995,73.10892677855392,66.53534092867586,0.0,0.086637258529663,0,0,0
6195,207970.08202594216,2010-09-02 23:16:17,1650.8342690725344,2,18,0.550297200679779,3.886404275894165,18.40788477731221,18.16170805133995,73.12674778442852,66.53534092867586,6.47544875391759e-05,0.086637258529663,0,0,0
6196,208000.09723080316,2010-09-02 23:16:47,1680.849473923471,2,18,0.5501165986061096,3.887375593185425,18.412471078673523,18.16170805133995,73.1445736504994,66.53534092867586,3.237724376958795e-05,0.086637258529663,0,0,0
6197,208030.11236326865,2010-09-02 23:17:17,1710.8646063739627,2,18,0.5499359965324402,3.888346910476685,18.417057367193166,18.16170805133995,73.16240426912258,66.53534092867586,3.237724376958795e-05,0.086637258529663,0,0,0
6198,208060.1276622592,2010-09-02 23:17:47,1740.8799053745488,2,18,0.5501165986061096,3.889318227767944,18.42164374786317,18.16170805133995,73.18023999157803,66.53534092867586,3.237724376958795e-05,0.086637258529663,0,0,0
6199,208090.14288636312,2010-09-02 23:18:17,1770.8951294985195,2,18,0.550297200679779,3.890451431274414,18.426230121949363,18.16170805133995,73.19808026266811,66.53534092867586,6.47544875391759e-05,0.086637258529663,0,0,0
6200,208120.157889757,2010-09-02 23:18:47,1800.9101328673,2,18,0.5501165986061096,3.891422748565674,18.43081648061005,18.16170805133995,73.21592518141313,66.53534092867586,3.237724376958795e-05,0.086637258529663,0,0,0
6201,208150.17317977012,2010-09-02 23:19:17,1830.9254228804868,2,18,0.550297200679779,3.8923940658569336,18.435402823310486,18.16170805133995,73.23377462816421,66.53534092867586,3.237724376958795e-05,0.086637258529663,0,0,0
6202,208180.18821753465,2010-09-02 23:19:47,1860.94046063998,2,18,0.5499359965324402,3.893365383148194,18.439989192295684,18.16170805133995,73.25162879592523,66.53534092867586,3.237724376958795e-05,0.086637258529663,0,0,0
6203,208210.20340570903,2010-09-02 23:20:17,1890.9556488243777,2,18,0.5501165986061096,3.894336700439453,18.44457563525137,18.16170805133995,73.2694879122278,66.53534092867586,3.237724376958795e-05,0.086637258529663,0,0,0
6204,208240.21858547244,2010-09-02 23:20:47,1920.970828587788,2,18,0.5501165986061096,3.895146131515503,18.449162073734687,18.16170805133995,73.28735121131845,66.53534092867586,3.237724376958795e-05,0.086637258529663,0,0,0
6205,208270.2337518074,2010-09-02 23:21:17,1950.9859949127056,2,18,0.550297200679779,3.896441221237183,18.453748430089306,18.16170805133995,73.30521878406336,66.53534092867586,6.47544875391759e-05,0.086637258529663,0,0,0
6206,208300.2489021124,2010-09-02 23:21:47,1981.001145212684,2,18,0.5499359965324402,3.897250652313232,18.458334739884517,18.16170805133995,73.32309094267846,66.53534092867586,0.0,0.086637258529663,0,0,0
6207,208330.26407958005,2010-09-02 23:22:17,2011.01632271546,2,18,0.5499359965324402,3.898383855819702,18.46292110680284,18.16170805133995,73.3409679678299,66.53534092867586,3.237724376958795e-05,0.086637258529663,0,0,0
6208,208360.2792302259,2010-09-02 23:22:47,2041.0314733613009,2,18,0.5501165986061096,3.899355173110962,18.467507403225245,18.16170805133995,73.3588495177424,66.53534092867586,0.0,0.086637258529663,0,0,0
6209,208390.29438894187,2010-09-02 23:23:17,2071.0466320772543,2,18,0.5501165986061096,3.900488376617432,18.472093644594583,18.16170805133995,73.37673557947683,66.53534092867586,3.237724376958795e-05,0.086637258529663,0,0,0
6210,208420.3095816876,2010-09-02 23:23:47,2101.061824787933,2,18,0.5501165986061096,3.9014596939086914,18.476679844671445,18.16170805133995,73.39462629317259,66.53534092867586,3.237724376958795e-05,0.086637258529663,0,0,0
6211,208450.32472358164,2010-09-02 23:24:17,2131.076966712036,2,18,0.5501165986061096,3.902592897415161,18.48126600503214,18.16170805133995,73.41252173900165,66.53534092867586,3.237724376958795e-05,0.086637258529663,0,0,0
6212,208480.33991374096,2010-09-02 23:24:47,2161.0921568462936,2,18,0.5501165986061096,3.903564214706421,18.48585221186889,18.16170805133995,73.43042223829158,66.53534092867586,3.237724376958795e-05,0.086637258529663,0,0,0
6213,208510.3550916698,2010-09-02 23:25:17,2191.1073347651068,2,18,0.5499359965324402,3.90469741821289,18.49043859322543,18.16170805133995,73.44832847393825,66.53534092867586,3.237724376958795e-05,0.086637258529663,0,0,0
6214,208540.37023542347,2010-09-02 23:25:47,2221.12247853882,2,18,0.5501165986061096,3.90583062171936,18.495025005929985,18.16170805133995,73.46623970578008,66.53534092867586,3.237724376958795e-05,0.086637258529663,0,0,0
6215,208570.3855488049,2010-09-02 23:26:17,2251.137791935285,2,18,0.5499359965324402,3.90696382522583,18.49961139760349,18.16170805133995,73.48415598675818,66.53534092867586,0.0,0.086637258529663,0,0,0
6216,208600.4008035903,2010-09-02 23:26:47,2281.153046720673,2,18,0.5501165986061096,3.9080970287323,18.504197751656925,18.16170805133995,73.5020772396488,66.53534092867586,3.237724376958795e-05,0.086637258529663,0,0,0
6217,208630.4157805633,2010-09-02 23:27:17,2311.1680236936672,2,18,0.5499359965324402,3.9092302322387695,18.508784041419258,18.16170805133995,73.52000342379183,66.53534092867586,0.0,0.086637258529663,0,0,0
6218,208660.43110602984,2010-09-02 23:27:47,2341.183349180265,2,18,0.5501165986061096,3.9103634357452393,18.51337044887926,18.16170805133995,73.5379353964522,66.53534092867586,3.237724376958795e-05,0.086637258529663,0,0,0
6219,208690.4461136442,2010-09-02 23:28:17,2371.1983567545267,2,18,0.5499359965324402,3.911496639251709,18.51795679638538,18.16170805133995,73.55587242409186,66.53534092867586,0.0,0.086637258529663,0,0,0
6220,208720.4612858237,2010-09-02 23:28:47,2401.213528929023,2,18,0.5499359965324402,3.9126298427581783,18.52254312456916,18.16170805133995,73.57381481335158,66.53534092867586,0.0,0.086637258529663,0,0,0
6221,208750.4764340385,2010-09-02 23:29:17,2431.228677148817,2,18,0.5499359965324402,3.9139246940612793,18.52712948732136,18.16170805133995,73.59176279316883,66.53534092867586,3.237724376958795e-05,0.086637258529663,0,0,0
6222,208780.49160324057,2010-09-02 23:29:47,2461.2438463458925,2,18,0.5501165986061096,3.915219783782959,18.531715843533348,18.16170805133995,73.60971638456833,66.53534092867586,3.237724376958795e-05,0.086637258529663,0,0,0
6223,208810.50677174592,2010-09-02 23:30:17,2491.2590148512445,2,18,0.5501165986061096,3.9163529872894287,18.53630217343835,18.16170805133995,73.62767529183768,66.53534092867586,3.237724376958795e-05,0.086637258529663,0,0,0
6224,208840.5219756696,2010-09-02 23:30:47,2521.274218774869,2,18,0.5499359965324402,3.917648077011109,18.540888541858976,18.16170805133995,73.64564017246302,66.53534092867586,3.237724376958795e-05,0.086637258529663,0,0,0
6225,208870.53714321752,2010-09-02 23:31:17,2551.2893863128106,2,18,0.5499359965324402,3.918781280517578,18.54547491257891,18.16170805133995,73.66361079415545,66.53534092867586,3.237724376958795e-05,0.086637258529663,0,0,0
6226,208900.5522930814,2010-09-02 23:31:47,2581.3045362117896,2,18,0.5501165986061096,3.920238256454468,18.550061234821808,18.16170805133995,73.6815870782624,66.53534092867586,3.237724376958795e-05,0.086637258529663,0,0,0
6227,208930.56745604795,2010-09-02 23:32:17,2611.3196991582868,2,18,0.5501165986061096,3.9213714599609375,18.554647561911043,18.16170805133995,73.69956920198167,66.53534092867586,3.237724376958795e-05,0.086637258529663,0,0,0
6228,208960.58278438167,2010-09-02 23:32:47,2641.335027481955,2,18,0.550297200679779,3.922828435897827,18.55923387357024,18.16170805133995,73.7175572427234,66.53534092867586,3.237724376958795e-05,0.086637258529663,0,0,0
6229,208990.5979283208,2010-09-02 23:33:17,2671.3501714461427,2,18,0.5501165986061096,3.924123525619507,18.56382020567261,18.16170805133995,73.73555139622503,66.53534092867586,6.47544875391759e-05,0.086637258529663,0,0,0
6230,209020.61296772936,2010-09-02 23:33:47,2701.365210844721,2,18,0.5501165986061096,3.9254186153411865,18.56840653578451,18.16170805133995,73.75355171842469,66.53534092867586,3.237724376958795e-05,0.086637258529663,0,0,0
6231,209050.62816854529,2010-09-02 23:34:17,2731.3804116806505,2,18,0.5499359965324402,3.926713705062866,18.57299284708221,18.16170805133995,73.77155800833921,66.53534092867586,0.0,0.086637258529663,0,0,0
6232,209080.6433411759,2010-09-02 23:34:47,2761.395584271184,2,18,0.5501165986061096,3.928170680999756,18.577579190744892,18.16170805133995,73.78957070551908,66.53534092867586,6.47544875391759e-05,0.086637258529663,0,0,0
6233,209110.6584860273,2010-09-02 23:35:17,2791.4107291225823,2,18,0.5499359965324402,3.9296276569366455,18.58216558168454,18.16170805133995,73.80758986227158,66.53534092867586,6.47544875391759e-05,0.086637258529663,0,0,0
6234,209140.6736553397,2010-09-02 23:35:47,2821.4258984449707,2,18,0.5499359965324402,3.930922746658325,18.58675194466151,18.16170805133995,73.82561531876685,66.53534092867586,3.237724376958795e-05,0.086637258529663,0,0,0
6235,209170.6888254891,2010-09-02 23:36:17,2851.441068609457,2,18,0.5501165986061096,3.932379722595215,18.591338315630736,18.16170805133995,73.84364715492504,66.53534092867586,3.237724376958795e-05,0.086637258529663,0,0,0
6236,209200.70680387755,2010-09-02 23:36:47,2881.459047007928,2,18,0.5499359965324402,3.9336748123168954,18.59592507657367,18.16170805133995,73.86168701365665,66.53534092867586,3.237724376958795e-05,0.086637258529663,0,0,0
6237,209230.7191776576,2010-09-02 23:37:18,2911.4714207929765,2,18,0.5501165986061096,3.935131788253784,18.60051103455829,18.16170805133995,73.87973021523972,66.53534092867586,0.0,0.086637258529663,0,0,0
6238,209260.7346394389,2010-09-02 23:37:48,2941.4868825441868,2,18,0.5501165986061096,3.936588764190674,18.6050974090776,18.16170805133995,73.89778155614752,66.53534092867586,6.47544875391759e-05,0.086637258529663,0,0,0
6239,209290.74964011097,2010-09-02 23:38:18,2971.5018832212595,2,18,0.5501165986061096,3.938045740127564,18.609683728042228,18.16170805133995,73.91583925086894,66.53534092867586,6.47544875391759e-05,0.086637258529663,0,0,0
6240,209320.7647398549,2010-09-02 23:38:48,3001.516982970249,2,18,0.5501165986061096,3.939502716064453,18.61427001375109,18.16170805133995,73.9339035222078,66.53534092867586,3.237724376958795e-05,0.086637258529663,0,0,0
6241,209350.78025890392,2010-09-02 23:39:18,3031.532502024276,2,18,0.5501165986061096,3.940959692001343,18.618856374366977,18.16170805133995,73.95197482360184,66.53534092867586,3.237724376958795e-05,0.086637258529663,0,0,0
6242,209380.79506491584,2010-09-02 23:39:48,3061.54730805122,2,18,0.550297200679779,3.9425785541534415,18.623443589971867,18.16170805133995,73.97005625316339,66.53534092867586,3.237724376958795e-05,0.086637258529663,0,0,0
6243,209410.8101996119,2010-09-02 23:40:18,3091.562442717234,2,18,0.5501165986061096,3.944035530090332,18.6280308131858,18.16170805133995,73.98814451811575,66.53534092867586,3.237724376958795e-05,0.086637258529663,0,0,0
6244,209440.82544307408,2010-09-02 23:40:48,3121.5776862094763,2,18,0.550297200679779,3.945654392242432,18.632617123154592,18.16170805133995,74.00623592781245,66.53534092867586,0.0001295089750783,0.086637258529663,0,0,0
6245,209470.84058044685,2010-09-02 23:41:18,3151.5928235772235,2,18,0.5501165986061096,3.9469494819641113,18.637203495277152,18.16170805133995,74.02433451020562,66.53534092867586,3.237724376958795e-05,0.086637258529663,0,0,0
6246,209500.85573068165,2010-09-02 23:41:48,3181.607973786977,2,18,0.5501165986061096,3.948406457901001,18.641789862833704,18.16170805133995,74.04243998346054,66.53534092867586,0.0,0.086637258529663,0,0,0
6247,209530.8710617672,2010-09-02 23:42:18,3211.6233048825534,2,18,0.5501165986061096,3.9500253200531006,18.64637619853785,18.16170805133995,74.06055237077763,66.53534092867586,3.237724376958795e-05,0.086637258529663,0,0,0
6248,209560.8862879864,2010-09-02 23:42:48,3241.638531091721,2,18,0.5501165986061096,3.9514822959899902,18.65096255772482,18.16170805133995,74.0786719897931,66.53534092867586,3.237724376958795e-05,0.086637258529663,0,0,0
6249,209590.90125028283,2010-09-02 23:43:18,3271.653493388136,2,18,0.5501165986061096,3.95310115814209,18.655548852578253,18.16170805133995,74.09679847176463,66.53534092867586,0.0,0.086637258529663,0,0,0
6250,209620.91650331384,2010-09-02 23:43:48,3301.6687464241645,2,18,0.5501165986061096,3.9547200202941895,18.66013517595187,18.16170805133995,74.1149323699873,66.53534092867586,6.47544875391759e-05,0.086637258529663,0,0,0
6251,209650.9316009626,2010-09-02 23:44:18,3331.683844067908,2,18,0.550297200679779,3.956500768661499,18.66472151657477,18.16170805133995,74.13307369179948,66.53534092867586,9.713172767078504e-05,0.086637258529663,0,0,0
6252,209680.94679880608,2010-09-02 23:44:48,3361.699041906367,2,18,0.550297200679779,3.958119630813599,18.66930789865141,18.16170805133995,74.15122250683106,66.53534092867586,6.47544875391759e-05,0.086637258529663,0,0,0
6253,209710.96192218392,2010-09-02 23:45:18,3391.71416528926,2,18,0.5501165986061096,3.959738492965698,18.673894257565845,18.16170805133995,74.16937878701418,66.53534092867586,6.47544875391759e-05,0.086637258529663,0,0,0
6254,209740.97708758657,2010-09-02 23:45:48,3421.729330691878,2,18,0.5499359965324402,3.961195468902588,18.67848062986056,18.16170805133995,74.18754272474601,66.53534092867586,3.237724376958795e-05,0.086637258529663,0,0,0
6255,209770.99243277224,2010-09-02 23:46:18,3451.744675917671,2,18,0.5501165986061096,3.9629762172698975,18.683067100479263,18.16170805133995,74.20571480458572,66.53534092867586,3.237724376958795e-05,0.086637258529663,0,0,0
6256,209801.00744532893,2010-09-02 23:46:48,3481.759688439264,2,18,0.5499359965324402,3.964595079421997,18.687653406822275,18.16170805133995,74.22389408106446,66.53534092867586,3.237724376958795e-05,0.086637258529663,0,0,0
6257,209831.02262176404,2010-09-02 23:47:18,3511.774864869367,2,18,0.5501165986061096,3.966375827789306,18.692239752126017,18.16170805133995,74.2420814400362,66.53534092867586,6.47544875391759e-05,0.086637258529663,0,0,0
6258,209861.0378451211,2010-09-02 23:47:48,3541.790088316651,2,18,0.5501165986061096,3.9679946899414062,18.69682613195725,18.16170805133995,74.26027701927552,66.53534092867586,0.0,0.086637258529663,0,0,0
6259,209891.05296053912,2010-09-02 23:48:18,3571.8052036695303,2,18,0.5501165986061096,3.970099210739136,18.70141248732277,18.16170805133995,74.27848066114744,66.53534092867586,6.47544875391759e-05,0.086637258529663,0,0,0
6260,209921.06812145052,2010-09-02 23:48:48,3601.820364555893,2,18,0.5499359965324402,3.9717180728912354,18.705998827102995,18.16170805133995,74.29669253374132,66.53534092867586,3.237724376958795e-05,0.086637258529663,0,0,0
6261,209951.08351895667,2010-09-02 23:49:18,3631.8357620569727,2,18,0.5501165986061096,3.973498821258545,18.710585256019485,18.16170805133995,74.31491316206093,66.53534092867586,3.237724376958795e-05,0.086637258529663,0,0,0
6262,209981.0984369677,2010-09-02 23:49:48,3661.8506800980913,2,18,0.5501165986061096,3.9756033420562735,18.715171623212125,18.16170805133995,74.33314210178635,66.53534092867586,6.47544875391759e-05,0.086637258529663,0,0,0
6263,210011.1136204704,2010-09-02 23:50:18,3691.8658635807706,2,18,0.5501165986061096,3.977545976638794,18.719758041142985,18.16170805133995,74.35137985389873,66.53534092867586,9.713172767078504e-05,0.086637258529663,0,0,0
6264,210041.128801893,2010-09-02 23:50:48,3721.881044998304,2,18,0.5499359965324402,3.9791648387908936,18.7243444324334,18.16170805133995,74.36962577217659,66.53534092867586,3.237724376958795e-05,0.086637258529663,0,0,0
6265,210071.1439557869,2010-09-02 23:51:18,3751.896198897251,2,18,0.550297200679779,3.981431245803833,18.728930715168083,18.16170805133995,74.38788050116248,66.53534092867586,9.713172767078504e-05,0.086637258529663,0,0,0
6266,210101.15914859783,2010-09-02 23:51:48,3781.9113917282302,2,18,0.5501165986061096,3.983373880386353,18.73351702679606,18.16170805133995,74.40614415926414,66.53534092867586,9.713172767078504e-05,0.086637258529663,0,0,0
6267,210131.17429321367,2010-09-02 23:52:18,3811.92653631898,2,18,0.5499359965324402,3.985154628753662,18.738103268849283,18.16170805133995,74.42441638255998,66.53534092867586,3.237724376958795e-05,0.086637258529663,0,0,0
6268,210161.1894851324,2010-09-02 23:52:48,3841.941728237685,2,18,0.5501165986061096,3.986935377120972,18.74268953098389,18.16170805133995,74.44269764933874,66.53534092867586,3.237724376958795e-05,0.086637258529663,0,0,0
6269,210191.204652139,2010-09-02 23:53:18,3871.956895244301,2,18,0.550297200679779,3.989039897918701,18.747275866465905,18.16170805133995,74.46098819951057,66.53534092867586,6.47544875391759e-05,0.086637258529663,0,0,0
6270,210221.2198032009,2010-09-02 23:53:48,3901.9720463362537,2,18,0.5501165986061096,3.9909825325012207,18.751862173239385,18.16170805133995,74.47928768795259,66.53534092867586,6.47544875391759e-05,0.086637258529663,0,0,0
6271,210251.23498110965,2010-09-02 23:54:18,3931.9872242149663,2,18,0.5501165986061096,3.99308705329895,18.756448494981207,18.16170805133995,74.4975964487344,66.53534092867586,6.47544875391759e-05,0.086637258529663,0,0,0
6272,210281.2501578856,2010-09-02 23:54:48,3962.002400990931,2,18,0.5501165986061096,3.99502944946289,18.761034788290782,18.16170805133995,74.51591423622942,66.53534092867586,6.47544875391759e-05,0.086637258529663,0,0,0
6273,210311.26535210005,2010-09-02 23:55:18,3992.0175952203954,2,18,0.5501165986061096,3.99713397026062,18.76562107318462,18.16170805133995,74.5342413324328,66.53534092867586,3.237724376958795e-05,0.086637258529663,0,0,0
6274,210341.28052126203,2010-09-02 23:55:48,4022.0327643673454,2,18,0.5501165986061096,3.99907660484314,18.770207388551302,18.16170805133995,74.55257780899235,66.53534092867586,6.47544875391759e-05,0.086637258529663,0,0,0
6275,210371.29565472004,2010-09-02 23:56:18,4052.0478978253486,2,18,0.550297200679779,4.001343250274658,18.77479367301558,18.16170805133995,74.57092356299455,66.53534092867586,6.47544875391759e-05,0.086637258529663,0,0,0
6276,210401.31092183111,2010-09-02 23:56:48,4082.0631649565066,2,18,0.5501165986061096,4.003285884857178,18.77937995531824,18.16170805133995,74.58927878580911,66.53534092867586,6.47544875391759e-05,0.086637258529663,0,0,0
6277,210431.3259916355,2010-09-02 23:57:18,4112.078234740816,2,18,0.550297200679779,4.005552291870117,18.783966220810537,18.16170805133995,74.60764347145548,66.53534092867586,9.71794142969884e-05,0.086637258529663,0,0,0
6278,210461.341236852,2010-09-02 23:57:48,4142.093479947331,2,18,0.5499359965324402,4.007332801818848,18.788552559607183,18.16170805133995,74.62601809909332,66.53534092867586,3.23295607813634e-05,0.086637258529663,0,0,0
6279,210491.35656048905,2010-09-02 23:58:18,4172.108803604368,2,18,0.5501165986061096,4.009599208831787,18.79313892877694,18.16170805133995,74.64440257098347,66.53534092867586,6.47544875391759e-05,0.086637258529663,0,0,0
6280,210521.37174703932,2010-09-02 23:58:48,4202.123990164719,2,18,0.5501165986061096,4.011703968048096,18.797725226236945,18.16170805133995,74.6627964893195,66.53534092867586,6.47544875391759e-05,0.086637258529663,0,0,0
6281,210551.3867027343,2010-09-02 23:59:18,4232.138945839632,2,18,0.5501165986061096,4.013808250427246,18.802311477019927,18.16170805133995,74.68120012472039,66.53534092867586,0.0,0.086637258529663,0,0,0
6282,210581.40189249764,2010-09-02 23:59:48,4262.154135602964,2,18,0.5501165986061096,4.016236782073975,18.80689783889163,18.16170805133995,74.69961414005436,66.53534092867586,0.0001295089750783,0.086637258529663,0,0,0
6283,210611.41703768488,2010-09-03 00:00:18,4292.169280790201,2,18,0.5499359965324402,4.018341064453125,18.811484082442725,18.16170805133995,74.71803775759436,66.53534092867586,6.47544875391759e-05,0.086637258529663,0,0,0
6284,210641.43235573292,2010-09-03 00:00:48,4322.184598838258,2,18,0.550297200679779,4.020445823669434,18.8160705085274,18.16170805133995,74.73647221019829,66.53534092867586,6.47544875391759e-05,0.086637258529663,0,0,0
6285,210671.447407342,2010-09-03 00:01:18,4352.199650452281,2,18,0.5501165986061096,4.022712230682373,18.82065680238358,18.16170805133995,74.75491651030973,66.53534092867586,6.47544875391759e-05,0.086637258529663,0,0,0
6286,210701.4625567597,2010-09-03 00:01:48,4382.214799865048,2,18,0.5501165986061096,4.025140285491943,18.825243100469372,18.16170805133995,74.77337122249419,66.53534092867586,9.70840483205393e-05,0.086637258529663,0,0,0
6287,210731.4778737451,2010-09-03 00:02:18,4412.230116860483,2,18,0.5501165986061096,4.027406692504883,18.82982939853453,18.16170805133995,74.79183640160008,66.53534092867586,9.70840483205393e-05,0.086637258529663,0,0,0
6288,210761.4929030736,2010-09-03 00:02:48,4442.245146178939,2,18,0.5501165986061096,4.029511451721191,18.83441571101313,18.16170805133995,74.81031227593093,66.53534092867586,3.24249267578125e-05,0.086637258529663,0,0,0
6289,210791.5080595189,2010-09-03 00:03:18,4472.260302629245,2,18,0.5501165986061096,4.031939506530762,18.839001898519648,18.16170805133995,74.82879825768197,66.53534092867586,6.47544875391759e-05,0.086637258529663,0,0,0
6290,210821.5233598328,2010-09-03 00:03:48,4502.275602968167,2,18,0.5499359965324402,4.034367561340332,18.84358819158411,18.16170805133995,74.8472955543988,66.53534092867586,6.46591215627268e-05,0.086637258529663,0,0,0
6291,210851.53839952708,2010-09-03 00:04:18,4532.290642632407,2,18,0.5499359965324402,4.0367960929870605,18.848174472069307,18.16170805133995,74.86580369002498,66.53534092867586,9.71794142969884e-05,0.086637258529663,0,0,0
6292,210881.553717119,2010-09-03 00:04:48,4562.305960224328,2,18,0.550297200679779,4.039224147796631,18.852760775318817,18.16170805133995,74.88432299699177,66.53534092867586,3.23295607813634e-05,0.086637258529663,0,0,0
6293,210911.5688727823,2010-09-03 00:05:18,4592.321115892686,2,18,0.5501165986061096,4.041652679443359,18.85734707107468,18.16170805133995,74.90285336760503,66.53534092867586,6.47544875391759e-05,0.086637258529663,0,0,0
6294,210941.5839335241,2010-09-03 00:05:48,4622.336176634458,2,18,0.5499359965324402,4.04408073425293,18.86193335857573,18.16170805133995,74.92139502176398,66.53534092867586,6.47544875391759e-05,0.086637258529663,0,0,0
6295,210971.59921011885,2010-09-03 00:06:18,4652.351453229202,2,18,0.550297200679779,4.046670913696289,18.8665197343,18.16170805133995,74.93994839254351,66.53534092867586,6.47544875391759e-05,0.086637258529663,0,0,0
6296,211001.6142668256,2010-09-03 00:06:48,4682.366509930905,2,18,0.5501165986061096,4.049099445343018,18.87110602873565,18.16170805133995,74.95851292523703,66.53534092867586,9.71794142969884e-05,0.086637258529663,0,0,0
6297,211031.6294230704,2010-09-03 00:07:18,4712.3816661857245,2,18,0.5499359965324402,4.051527500152588,18.87569246809104,18.16170805133995,74.97708964886495,66.53534092867586,6.47544875391759e-05,0.086637258529663,0,0,0
6298,211061.6447269281,2010-09-03 00:07:48,4742.39697003339,2,18,0.5501165986061096,4.054279804229736,18.880278792291783,18.16170805133995,74.99567761958384,66.53534092867586,6.47544875391759e-05,0.086637258529663,0,0,0
6299,211091.6597926072,2010-09-03 00:08:18,4772.412035712468,2,18,0.5501165986061096,4.056869983673096,18.884865076977608,18.16170805133995,75.01427728056447,66.53534092867586,6.47544875391759e-05,0.086637258529663,0,0,0
6300,211121.6777429908,2010-09-03 00:08:48,4802.429986096116,2,18,0.5501165986061096,4.059460163116455,18.889451820552363,18.16170805133995,75.032890781096,66.53534092867586,9.71794142969884e-05,0.086637258529663,0,0,0
6301,211151.69015173297,2010-09-03 00:09:19,4832.442394838289,2,18,0.5501165986061096,4.062050342559815,18.8940378183192,18.16170805133995,75.0515130904742,66.53534092867586,9.71794142969884e-05,0.086637258529663,0,0,0
6302,211181.70556389057,2010-09-03 00:09:49,4862.457806995898,2,18,0.5501165986061096,4.064802169799805,18.89862409624713,18.16170805133995,75.0701486741996,66.53534092867586,9.70840483205393e-05,0.086637258529663,0,0,0
6303,211211.7205877304,2010-09-03 00:10:19,4892.472830835698,2,18,0.5499359965324402,4.067230701446533,18.903210377408524,18.16170805133995,75.08879662913427,66.53534092867586,3.24249267578125e-05,0.086637258529663,0,0,0
6304,211241.7367828644,2010-09-03 00:10:49,4922.489026009825,2,18,0.5499359965324402,4.069982528686523,18.907796816226067,18.16170805133995,75.10745767085515,66.53534092867586,6.47544875391759e-05,0.086637258529663,0,0,0
6305,211271.75085633056,2010-09-03 00:11:19,4952.503099435902,2,18,0.550297200679779,4.072896480560303,18.912382985440573,18.16170805133995,75.12613010767872,66.53534092867586,3.23295607813634e-05,0.086637258529663,0,0,0
6306,211301.7659823851,2010-09-03 00:11:49,4982.518225490453,2,18,0.550297200679779,4.075648784637451,18.916969261290756,18.16170805133995,75.14481567381,66.53534092867586,6.47544875391759e-05,0.086637258529663,0,0,0
6307,211331.78113562745,2010-09-03 00:12:19,5012.533378737778,2,18,0.5501165986061096,4.078400611877441,18.921555530252743,18.16170805133995,75.16351399121179,66.53534092867586,3.23295607813634e-05,0.086637258529663,0,0,0
6308,211361.7964691992,2010-09-03 00:12:49,5042.548712314538,2,18,0.5501165986061096,4.08115291595459,18.926141843543817,18.16170805133995,75.18222542739773,66.53534092867586,6.47544875391759e-05,0.086637258529663,0,0,0
6309,211391.8116087624,2010-09-03 00:13:19,5072.563851867732,2,18,0.5501165986061096,4.084066867828369,18.930728084445857,18.16170805133995,75.20094948315786,66.53534092867586,6.47544875391759e-05,0.086637258529663,0,0,0
6310,211421.8266299757,2010-09-03 00:13:49,5102.578873085999,2,18,0.5501165986061096,4.086818695068359,18.93531440618527,18.16170805133995,75.21968705387877,66.53534092867586,6.47544875391759e-05,0.086637258529663,0,0,0
6311,211451.84192870057,2010-09-03 00:14:19,5132.59417181591,2,18,0.5501165986061096,4.089894771575928,18.93990080065308,18.16170805133995,75.23843824461716,66.53534092867586,3.24249267578125e-05,0.086637258529663,0,0,0
6312,211481.8572013204,2010-09-03 00:14:49,5162.6094444557975,2,18,0.5499359965324402,4.092808723449707,18.94448724022136,18.16170805133995,75.25720294780204,66.53534092867586,9.71794142969884e-05,0.086637258529663,0,0,0
6313,211511.8721607747,2010-09-03 00:15:19,5192.624403905117,2,18,0.5501165986061096,4.095722675323486,18.94907360301357,18.16170805133995,75.27598082187484,66.53534092867586,6.47544875391759e-05,0.086637258529663,0,0,0
6314,211541.88744397595,2010-09-03 00:15:49,5222.639687081264,2,18,0.550297200679779,4.0987982749938965,18.953660025237568,18.16170805133995,75.29477259547,66.53534092867586,9.70840483205393e-05,0.086637258529663,0,0,0
6315,211571.90250574023,2010-09-03 00:16:19,5252.65474885561,2,18,0.5501165986061096,4.101712226867676,18.95824635744656,18.16170805133995,75.31357775628395,66.53534092867586,6.47544875391759e-05,0.086637258529663,0,0,0
6316,211601.9176698998,2010-09-03 00:16:49,5282.669913005106,2,18,0.5501165986061096,4.104788303375244,18.962832713539683,18.16170805133995,75.33239682825656,66.53534092867586,6.47544875391759e-05,0.086637258529663,0,0,0
6317,211631.9328452121,2010-09-03 00:17:19,5312.685088317422,2,18,0.5501165986061096,4.107863903045654,18.967419100450723,18.16170805133995,75.35123012358052,66.53534092867586,9.70840483205393e-05,0.086637258529663,0,0,0
6318,211661.94802350685,2010-09-03 00:17:49,5342.7002666121725,2,18,0.5499359965324402,4.110939979553223,18.97200544285723,18.16170805133995,75.37007738301726,66.53534092867586,6.47544875391759e-05,0.086637258529663,0,0,0
6319,211691.96317881937,2010-09-03 00:18:19,5372.715421924643,2,18,0.550297200679779,4.114177703857422,18.97659183682995,18.16170805133995,75.38893911439025,66.53534092867586,0.0001295089750783,0.086637258529663,0,0,0
6320,211721.9783595652,2010-09-03 00:18:49,5402.730602675514,2,18,0.5501165986061096,4.117253303527832,18.98117824857528,18.16170805133995,75.40781533733005,66.53534092867586,9.71794142969884e-05,0.086637258529663,0,0,0
6321,211751.99350973484,2010-09-03 00:19:19,5432.745752845168,2,18,0.550297200679779,4.120491027832031,18.98576465384235,18.16170805133995,75.42670605485968,66.53534092867586,9.71794142969884e-05,0.086637258529663,0,0,0
6322,211782.00884541185,2010-09-03 00:19:49,5462.761088527175,2,18,0.5499359965324402,4.123566627502441,18.990351156738605,18.16170805133995,75.44561183038145,66.53534092867586,6.47544875391759e-05,0.086637258529663,0,0,0
6323,211812.02388893568,2010-09-03 00:20:19,5492.77613204101,2,18,0.5499359965324402,4.126804351806641,18.994937493898725,18.16170805133995,75.464531699483,66.53534092867586,6.47544875391759e-05,0.086637258529663,0,0,0
6324,211842.0391744276,2010-09-03 00:20:49,5522.791417542953,2,18,0.5501165986061096,4.13004207611084,18.99952393852594,18.16170805133995,75.48346691133624,66.53534092867586,6.47544875391759e-05,0.086637258529663,0,0,0
6325,211872.05432460728,2010-09-03 00:21:19,5552.806567712607,2,18,0.5501165986061096,4.133279800415039,19.004110393475404,18.16170805133995,75.50241720075164,66.53534092867586,6.47544875391759e-05,0.086637258529663,0,0,0
6326,211902.06936327904,2010-09-03 00:21:49,5582.821606409436,2,18,0.5501165986061096,4.136517524719238,19.0086968088069,18.16170805133995,75.52138249715607,66.53534092867586,3.23295607813634e-05,0.086637258529663,0,0,0
6327,211932.0845451878,2010-09-03 00:22:19,5612.836788293131,2,18,0.5501165986061096,4.140079021453857,19.01328330580919,18.16170805133995,75.54036342518523,66.53534092867586,6.47544875391759e-05,0.086637258529663,0,0,0
6328,211962.09972288104,2010-09-03 00:22:49,5642.851965991394,2,18,0.5501165986061096,4.143478870391846,19.01786982677336,18.16170805133995,75.55935994231116,66.53534092867586,6.47544875391759e-05,0.086637258529663,0,0,0
6329,211992.1148948952,2010-09-03 00:23:19,5672.867138030553,2,18,0.5501165986061096,4.146878242492676,19.02245626176376,18.16170805133995,75.57837182291631,66.53534092867586,6.47544875391759e-05,0.086637258529663,0,0,0
6330,212022.1301773094,2010-09-03 00:23:49,5702.882420424751,2,18,0.5499359965324402,4.150439739227295,19.027042726273898,18.16170805133995,75.59739967867635,66.53534092867586,9.70840483205393e-05,0.086637258529663,0,0,0
6331,212052.14522439212,2010-09-03 00:24:19,5732.897467497455,2,18,0.5501165986061096,4.153839588165283,19.031629124620498,18.16170805133995,75.61644309833113,66.53534092867586,9.71794142969884e-05,0.086637258529663,0,0,0
6332,212082.16054941257,2010-09-03 00:24:49,5762.912792517891,2,18,0.5501165986061096,4.157238960266113,19.03621553583348,18.16170805133995,75.63550243387577,66.53534092867586,6.47544875391759e-05,0.086637258529663,0,0,0
6333,212112.1756961537,2010-09-03 00:25:19,5792.927939264012,2,18,0.550297200679779,4.1609625816345215,19.04080193740698,18.16170805133995,75.65457788674765,66.53534092867586,9.71794142969884e-05,0.086637258529663,0,0,0
6334,212142.19077398803,2010-09-03 00:25:49,5822.943017093372,2,18,0.550297200679779,4.164524078369141,19.045388379312207,18.16170805133995,75.67366971539492,66.53534092867586,9.71794142969884e-05,0.086637258529663,0,0,0
6335,212172.20603387116,2010-09-03 00:26:19,5852.958276986489,2,18,0.5497553944587708,4.167923450469971,19.04997478504836,18.16170805133995,75.6927776731457,66.53534092867586,9.70840483205393e-05,0.086637258529663,0,0,0
6336,212202.22110503388,2010-09-03 00:26:49,5882.973348164271,2,18,0.5499359965324402,4.171647071838379,19.054561155770543,18.16170805133995,75.71190198886273,66.53534092867586,0.0001295089750783,0.086637258529663,0,0,0
6337,212232.23625688272,2010-09-03 00:27:19,5912.98849999306,2,18,0.5499359965324402,4.175208568572998,19.05914755270756,18.16170805133995,75.73104301031971,66.53534092867586,0.0001295089750783,0.086637258529663,0,0,0
6338,212262.25154294103,2010-09-03 00:27:49,5943.003786046377,2,18,0.5499359965324402,4.178770065307617,19.06373399126509,18.16170805133995,75.75020093783797,66.53534092867586,6.47544875391759e-05,0.086637258529663,0,0,0
6339,212292.2665913972,2010-09-03 00:28:19,5973.018834502529,2,18,0.550297200679779,4.182816982269287,19.068320404382085,18.16170805133995,75.76937568788506,66.53534092867586,0.0001618385285837,0.086637258529663,0,0,0
6340,212322.28177831345,2010-09-03 00:28:49,6003.034021438816,2,18,0.5499359965324402,4.186054706573486,19.07290683998226,18.16170805133995,75.78856751193383,66.53534092867586,9.70840483205393e-05,0.086637258529663,0,0,0
6341,212352.29693800685,2010-09-03 00:29:19,6033.0491811121565,2,18,0.5499359965324402,4.189939975738525,19.07749315813858,18.16170805133995,75.80777602574238,66.53534092867586,6.47544875391759e-05,0.086637258529663,0,0,0
6342,212382.3121251436,2010-09-03 00:29:49,6063.064368294055,2,18,0.5499359965324402,4.1938252449035645,19.08207954415161,18.16170805133995,75.82700212830999,66.53534092867586,9.70840483205393e-05,0.086637258529663,0,0,0
6343,212412.32741685104,2010-09-03 00:30:19,6093.079659986428,2,18,0.5501165986061096,4.197548389434815,19.086665932856604,18.16170805133995,75.8462456262782,66.53534092867586,6.47544875391759e-05,0.086637258529663,0,0,0
6344,212429.51451102304,2010-09-03 00:30:36,6110.266754128365,2,18,0.5501165986061096,4.200138568878174,19.08929210484916,18.16170805133995,75.85727235822048,66.53534092867586,0.0001942634553415,0.086637258529663,0,0,0
6345,212459.5372656062,2010-09-03 00:31:06,30.01517430981832,3,18,0.0,4.119357585906982,19.08929210484916,18.16170805133995,75.85727235822048,66.53534092867586,-0.0003561973571777,0.086637258529663,0,0,0
6346,212489.55529278124,2010-09-03 00:31:36,60.03320139462969,3,18,0.0,4.109158992767334,19.08929210484916,18.16170805133995,75.85727235822048,66.53534092867586,-0.0001619339018361,0.086637258529663,0,0,0
6347,212519.5676452381,2010-09-03 00:32:07,90.04555384149727,3,18,0.0,4.1031694412231445,19.08929210484916,18.16170805133995,75.85727235822048,66.53534092867586,-0.0001295089750783,0.086637258529663,0,0,0
6348,212549.5358455693,2010-09-03 00:32:36,120.01375417771985,3,18,0.0,4.099122047424316,19.08929210484916,18.16170805133995,75.85727235822048,66.53534092867586,-9.71794142969884e-05,0.086637258529663,0,0,0
6349,212549.54536964544,2010-09-03 00:32:37,0.015746620423209,4,18,1.000014305114746,4.199976921081543,19.089296494775752,18.16170805133995,75.85729079509905,66.53534092867586,6.47544875391759e-05,0.086637258529663,0,0,0
6350,212550.54535499663,2010-09-03 00:32:38,1.015731951556186,4,18,0.9499855637550354,4.199653148651123,19.089565875466267,18.16170805133995,75.85842213187632,66.53534092867586,0.0,0.086637258529663,0,0,0
6351,212552.71705794852,2010-09-03 00:32:40,3.187434888491317,4,18,0.8999567627906799,4.199814796447754,19.090122785667223,18.16170805133995,75.86076099945187,66.53534092867586,3.23295607813634e-05,0.086637258529663,0,0,0
6352,212555.9513740495,2010-09-03 00:32:43,6.421750994401431,4,18,0.8495668172836304,4.199814796447754,19.09090760915266,18.16170805133995,75.86405704769435,66.53534092867586,3.23295607813634e-05,0.086637258529663,0,0,0
6353,212560.23255569144,2010-09-03 00:32:47,10.7029326363398,4,18,0.7995380163192749,4.199814796447754,19.09188709420439,18.16170805133995,75.8681706403094,66.53534092867586,0.0,0.086637258529663,0,0,0
6354,212565.74810998485,2010-09-03 00:32:53,16.21848692472007,4,18,0.7493286728858948,4.199814796447754,19.09307228778113,18.16170805133995,75.87314815955177,66.53534092867586,3.23295607813634e-05,0.086637258529663,0,0,0
6355,212572.7792420343,2010-09-03 00:33:00,23.249618964187665,4,18,0.6992998719215393,4.199814796447754,19.094484967430063,18.16170805133995,75.87908108072524,66.53534092867586,-3.24249267578125e-05,0.086637258529663,0,0,0
6356,212581.90412872963,2010-09-03 00:33:09,32.374505659489806,4,18,0.6492711305618286,4.199653148651123,19.09619165532313,18.16170805133995,75.88624877589884,66.53534092867586,-6.47544875391759e-05,0.086637258529663,0,0,0
6357,212594.54478652327,2010-09-03 00:33:22,45.01516347319473,4,18,0.5990617275238037,4.199814796447754,19.098379888192472,18.16170805133995,75.89543883266512,66.53534092867586,0.0,0.086637258529663,0,0,0
6358,212613.2006338551,2010-09-03 00:33:40,63.671010810018814,4,18,0.5488523244857788,4.199653148651123,19.101346786630828,18.16170805133995,75.90789913219288,66.53534092867586,0.0,0.086637258529663,0,0,0
6359,212643.4034851487,2010-09-03 00:34:11,93.87386208859004,4,18,0.4988235831260681,4.199653148651123,19.10572479214197,18.16170805133995,75.92628574913924,66.53534092867586,0.0,0.086637258529663,0,0,0
6360,212696.46486703897,2010-09-03 00:35:04,146.93524398385208,4,18,0.448794811964035,4.199976921081543,19.112675074788083,18.16170805133995,75.95547530230918,66.53534092867586,3.24249267578125e-05,0.086637258529663,0,0,0
6361,212780.2292242608,2010-09-03 00:36:27,230.6996012056973,4,18,0.3987660408020019,4.199814796447754,19.12250254069829,18.16170805133995,75.99674836660868,66.53534092867586,3.23295607813634e-05,0.086637258529663,0,0,0
6362,212890.6963130008,2010-09-03 00:38:18,341.16668994069835,4,18,0.3487372696399688,4.199814796447754,19.13395311908008,18.16170805133995,76.04483819430862,66.53534092867586,0.0,0.086637258529663,0,0,0
6363,213025.0382199589,2010-09-03 00:40:32,475.50859690382185,4,18,0.2987084984779358,4.199653148651123,19.146016795032388,18.16170805133995,76.09550290992559,66.53534092867586,0.0,0.086637258529663,0,0,0
6364,213185.9418533421,2010-09-03 00:43:13,636.412230287023,4,18,0.2484991252422332,4.199653148651123,19.15822678273563,18.16170805133995,76.14678207629781,66.53534092867586,-3.23295607813634e-05,0.086637258529663,0,0,0
6365,213386.09502402405,2010-09-03 00:46:33,836.5654009639408,4,18,0.1984703540802002,4.199653148651123,19.17062269829643,18.16170805133995,76.19884193194729,66.53534092867586,-3.23295607813634e-05,0.086637258529663,0,0,0
6366,213651.3098279049,2010-09-03 00:50:58,1101.780204844767,4,18,0.1484415829181671,4.199491024017334,19.183325502271245,18.16170805133995,76.2521904425931,66.53534092867586,-3.24249267578125e-05,0.086637258529663,0,0,0
6367,214032.3665642,2010-09-03 00:57:20,1482.8369411448534,4,18,0.098412811756134,4.199653148651123,19.196242445036887,18.16170805133995,76.30643872791535,66.53534092867586,-3.23295607813634e-05,0.086637258529663,0,0,0
6368,214723.76236580472,2010-09-03 01:08:51,2174.232742749622,4,18,0.0498289167881011,4.199814796447754,19.209969671615784,18.16170805133995,76.36409017477668,66.53534092867586,0.0,0.086637258529663,0,0,0
6369,214753.77292582105,2010-09-03 01:09:21,30.015179718297915,5,18,0.0,4.192368507385254,19.209969671615784,18.16170805133995,76.36409017477668,66.53534092867586,-3.23295607813634e-05,0.086637258529663,0,0,0
6370,214783.7724718854,2010-09-03 01:09:51,60.01472577269503,5,18,0.0,4.191235065460205,19.209969671615784,18.16170805133995,76.36409017477668,66.53534092867586,0.0,0.086637258529663,0,0,0
6371,214783.95609752,2010-09-03 01:09:51,0.187333562879793,6,18,-1.9243103452026844e-05,4.190911293029785,19.209969671615784,18.161708052341304,76.36409017477668,66.53534093287246,0.0,0.0923051163554191,0,0,0
6372,214788.78397985324,2010-09-03 01:09:56,5.015215916206546,6,18,0.0008838032954372,4.191073417663574,19.209970606742623,18.16170805242417,76.36409409402263,66.53534093321976,-3.23295607813634e-05,0.0923051163554191,0,0,0
6373,214818.7955476607,2010-09-03 01:10:26,30.015187658086305,7,18,-1.099568486213684,4.022226333618164,19.209970606742623,18.17087576753855,76.36409409402263,66.57240797402021,-0.0009065627818927,0.0923051163554191,0,0,0
6374,214848.81070603585,2010-09-03 01:10:56,60.03034601815294,7,18,-1.099568486213684,3.9960007667541504,19.209970606742623,18.180043447653645,76.36409409402263,66.6091540610287,-0.0006151676061563,0.0923051163554191,0,0,0
6375,214878.8258675738,2010-09-03 01:11:26,90.04550755112741,7,18,-1.0993878841400146,3.978193521499634,19.209970606742623,18.189211151455627,76.36409409402263,66.64570394277769,-0.0004209041653666,0.0923051163554191,0,0,0
6376,214908.8411629403,2010-09-03 01:11:56,120.0608029326938,7,18,-1.099568486213684,3.964595079421997,19.209970606742623,18.198378728482183,76.36409409402263,66.68211059096018,-0.0003885269106831,0.0923051163554191,0,0,0
6377,214938.85620869475,2010-09-03 01:12:26,150.07584866706253,7,18,-1.099568486213684,3.95310115814209,19.209970606742623,18.207546299918555,76.36409409402263,66.71840287529946,-0.0002913951757363,0.0923051163554191,0,0,0
6378,214968.87140341045,2010-09-03 01:12:56,180.0910434128135,7,18,-1.099568486213684,3.9429023265838623,19.209970606742623,18.21671384683668,76.36409409402263,66.754596298502,-0.0002590179501567,0.0923051163554191,0,0,0
6379,214998.88655492844,2010-09-03 01:13:26,210.1061949057652,7,18,-1.0997490882873535,3.933512926101685,19.209970606742623,18.225881399895258,76.36409409402263,66.7907002828858,-0.0002590179501567,0.0923051163554191,0,0,0
6380,215028.90173742868,2010-09-03 01:13:56,240.121377400984,7,18,-1.099568486213684,3.9247710704803462,19.209970606742623,18.235049022718155,76.36409409402263,66.82672084773378,-0.0002266406954731,0.0923051163554191,0,0,0
6381,215058.91689409447,2010-09-03 01:14:26,270.13653406682806,7,18,-1.0993878841400146,3.9161911010742183,19.209970606742623,18.244216684788025,76.36409409402263,66.86266185555166,-0.0002266406954731,0.0923051163554191,0,0,0
6382,215088.93207567747,2010-09-03 01:14:56,300.15171566481075,7,18,-1.099568486213684,3.90793514251709,19.209970606742623,18.25338428780321,76.36409409402263,66.89852575122204,-0.0002266406954731,0.0923051163554191,0,0,0
6383,215118.9472416014,2010-09-03 01:15:26,330.1668815837163,7,18,-1.099568486213684,3.9000027179718018,19.209970606742623,18.262551807083977,76.36409409402263,66.93431492823102,-0.0001942634553415,0.0923051163554191,0,0,0
6384,215148.96242644743,2010-09-03 01:15:56,360.1820664348068,7,18,-1.099568486213684,3.8920702934265137,19.209970606742623,18.271719430616404,76.36409409402263,66.97003207711857,-0.0002266406954731,0.0923051163554191,0,0,0
6385,215178.97758191533,2010-09-03 01:16:26,390.1972218876276,7,18,-1.099568486213684,3.8844616413116455,19.209970606742623,18.28088703530292,76.36409409402263,67.00567842907336,-0.0002266406954731,0.0923051163554191,0,0,0
6386,215208.9956268045,2010-09-03 01:16:56,420.2152668770629,7,18,-1.099568486213684,3.876852989196777,19.209970606742623,18.290055549875664,76.36409409402263,67.04125855434356,-0.0002266406954731,0.0923051163554191,0,0,0
6387,215239.0079692214,2010-09-03 01:17:27,450.2276091936827,7,18,-1.099568486213684,3.869568109512329,19.209970606742623,18.29922236434551,76.36409409402263,67.07676345000648,-0.0001942634553415,0.0923051163554191,0,0,0
6388,215269.0234023663,2010-09-03 01:17:57,480.24304234862274,7,18,-1.0997490882873535,3.862121343612671,19.209970606742623,18.308390093293333,76.36409409402263,67.11220426031487,-0.0001942634553415,0.0923051163554191,0,0,0
6389,215299.03841649188,2010-09-03 01:18:27,510.2580564641877,7,18,-1.0997490882873535,3.854836463928223,19.209970606742623,18.3175576953186,76.36409409402263,67.14757814688247,-0.0001942634553415,0.0923051163554191,0,0,0
6390,215329.0549666157,2010-09-03 01:18:57,540.2746066280577,7,18,-1.0993878841400146,3.848037242889404,19.209970606742623,18.32672578820224,76.36409409402263,67.18288847039524,-0.0001295089750783,0.0923051163554191,0,0,0
6391,215359.068603218,2010-09-03 01:19:27,570.288243200361,7,18,-1.099568486213684,3.841076135635376,19.209970606742623,18.335893009818648,76.36409409402263,67.21813107020046,-0.0001618862152099,0.0923051163554191,0,0,0
6392,215389.08377307173,2010-09-03 01:19:57,600.3034130540732,7,18,-1.099568486213684,3.834115028381348,19.209970606742623,18.34506072535132,76.36409409402263,67.25331192248746,-0.0001942634553415,0.0923051163554191,0,0,0
6393,215419.09894298052,2010-09-03 01:20:27,630.3185829528979,7,18,-1.099568486213684,3.8271541595458975,19.209970606742623,18.35422841002613,76.36409409402263,67.28842986283168,-0.0001618862152099,0.0923051163554191,0,0,0
6394,215449.11414987163,2010-09-03 01:20:57,660.3337898689811,7,18,-1.0997490882873535,3.8206787109375,19.209970606742623,18.363396082065304,76.36409409402263,67.3234862168119,-0.0001618862152099,0.0923051163554191,0,0,0
6395,215479.1293006628,2010-09-03 01:21:27,690.3489406351214,7,18,-1.099568486213684,3.814041376113892,19.209970606742623,18.372563739615305,76.36409409402263,67.35848205419637,-0.0001618862152099,0.0923051163554191,0,0,0
6396,215509.14445789508,2010-09-03 01:21:57,720.3640978874271,7,18,-1.099568486213684,3.807404041290283,19.209970606742623,18.381731360782112,76.36409409402263,67.393417824692,-0.0001618862152099,0.0923051163554191,0,0,0
6397,215539.1597619783,2010-09-03 01:22:27,750.3794019706808,7,18,-1.0993878841400146,3.8012523651123047,19.209970606742623,18.390899019991444,76.36409409402263,67.42829493718642,-0.0001618862152099,0.0923051163554191,0,0,0
6398,215569.1748205046,2010-09-03 01:22:57,780.3944604768809,7,18,-1.0997490882873535,3.794776916503906,19.209970606742623,18.400066636698817,76.36409409402263,67.46311439900168,-0.0002266406954731,0.0923051163554191,0,0,0
6399,215599.1899783885,2010-09-03 01:23:27,810.4096183707856,7,18,-1.099568486213684,3.7887871265411377,19.209970606742623,18.40923430823207,76.36409409402263,67.49787744212995,-0.0001942634553415,0.0923051163554191,0,0,0
6400,215629.20514772087,2010-09-03 01:23:57,840.4247876931737,7,18,-1.099568486213684,3.782959222793579,19.209970606742623,18.41840195895499,76.36409409402263,67.53258483117668,-0.0001295089750783,0.0923051163554191,0,0,0
6401,215659.2203351283,2010-09-03 01:24:27,870.439975125698,7,18,-1.099568486213684,3.7769694328308105,19.209970606742623,18.427569609061084,76.36409409402263,67.56723795648045,-0.0001618862152099,0.0923051163554191,0,0,0
6402,215689.23550584412,2010-09-03 01:24:57,900.455145821509,7,18,-1.099568486213684,3.771303415298462,19.209970606742623,18.436737234978185,76.36409409402263,67.60183783578321,-0.0001295089750783,0.0923051163554191,0,0,0
6403,215719.25067984825,2010-09-03 01:25:27,930.4703198406028,7,18,-1.099568486213684,3.7654755115509033,19.209970606742623,18.44590488110315,76.36409409402263,67.63638546111765,-0.0002266406954731,0.0923051163554191,0,0,0
6404,215749.26575693075,2010-09-03 01:25:57,960.4853969231008,7,18,-1.099568486213684,3.7599713802337646,19.209970606742623,18.455072558614347,76.36409409402263,67.67088192100309,-0.0001618862152099,0.0923051163554191,0,0,0
6405,215779.2809890797,2010-09-03 01:26:27,990.5006290620472,7,18,-1.099568486213684,3.754629135131836,19.209970606742623,18.464240296777565,76.36409409402263,67.70532837939693,-9.713172767078504e-05,0.0923051163554191,0,0,0
6406,215809.29613044744,2010-09-03 01:26:57,1020.5157704297634,7,18,-1.099568486213684,3.7492871284484863,19.209970606742623,18.473407932946763,76.36409409402263,67.7397251706867,-0.0001295089750783,0.0923051163554191,0,0,0
6407,215839.3113678595,2010-09-03 01:27:27,1050.531007841852,7,18,-1.099568486213684,3.7442686557769775,19.209970606742623,18.482575674893543,76.36409409402263,67.77407389804223,-9.713172767078504e-05,0.0923051163554191,0,0,0
6408,215869.3267034313,2010-09-03 01:27:57,1080.5463434035596,7,18,-1.099568486213684,3.738926410675049,19.209970606742623,18.49174338200269,76.36409409402263,67.80837499633232,-9.713172767078504e-05,0.0923051163554191,0,0,0
6409,215899.3417109303,2010-09-03 01:28:27,1110.561350902634,7,18,-1.099568486213684,3.73406982421875,19.209970606742623,18.50091102517455,76.36409409402263,67.84262924019208,-9.713172767078504e-05,0.0923051163554191,0,0,0
6410,215929.35690619235,2010-09-03 01:28:57,1140.576546174697,7,18,-1.0997490882873535,3.7288894653320312,19.209970606742623,18.51007872620237,76.36409409402263,67.87683772742749,-9.713172767078504e-05,0.0923051163554191,0,0,0
6411,215959.3720718757,2010-09-03 01:29:27,1170.5917118580153,7,18,-1.0993878841400146,3.7241947650909424,19.209970606742623,18.519246329303076,76.36409409402263,67.9110017277225,-0.0001295089750783,0.0923051163554191,0,0,0
6412,215989.38723118312,2010-09-03 01:29:57,1200.6068711704556,7,18,-1.0993878841400146,3.719338178634644,19.209970606742623,18.5284139918679,76.36409409402263,67.94512164215325,-0.0001295089750783,0.0923051163554191,0,0,0
6413,216019.40241476105,2010-09-03 01:30:27,1230.6220547433602,7,18,-1.099568486213684,3.7148053646087646,19.209970606742623,18.53758167002345,76.36409409402263,67.9791981377504,-9.713172767078504e-05,0.0923051163554191,0,0,0
6414,216049.4175908152,2010-09-03 01:30:57,1260.6372308125635,7,18,-1.099568486213684,3.710110664367676,19.209970606742623,18.54674931853182,76.36409409402263,68.01323190551769,-0.0001295089750783,0.0923051163554191,0,0,0
6415,216079.4327681325,2010-09-03 01:31:27,1290.6524081298776,7,18,-1.099568486213684,3.705577850341797,19.209970606742623,18.55591698716141,76.36409409402263,68.04722361086802,-9.713172767078504e-05,0.0923051163554191,0,0,0
6416,216109.44793835207,2010-09-03 01:31:57,1320.6675783344645,7,18,-1.099568486213684,3.701045036315918,19.209970606742623,18.565084725130493,76.36409409402263,68.08117412539407,-0.0001295089750783,0.0923051163554191,0,0,0
6417,216139.46312062172,2010-09-03 01:32:27,1350.6827606041213,7,18,-1.099568486213684,3.696674108505249,19.209970606742623,18.574252414506645,76.36409409402263,68.11508346805996,-6.47544875391759e-05,0.0923051163554191,0,0,0
6418,216169.4783205104,2010-09-03 01:32:57,1380.6979604876767,7,18,-1.0997490882873535,3.69214129447937,19.209970606742623,18.583420138071848,76.36409409402263,68.14895273817287,-0.0001295089750783,0.0923051163554191,0,0,0
6419,216199.4934465148,2010-09-03 01:33:27,1410.713086497116,7,18,-1.0997490882873535,3.687770366668701,19.209970606742623,18.59258782497875,76.36409409402263,68.18278231594651,-0.0001618862152099,0.0923051163554191,0,0,0
6420,216229.5086214261,2010-09-03 01:33:57,1440.7282613984082,7,18,-1.099568486213684,3.683723211288452,19.209970606742623,18.60175549333773,76.36409409402263,68.21657286765665,-0.0001295089750783,0.0923051163554191,0,0,0
6421,216259.52382144,2010-09-03 01:34:27,1470.7434614273266,7,18,-1.0997490882873535,3.679514169692993,19.209970606742623,18.61092315720235,76.36409409402263,68.25032496358425,-9.713172767078504e-05,0.0923051163554191,0,0,0
6422,216289.53898786017,2010-09-03 01:34:57,1500.758627842469,7,18,-1.099929690361023,3.675305128097534,19.209970606742623,18.62009084500367,76.36409409402263,68.28403942627055,-0.0001295089750783,0.0923051163554191,0,0,0
6423,216319.5541371175,2010-09-03 01:35:27,1530.773777099849,7,18,-1.099568486213684,3.671420097351074,19.209970606742623,18.629258570105737,76.36409409402263,68.31771656572634,-9.713172767078504e-05,0.0923051163554191,0,0,0
6424,216349.5693080439,2010-09-03 01:35:57,1560.7889480563094,7,18,-1.0993878841400146,3.667534828186035,19.209970606742623,18.638426280351723,76.36409409402263,68.35135694291759,-6.47544875391759e-05,0.0923051163554191,0,0,0
6425,216379.5844731959,2010-09-03 01:36:27,1590.8041131832413,7,18,-1.099568486213684,3.663487672805786,19.209970606742623,18.64759391372159,76.36409409402263,68.38496103101967,-9.713172767078504e-05,0.0923051163554191,0,0,0
6426,216409.5996678414,2010-09-03 01:36:57,1620.81930782373,7,18,-1.0997490882873535,3.659764289855957,19.209970606742623,18.65676167155187,76.36409409402263,68.41853024053171,-9.713172767078504e-05,0.0923051163554191,0,0,0
6427,216439.6148231789,2010-09-03 01:37:27,1650.8344631512384,7,18,-1.099568486213684,3.656040906906128,19.209970606742623,18.665929360898,76.36409409402263,68.45206435740343,-9.713172767078504e-05,0.0923051163554191,0,0,0
6428,216469.6300004812,2010-09-03 01:37:57,1680.849640453515,7,18,-1.0993878841400146,3.652479410171509,19.209970606742623,18.67509710322253,76.36409409402263,68.48556472505315,-6.47544875391759e-05,0.0923051163554191,0,0,0
6429,216499.64534274465,2010-09-03 01:38:27,1710.8649827319628,7,18,-1.0993878841400146,3.64875602722168,19.209970606742623,18.68426486078745,76.36409409402263,68.51903171110641,-6.47544875391759e-05,0.0923051163554191,0,0,0
6430,216529.66056580096,2010-09-03 01:38:57,1740.8802057832595,7,18,-1.0997490882873535,3.6450326442718506,19.209970606742623,18.6934325533864,76.36409409402263,68.55246542928153,-0.0001295089750783,0.0923051163554191,0,0,0
6431,216559.6755177666,2010-09-03 01:39:27,1770.895157748928,7,18,-1.099568486213684,3.6417949199676514,19.209970606742623,18.70260013936486,76.36409409402263,68.58586660136004,-6.47544875391759e-05,0.0923051163554191,0,0,0
6432,216589.6906858509,2010-09-03 01:39:57,1800.9103258332304,7,18,-1.0993878841400146,3.638395309448242,19.209970606742623,18.71176777984994,76.36409409402263,68.61923646025149,-3.237724376958795e-05,0.0923051163554191,0,0,0
6433,216619.70599144293,2010-09-03 01:40:27,1830.925631440282,7,18,-1.099568486213684,3.634995698928833,19.209970606742623,18.720935477924485,76.36409409402263,68.65257567740677,-9.713172767078504e-05,0.0923051163554191,0,0,0
6434,216649.72100415,2010-09-03 01:40:57,1860.940644132299,7,18,-1.0993878841400146,3.631919860839844,19.209970606742623,18.730102654789984,76.36409409402263,68.68588299489913,-3.237724376958795e-05,0.0923051163554191,0,0,0
6435,216679.7361577281,2010-09-03 01:41:27,1890.95579773551,7,18,-1.099568486213684,3.6285202503204346,19.209970606742623,18.739269474823228,76.36409409402263,68.71915988390782,-9.713172767078504e-05,0.0923051163554191,0,0,0
6436,216709.7513737068,2010-09-03 01:41:57,1920.97101369413,7,18,-1.0993878841400146,3.625444412231445,19.209970606742623,18.748436416686623,76.36409409402263,68.75240832547276,-6.47544875391759e-05,0.0923051163554191,0,0,0
6437,216739.7665240218,2010-09-03 01:42:27,1950.986164004133,7,18,-1.099568486213684,3.622530460357666,19.209970606742623,18.75760321803491,76.36409409402263,68.78562848609222,-6.47544875391759e-05,0.0923051163554191,0,0,0
6438,216769.7817171786,2010-09-03 01:42:57,1981.0013571659367,7,18,-1.099568486213684,3.619616508483887,19.209970606742623,18.76677005173684,76.36409409402263,68.81882142027497,-6.47544875391759e-05,0.0923051163554191,0,0,0
6439,216799.7968675237,2010-09-03 01:43:27,2011.0165075060147,7,18,-1.099568486213684,3.616864442825317,19.209970606742623,18.775936856459467,76.36409409402263,68.85198745155266,0.0,0.0923051163554191,0,0,0
6440,216829.812131923,2010-09-03 01:43:57,2041.0317719003515,7,18,-1.099568486213684,3.613788604736328,19.209970606742623,18.785104037419572,76.36409409402263,68.88512853210219,-9.713172767078504e-05,0.0923051163554191,0,0,0
6441,216859.82722073476,2010-09-03 01:44:27,2071.046860717095,7,18,-1.099568486213684,3.610874652862549,19.209970606742623,18.79427157436496,76.36409409402263,68.91824494184723,-6.47544875391759e-05,0.0923051163554191,0,0,0
6442,216889.842404849,2010-09-03 01:44:57,2101.062044831349,7,18,-1.099568486213684,3.6079607009887695,19.209970606742623,18.803439110729705,76.36409409402263,68.95133581139491,-9.713172767078504e-05,0.0923051163554191,0,0,0
6443,216919.85758073776,2010-09-03 01:45:27,2131.077220745165,7,18,-1.0993878841400146,3.60553240776062,19.209970606742623,18.8126066578012,76.36409409402263,68.98440123959521,-6.47544875391759e-05,0.0923051163554191,0,0,0
6444,216949.87278227543,2010-09-03 01:45:57,2161.092422247756,7,18,-1.099568486213684,3.602780342102051,19.209970606742623,18.821774174909372,76.36409409402263,69.01744117919637,-3.237724376958795e-05,0.0923051163554191,0,0,0
6445,216979.8879074328,2010-09-03 01:46:27,2191.107547415096,7,18,-1.099568486213684,3.5998663902282715,19.209970606742623,18.83094163133911,76.36409409402263,69.05045576586683,-6.47544875391759e-05,0.0923051163554191,0,0,0
6446,217009.90317899492,2010-09-03 01:46:57,2221.122818992335,7,18,-1.099568486213684,3.597276210784912,19.209970606742623,18.8401092186087,76.36409409402263,69.08344562564176,-3.237724376958795e-05,0.0923051163554191,0,0,0
6447,217039.91825535565,2010-09-03 01:47:27,2251.1378953379963,7,18,-1.099568486213684,3.594362258911133,19.209970606742623,18.84927672436126,76.36409409402263,69.11640993035333,-3.237724376958795e-05,0.0923051163554191,0,0,0
6448,217069.9334973993,2010-09-03 01:47:57,2281.1531373916528,7,18,-1.099568486213684,3.5917723178863525,19.209970606742623,18.85844424447465,76.36409409402263,69.14934921605672,-6.47544875391759e-05,0.0923051163554191,0,0,0
6449,217099.94862987485,2010-09-03 01:48:27,2311.1682698672075,7,18,-1.0997490882873535,3.588858366012573,19.209970606742623,18.867611810186258,76.36409409402263,69.18226318269515,-6.47544875391759e-05,0.0923051163554191,0,0,0
6450,217129.9667069292,2010-09-03 01:48:57,2341.1863469015084,7,18,-1.099568486213684,3.586106300354004,19.209970606742623,18.876780289360536,76.36409409402263,69.21515462435772,-3.237724376958795e-05,0.0923051163554191,0,0,0
6451,217159.9789583944,2010-09-03 01:49:28,2371.1985983867485,7,18,-1.099568486213684,3.5831923484802246,19.209970606742623,18.88594693804821,76.36409409402263,69.24801341660344,-9.713172767078504e-05,0.0923051163554191,0,0,0
6452,217189.99440927347,2010-09-03 01:49:58,2401.2140492558374,7,18,-1.0997490882873535,3.5799546241760254,19.209970606742623,18.895114566228287,76.36409409402263,69.28084939139279,-0.0001295089750783,0.0923051163554191,0,0,0
6453,217220.0094171084,2010-09-03 01:50:28,2431.229057090749,7,18,-1.099568486213684,3.577202558517456,19.209970606742623,18.904282058567876,76.36409409402263,69.31365794868742,-6.47544875391759e-05,0.0923051163554191,0,0,0
6454,217250.0245169276,2010-09-03 01:50:58,2461.244156899889,7,18,-1.099568486213684,3.5742886066436768,19.209970606742623,18.913449590565108,76.36409409402263,69.34643936503815,-0.0001295089750783,0.0923051163554191,0,0,0
6455,217280.0396387115,2010-09-03 01:51:28,2491.2592786938217,7,18,-1.099568486213684,3.5712127685546875,19.209970606742623,18.92261709924828,76.36409409402263,69.37919291006015,-6.47544875391759e-05,0.0923051163554191,0,0,0
6456,217310.05481154763,2010-09-03 01:51:58,2521.274451570067,7,18,-1.0993878841400146,3.5681369304656982,19.209970606742623,18.93178441777248,76.36409409402263,69.4119173317374,-0.0001295089750783,0.0923051163554191,0,0,0
6457,217340.07011123493,2010-09-03 01:52:28,2551.28975124734,7,18,-1.099568486213684,3.565061092376709,19.209970606742623,18.940951662046125,76.36409409402263,69.44461276732405,-9.713172767078504e-05,0.0923051163554191,0,0,0
6458,217370.0851812348,2010-09-03 01:52:58,2581.304821247185,7,18,-1.099568486213684,3.5618233680725098,19.209970606742623,18.95011907460252,76.36409409402263,69.47727947850456,-6.47544875391759e-05,0.0923051163554191,0,0,0
6459,217400.1004608019,2010-09-03 01:53:28,2611.320100794288,7,18,-1.0997490882873535,3.55826187133789,19.209970606742623,18.959286584206332,76.36409409402263,69.50991671603776,-9.713172767078504e-05,0.0923051163554191,0,0,0
6460,217430.11550475183,2010-09-03 01:53:58,2641.3351447442087,7,18,-1.0993878841400146,3.5551860332489014,19.209970606742623,18.968454018814032,76.36409409402263,69.54252255619541,-6.47544875391759e-05,0.0923051163554191,0,0,0
6461,217460.13085389743,2010-09-03 01:54:28,2671.350493879747,7,18,-1.099568486213684,3.5514626502990723,19.209970606742623,18.97762154935915,76.36409409402263,69.57509692264456,-6.47544875391759e-05,0.0923051163554191,0,0,0
6462,217490.1458806795,2010-09-03 01:54:58,2701.36552066188,7,18,-1.099568486213684,3.547739267349243,19.209970606742623,18.986789024614207,76.36409409402263,69.60763835663445,-0.0001295089750783,0.0923051163554191,0,0,0
6463,217520.16102986675,2010-09-03 01:55:28,2731.3806698490857,7,18,-1.099568486213684,3.544015884399414,19.209970606742623,18.995956603023227,76.36409409402263,69.64014628552638,-0.0001618862152099,0.0923051163554191,0,0,0
6464,217550.17632606032,2010-09-03 01:55:58,2761.3959660527007,7,18,-1.0997490882873535,3.540130615234375,19.209970606742623,19.0051242187559,76.36409409402263,69.67261921248219,-9.713172767078504e-05,0.0923051163554191,0,0,0
6465,217580.1912608883,2010-09-03 01:56:28,2791.4109008806563,7,18,-1.099568486213684,3.536245346069336,19.209970606742623,19.01429173328128,76.36409409402263,69.70505562965036,-6.47544875391759e-05,0.0923051163554191,0,0,0
6466,217610.20653404947,2010-09-03 01:56:58,2821.4261740268053,7,18,-1.099568486213684,3.531874418258667,19.209970606742623,19.023459361811938,76.36409409402263,69.73745472294794,-9.713172767078504e-05,0.0923051163554191,0,0,0
6467,217640.22169737687,2010-09-03 01:57:28,2851.4413373692896,7,18,-1.0993878841400146,3.527665376663208,19.209970606742623,19.032626935617635,76.36409409402263,69.76981473778213,-0.0001295089750783,0.0923051163554191,0,0,0
6468,217670.23686775696,2010-09-03 01:57:58,2881.456507764351,7,18,-1.099568486213684,3.523132562637329,19.209970606742623,19.04179449163293,76.36409409402263,69.80213436721792,-0.0001295089750783,0.0923051163554191,0,0,0
6469,217700.25204105425,2010-09-03 01:58:28,2911.4716810566338,7,18,-1.0997490882873535,3.51843786239624,19.209970606742623,19.05096202217888,76.36409409402263,69.83441210208333,-0.0001618862152099,0.0923051163554191,0,0,0
6470,217730.2672252236,2010-09-03 01:58:58,2941.48686519595,7,18,-1.099568486213684,3.5135812759399414,19.209970606742623,19.06012957467956,76.36409409402263,69.86664632511874,-0.0001295089750783,0.0923051163554191,0,0,0
6471,217760.28251515664,2010-09-03 01:59:28,2971.5021551439745,7,18,-1.099568486213684,3.508563041687012,19.209970606742623,19.069297172709927,76.36409409402263,69.89883511343196,-0.0001295089750783,0.0923051163554191,0,0,0
6472,217790.2975422796,2010-09-03 01:59:58,3001.51718227197,7,18,-1.099568486213684,3.503220796585083,19.209970606742623,19.078464747182128,76.36409409402263,69.9309758114217,-0.0001295089750783,0.0923051163554191,0,0,0
6473,217820.31275498512,2010-09-03 02:00:28,3031.5323949774825,7,18,-1.099568486213684,3.4973928928375244,19.209970606742623,19.08763239948513,76.36409409402263,69.96306536394678,-0.0001618862152099,0.0923051163554191,0,0,0
6474,217850.32794342012,2010-09-03 02:00:58,3061.54758340248,7,18,-1.099568486213684,3.490917444229126,19.209970606742623,19.09679998695437,76.36409409402263,69.99509926439059,-0.0001942634553415,0.0923051163554191,0,0,0
6475,217880.3431162663,2010-09-03 02:01:28,3091.5627562486507,7,18,-1.099568486213684,3.4839563369750977,19.209970606742623,19.105967575875287,76.36409409402263,70.02707253735834,-0.0002266406954731,0.0923051163554191,0,0,0
6476,217910.3583290119,2010-09-03 02:01:58,3121.5779690494,7,18,-1.099568486213684,3.4761857986450195,19.209970606742623,19.11513514903154,76.36409409402263,70.05897746126476,-0.0002266406954731,0.0923051163554191,0,0,0
6477,217940.3734551367,2010-09-03 02:02:28,3151.593095118989,7,18,-1.099568486213684,3.4671201705932617,19.209970606742623,19.124302721170142,76.36409409402263,70.09080505340177,-0.0002590179501567,0.0923051163554191,0,0,0
6478,217970.3886482333,2010-09-03 02:02:58,3181.608288240692,7,18,-1.099568486213684,3.4564356803894043,19.209970606742623,19.133470334871177,76.36409409402263,70.12254284561203,-0.0003237724304199,0.0923051163554191,0,0,0
6479,218000.40378847823,2010-09-03 02:03:28,3211.623428470573,7,18,-1.099568486213684,3.443322896957397,19.209970606742623,19.1426379392514,76.36409409402263,70.15417206433726,-0.0004209041653666,0.0923051163554191,0,0,0
6480,218030.41895821664,2010-09-03 02:03:58,3241.6385981989724,7,18,-1.099568486213684,3.4264869689941406,19.209970606742623,19.151805530471336,76.36409409402263,70.18566537219124,-0.0004856586456298,0.0923051163554191,0,0,0
6481,218060.43413606528,2010-09-03 02:04:28,3271.6537760526235,7,18,-1.099568486213684,3.404308557510376,19.209970606742623,19.160973128883512,76.36409409402263,70.2169817665334,-0.0006475448608398,0.0923051163554191,0,0,0
6482,218090.4493517081,2010-09-03 02:04:58,3301.668991690444,7,18,-1.099568486213684,3.3738739490509038,19.209970606742623,19.170140806960244,76.36409409402263,70.24805912082172,-0.0009389400365762,0.0923051163554191,0,0,0
6483,218120.4645094717,2010-09-03 02:05:28,3331.684149454024,7,18,-1.0993878841400146,3.330326795578003,19.209970606742623,19.17930850489644,76.36409409402263,70.27880060862876,-0.0012627125252038,0.0923051163554191,0,0,0
6484,218150.47965778672,2010-09-03 02:05:58,3361.69929779913,7,18,-1.099568486213684,3.2665438652038574,19.209970606742623,19.188476055504232,76.36409409402263,70.30905659305746,-0.0019749640487134,0.0923051163554191,0,0,0
6485,218180.4948435651,2010-09-03 02:06:28,3391.714483577532,7,18,-1.099568486213684,3.1718406677246094,19.209970606742623,19.19764365304633,76.36409409402263,70.33859931961352,-0.0030110836960375,0.0923051163554191,0,0,0
6486,218210.5100113437,2010-09-03 02:06:58,3421.729651325997,7,18,-1.099568486213684,3.016754150390625,19.209970606742623,19.206811262316947,76.36409409402263,70.36703663753447,-0.0053745745681226,0.0923051163554191,0,0,0
6487,218230.1659588979,2010-09-03 02:07:18,3441.385598890311,7,18,-1.099568486213684,2.816501379013061,19.209970606742623,19.212814829979138,76.36409409402263,70.384617053761,-0.0105549339205026,0.0923051163554191,0,0,0
6488,218237.71271604384,2010-09-03 02:07:25,3448.932356026173,7,18,-1.099568486213684,2.699943780899048,19.209970606742623,19.21511988760659,76.36409409402263,70.39097860524092,-0.0127565860748291,0.0923051163554191,0,0,0
6489,218297.72896039727,2010-09-03 02:08:25,60.01472392308524,8,18,0.0,3.399613857269287,19.209970606742623,19.21511988760659,76.36409409402263,70.39097860524092,0.0011008263099938,0.0923051163554191,0,0,0
6490,218297.918806254,2010-09-03 02:08:26,0.187440734985657,9,18,-1.9243103452026844e-05,3.399613857269287,19.209970606742623,19.215119888608523,76.36409409402263,70.39097860864709,0.0,0.0867155864834785,0,0,0
6491,218302.74680758387,2010-09-03 02:08:31,5.01544204478855,9,18,0.0001613661734154,3.406413078308105,19.209971540586395,19.215119888691564,76.36409727245659,70.39097860892939,0.0009389400365762,0.0867155864834785,0,0,0
