Data_Point,Test_Time(s),Date_Time,Step_Time(s),Step_Index,Cycle_Index,Current(A),Voltage(V),Charge_Capacity(Ah),Discharge_Capacity(Ah),Charge_Energy(Wh),Discharge_Energy(Wh),dV/dt(V/s),Internal_Resistance(Ohm),Is_FC_Data,AC_Impedance(Ohm),ACI_Phase_Angle(Deg)
11068,374304.1261141318,2010-09-04 21:28:48,30.01518384859187,1,32,0.0,3.461130380630493,32.76338812831584,32.75155470081642,130.365843195295,119.90320449934175,0.0006799221155233,0.086637258529663,0,0,0
11069,374334.1412622564,2010-09-04 21:29:18,60.03033198818594,1,32,0.0,3.4807186126708984,32.76338812831584,32.75155470081642,130.365843195295,119.90320449934175,0.0004209041653666,0.086637258529663,0,0,0
11070,374364.1564485361,2010-09-04 21:29:48,90.04551826783675,1,32,0.0,3.495288372039795,32.76338812831584,32.75155470081642,130.365843195295,119.90320449934175,0.0003561496851034,0.086637258529663,0,0,0
11071,374394.1247379343,2010-09-04 21:30:18,120.01380766101668,1,32,0.0,3.5064585208892822,32.76338812831584,32.75155470081642,130.365843195295,119.90320449934175,0.0002913951757363,0.086637258529663,0,0,0
11072,374424.1382297795,2010-09-04 21:30:48,30.015198460008023,2,32,0.5501165986061096,3.633538722991944,32.76797466138029,32.75155470081642,130.38238354537265,119.90320449934175,0.0012303352123126,0.086637258529663,0,0,0
11073,374454.15338157816,2010-09-04 21:31:18,60.030349436672935,2,32,0.5501165986061096,3.670286893844605,32.77256112449328,32.75155470081642,130.3991381003285,119.90320449934175,0.0008094310760498,0.086637258529663,0,0,0
11074,374484.1684933521,2010-09-04 21:31:48,90.04546118557019,2,32,0.5501165986061096,3.697645425796509,32.7771475883613,32.75155470081642,130.41603747114783,119.90320449934175,0.0006799221155233,0.086637258529663,0,0,0
11075,374514.1837047243,2010-09-04 21:32:18,120.0606725828218,2,32,0.5501165986061096,3.719338178634644,32.78173409274601,32.75155470081642,130.43304847139063,119.90320449934175,0.0004856586456298,0.086637258529663,0,0,0
11076,374544.1988588288,2010-09-04 21:32:48,150.07582668728216,2,32,0.5501165986061096,3.7363362312316895,32.786320570413714,32.75155470081642,130.45014801704147,119.90320449934175,0.0004209041653666,0.086637258529663,0,0,0
11077,374574.21404997056,2010-09-04 21:33:18,180.09101781902586,2,32,0.550297200679779,3.749449014663696,32.79090703499265,32.75155470081642,130.46731611054906,119.90320449934175,0.0003237724304199,0.086637258529663,0,0,0
11078,374604.2292284559,2010-09-04 21:33:48,210.1061962942256,2,32,0.550297200679779,3.7572193145751953,32.795493459954415,32.75155470081642,130.48453152213042,119.90320449934175,0.0001618862152099,0.086637258529663,0,0,0
11079,374634.2443900338,2010-09-04 21:34:18,240.12135787732504,2,32,0.550297200679779,3.762237787246704,32.80007994555923,32.75155470081642,130.50177606305434,119.90320449934175,0.0001295089750783,0.086637258529663,0,0,0
11080,374664.25955615833,2010-09-04 21:34:48,270.13652402179275,2,32,0.5501165986061096,3.7657992839813232,32.80466639235173,32.75155470081642,130.51903952092223,119.90320449934175,9.713172767078504e-05,0.086637258529663,0,0,0
11081,374694.2775773283,2010-09-04 21:35:18,300.1545451918628,2,32,0.5501165986061096,3.7690370082855225,32.80925328377446,32.75155470081642,130.53632035125608,119.90320449934175,6.47544875391759e-05,0.086637258529663,0,0,0
11082,374724.2900616991,2010-09-04 21:35:49,330.16702953245016,2,32,0.5501165986061096,3.7722747325897217,32.81383976858864,32.75155470081642,130.55361440140433,119.90320449934175,9.713172767078504e-05,0.086637258529663,0,0,0
11083,374754.30534277495,2010-09-04 21:36:19,360.1823106083624,2,32,0.5501165986061096,3.775350570678711,32.81842707421608,32.75155470081642,130.57092601556255,119.90320449934175,6.47544875391759e-05,0.086637258529663,0,0,0
11084,374784.3203878226,2010-09-04 21:36:49,390.19735564599466,2,32,0.5499359965324402,3.7784264087677,32.823013979436055,32.75155470081642,130.58825038240218,119.90320449934175,6.47544875391759e-05,0.086637258529663,0,0,0
11085,374814.3354514014,2010-09-04 21:37:19,420.2124192398748,2,32,0.5501165986061096,3.7815022468566895,32.82760041136701,32.75155470081642,130.60558717337454,119.90320449934175,9.713172767078504e-05,0.086637258529663,0,0,0
11086,374844.3507318558,2010-09-04 21:37:49,450.2276996992505,2,32,0.5501165986061096,3.784578084945679,32.8321868394845,32.75155470081642,130.62293812860992,119.90320449934175,9.713172767078504e-05,0.086637258529663,0,0,0
11087,374874.3657845274,2010-09-04 21:38:19,480.242752360884,2,32,0.5501165986061096,3.787815809249878,32.836773283421984,32.75155470081642,130.64030312218335,119.90320449934175,9.713172767078504e-05,0.086637258529663,0,0,0
11088,374904.3809497447,2010-09-04 21:38:49,510.2579175780408,2,32,0.5501165986061096,3.790729761123657,32.84135971493386,32.75155470081642,130.6576820134488,119.90320449934175,6.47544875391759e-05,0.086637258529663,0,0,0
11089,374934.3961610817,2010-09-04 21:39:19,540.2731289351924,2,32,0.5501165986061096,3.7938055992126474,32.84594609995221,32.75155470081642,130.67507450414928,119.90320449934175,9.713172767078504e-05,0.086637258529663,0,0,0
11090,374964.4112932264,2010-09-04 21:39:49,570.2882610598723,2,32,0.5501165986061096,3.796557664871216,32.850532520718225,32.75155470081642,130.69248099804875,119.90320449934175,3.237724376958795e-05,0.086637258529663,0,0,0
11091,374994.4264678771,2010-09-04 21:40:19,600.3034357105402,2,32,0.550297200679779,3.799795389175415,32.85511893580916,32.75155470081642,130.70990133600088,119.90320449934175,6.47544875391759e-05,0.086637258529663,0,0,0
11092,375024.4417683262,2010-09-04 21:40:49,630.318736154724,2,32,0.5501165986061096,3.802871227264404,32.85970542888001,32.75155470081642,130.7273359329492,119.90320449934175,6.47544875391759e-05,0.086637258529663,0,0,0
11093,375054.4568177248,2010-09-04 21:41:19,660.3337855832999,2,32,0.5499359965324402,3.8059470653533936,32.86429184403922,32.75155470081642,130.74478434260948,119.90320449934175,9.713172767078504e-05,0.086637258529663,0,0,0
11094,375084.47199916746,2010-09-04 21:41:49,690.3489670058453,2,32,0.550297200679779,3.8091847896575928,32.86887832151573,32.75155470081642,130.76224738180548,119.90320449934175,9.713172767078504e-05,0.086637258529663,0,0,0
11095,375114.4871492718,2010-09-04 21:42:19,720.364117105324,2,32,0.5499359965324402,3.812260627746582,32.87346478630499,32.75155470081642,130.77972502795672,119.90320449934175,9.713172767078504e-05,0.086637258529663,0,0,0
11096,375144.50234172685,2010-09-04 21:42:49,750.3793095603659,2,32,0.5501165986061096,3.815660238265991,32.87805119738788,32.75155470081642,130.79721791634606,119.90320449934175,9.713172767078504e-05,0.086637258529663,0,0,0
11097,375174.5175110893,2010-09-04 21:43:19,780.3944789429038,2,32,0.5501165986061096,3.8190598487854,32.88263761454124,32.75155470081642,130.81472637065306,119.90320449934175,6.47544875391759e-05,0.086637258529663,0,0,0
11098,375204.5327889223,2010-09-04 21:43:49,810.4097567456585,2,32,0.5501165986061096,3.82262134552002,32.887224087427704,32.75155470081642,130.83225094106962,119.90320449934175,6.47544875391759e-05,0.086637258529663,0,0,0
11099,375234.5479490969,2010-09-04 21:44:19,840.4249169302723,2,32,0.5501165986061096,3.826182842254639,32.89181049255751,32.75155470081642,130.8497912561478,119.90320449934175,6.47544875391759e-05,0.086637258529663,0,0,0
11100,375264.56342208106,2010-09-04 21:44:49,870.4403899445541,2,32,0.5501165986061096,3.829744338989258,32.89639699439943,32.75155470081642,130.86734810727086,119.90320449934175,9.713172767078504e-05,0.086637258529663,0,0,0
11101,375294.578237361,2010-09-04 21:45:19,900.4552051844597,2,32,0.550297200679779,3.833305597305298,32.900983278046155,32.75155470081642,130.88492011480636,119.90320449934175,0.0001294612884521,0.086637258529663,0,0,0
11102,375324.5933561976,2010-09-04 21:45:49,930.4703240310464,2,32,0.5501165986061096,3.836705207824707,32.905569666530454,32.75155470081642,130.90250841649822,119.90320449934175,9.713172767078504e-05,0.086637258529663,0,0,0
11103,375354.6085815998,2010-09-04 21:46:19,960.4855494332028,2,32,0.5501165986061096,3.839942932128906,32.91015610298234,32.75155470081642,130.92011258483154,119.90320449934175,6.47544875391759e-05,0.086637258529663,0,0,0
11104,375384.6236913286,2010-09-04 21:46:49,990.500659167078,2,32,0.5499359965324402,3.8431806564331055,32.91474251642745,32.75155470081642,130.93773200251016,119.90320449934175,6.47544875391759e-05,0.086637258529663,0,0,0
11105,375414.638889929,2010-09-04 21:47:19,1020.5158577624233,2,32,0.5501165986061096,3.846580266952514,32.91932897246389,32.75155470081642,130.95536654100306,119.90320449934175,9.713172767078504e-05,0.086637258529663,0,0,0
11106,375444.6540329207,2010-09-04 21:47:49,1050.5310007541873,2,32,0.5499359965324402,3.849656105041504,32.92391540994878,32.75155470081642,130.97301575501064,119.90320449934175,9.713172767078504e-05,0.086637258529663,0,0,0
11107,375474.6693333298,2010-09-04 21:48:19,1080.546301163284,2,32,0.5499359965324402,3.852731943130493,32.928501938365635,32.75155470081642,130.99067979965977,119.90320449934175,6.47544875391759e-05,0.086637258529663,0,0,0
11108,375504.68451072735,2010-09-04 21:48:49,1110.5614785607977,2,32,0.5499359965324402,3.8558077812194815,32.93308838711461,32.75155470081642,131.00835753323145,119.90320449934175,9.713172767078504e-05,0.086637258529663,0,0,0
11109,375534.6995638201,2010-09-04 21:49:19,1140.5765316535058,2,32,0.5499359965324402,3.8587217330932617,32.93767477853175,32.75155470081642,131.02604872418303,119.90320449934175,9.713172767078504e-05,0.086637258529663,0,0,0
11110,375564.7147591824,2010-09-04 21:49:49,1170.5917270157934,2,32,0.5501165986061096,3.861473798751831,32.942261189010075,32.75155470081642,131.04375311699718,119.90320449934175,6.47544875391759e-05,0.086637258529663,0,0,0
11111,375594.73007494473,2010-09-04 21:50:19,1200.6070428082298,2,32,0.5501165986061096,3.8642258644104,32.946847646152314,32.75155470081642,131.06147027409165,119.90320449934175,6.47544875391759e-05,0.086637258529663,0,0,0
11112,375624.7450734262,2010-09-04 21:50:49,1230.6220412647676,2,32,0.5501165986061096,3.86681604385376,32.951434021417086,32.75155470081642,131.079198969063,119.90320449934175,9.713172767078504e-05,0.086637258529663,0,0,0
11113,375654.7602709941,2010-09-04 21:51:19,1260.6372388275397,2,32,0.5501165986061096,3.869082450866699,32.956020495919255,32.75155470081642,131.09693924851013,119.90320449934175,6.47544875391759e-05,0.086637258529663,0,0,0
11114,375684.7754296751,2010-09-04 21:51:49,1290.6523975384805,2,32,0.5501165986061096,3.871348857879639,32.96060693318506,32.75155470081642,131.11468978950134,119.90320449934175,6.47544875391759e-05,0.086637258529663,0,0,0
11115,375714.7909219522,2010-09-04 21:52:19,1320.6678898257967,2,32,0.550297200679779,3.873291492462158,32.965193453657,32.75155470081642,131.13245040681207,119.90320449934175,3.237724376958795e-05,0.086637258529663,0,0,0
11116,375744.80588487023,2010-09-04 21:52:49,1350.682852708674,2,32,0.5501165986061096,3.875072240829468,32.969779910386606,32.75155470081642,131.15021970925153,119.90320449934175,0.0,0.086637258529663,0,0,0
11117,375774.8209561582,2010-09-04 21:53:19,1380.6979240167802,2,32,0.5501165986061096,3.876852989196777,32.97436626473827,32.75155470081642,131.1679968821422,119.90320449934175,3.237724376958795e-05,0.086637258529663,0,0,0
11118,375804.83610201214,2010-09-04 21:53:49,1410.713069845615,2,32,0.5501165986061096,3.878633737564087,32.978952631603775,32.75155470081642,131.1857816953831,119.90320449934175,3.237724376958795e-05,0.086637258529663,0,0,0
11119,375834.8512736954,2010-09-04 21:54:19,1440.728241528887,2,32,0.5501165986061096,3.880090713500977,32.983539045101885,32.75155470081642,131.20357364771684,119.90320449934175,3.237724376958795e-05,0.086637258529663,0,0,0
11120,375864.8664405216,2010-09-04 21:54:49,1470.7434083550545,2,32,0.5497553944587708,3.881385803222656,32.988125497740086,32.75155470081642,131.2213722505253,119.90320449934175,3.237724376958795e-05,0.086637258529663,0,0,0
11121,375894.8816708059,2010-09-04 21:55:19,1500.7586386293533,2,32,0.5501165986061096,3.882680892944336,32.99271199002322,32.75155470081642,131.2391770376085,119.90320449934175,0.0,0.086637258529663,0,0,0
11122,375924.8967956124,2010-09-04 21:55:49,1530.7737634458188,2,32,0.5497553944587708,3.8838140964508057,32.99729844842495,32.75155470081642,131.25698745818875,119.90320449934175,3.237724376958795e-05,0.086637258529663,0,0,0
11123,375954.9121747126,2010-09-04 21:56:19,1560.7891425510502,2,32,0.5501165986061096,3.8849472999572754,33.00188490750497,32.75155470081642,131.27480321403922,119.90320449934175,3.237724376958795e-05,0.086637258529663,0,0,0
11124,375984.9275483342,2010-09-04 21:56:49,1590.8045161575774,2,32,0.550297200679779,3.886242389678955,33.00647140194678,32.75155470081642,131.29262438113537,119.90320449934175,6.47544875391759e-05,0.086637258529663,0,0,0
11125,376014.942593457,2010-09-04 21:57:19,1620.8195612904467,2,32,0.550297200679779,3.887213706970215,33.01105782315151,32.75155470081642,131.3104504103246,119.90320449934175,3.237724376958795e-05,0.086637258529663,0,0,0
11126,376044.9574835836,2010-09-04 21:57:49,1650.834451416993,2,32,0.5499359965324402,3.8881850242614746,33.015644283859075,32.75155470081642,131.3282816190137,119.90320449934175,0.0,0.086637258529663,0,0,0
11127,376074.9726740787,2010-09-04 21:58:19,1680.8496419221751,2,32,0.550297200679779,3.8894801139831534,33.02023074621659,32.75155470081642,131.3461178131941,119.90320449934175,6.47544875391759e-05,0.086637258529663,0,0,0
11128,376104.9878264188,2010-09-04 21:58:49,1710.8647942522134,2,32,0.5501165986061096,3.890451431274414,33.024817291887345,32.75155470081642,131.36395919882025,119.90320449934175,-3.237724376958795e-05,0.086637258529663,0,0,0
11129,376135.0030273048,2010-09-04 21:59:19,1740.8799951382678,2,32,0.5501165986061096,3.891584634780884,33.0294037195143,32.75155470081642,131.3818049895023,119.90320449934175,3.237724376958795e-05,0.086637258529663,0,0,0
11130,376165.01815480297,2010-09-04 21:59:49,1770.8951226614793,2,32,0.5501165986061096,3.892555952072144,33.03399017483781,32.75155470081642,131.3996557830304,119.90320449934175,3.237724376958795e-05,0.086637258529663,0,0,0
11131,376195.0335087054,2010-09-04 22:00:19,1800.9104765438476,2,32,0.5501165986061096,3.893689155578613,33.038576670620465,32.75155470081642,131.41751164573176,119.90320449934175,6.47544875391759e-05,0.086637258529663,0,0,0
11132,376225.0486328502,2010-09-04 22:00:49,1830.925600693652,2,32,0.5501165986061096,3.894660472869873,33.043163201469625,32.75155470081642,131.43537256878193,119.90320449934175,0.0,0.086637258529663,0,0,0
11133,376255.0636577376,2010-09-04 22:01:19,1860.9406255710385,2,32,0.5499359965324402,3.895631790161133,33.04774930017052,32.75155470081642,131.45323599761193,119.90320449934175,0.0,0.086637258529663,0,0,0
11134,376285.0789272898,2010-09-04 22:01:49,1890.9558951533047,2,32,0.5501165986061096,3.8967649936676025,33.05233482199644,32.75155470081642,131.47110223609715,119.90320449934175,3.237724376958795e-05,0.086637258529663,0,0,0
11135,376315.093994222,2010-09-04 22:02:19,1920.9709620454057,2,32,0.5499359965324402,3.897898197174072,33.05692052631564,32.75155470081642,131.48897415202794,119.90320449934175,3.237724376958795e-05,0.086637258529663,0,0,0
11136,376345.10916709824,2010-09-04 22:02:49,1950.9861349467133,2,32,0.5499359965324402,3.898869514465332,33.06150610057663,32.75155470081642,131.5068505195993,119.90320449934175,3.237724376958795e-05,0.086637258529663,0,0,0
11137,376375.12435094186,2010-09-04 22:03:19,1981.0013187852803,2,32,0.5499359965324402,3.9000027179718018,33.06609168609138,32.75155470081642,131.5247319675091,119.90320449934175,0.0,0.086637258529663,0,0,0
11138,376405.13952890073,2010-09-04 22:03:49,2011.0164967241435,2,32,0.5497553944587708,3.901135921478272,33.07067727460057,32.75155470081642,131.54261832981743,119.90320449934175,6.47544875391759e-05,0.086637258529663,0,0,0
11139,376435.1548036208,2010-09-04 22:04:19,2041.0317714843147,2,32,0.5501165986061096,3.902269124984741,33.07526314728285,32.75155470081642,131.56051101862013,119.90320449934175,3.237724376958795e-05,0.086637258529663,0,0,0
11140,376465.1699750986,2010-09-04 22:04:49,2071.0469429420245,2,32,0.550297200679779,3.903564214706421,33.07984968665697,32.75155470081642,131.57841151038048,119.90320449934175,6.47544875391759e-05,0.086637258529663,0,0,0
11141,376495.1850299006,2010-09-04 22:05:19,2101.0619977590304,2,32,0.550297200679779,3.9045355319976807,33.08443614878263,32.75155470081642,131.59631689778746,119.90320449934175,3.237724376958795e-05,0.086637258529663,0,0,0
11142,376525.2001974084,2010-09-04 22:05:49,2131.0771652418334,2,32,0.5501165986061096,3.9056687355041504,33.08902269635658,32.75155470081642,131.61422773736322,119.90320449934175,3.237724376958795e-05,0.086637258529663,0,0,0
11143,376555.215405743,2010-09-04 22:06:19,2161.0923736065274,2,32,0.5501165986061096,3.90680193901062,33.09360920493378,32.75155470081642,131.63214371817952,119.90320449934175,6.47544875391759e-05,0.086637258529663,0,0,0
11144,376585.2305593963,2010-09-04 22:06:49,2191.107527229788,2,32,0.5501165986061096,3.90793514251709,33.098195603862564,32.75155470081642,131.65006459879822,119.90320449934175,3.237724376958795e-05,0.086637258529663,0,0,0
11145,376615.2484886524,2010-09-04 22:07:19,2221.125456490792,2,32,0.5499359965324402,3.90906834602356,33.10278245291103,32.75155470081642,131.66799264907348,119.90320449934175,0.0,0.086637258529663,0,0,0
11146,376645.2609074746,2010-09-04 22:07:50,2251.137875313088,2,32,0.5501165986061096,3.9103634357452393,33.10736856612984,32.75155470081642,131.68592332252032,119.90320449934175,3.237724376958795e-05,0.086637258529663,0,0,0
11147,376675.2764892349,2010-09-04 22:08:20,2281.1534570834237,2,32,0.5501165986061096,3.911658525466919,33.111955187413805,32.75155470081642,131.70386143322125,119.90320449934175,3.237724376958795e-05,0.086637258529663,0,0,0
11148,376705.2915254005,2010-09-04 22:08:50,2311.1684932439307,2,32,0.550297200679779,3.912953615188599,33.11654167328569,32.75155470081642,131.72180461584347,119.90320449934175,6.47544875391759e-05,0.086637258529663,0,0,0
11149,376735.3064352612,2010-09-04 22:09:20,2341.183403094636,2,32,0.5499359965324402,3.914086580276489,33.121128096778136,32.75155470081642,131.73975318158486,119.90320449934175,3.237724376958795e-05,0.086637258529663,0,0,0
11150,376765.32160496456,2010-09-04 22:09:50,2371.1985727979736,2,32,0.5501165986061096,3.915219783782959,33.12571460120963,32.75155470081642,131.75770784930464,119.90320449934175,3.237724376958795e-05,0.086637258529663,0,0,0
11151,376795.3368006777,2010-09-04 22:10:20,2401.213768511136,2,32,0.5501165986061096,3.916514873504639,33.13030112564888,32.75155470081642,131.775668176523,119.90320449934175,3.237724376958795e-05,0.086637258529663,0,0,0
11152,376825.3519608824,2010-09-04 22:10:50,2431.2289287358494,2,32,0.5501165986061096,3.9178099632263184,33.13488759687906,32.75155470081642,131.7936341616131,119.90320449934175,6.47544875391759e-05,0.086637258529663,0,0,0
11153,376855.3671220394,2010-09-04 22:11:20,2461.244089872837,2,32,0.5501165986061096,3.919266939163208,33.13947408861402,32.75155470081642,131.81160611995668,119.90320449934175,6.47544875391759e-05,0.086637258529663,0,0,0
11154,376885.382530593,2010-09-04 22:11:50,2491.259498446513,2,32,0.5499359965324402,3.920238256454468,33.144060649461146,32.75155470081642,131.8295843472223,119.90320449934175,0.0,0.086637258529663,0,0,0
11155,376915.3974483334,2010-09-04 22:12:20,2521.274416166831,2,32,0.550297200679779,3.921695232391357,33.14864718767018,32.75155470081642,131.84756845858635,119.90320449934175,3.237724376958795e-05,0.086637258529663,0,0,0
11156,376945.41274848685,2010-09-04 22:12:50,2551.2897163202906,2,32,0.5499359965324402,3.923152208328247,33.15323370316432,32.75155470081642,131.86555860529825,119.90320449934175,6.47544875391759e-05,0.086637258529663,0,0,0
11157,376975.42781258695,2010-09-04 22:13:20,2581.3047804204325,2,32,0.550297200679779,3.924447298049927,33.15782023292004,32.75155470081642,131.88355491655565,119.90320449934175,3.237724376958795e-05,0.086637258529663,0,0,0
11158,377005.4431059886,2010-09-04 22:13:50,2611.3200738220644,2,32,0.550297200679779,3.9257423877716064,33.16240681500089,32.75155470081642,131.90155766139927,119.90320449934175,6.47544875391759e-05,0.086637258529663,0,0,0
11159,377035.4581538333,2010-09-04 22:14:20,2641.3351216867422,2,32,0.5501165986061096,3.927199363708496,33.16699334418877,32.75155470081642,131.91956629443297,119.90320449934175,6.47544875391759e-05,0.086637258529663,0,0,0
11160,377065.47330190765,2010-09-04 22:14:50,2671.350269741124,2,32,0.5501165986061096,3.928494453430176,33.17157983568154,32.75155470081642,131.93758112880533,119.90320449934175,0.0,0.086637258529663,0,0,0
11161,377095.4884896058,2010-09-04 22:15:20,2701.3654574393104,2,32,0.5499359965324402,3.9299514293670654,33.17616639327158,32.75155470081642,131.9556025480537,119.90320449934175,3.237724376958795e-05,0.086637258529663,0,0,0
11162,377125.5036240664,2010-09-04 22:15:50,2731.380591924874,2,32,0.5499359965324402,3.931246519088745,33.18075289940113,32.75155470081642,131.97363021889052,119.90320449934175,0.0,0.086637258529663,0,0,0
11163,377155.5189648812,2010-09-04 22:16:20,2761.395932744687,2,32,0.550297200679779,3.9328653812408447,33.18533951933284,32.75155470081642,131.9916647388235,119.90320449934175,6.47544875391759e-05,0.086637258529663,0,0,0
11164,377185.5340300941,2010-09-04 22:16:50,2791.4109979275268,2,32,0.5501165986061096,3.934160470962525,33.18992609341276,32.75155470081642,132.00970569175996,119.90320449934175,6.47544875391759e-05,0.086637258529663,0,0,0
11165,377215.5492060831,2010-09-04 22:17:20,2821.4261739165304,2,32,0.5501165986061096,3.935779333114624,33.19451256408134,32.75155470081642,132.02775280454574,119.90320449934175,9.713172767078504e-05,0.086637258529663,0,0,0
11166,377245.56437748566,2010-09-04 22:17:50,2851.4413453491784,2,32,0.550297200679779,3.937074422836304,33.19909909431602,32.75155470081642,132.04580663028509,119.90320449934175,6.47544875391759e-05,0.086637258529663,0,0,0
11167,377275.57955530926,2010-09-04 22:18:20,2881.456523147691,2,32,0.5501165986061096,3.938531398773194,33.20368554957077,32.75155470081642,132.06386691022888,119.90320449934175,6.47544875391759e-05,0.086637258529663,0,0,0
11168,377305.5947010478,2010-09-04 22:18:50,2911.4716688812887,2,32,0.5501165986061096,3.939988374710083,33.208272003969,32.75155470081642,132.08193390036962,119.90320449934175,3.237724376958795e-05,0.086637258529663,0,0,0
11169,377335.60988943273,2010-09-04 22:19:20,2941.4868572661862,2,32,0.5501165986061096,3.9414453506469727,33.21285841008118,32.75155470081642,132.10000758735333,119.90320449934175,3.237724376958795e-05,0.086637258529663,0,0,0
11170,377365.6250409357,2010-09-04 22:19:50,2971.502008769163,2,32,0.5501165986061096,3.943064212799072,33.21744483325568,32.75155470081642,132.11808812434975,119.90320449934175,6.47544875391759e-05,0.086637258529663,0,0,0
11171,377395.64023256366,2010-09-04 22:20:20,3001.517200427219,2,32,0.5499359965324402,3.944359302520752,33.222031246521446,32.75155470081642,132.13617558660496,119.90320449934175,3.237724376958795e-05,0.086637258529663,0,0,0
11172,377425.65538922953,2010-09-04 22:20:50,3031.532357078025,2,32,0.5501165986061096,3.945978164672852,33.226617590166605,32.75155470081642,132.15426973878752,119.90320449934175,3.237724376958795e-05,0.086637258529663,0,0,0
11173,377455.6706173535,2010-09-04 22:21:20,3061.54758521199,2,32,0.5501165986061096,3.947597026824951,33.23120404250916,32.75155470081642,132.1723712826681,119.90320449934175,3.237724376958795e-05,0.086637258529663,0,0,0
11174,377485.685855357,2010-09-04 22:21:50,3091.562823220565,2,32,0.5499359965324402,3.949054002761841,33.23579046176806,32.75155470081642,132.19047983413395,119.90320449934175,3.237724376958795e-05,0.086637258529663,0,0,0
11175,377515.70090430445,2010-09-04 22:22:20,3121.577872137867,2,32,0.550297200679779,3.950672864913941,33.24037686865448,32.75155470081642,132.20859551157184,119.90320449934175,6.47544875391759e-05,0.086637258529663,0,0,0
11176,377545.7161542326,2010-09-04 22:22:50,3151.593122156374,2,32,0.5501165986061096,3.95229172706604,33.24496336298776,32.75155470081642,132.22671882633182,119.90320449934175,6.47544875391759e-05,0.086637258529663,0,0,0
11177,377575.7312976757,2010-09-04 22:23:20,3181.608265504025,2,32,0.5501165986061096,3.95391058921814,33.249549858749404,32.75155470081642,132.24484950714853,119.90320449934175,3.237724376958795e-05,0.086637258529663,0,0,0
11178,377605.74641858734,2010-09-04 22:23:50,3211.6233864408214,2,32,0.5499359965324402,3.955367565155029,33.25413634037044,32.75155470081642,132.2629875507178,119.90320449934175,3.237724376958795e-05,0.086637258529663,0,0,0
11179,377635.76171021455,2010-09-04 22:24:20,3241.638678047981,2,32,0.5499359965324402,3.956986427307129,33.25872280094353,32.75155470081642,132.2811330480401,119.90320449934175,3.237724376958795e-05,0.086637258529663,0,0,0
11180,377665.7769019428,2010-09-04 22:24:50,3271.653869801274,2,32,0.5501165986061096,3.9587671756744394,33.263309249862324,32.75155470081642,132.29928602735995,119.90320449934175,3.237724376958795e-05,0.086637258529663,0,0,0
11181,377695.7919326748,2010-09-04 22:25:20,3301.668900533252,2,32,0.5501165986061096,3.960547924041748,33.26789567341359,32.75155470081642,132.31744666150394,119.90320449934175,3.237724376958795e-05,0.086637258529663,0,0,0
11182,377725.80710285925,2010-09-04 22:25:50,3331.6840706977387,2,32,0.5504778623580933,3.9623286724090576,33.27248213706173,32.75155470081642,132.335615356096,119.90320449934175,6.47544875391759e-05,0.086637258529663,0,0,0
11183,377755.82227138965,2010-09-04 22:26:20,3361.699239223141,2,32,0.550297200679779,3.964109420776367,33.27706863997519,32.75155470081642,132.3537920750817,119.90320449934175,6.47544875391759e-05,0.086637258529663,0,0,0
11184,377785.8374355141,2010-09-04 22:26:50,3391.7144033475743,2,32,0.5499359965324402,3.965566396713257,33.28165514475885,32.75155470081642,132.3719768773219,119.90320449934175,-3.237724376958795e-05,0.086637258529663,0,0,0
11185,377815.8526298138,2010-09-04 22:27:20,3421.729597652226,2,32,0.5501165986061096,3.967509031295776,33.28624165629664,32.75155470081642,132.39016985077333,119.90320449934175,3.237724376958795e-05,0.086637258529663,0,0,0
11186,377845.8678353263,2010-09-04 22:27:50,3451.7448031597987,2,32,0.550297200679779,3.969289779663086,33.29082819343894,32.75155470081642,132.40837113897817,119.90320449934175,6.47544875391759e-05,0.086637258529663,0,0,0
11187,377875.88298929046,2010-09-04 22:28:20,3481.7599571439587,2,32,0.5499359965324402,3.9709086418151855,33.295414664715985,32.75155470081642,132.42658047401022,119.90320449934175,0.0,0.086637258529663,0,0,0
11188,377905.8982620256,2010-09-04 22:28:50,3511.775229899133,2,32,0.5499359965324402,3.972851276397705,33.30000118874249,32.75155470081642,132.44479848512145,119.90320449934175,3.237724376958795e-05,0.086637258529663,0,0,0
11189,377935.9135363598,2010-09-04 22:29:20,3541.790504223218,2,32,0.5499359965324402,3.9747939109802246,33.30458775782613,32.75155470081642,132.46302528093793,119.90320449934175,3.237724376958795e-05,0.086637258529663,0,0,0
11190,377965.9284963002,2010-09-04 22:29:50,3571.8054641336867,2,32,0.550297200679779,3.976736545562744,33.30917425916404,32.75155470081642,132.48126046517274,119.90320449934175,9.713172767078504e-05,0.086637258529663,0,0,0
11191,377995.94365262025,2010-09-04 22:30:20,3601.820620483744,2,32,0.5501165986061096,3.978679180145264,33.31376078874186,32.75155470081642,132.499504136903,119.90320449934175,9.713172767078504e-05,0.086637258529663,0,0,0
11192,378025.958826509,2010-09-04 22:30:50,3631.835794342438,2,32,0.550297200679779,3.980783700942993,33.318347174453045,32.75155470081642,132.51775653843828,119.90320449934175,6.47544875391759e-05,0.086637258529663,0,0,0
11193,378055.9740023025,2010-09-04 22:31:20,3661.8509701359535,2,32,0.5501165986061096,3.982564449310303,33.32293361280602,32.75155470081642,132.536018138366,119.90320449934175,6.47544875391759e-05,0.086637258529663,0,0,0
11194,378085.9891791988,2010-09-04 22:31:50,3691.866147047256,2,32,0.5501165986061096,3.984668970108032,33.32752002691838,32.75155470081642,132.55428863120682,119.90320449934175,6.47544875391759e-05,0.086637258529663,0,0,0
11195,378116.0043272983,2010-09-04 22:32:20,3721.8812951317127,2,32,0.5499359965324402,3.9867734909057617,33.33210646456079,32.75155470081642,132.57256842360275,119.90320449934175,6.47544875391759e-05,0.086637258529663,0,0,0
11196,378146.0194982497,2010-09-04 22:32:50,3751.8964660831616,2,32,0.5501165986061096,3.9885542392730713,33.3366929197,32.75155470081642,132.59085746029703,119.90320449934175,6.47544875391759e-05,0.086637258529663,0,0,0
11197,378176.0347093112,2010-09-04 22:33:20,3781.911677144576,2,32,0.5501165986061096,3.990658760070801,33.341279387885926,32.75155470081642,132.60915581217708,119.90320449934175,3.237724376958795e-05,0.086637258529663,0,0,0
11198,378206.0498419471,2010-09-04 22:33:50,3811.9268098055927,2,32,0.5499359965324402,3.9927632808685294,33.34586576303325,32.75155470081642,132.62746304364728,119.90320449934175,9.713172767078504e-05,0.086637258529663,0,0,0
11199,378236.0650044675,2010-09-04 22:34:20,3841.9419723009655,2,32,0.5501165986061096,3.9948675632476807,33.35045221671847,32.75155470081642,132.64577991923122,119.90320449934175,9.713172767078504e-05,0.086637258529663,0,0,0
11200,378266.08016765467,2010-09-04 22:34:50,3871.9571354880622,2,32,0.5501165986061096,3.99697208404541,33.35503865040924,32.75155470081642,132.66410623966337,119.90320449934175,6.47544875391759e-05,0.086637258529663,0,0,0
11201,378296.0953640595,2010-09-04 22:35:20,3901.972331918011,2,32,0.5501165986061096,3.9989147186279297,33.35962506469603,32.75155470081642,132.68244188563784,119.90320449934175,6.47544875391759e-05,0.086637258529663,0,0,0
11202,378326.11051066034,2010-09-04 22:35:50,3931.9874784786703,2,32,0.5501165986061096,4.001019477844238,33.36421142872018,32.75155470081642,132.7007869064865,119.90320449934175,6.47544875391759e-05,0.086637258529663,0,0,0
11203,378356.1256806544,2010-09-04 22:36:20,3962.0026484827567,2,32,0.5501165986061096,4.003123760223389,33.36879781483928,32.75155470081642,132.71914165408637,119.90320449934175,6.47544875391759e-05,0.086637258529663,0,0,0
11204,378386.1408603326,2010-09-04 22:36:50,3992.0178281559433,2,32,0.5501165986061096,4.005066394805908,33.37338428299928,32.75155470081642,132.73750641232638,119.90320449934175,3.23295607813634e-05,0.086637258529663,0,0,0
11205,378416.1560432989,2010-09-04 22:37:20,4022.0330111373737,2,32,0.5499359965324402,4.007009029388428,33.37797071065729,32.75155470081642,132.75588081749413,119.90320449934175,-3.24249267578125e-05,0.086637258529663,0,0,0
11206,378446.1713207809,2010-09-04 22:37:50,4052.0482886393775,2,32,0.5501165986061096,4.009437561035156,33.38255707900969,32.75155470081642,132.77426478936218,119.90320449934175,6.47544875391759e-05,0.086637258529663,0,0,0
11207,378476.18636301154,2010-09-04 22:38:20,4082.0633308499646,2,32,0.5501165986061096,4.011703968048096,33.387143483894114,32.75155470081642,132.79265886250997,119.90320449934175,6.47544875391759e-05,0.086637258529663,0,0,0
11208,378506.2017231896,2010-09-04 22:38:50,4112.078691033036,2,32,0.550297200679779,4.013808250427246,33.391729972177174,32.75155470081642,132.8110633009027,119.90320449934175,6.47544875391759e-05,0.086637258529663,0,0,0
11209,378536.2195549576,2010-09-04 22:39:20,4142.096522881257,2,32,0.5501165986061096,4.0160746574401855,33.396316787774325,32.75155470081642,132.8294791574588,119.90320449934175,6.47544875391759e-05,0.086637258529663,0,0,0
11210,378566.2319105022,2010-09-04 22:39:51,4172.108878335621,2,32,0.5501165986061096,4.018341064453125,33.400902800548025,32.75155470081642,132.84790201796562,119.90320449934175,6.47544875391759e-05,0.086637258529663,0,0,0
11211,378596.24733747175,2010-09-04 22:40:21,4202.124305305145,2,32,0.5499359965324402,4.020445823669434,33.40548927046151,32.75155470081642,132.86633692316298,119.90320449934175,6.47544875391759e-05,0.086637258529663,0,0,0
11212,378626.2623461888,2010-09-04 22:40:51,4232.139314017243,2,32,0.5499359965324402,4.022873878479004,33.410075643999164,32.75155470081642,132.88478192725643,119.90320449934175,6.47544875391759e-05,0.086637258529663,0,0,0
11213,378656.2774142639,2010-09-04 22:41:21,4262.154382097304,2,32,0.5499359965324402,4.025140285491943,33.41466206965662,32.75155470081642,132.90323764951714,119.90320449934175,6.47544875391759e-05,0.086637258529663,0,0,0
11214,378686.292566238,2010-09-04 22:41:51,4292.16953406143,2,32,0.5501165986061096,4.027406692504883,33.419248502551525,32.75155470081642,132.92170394282493,119.90320449934175,6.47544875391759e-05,0.086637258529663,0,0,0
11215,378716.3077521768,2010-09-04 22:42:21,4322.184720020281,2,32,0.5501165986061096,4.029673099517822,33.42383495464823,32.75155470081642,132.9401810620306,119.90320449934175,3.23295607813634e-05,0.086637258529663,0,0,0
11216,378746.3230461298,2010-09-04 22:42:51,4352.200013973287,2,32,0.5499359965324402,4.031939506530762,33.42842139227955,32.75155470081642,132.9586689152393,119.90320449934175,0.0,0.086637258529663,0,0,0
11217,378776.3380847515,2010-09-04 22:43:21,4382.215052584905,2,32,0.5501165986061096,4.034529685974121,33.43300778869369,32.75155470081642,132.97716753217836,119.90320449934175,3.24249267578125e-05,0.086637258529663,0,0,0
11218,378806.35324156267,2010-09-04 22:43:51,4412.230209401123,2,32,0.5499359965324402,4.0367960929870605,33.43759422165374,32.75155470081642,132.99567732952917,119.90320449934175,3.24249267578125e-05,0.086637258529663,0,0,0
11219,378836.3685762171,2010-09-04 22:44:21,4442.245544060582,2,32,0.5501165986061096,4.03938627243042,33.44218071542793,32.75155470081642,133.01419855615728,119.90320449934175,6.47544875391759e-05,0.086637258529663,0,0,0
11220,378866.3837197954,2010-09-04 22:44:51,4472.26068762377,2,32,0.5501165986061096,4.04181432723999,33.44676711135006,32.75155470081642,133.03273053080656,119.90320449934175,3.23295607813634e-05,0.086637258529663,0,0,0
11221,378896.39877589553,2010-09-04 22:45:21,4502.275743728986,2,32,0.5501165986061096,4.04440450668335,33.451353486778586,32.75155470081642,133.0512738051768,119.90320449934175,6.47544875391759e-05,0.086637258529663,0,0,0
11222,378926.413977734,2010-09-04 22:45:51,4532.290945567414,2,32,0.5501165986061096,4.046994686126709,33.45593993515365,32.75155470081642,133.06982884377967,119.90320449934175,9.70840483205393e-05,0.086637258529663,0,0,0
11223,378956.4291033926,2010-09-04 22:46:21,4562.3060712259785,2,32,0.5499359965324402,4.0494232177734375,33.46052636048379,32.75155470081642,133.08839539516816,119.90320449934175,9.71794142969884e-05,0.086637258529663,0,0,0
11224,378986.4442766748,2010-09-04 22:46:51,4592.321244498211,2,32,0.5499359965324402,4.052013397216797,33.46511281639608,32.75155470081642,133.10697367077918,119.90320449934175,9.71794142969884e-05,0.086637258529663,0,0,0
11225,379016.4594522527,2010-09-04 22:47:21,4622.336420086215,2,32,0.5499359965324402,4.054441452026367,33.46969921552353,32.75155470081642,133.1255634849437,119.90320449934175,6.47544875391759e-05,0.086637258529663,0,0,0
11226,379046.474611891,2010-09-04 22:47:51,4652.351579729479,2,32,0.5501165986061096,4.057031631469727,33.47428571458142,32.75155470081642,133.14416560121413,119.90320449934175,6.47544875391759e-05,0.086637258529663,0,0,0
11227,379076.4899700692,2010-09-04 22:48:21,4682.366937897529,2,32,0.5501165986061096,4.059783935546875,33.478872228173394,32.75155470081642,133.1627797688375,119.90320449934175,3.24249267578125e-05,0.086637258529663,0,0,0
11228,379106.5049567313,2010-09-04 22:48:51,4712.381924564685,2,32,0.5499359965324402,4.062374114990234,33.483458660911204,32.75155470081642,133.18140536911972,119.90320449934175,9.71794142969884e-05,0.086637258529663,0,0,0
11229,379136.5201602338,2010-09-04 22:49:21,4742.39712808731,2,32,0.5501165986061096,4.065125942230225,33.488045128088416,32.75155470081642,133.2000433176914,119.90320449934175,9.70840483205393e-05,0.086637258529663,0,0,0
11230,379166.5353002632,2010-09-04 22:49:51,4772.412268096641,2,32,0.5501165986061096,4.067554473876953,33.49263159328086,32.75155470081642,133.21869355868856,119.90320449934175,3.24249267578125e-05,0.086637258529663,0,0,0
11231,379196.55047951534,2010-09-04 22:50:21,4802.427447348778,2,32,0.5501165986061096,4.070468425750732,33.49721809169583,32.75155470081642,133.23735639775006,119.90320449934175,9.71794142969884e-05,0.086637258529663,0,0,0
11232,379226.5656425069,2010-09-04 22:50:51,4832.442610330362,2,32,0.5501165986061096,4.073220252990723,33.50180455499547,32.75155470081642,133.2560316210502,119.90320449934175,9.70840483205393e-05,0.086637258529663,0,0,0
11233,379256.5808189822,2010-09-04 22:51:21,4862.457786815602,2,32,0.5501165986061096,4.075810432434082,33.50639095217068,32.75155470081642,133.27471924948972,119.90320449934175,3.23295607813634e-05,0.086637258529663,0,0,0
11234,379286.5960235674,2010-09-04 22:51:51,4892.472991405888,2,32,0.5501165986061096,4.078724384307861,33.510977427513026,32.75155470081642,133.2934200104512,119.90320449934175,6.47544875391759e-05,0.086637258529663,0,0,0
11235,379316.6111517022,2010-09-04 22:52:21,4922.488119535612,2,32,0.5501165986061096,4.08147668838501,33.5155638797692,32.75155470081642,133.3121335951333,119.90320449934175,3.24249267578125e-05,0.086637258529663,0,0,0
11236,379346.6264182118,2010-09-04 22:52:51,4952.503386060257,2,32,0.550297200679779,4.08455228805542,33.52015036952978,32.75155470081642,133.33086036506933,119.90320449934175,6.47544875391759e-05,0.086637258529663,0,0,0
11237,379376.6416177645,2010-09-04 22:53:21,4982.518585597952,2,32,0.5501165986061096,4.087466239929199,33.52473682866208,32.75155470081642,133.34960022184976,119.90320449934175,9.70840483205393e-05,0.086637258529663,0,0,0
11238,379406.6568843443,2010-09-04 22:53:51,5012.53385218776,2,32,0.5501165986061096,4.090218544006348,33.52932329548339,32.75155470081642,133.36835336250294,119.90320449934175,3.24249267578125e-05,0.086637258529663,0,0,0
11239,379436.6719927147,2010-09-04 22:54:21,5042.548960553225,2,32,0.5501165986061096,4.093132495880127,33.533909746505586,32.75155470081642,133.38711982111568,119.90320449934175,3.24249267578125e-05,0.086637258529663,0,0,0
11240,379466.6874463207,2010-09-04 22:54:51,5072.564414254372,2,32,0.5499359965324402,4.096046447753906,33.53849624402119,32.75155470081642,133.40589996779434,119.90320449934175,6.47544875391759e-05,0.086637258529663,0,0,0
11241,379496.70232891344,2010-09-04 22:55:21,5102.579296776968,2,32,0.5501165986061096,4.099122047424316,33.5430826946413,32.75155470081642,133.42469355141245,119.90320449934175,6.47544875391759e-05,0.086637258529663,0,0,0
11242,379526.71737697866,2010-09-04 22:55:51,5132.59434481207,2,32,0.5501165986061096,4.102035999298096,33.54766912346622,32.75155470081642,133.44350078656308,119.90320449934175,3.23295607813634e-05,0.086637258529663,0,0,0
11243,379556.7326941545,2010-09-04 22:56:21,5162.60966199798,2,32,0.5501165986061096,4.105112075805664,33.55225558674726,32.75155470081642,133.46232190889083,119.90320449934175,6.47544875391759e-05,0.086637258529663,0,0,0
11244,379586.7478514018,2010-09-04 22:56:51,5192.624819245273,2,32,0.5501165986061096,4.108187675476074,33.55684206762742,32.75155470081642,133.48115720372812,119.90320449934175,9.70840483205393e-05,0.086637258529663,0,0,0
11245,379616.7628711965,2010-09-04 22:57:21,5222.639839029966,2,32,0.5499359965324402,4.111263751983643,33.5614285026325,32.75155470081642,133.50000641335913,119.90320449934175,6.47544875391759e-05,0.086637258529663,0,0,0
11246,379646.7780564035,2010-09-04 22:57:51,5252.655024236945,2,32,0.5501165986061096,4.114501476287842,33.56601495549244,32.75155470081642,133.51886988415353,119.90320449934175,9.71794142969884e-05,0.086637258529663,0,0,0
11247,379676.79320155067,2010-09-04 22:58:21,5282.67016938408,2,32,0.5501165986061096,4.117577075958252,33.570601362476566,32.75155470081642,133.5377475757844,119.90320449934175,9.71794142969884e-05,0.086637258529663,0,0,0
11248,379706.8083798805,2010-09-04 22:58:51,5312.6853477139175,2,32,0.5501165986061096,4.120814800262451,33.575187831097665,32.75155470081642,133.55664001356834,119.90320449934175,6.47544875391759e-05,0.086637258529663,0,0,0
11249,379736.82356278674,2010-09-04 22:59:21,5342.700530610136,2,32,0.5501165986061096,4.123890399932861,33.57977434033178,32.75155470081642,133.57554725633958,119.90320449934175,6.47544875391759e-05,0.086637258529663,0,0,0
11250,379766.8387503446,2010-09-04 22:59:51,5372.71571818301,2,32,0.5501165986061096,4.12729024887085,33.584360791264814,32.75155470081642,133.59446902072972,119.90320449934175,9.71794142969884e-05,0.086637258529663,0,0,0
11251,379796.853888765,2010-09-04 23:00:21,5402.730856593355,2,32,0.5504778623580933,4.13068962097168,33.588947243891866,32.75155470081642,133.61340576527658,119.90320449934175,0.0001295089750783,0.086637258529663,0,0,0
11252,379826.8692082766,2010-09-04 23:00:51,5432.746176120099,2,32,0.5501165986061096,4.133927345275879,33.59353373967563,32.75155470081642,133.63235773018204,119.90320449934175,0.0001618385285837,0.086637258529663,0,0,0
11253,379856.8844532977,2010-09-04 23:01:21,5462.761421131127,2,32,0.550297200679779,4.137165069580078,33.598120252302635,32.75155470081642,133.6513249443368,119.90320449934175,9.70840483205393e-05,0.086637258529663,0,0,0
11254,379886.89953650045,2010-09-04 23:01:51,5492.776504343904,2,32,0.5501165986061096,4.140564918518066,33.602706693102704,32.75155470081642,133.67030721434705,119.90320449934175,9.71794142969884e-05,0.086637258529663,0,0,0
11255,379916.9145794679,2010-09-04 23:02:21,5522.791547301351,2,32,0.5501165986061096,4.143640518188477,33.607293201991375,32.75155470081642,133.68930521906802,119.90320449934175,3.23295607813634e-05,0.086637258529663,0,0,0
11256,379946.9297486299,2010-09-04 23:02:51,5552.806716468352,2,32,0.5501165986061096,4.147364139556885,33.61187960359079,32.75155470081642,133.7083186989694,119.90320449934175,0.0001295089750783,0.086637258529663,0,0,0
11257,379976.94495523017,2010-09-04 23:03:21,5582.821923063636,2,32,0.5499359965324402,4.150925636291504,33.61646603738297,32.75155470081642,133.72734811619716,119.90320449934175,0.0001295089750783,0.086637258529663,0,0,0
11258,380006.96010950505,2010-09-04 23:03:51,5612.83707733852,2,32,0.5501165986061096,4.154163360595703,33.62105251048859,32.75155470081642,133.7463935765946,119.90320449934175,6.47544875391759e-05,0.086637258529663,0,0,0
11259,380036.9752715092,2010-09-04 23:04:21,5642.852239342669,2,32,0.5501165986061096,4.157886505126953,33.625638867848146,32.75155470081642,133.76545452335444,119.90320449934175,0.0001295089750783,0.086637258529663,0,0,0
11260,380066.99044094194,2010-09-04 23:04:51,5672.867408780345,2,32,0.5501165986061096,4.161286354064941,33.630225303179266,32.75155470081642,133.78453200199834,119.90320449934175,9.71794142969884e-05,0.086637258529663,0,0,0
11261,380097.0056233168,2010-09-04 23:05:21,5702.882591155264,2,32,0.5501165986061096,4.1648478507995605,33.63481177782331,32.75155470081642,133.80362588023783,119.90320449934175,9.71794142969884e-05,0.086637258529663,0,0,0
11262,380127.0207830453,2010-09-04 23:05:51,5732.897750878729,2,32,0.5501165986061096,4.16840934753418,33.63939815526192,32.75155470081642,133.82273575100055,119.90320449934175,6.47544875391759e-05,0.086637258529663,0,0,0
11263,380157.0359466084,2010-09-04 23:06:21,5762.912914471838,2,32,0.5499359965324402,4.171970844268799,33.643984523801194,32.75155470081642,133.84186206833627,119.90320449934175,6.47544875391759e-05,0.086637258529663,0,0,0
11264,380187.051147349,2010-09-04 23:06:51,5792.928115207517,2,32,0.5499359965324402,4.175693988800049,33.648570946699685,32.75155470081642,133.86100524356343,119.90320449934175,9.70840483205393e-05,0.086637258529663,0,0,0
11265,380217.06643192365,2010-09-04 23:07:21,5822.9433997621,2,32,0.5499359965324402,4.179417610168457,33.65315734139179,32.75155470081642,133.8801650553406,119.90320449934175,0.0001295089750783,0.086637258529663,0,0,0
11266,380247.0814535128,2010-09-04 23:07:51,5852.958421361316,2,32,0.5501165986061096,4.183140754699707,33.65774381501213,32.75155470081642,133.8993422057654,119.90320449934175,9.70840483205393e-05,0.086637258529663,0,0,0
11267,380277.09675707977,2010-09-04 23:08:21,5882.973724918257,2,32,0.5501165986061096,4.187188148498535,33.6623303316233,32.75155470081642,133.918536607551,119.90320449934175,0.0001619339018361,0.086637258529663,0,0,0
11268,380307.1119261666,2010-09-04 23:08:51,5912.988894030121,2,32,0.5499359965324402,4.190425872802734,33.6669167911453,32.75155470081642,133.93774802274237,119.90320449934175,6.47544875391759e-05,0.086637258529663,0,0,0
11269,380337.1269896702,2010-09-04 23:09:21,5943.003957533777,2,32,0.5501165986061096,4.194472789764404,33.67150316893295,32.75155470081642,133.9569764691598,119.90320449934175,0.0001295089750783,0.086637258529663,0,0,0
11270,380367.1421479852,2010-09-04 23:09:51,5973.019115818656,2,32,0.5501165986061096,4.198195934295654,33.6760895638469,32.75155470081642,133.97622247415092,119.90320449934175,6.47544875391759e-05,0.086637258529663,0,0,0
11271,380379.3295568731,2010-09-04 23:10:04,5985.206524721614,2,32,0.550297200679779,4.200138568878174,33.67795183682279,32.75155470081642,133.98404223274798,119.90320449934175,0.0001942634553415,0.086637258529663,0,0,0
11272,380409.35505638097,2010-09-04 23:10:34,30.01497908826614,3,32,0.0,4.118872165679932,33.67795183682279,32.75155470081642,133.98404223274798,119.90320449934175,-0.0004208564641885,0.086637258529663,0,0,0
11273,380439.3703822235,2010-09-04 23:11:04,60.03030492072551,3,32,0.0,4.108511447906494,33.67795183682279,32.75155470081642,133.98404223274798,119.90320449934175,-0.0002590179501567,0.086637258529663,0,0,0
11274,380469.3853953767,2010-09-04 23:11:34,90.04531807389185,3,32,0.0,4.102521896362305,33.67795183682279,32.75155470081642,133.98404223274798,119.90320449934175,-0.0001618385285837,0.086637258529663,0,0,0
11275,380499.3537014514,2010-09-04 23:12:04,120.01362415365988,3,32,0.0,4.0989603996276855,33.67795183682279,32.75155470081642,133.98404223274798,119.90320449934175,-6.47544875391759e-05,0.086637258529663,0,0,0
11276,380499.3661189415,2010-09-04 23:12:04,2.641583639e-06,4,32,1.0094059705734253,4.199814796447754,33.67795183756347,32.75155470081642,133.98404223585868,119.90320449934175,0.0,0.086637258529663,0,0,0
11277,380500.1474396982,2010-09-04 23:12:05,0.781323398315802,4,32,0.9582935571670532,4.199814796447754,33.678163704519555,32.75155470081642,133.98493201935594,119.90320449934175,0.0,0.086637258529663,0,0,0
11278,380502.16308088624,2010-09-04 23:12:07,2.796964566303711,4,32,0.90754234790802,4.199814796447754,33.67868503396485,32.75155470081642,133.98712145997993,119.90320449934175,0.0,0.086637258529663,0,0,0
11279,380505.2098051957,2010-09-04 23:12:10,5.843688865711466,4,32,0.8575136065483093,4.199814796447754,33.67943093547579,32.75155470081642,133.99025403667267,119.90320449934175,0.0,0.086637258529663,0,0,0
11280,380509.30346472486,2010-09-04 23:12:14,9.937348389833124,4,32,0.8073042035102844,4.199653148651123,33.68037629379649,32.75155470081642,133.99422428205693,119.90320449934175,0.0,0.086637258529663,0,0,0
11281,380514.5533765605,2010-09-04 23:12:19,15.18726027059749,4,32,0.7572754621505737,4.199653148651123,33.68151587175689,32.75155470081642,133.99901021060404,119.90320449934175,0.0,0.086637258529663,0,0,0
11282,380521.3033008838,2010-09-04 23:12:26,21.93718455381104,4,32,0.7072466611862183,4.199653148651123,33.68288701429832,32.75155470081642,134.00476865551846,119.90320449934175,-3.23295607813634e-05,0.086637258529663,0,0,0
11283,380530.1001759833,2010-09-04 23:12:35,30.734059673339708,4,32,0.6572179198265076,4.199653148651123,33.68455127987794,32.75155470081642,134.0117581669302,119.90320449934175,-3.23295607813634e-05,0.086637258529663,0,0,0
11284,380542.0686352363,2010-09-04 23:12:47,42.70251890133872,4,32,0.6071891188621521,4.199814796447754,33.686648632734894,32.75155470081642,134.0205665233576,119.90320449934175,0.0,0.086637258529663,0,0,0
11285,380559.4120749896,2010-09-04 23:13:04,60.04595866968444,4,32,0.5571603775024414,4.199814796447754,33.68944544366357,32.75155470081642,134.03231242651688,119.90320449934175,3.23295607813634e-05,0.086637258529663,0,0,0
11286,380587.1303296238,2010-09-04 23:13:32,87.76421332898919,4,32,0.5071315765380859,4.199653148651123,33.693527079354205,32.75155470081642,134.04945427839502,119.90320449934175,0.0,0.086637258529663,0,0,0
11287,380635.48903270153,2010-09-04 23:14:20,136.1229163815972,4,32,0.4571028351783752,4.199491024017334,33.69997408404002,32.75155470081642,134.07653016738922,119.90320449934175,-3.24249267578125e-05,0.086637258529663,0,0,0
11288,380713.4723539229,2010-09-04 23:15:38,214.10623761297387,4,32,0.4070740640163421,4.199653148651123,33.709306429383304,32.75155470081642,134.11572378151976,119.90320449934175,0.0,0.086637258529663,0,0,0
11289,380820.3613372483,2010-09-04 23:17:25,320.9952209383386,4,32,0.3570452928543091,4.199653148651123,33.72063359155301,32.75155470081642,134.16329515151423,119.90320449934175,-3.23295607813634e-05,0.086637258529663,0,0,0
11290,380949.6094478285,2010-09-04 23:19:34,450.24333151855393,4,32,0.307016521692276,4.199653148651123,33.7325368192859,32.75155470081642,134.21328580861837,119.90320449934175,0.0,0.086637258529663,0,0,0
11291,381104.77888092014,2010-09-04 23:22:09,605.4127646303094,4,32,0.2569877505302429,4.199814796447754,33.74467315909367,32.75155470081642,134.26425549147393,119.90320449934175,3.23295607813634e-05,0.086637258529663,0,0,0
11292,381295.7447374684,2010-09-04 23:25:20,796.3786211735403,4,32,0.206958994269371,4.199653148651123,33.756955604127725,32.75155470081642,134.3158387127799,119.90320449934175,-3.23295607813634e-05,0.086637258529663,0,0,0
11293,381547.49091229145,2010-09-04 23:29:32,1048.1247959614732,4,32,0.1567496061325073,4.199653148651123,33.76962360141078,32.75155470081642,134.36904115529416,119.90320449934175,-3.23295607813634e-05,0.086637258529663,0,0,0
11294,381907.595061723,2010-09-04 23:35:32,1408.2289454131835,4,32,0.1067208424210548,4.199653148651123,33.78267493563476,32.75155470081642,134.42385346130078,119.90320449934175,-3.23295607813634e-05,0.086637258529663,0,0,0
11295,382544.1320940452,2010-09-04 23:46:09,2044.7659777352787,4,32,0.0566920712590217,4.199653148651123,33.79669215470493,32.75155470081642,134.48272244986026,119.90320449934175,0.0,0.086637258529663,0,0,0
11296,382680.67691090266,2010-09-04 23:48:25,2181.310794587665,4,32,0.0498289167881011,4.199653148651123,33.79872796065041,32.75155470081642,134.4912723459303,119.90320449934175,0.0,0.086637258529663,0,0,0
11297,382710.7062277236,2010-09-04 23:48:55,30.015181507757795,5,32,0.0,4.192044734954834,33.79872796065041,32.75155470081642,134.4912723459303,119.90320449934175,-6.47544875391759e-05,0.086637258529663,0,0,0
11298,382740.70579095575,2010-09-04 23:49:25,60.01474476502977,5,32,0.0,4.191073417663574,33.79872796065041,32.75155470081642,134.4912723459303,119.90320449934175,3.24249267578125e-05,0.086637258529663,0,0,0
11299,382740.8900198154,2010-09-04 23:49:26,0.184812294102224,6,32,-1.9243103452026844e-05,4.191073417663574,33.79872796065041,32.751554701804295,134.4912723459303,119.90320450348204,0.0,0.0908498615026474,0,0,0
11300,382745.7179488852,2010-09-04 23:49:31,5.01274138391067,6,32,0.0005225847125984,4.190911293029785,33.798728941918604,32.75155470188751,134.49127645845536,119.90320450383078,-3.24249267578125e-05,0.0908498615026474,0,0,0
11301,382775.74830164446,2010-09-04 23:50:01,30.01523756747586,7,32,-1.0997490882873535,4.020931243896484,33.798728941918604,32.7607223276057,134.49127645845536,119.9402624714274,-0.0009065627818927,0.0908498615026474,0,0,0
11302,382805.7634154134,2010-09-04 23:50:31,60.03035132137018,7,32,-1.099568486213684,3.994381904602051,33.798728941918604,32.7698899414715,134.49127645845536,119.9769937104072,-0.0005504131549969,0.0908498615026474,0,0,0
11303,382835.77862489584,2010-09-04 23:51:01,90.04556080886209,7,32,-1.099568486213684,3.9759271144866943,33.798728941918604,32.77905791082503,134.49127645845536,120.01352507890974,-0.0003885269106831,0.0908498615026474,0,0,0
11304,382865.79375747166,2010-09-04 23:51:31,120.0606933846664,7,32,-1.0997490882873535,3.961843013763428,33.798728941918604,32.788226155074526,134.49127645845536,120.0499113659306,-0.0003885269106831,0.0908498615026474,0,0,0
11305,382895.80905701866,2010-09-04 23:52:01,150.07599294665164,7,32,-1.099929690361023,3.9500253200531006,33.798728941918604,32.797394477160594,134.49127645845536,120.08618071751312,-0.0003237724304199,0.0908498615026474,0,0,0
11306,382925.8242929019,2010-09-04 23:52:31,180.09122883494248,7,32,-1.0997490882873535,3.939826488494873,33.798728941918604,32.8065627682244,134.49127645845536,120.12234899224796,-0.0002590179501567,0.0908498615026474,0,0,0
11307,382955.8393853627,2010-09-04 23:53:01,210.106321275718,7,32,-1.0997490882873535,3.930275201797485,33.798728941918604,32.81573105913285,134.49127645845536,120.15842607930898,-0.0002590179501567,0.0908498615026474,0,0,0
11308,382985.8544228917,2010-09-04 23:53:31,240.1213587946112,7,32,-1.099568486213684,3.921209573745728,33.798728941918604,32.82489931285274,134.49127645845536,120.19441780901748,-0.0002590179501567,0.0908498615026474,0,0,0
11309,383015.86962411855,2010-09-04 23:54:01,270.1365600365527,7,32,-1.099568486213684,3.9126298427581783,33.798728941918604,32.834067232699354,134.49127645845536,120.23032743903512,-0.0002589702489785,0.0908498615026474,0,0,0
11310,383045.8848166288,2010-09-04 23:54:31,300.15175253169434,7,32,-1.099568486213684,3.904373645782471,33.798728941918604,32.843234762503606,134.49127645845536,120.26615794526626,-0.0001942634553415,0.0908498615026474,0,0,0
11311,383075.8999593198,2010-09-04 23:55:01,330.16689522270894,7,32,-1.099568486213684,3.8961174488067623,33.798728941918604,32.85240230706899,134.49127645845536,120.30191305451464,-0.0002266406954731,0.0908498615026474,0,0,0
11312,383105.91538826417,2010-09-04 23:55:31,360.18232418720504,7,32,-1.099568486213684,3.888346910476685,33.798728941918604,32.861569903514045,134.49127645845536,120.3375953309147,-0.0001942634553415,0.0908498615026474,0,0,0
11313,383135.9303036286,2010-09-04 23:56:01,390.1972395316018,7,32,-1.099568486213684,3.8805763721466064,33.798728941918604,32.87073742585949,134.49127645845536,120.37320541089773,-0.0001618862152099,0.0908498615026474,0,0,0
11314,383165.945500204,2010-09-04 23:56:31,420.2124361119251,7,32,-1.099568486213684,3.8729677200317374,33.798728941918604,32.879904960592924,134.49127645845536,120.4087450719428,-0.0002266406954731,0.0908498615026474,0,0,0
11315,383195.9606720426,2010-09-04 23:57:01,450.227607955597,7,32,-1.099568486213684,3.86519718170166,33.798728941918604,32.88907249989976,134.49127645845536,120.4442154290461,-0.0002266406954731,0.0908498615026474,0,0,0
11316,383225.9759082918,2010-09-04 23:57:31,480.24284424989975,7,32,-1.099568486213684,3.858074188232422,33.798728941918604,32.89824010036537,134.49127645845536,120.47961764735464,-0.0001942634553415,0.0908498615026474,0,0,0
11317,383255.99115840055,2010-09-04 23:58:01,510.2580943135199,7,32,-1.0993878841400146,3.8507893085479736,33.798728941918604,32.907407755633194,134.49127645845536,120.5149527399238,-0.0001618862152099,0.0908498615026474,0,0,0
11318,383286.0061726866,2010-09-04 23:58:31,540.2731085894845,7,32,-1.0997490882873535,3.843504428863525,33.798728941918604,32.91657535536345,134.49127645845536,120.5502214981157,-0.0001942634553415,0.0908498615026474,0,0,0
11319,383316.0213198988,2010-09-04 23:59:01,570.2882558017675,7,32,-1.099568486213684,3.836543321609497,33.798728941918604,32.92574302239689,134.49127645845536,120.58542552223068,-0.0001618862152099,0.0908498615026474,0,0,0
11320,383346.0366421975,2010-09-04 23:59:31,600.3035781004195,7,32,-1.099568486213684,3.829744338989258,33.798728941918604,32.93491068092004,134.49127645845536,120.62056559944337,-0.0001942634553415,0.0908498615026474,0,0,0
11321,383376.0516656012,2010-09-05 00:00:01,630.3186015141584,7,32,-1.099568486213684,3.82294511795044,33.798728941918604,32.94407826953673,134.49127645845536,120.65564242515153,-0.0001295089750783,0.0908498615026474,0,0,0
11322,383406.0669787169,2010-09-05 00:00:31,660.3339146198988,7,32,-1.099568486213684,3.816145896911621,33.798728941918604,32.95324590319038,134.49127645845536,120.69065751749773,-0.0001618862152099,0.0908498615026474,0,0,0
11323,383436.082139077,2010-09-05 00:01:01,690.349074989975,7,32,-1.099568486213684,3.8095085620880127,33.798728941918604,32.96241346425956,134.49127645845536,120.72561101821044,-0.0001618862152099,0.0908498615026474,0,0,0
11324,383466.097198305,2010-09-05 00:01:31,720.3641342430365,7,32,-1.0992072820663452,3.803194999694824,33.798728941918604,32.97158103282662,134.49127645845536,120.76050426422474,-9.713172767078504e-05,0.0908498615026474,0,0,0
11325,383496.1123460034,2010-09-05 00:02:01,750.3792819064438,7,32,-1.0997490882873535,3.796719551086426,33.798728941918604,32.980748643134746,134.49127645845536,120.79533910012454,-0.0001295089750783,0.0908498615026474,0,0,0
11326,383526.12753701,2010-09-05 00:02:31,780.3944729128752,7,32,-1.0997490882873535,3.7902441024780273,33.798728941918604,32.9899162296604,134.49127645845536,120.83011610946286,-0.0001942634553415,0.0908498615026474,0,0,0
11327,383556.14268618205,2010-09-05 00:03:01,810.4096220900552,7,32,-1.099568486213684,3.784254312515259,33.798728941918604,32.99908384395648,134.49127645845536,120.86483656571356,-0.0001942634553415,0.0908498615026474,0,0,0
11328,383586.1578603416,2010-09-05 00:03:31,840.4247962444863,7,32,-1.099568486213684,3.77810263633728,33.798728941918604,33.00825147876711,134.49127645845536,120.89950120712038,-0.0001942634553415,0.0908498615026474,0,0,0
11329,383616.1729853234,2010-09-05 00:04:01,870.4399212363891,7,32,-1.0997490882873535,3.7722747325897217,33.798728941918604,33.01741908993748,134.49127645845536,120.93411106587664,-0.0001618862152099,0.0908498615026474,0,0,0
11330,383646.1883202686,2010-09-05 00:04:31,900.4552561665228,7,32,-1.0997490882873535,3.766446828842163,33.798728941918604,33.026586809979314,134.49127645845536,120.9686674766304,-0.0001942634553415,0.0908498615026474,0,0,0
11331,383676.203377271,2010-09-05 00:05:01,930.47031319905,7,32,-1.0993878841400146,3.7607808113098153,33.798728941918604,33.035754386795745,134.49127645845536,121.00317092434166,-0.0001295089750783,0.0908498615026474,0,0,0
11332,383706.218524754,2010-09-05 00:05:31,960.4854606569452,7,32,-1.099568486213684,3.755276679992676,33.798728941918604,33.0449220452916,134.49127645845536,121.03762317856814,-0.0001295089750783,0.0908498615026474,0,0,0
11333,383736.233819539,2010-09-05 00:06:01,990.5007554520498,7,32,-1.099568486213684,3.749610900878906,33.798728941918604,33.05408974766224,134.49127645845536,121.07202498284587,-0.0001942634553415,0.0908498615026474,0,0,0
11334,383766.2488768573,2010-09-05 00:06:31,1020.515812760264,7,32,-1.099568486213684,3.744430541992188,33.798728941918604,33.06325733707758,134.49127645845536,121.10637705962192,-0.0001295089750783,0.0908498615026474,0,0,0
11335,383796.2640174581,2010-09-05 00:07:01,1050.530953391144,7,32,-1.099568486213684,3.739088296890259,33.798728941918604,33.07242489042825,134.49127645845536,121.14068042179728,-0.0001942634553415,0.0908498615026474,0,0,0
11336,383826.2793211253,2010-09-05 00:07:31,1080.5462570383108,7,32,-1.099568486213684,3.73406982421875,33.798728941918604,33.081592501569986,134.49127645845536,121.17493643526066,-0.0001295089750783,0.0908498615026474,0,0,0
11337,383856.2945303672,2010-09-05 00:08:01,1110.5614662751782,7,32,-1.099568486213684,3.7288894653320312,33.798728941918604,33.09076011704645,134.49127645845536,121.20914545324612,-0.0001942634553415,0.0908498615026474,0,0,0
11338,383886.3098018893,2010-09-05 00:08:31,1140.5767377972793,7,32,-1.099568486213684,3.7238709926605225,33.798728941918604,33.099927719379764,134.49127645845536,121.24330925038332,-0.0001618862152099,0.0908498615026474,0,0,0
11339,383916.3247562109,2010-09-05 00:09:01,1170.5916921138066,7,32,-1.099568486213684,3.7191762924194336,33.798728941918604,33.109095269721465,134.49127645845536,121.27742754009311,-9.713172767078504e-05,0.0908498615026474,0,0,0
11340,383946.3399185859,2010-09-05 00:09:31,1200.6068545189548,7,32,-1.099568486213684,3.7144815921783447,33.798728941918604,33.11826285366199,134.49127645845536,121.311501741414,-0.0001295089750783,0.0908498615026474,0,0,0
11341,383976.3550892968,2010-09-05 00:10:01,1230.6220252097537,7,32,-1.099568486213684,3.709625005722046,33.798728941918604,33.12743051569588,134.49127645845536,121.34553262850112,-0.0001295089750783,0.0908498615026474,0,0,0
11342,384006.3702780576,2010-09-05 00:10:31,1260.6372139705884,7,32,-1.099568486213684,3.705254077911377,33.798728941918604,33.13659814091225,134.49127645845536,121.37952073113009,-9.713172767078504e-05,0.0908498615026474,0,0,0
11343,384036.3854270443,2010-09-05 00:11:01,1290.6523629472686,7,32,-1.099568486213684,3.700559377670288,33.798728941918604,33.145765795672745,134.49127645845536,121.41346696237557,-9.713172767078504e-05,0.0908498615026474,0,0,0
11344,384066.4007261402,2010-09-05 00:11:31,1320.6676620430922,7,32,-1.099568486213684,3.696188449859619,33.798728941918604,33.15493348015117,134.49127645845536,121.44737198584556,-0.0001295089750783,0.0908498615026474,0,0,0
11345,384096.4158020798,2010-09-05 00:12:01,1350.6827379927663,7,32,-1.099568486213684,3.69165563583374,33.798728941918604,33.16410107251717,134.49127645845536,121.48123591851436,-9.713172767078504e-05,0.0908498615026474,0,0,0
11346,384126.4309552168,2010-09-05 00:12:31,1380.6978911197907,7,32,-1.099568486213684,3.687446594238281,33.798728941918604,33.17326875110197,134.49127645845536,121.51505985832968,-6.47544875391759e-05,0.0908498615026474,0,0,0
11347,384156.4461246496,2010-09-05 00:13:01,1410.713060552454,7,32,-1.0997490882873535,3.683075666427612,33.798728941918604,33.18243635890261,134.49127645845536,121.54884415000696,-9.713172767078504e-05,0.0908498615026474,0,0,0
11348,384186.4613076109,2010-09-05 00:13:31,1440.728243518847,7,32,-1.099568486213684,3.678866624832153,33.798728941918604,33.191604015726384,134.49127645845536,121.58258978017015,-9.713172767078504e-05,0.0908498615026474,0,0,0
11349,384216.476586366,2010-09-05 00:14:01,1470.7435222789877,7,32,-1.099568486213684,3.674819469451904,33.798728941918604,33.20077171849621,134.49127645845536,121.61629745153547,-9.713172767078504e-05,0.0908498615026474,0,0,0
11350,384246.4916325064,2010-09-05 00:14:31,1500.7585684093433,7,32,-1.0997490882873535,3.6704487800598153,33.798728941918604,33.209939382005246,134.49127645845536,121.64996717611211,-0.0001618862152099,0.0908498615026474,0,0,0
11351,384276.506793904,2010-09-05 00:15:01,1530.7737298170057,7,32,-1.099568486213684,3.666725397109986,33.798728941918604,33.2191070058179,134.49127645845536,121.68359963552818,-9.713172767078504e-05,0.0908498615026474,0,0,0
11352,384306.5219661688,2010-09-05 00:15:31,1560.788902096764,7,32,-1.0993878841400146,3.662678241729736,33.798728941918604,33.22827465118826,134.49127645845536,121.71719577404755,-9.713172767078504e-05,0.0908498615026474,0,0,0
11353,384336.5371141379,2010-09-05 00:16:01,1590.804050060921,7,32,-1.099568486213684,3.658792972564697,33.798728941918604,33.23744231711292,134.49127645845536,121.75075621540569,-9.713172767078504e-05,0.0908498615026474,0,0,0
11354,384366.5522955404,2010-09-05 00:16:31,1620.8192314634164,7,32,-1.099568486213684,3.654907703399658,33.798728941918604,33.24660998328675,134.49127645845536,121.78428141732496,-0.0001295089750783,0.0908498615026474,0,0,0
11355,384396.5674557402,2010-09-05 00:17:01,1650.834391673093,7,32,-1.099568486213684,3.651346206665039,33.798728941918604,33.25577762686615,134.49127645845536,121.81777192557288,-9.713172767078504e-05,0.0908498615026474,0,0,0
11356,384426.5826296338,2010-09-05 00:17:31,1680.8495655367994,7,32,-1.099568486213684,3.64778470993042,33.798728941918604,33.26494529772954,134.49127645845536,121.85122878328006,-6.47544875391759e-05,0.0908498615026474,0,0,0
11357,384456.5979277422,2010-09-05 00:18:01,1710.8648636501744,7,32,-1.099568486213684,3.644061326980591,33.798728941918604,33.27411289431298,134.49127645845536,121.8846519441576,-9.713172767078504e-05,0.0908498615026474,0,0,0
11358,384486.6165152939,2010-09-05 00:18:31,1740.8834511968291,7,32,-1.099568486213684,3.640499830245972,33.798728941918604,33.28328155876175,134.49127645845536,121.91804679670447,-9.713172767078504e-05,0.0908498615026474,0,0,0
11359,384516.6281727837,2010-09-05 00:19:02,1770.8951086916622,7,32,-1.099568486213684,3.637262105941773,33.798728941918604,33.29244806927905,134.49127645845536,121.95140217837674,-3.237724376958795e-05,0.0908498615026474,0,0,0
11360,384546.6437111208,2010-09-05 00:19:32,1800.9106470387735,7,32,-1.099568486213684,3.6338624954223633,33.798728941918604,33.301615803875514,134.49127645845536,121.98473110307766,-9.713172767078504e-05,0.0908498615026474,0,0,0
11361,384576.6585951271,2010-09-05 00:20:02,1830.9255310400536,7,32,-1.099568486213684,3.630624771118164,33.798728941918604,33.310783348681376,134.49127645845536,122.01802895478772,-6.47544875391759e-05,0.0908498615026474,0,0,0
11362,384606.6737788302,2010-09-05 00:20:32,1860.9407147432837,7,32,-1.0997490882873535,3.627225160598755,33.798728941918604,33.319950937858,134.49127645845536,122.05129753440464,-0.0001295089750783,0.0908498615026474,0,0,0
11363,384636.6889298872,2010-09-05 00:21:02,1890.955865800148,7,32,-1.099568486213684,3.6241493225097656,33.798728941918604,33.32911857238326,134.49127645845536,122.08453734002416,-0.0001295089750783,0.0908498615026474,0,0,0
11364,384666.70397961646,2010-09-05 00:21:32,1920.9709155294736,7,32,-1.099568486213684,3.621073484420776,33.798728941918604,33.33828617265003,134.49127645845536,122.1177487120582,-9.713172767078504e-05,0.0908498615026474,0,0,0
11365,384696.7191472246,2010-09-05 00:22:02,1950.9860831325768,7,32,-1.099568486213684,3.618321418762207,33.798728941918604,33.34745387221716,134.49127645845536,122.15093260388844,-6.47544875391759e-05,0.0908498615026474,0,0,0
11366,384726.7343525668,2010-09-05 00:22:32,1981.0012884747373,7,32,-1.099568486213684,3.615083694458008,33.798728941918604,33.35662151791504,134.49127645845536,122.18408921300268,-9.713172767078504e-05,0.0908498615026474,0,0,0
11367,384756.7495052026,2010-09-05 00:23:02,2011.0164411055248,7,32,-1.099568486213684,3.6123316287994394,33.798728941918604,33.36578915521961,134.49127645845536,122.2172193646392,-6.47544875391759e-05,0.0908498615026474,0,0,0
11368,384786.7646825349,2010-09-05 00:23:32,2041.0316184428884,7,32,-1.099568486213684,3.609579563140869,33.798728941918604,33.37495682460292,134.49127645845536,122.25032309041768,-6.47544875391759e-05,0.0908498615026474,0,0,0
11369,384816.7799742423,2010-09-05 00:24:02,2071.04691015531,7,32,-1.0997490882873535,3.60650372505188,33.798728941918604,33.38412459614721,134.49127645845536,122.28340109200984,-0.0001295089750783,0.0908498615026474,0,0,0
11370,384846.7952502005,2010-09-05 00:24:32,2101.0621861535674,7,32,-1.099568486213684,3.603751659393311,33.798728941918604,33.39329226953202,134.49127645845536,122.31645267592026,-9.713172767078504e-05,0.0908498615026474,0,0,0
11371,384876.8103139146,2010-09-05 00:25:02,2131.0772498276474,7,32,-1.099568486213684,3.601161479949951,33.798728941918604,33.40245989809437,134.49127645845536,122.34947858855703,-3.237724376958795e-05,0.0908498615026474,0,0,0
11372,384906.8253542055,2010-09-05 00:25:32,2161.0922901134363,7,32,-1.0997490882873535,3.598247528076172,33.798728941918604,33.4116275746464,134.49127645845536,122.38247900740612,-6.47544875391759e-05,0.0908498615026474,0,0,0
11373,384936.8406360082,2010-09-05 00:26:02,2191.10757193621,7,32,-1.0993878841400146,3.5954954624176025,33.798728941918604,33.42079533907687,134.49127645845536,122.41545406603632,-6.47544875391759e-05,0.0908498615026474,0,0,0
11374,384966.8557084242,2010-09-05 00:26:32,2221.122644327015,7,32,-1.099568486213684,3.592743396759033,33.798728941918604,33.42996298285955,134.49127645845536,122.44840286565376,-6.47544875391759e-05,0.0908498615026474,0,0,0
11375,384996.87087183166,2010-09-05 00:27:02,2251.1378077346617,7,32,-1.0997490882873535,3.589667797088623,33.798728941918604,33.439130701122146,134.49127645845536,122.481325897975,-9.713172767078504e-05,0.0908498615026474,0,0,0
11376,385026.88607723406,2010-09-05 00:27:32,2281.1530131369723,7,32,-1.0997490882873535,3.586591958999634,33.798728941918604,33.448298452736296,134.49127645845536,122.5142227730342,-0.0001295089750783,0.0908498615026474,0,0,0
11377,385056.901209058,2010-09-05 00:28:02,2311.1681449609027,7,32,-1.099568486213684,3.5840017795562744,33.798728941918604,33.45746615328876,134.49127645845536,122.5470929027382,-6.47544875391759e-05,0.0908498615026474,0,0,0
11378,385086.9163955632,2010-09-05 00:28:32,2341.183331471128,7,32,-1.099568486213684,3.581087827682495,33.798728941918604,33.46663379357064,134.49127645845536,122.57993635152287,-6.47544875391759e-05,0.0908498615026474,0,0,0
11379,385116.9315500235,2010-09-05 00:29:02,2371.1984859264626,7,32,-1.099568486213684,3.578011989593506,33.798728941918604,33.47580144394024,134.49127645845536,122.61275272560992,-9.713172767078504e-05,0.0908498615026474,0,0,0
11380,385146.9467816361,2010-09-05 00:29:32,2401.2137175491225,7,32,-1.099568486213684,3.574774265289306,33.798728941918604,33.48496915870506,134.49127645845536,122.64554157351373,-0.0001295089750783,0.0908498615026474,0,0,0
11381,385176.9620443613,2010-09-05 00:30:02,2431.228980264274,7,32,-1.099568486213684,3.571860313415528,33.798728941918604,33.49413688511451,134.49127645845536,122.67830220910804,-9.713172767078504e-05,0.0908498615026474,0,0,0
11382,385206.9770825067,2010-09-05 00:30:32,2461.2440184147413,7,32,-1.0997490882873535,3.568622589111328,33.798728941918604,33.50330450457365,134.49127645845536,122.7110336994722,-9.713172767078504e-05,0.0908498615026474,0,0,0
11383,385236.9922375586,2010-09-05 00:31:02,2491.2591734615503,7,32,-1.099568486213684,3.565708637237549,33.798728941918604,33.5124721644714,134.49127645845536,122.74373622135008,-3.237724376958795e-05,0.0908498615026474,0,0,0
11384,385267.00753867946,2010-09-05 00:31:32,2521.274474592446,7,32,-1.099568486213684,3.56230902671814,33.798728941918604,33.521639860275755,134.49127645845536,122.77640905181276,-9.713172767078504e-05,0.0908498615026474,0,0,0
11385,385297.0225906343,2010-09-05 00:32:02,2551.289526537293,7,32,-1.099568486213684,3.5589094161987305,33.798728941918604,33.530807386644504,134.49127645845536,122.80905105440704,-9.713172767078504e-05,0.0908498615026474,0,0,0
11386,385327.0377671597,2010-09-05 00:32:32,2581.304703062633,7,32,-1.099568486213684,3.5555098056793213,33.798728941918604,33.53997502755926,134.49127645845536,122.84166193844966,-9.713172767078504e-05,0.0908498615026474,0,0,0
11387,385357.05294370005,2010-09-05 00:33:02,2611.3198796130355,7,32,-1.0993878841400146,3.551786422729492,33.798728941918604,33.5491426405298,134.49127645845536,122.87424033181512,-9.713172767078504e-05,0.0908498615026474,0,0,0
11388,385387.0681030576,2010-09-05 00:33:32,2641.3350389705884,7,32,-1.099568486213684,3.548224925994873,33.798728941918604,33.5583102627885,134.49127645845536,122.90678544576436,-9.713172767078504e-05,0.0908498615026474,0,0,0
11389,385417.0833919079,2010-09-05 00:34:02,2671.350327805839,7,32,-1.0993878841400146,3.544501543045044,33.798728941918604,33.56747796747688,134.49127645845536,122.93929676955182,-9.713172767078504e-05,0.0908498615026474,0,0,0
11390,385447.0984573916,2010-09-05 00:34:32,2701.3653932944417,7,32,-1.0993878841400146,3.540616273880005,33.798728941918604,33.57664553270607,134.49127645845536,122.97177258220856,-9.713172767078504e-05,0.0908498615026474,0,0,0
11391,385477.1136067341,2010-09-05 00:35:02,2731.380542637034,7,32,-1.0997490882873535,3.536245346069336,33.798728941918604,33.58581321847641,134.49127645845536,123.00421248239375,-0.0001618862152099,0.0908498615026474,0,0,0
11392,385507.1289153336,2010-09-05 00:35:32,2761.395851236543,7,32,-1.0993878841400146,3.532198190689087,33.798728941918604,33.59498097152148,134.49127645845536,123.03661492580709,-0.0001295089750783,0.0908498615026474,0,0,0
11393,385537.143953073,2010-09-05 00:36:02,2791.4108889759864,7,32,-1.099568486213684,3.528151035308838,33.798728941918604,33.60414856262368,134.49127645845536,123.06897798101052,-6.47544875391759e-05,0.0908498615026474,0,0,0
11394,385567.15915349295,2010-09-05 00:36:32,2821.4260894259546,7,32,-1.099568486213684,3.523618221282959,33.798728941918604,33.613316289745626,134.49127645845536,123.10130120870129,-9.713172767078504e-05,0.0908498615026474,0,0,0
11395,385597.1743001939,2010-09-05 00:37:02,2851.441236096888,7,32,-1.099568486213684,3.51876163482666,33.798728941918604,33.62248392685949,134.49127645845536,123.13358221860403,-0.0001295089750783,0.0908498615026474,0,0,0
11396,385627.18946902006,2010-09-05 00:37:32,2881.456404923039,7,32,-1.099568486213684,3.5139050483703613,33.798728941918604,33.63165157619195,134.49127645845536,123.16581937848495,-0.0001295089750783,0.0908498615026474,0,0,0
11397,385657.20463819214,2010-09-05 00:38:02,2911.4715740950523,7,32,-1.099568486213684,3.5087249279022217,33.798728941918604,33.64081920045594,134.49127645845536,123.19801006012987,-9.713172767078504e-05,0.0908498615026474,0,0,0
11398,385687.2198246773,2010-09-05 00:38:32,2941.486760580215,7,32,-1.0997490882873535,3.502897024154663,33.798728941918604,33.64998691278812,134.49127645845536,123.2301516364542,-0.0001942634553415,0.0908498615026474,0,0,0
11399,385717.2349873381,2010-09-05 00:39:02,2971.5019232410004,7,32,-1.0997490882873535,3.4970691204071045,33.798728941918604,33.65915454424887,134.49127645845536,123.26224029324946,-0.0001942634553415,0.0908498615026474,0,0,0
11400,385747.2501562144,2010-09-05 00:39:32,3001.517092117277,7,32,-1.0997490882873535,3.490593671798706,33.798728941918604,33.66832223522614,134.49127645845536,123.29427202874427,-0.0001942634553415,0.0908498615026474,0,0,0
11401,385777.2654873099,2010-09-05 00:40:02,3031.5324232228786,7,32,-1.099568486213684,3.483308792114258,33.798728941918604,33.677489928979625,134.49127645845536,123.32624098046152,-0.0002266406954731,0.0908498615026474,0,0,0
11402,385807.28084791405,2010-09-05 00:40:32,3061.547783842037,7,32,-1.099568486213684,3.47521448135376,33.798728941918604,33.6866575125602,134.49127645845536,123.35813833766966,-0.0001942634553415,0.0908498615026474,0,0,0
11403,385837.2956790535,2010-09-05 00:41:02,3091.562614956507,7,32,-1.099568486213684,3.465825080871582,33.798728941918604,33.69582499786951,134.49127645845536,123.3899544356824,-0.0002590179501567,0.0908498615026474,0,0,0
11404,385867.3108330026,2010-09-05 00:41:32,3121.577768910593,7,32,-1.099568486213684,3.454169273376465,33.798728941918604,33.70499261914541,134.49127645845536,123.4216763885269,-0.0003561496851034,0.0908498615026474,0,0,0
11405,385897.32600408944,2010-09-05 00:42:02,3151.5929399973784,7,32,-1.0993878841400146,3.440570831298828,33.798728941918604,33.71416024807763,134.49127645845536,123.45328377009469,-0.0003885269106831,0.0908498615026474,0,0,0
11406,385927.3411900783,2010-09-05 00:42:32,3181.608125981292,7,32,-1.099568486213684,3.4227635860443115,33.798728941918604,33.72332791275904,134.49127645845536,123.48474759724796,-0.0005180359003134,0.0908498615026474,0,0,0
11407,385957.35634340585,2010-09-05 00:43:02,3211.623279308816,7,32,-1.099568486213684,3.399290084838867,33.798728941918604,33.73249560429269,134.49127645845536,123.51602469330652,-0.0007446765666827,0.0908498615026474,0,0,0
11408,385987.3715463721,2010-09-05 00:43:32,3241.6384822750547,7,32,-1.099568486213684,3.367074728012085,33.798728941918604,33.741663289069045,134.49127645845536,123.54704975657052,-0.0010036944877356,0.0908498615026474,0,0,0
11409,386017.3866821058,2010-09-05 00:44:02,3271.6536180087296,7,32,-1.099568486213684,3.321746826171875,33.798728941918604,33.75083093561083,134.49127645845536,123.57772271817444,-0.0013598442310467,0.0908498615026474,0,0,0
11410,386047.4020045498,2010-09-05 00:44:32,3301.668940457756,7,32,-1.099568486213684,3.25618314743042,33.798728941918604,33.75999858580931,134.49127645845536,123.60789251950536,-0.0020397664047777,0.0908498615026474,0,0,0
11411,386077.4170363544,2010-09-05 00:45:02,3331.6839722573955,7,32,-1.0997490882873535,3.1587278842926025,33.798728941918604,33.769166228932576,134.49127645845536,123.63732799773898,-0.0030758380889892,0.0908498615026474,0,0,0
11412,386107.43228156096,2010-09-05 00:45:32,3361.69921746391,7,32,-1.0997490882873535,2.9939281940460205,33.798728941918604,33.77833398240999,134.49127645845536,123.66561421533112,-0.0059250355698168,0.0908498615026474,0,0,0
11413,386125.2601814981,2010-09-05 00:45:50,3379.527117411086,7,32,-1.099568486213684,2.793351650238037,33.798728941918604,33.78377924908378,134.49127645845536,123.68142849163772,-0.0112672802060842,0.0908498615026474,0,0,0
11414,386131.3224749938,2010-09-05 00:45:56,3385.589410901786,7,32,-1.0997490882873535,2.699781894683838,33.798728941918604,33.785630879773905,134.49127645845536,123.6865156537131,-0.0125946998596191,0.0908498615026474,0,0,0
11415,386191.3410063378,2010-09-05 00:46:56,60.01467479564453,8,32,0.0,3.424706220626831,33.798728941918604,33.785630879773905,134.49127645845536,123.6865156537131,0.0012627125252038,0.0908498615026474,0,0,0
11416,386191.53352561005,2010-09-05 00:46:57,0.187744081017305,9,32,-1.9243103452026844e-05,3.424868106842041,33.798728941918604,33.785630880777454,134.49127645845536,123.68651565715012,0.0,0.0851717442274093,0,0,0
11417,386196.3459194512,2010-09-05 00:47:01,5.000137957293562,9,32,0.0007031940040178,3.43231463432312,33.798729848172904,33.78563088094327,134.49127956614078,123.68651565771803,0.001068401383236,0.0851717442274093,0,0,0
